Dividing Wavelength (nm)	Counts (n)	Blue Motor Position (mm): 20.000000	Red Motor Position (mm): 0.000000	
326.493990	2155.998156
326.888308	2155.998156
327.282561	2155.998156
327.676750	2131.374640
328.070874	2131.293982
328.464933	2136.486370
328.858929	2147.564306
329.252859	2159.486635
329.646726	2171.570281
330.040528	2188.760615
330.434265	2205.338450
330.827938	2224.313353
331.221547	2243.714233
331.615091	2261.620412
332.008571	2283.975408
332.401986	2306.663121
332.795338	2326.000988
333.188625	2345.159893
333.581847	2363.633201
333.975006	2381.914945
334.368100	2403.632236
334.761129	2422.077818
335.154095	2437.864191
335.546996	2457.890175
335.939833	2486.355050
336.332606	2498.383243
336.725315	2511.961591
337.117960	2519.372087
337.510540	2529.124199
337.903056	2538.162988
338.295508	2543.662887
338.687896	2551.060780
339.080220	2557.999929
339.472480	2565.491083
339.864676	2565.584345
340.256807	2569.765982
340.648875	2571.946281
341.040879	2574.562640
341.432818	2578.787127
341.824694	2576.004410
342.216506	2575.621282
342.608253	2576.218659
342.999937	2575.792681
343.391557	2575.704461
343.783113	2576.485840
344.174605	2572.344532
344.566033	2571.953842
344.957397	2568.437638
345.348697	2565.846485
345.739934	2562.829354
346.131106	2563.426731
346.522215	2563.635939
346.913260	2561.891699
347.304241	2557.490772
347.695159	2556.777449
348.086012	2557.019424
348.476802	2553.344423
348.867528	2552.956254
349.258191	2550.241593
349.648789	2551.655637
350.039324	2549.107333
350.429796	2551.277550
350.820203	2548.575492
351.210548	2548.250337
351.600828	2544.598021
351.991045	2546.269164
352.381198	2546.992569
352.771288	2543.680531
353.161314	2542.092568
353.551276	2542.392516
353.941175	2544.310675
354.331010	2544.623227
354.720782	2544.769420
355.110490	2545.029040
355.500135	2542.788247
355.889717	2545.064328
356.279235	2545.326468
356.668689	2547.534493
357.058080	2547.957950
357.447408	2544.255223
357.836672	2544.242620
358.225873	2543.957795
358.615010	2544.005686
359.004084	2547.610111
359.393095	2546.821170
359.782043	2550.576830
360.170927	2550.158414
360.559748	2550.765873
360.948505	2550.579350
361.337199	2550.218908
361.725830	2550.796120
362.114398	2551.774104
362.502903	2555.582695
362.891344	2551.574978
363.279722	2552.812581
363.668037	2555.368446
364.056289	2553.722510
364.444478	2555.756615
364.832603	2558.446071
365.220665	2554.345092
365.608665	2557.795762
365.996601	2554.491286
366.384474	2556.752243
366.772284	2556.734599
367.160031	2556.432130
367.547715	2557.296688
367.935336	2556.152346
368.322893	2558.640155
368.710388	2558.080587
369.097820	2560.822975
369.485189	2559.471946
369.872495	2561.385063
370.259738	2558.849363
370.646918	2559.247614
371.034035	2559.529919
371.421090	2558.579661
371.808081	2562.584858
372.195010	2558.942624
372.581875	2560.709549
372.968678	2561.027142
373.355418	2562.657955
373.742096	2561.518654
374.128710	2561.841288
374.515262	2563.363716
374.901751	2565.415466
375.288177	2563.388922
375.674540	2560.170145
376.060841	2563.925805
376.447079	2565.889334
376.833254	2562.363047
377.219367	2560.762481
377.605417	2561.347255
377.991404	2560.875907
378.377329	2561.342214
378.763191	2560.071843
379.148991	2567.512586
379.534727	2565.488563
379.920402	2565.032338
380.306013	2564.455126
380.691563	2564.654252
381.077049	2565.380178
381.462474	2568.054510
381.847835	2567.923440
382.233134	2565.889334
382.618371	2568.445199
383.003545	2567.389078
383.388657	2567.605847
383.773706	2568.024263
384.158693	2569.115673
384.543618	2567.522668
384.928480	2567.777247
385.313280	2571.038873
385.698017	2568.959397
386.082692	2567.505024
386.467305	2570.131465
386.851856	2571.230437
387.236344	2568.765313
387.620770	2570.083574
388.005133	2569.423183
388.389435	2570.842268
388.773674	2570.360838
389.157851	2569.675241
389.541965	2571.739593
389.926018	2571.240519
390.310008	2572.236147
390.693936	2571.739593
391.077802	2571.994172
391.461606	2571.759758
391.845348	2574.126580
392.229027	2571.721949
392.612645	2575.739749
392.996200	2573.854357
393.379694	2573.166240
393.763125	2574.620613
394.146494	2573.393092
394.529801	2575.238154
394.913047	2574.371076
395.296230	2574.877712
395.679351	2575.313772
396.062410	2577.236972
396.445408	2575.059193
396.828343	2572.026939
397.211217	2572.309244
397.594028	2572.228585
397.976778	2572.858730
398.359466	2573.224213
398.742092	2571.301013
399.124656	2574.970973
399.507158	2574.882753
399.889598	2578.255285
400.271977	2574.978535
400.654294	2578.822415
401.036549	2572.891497
401.418742	2577.456262
401.800874	2577.065572
402.182944	2576.478278
402.564952	2576.969791
402.946898	2580.259143
403.328783	2577.519276
403.710606	2578.351067
404.092367	2579.800398
404.474067	2577.226889
404.855705	2577.431056
405.237282	2578.414081
405.618797	2578.401478
406.000250	2578.562795
406.381642	2579.991962
406.762972	2579.147569
407.144240	2577.935172
407.525447	2583.540935
407.906593	2578.676221
408.287677	2581.501788
408.668700	2581.683269
409.049661	2583.790472
409.430560	2582.552868
409.811399	2582.041191
410.192176	2581.552199
410.572891	2581.501788
410.953545	2582.237796
411.334138	2580.876685
411.714669	2581.789134
412.095139	2579.674370
412.475547	2583.147725
412.855894	2579.553382
413.236180	2582.328537
413.616405	2581.332909
413.996568	2582.542786
414.376670	2582.545307
414.756711	2583.344330
415.136691	2582.401634
415.516609	2582.469689
415.896466	2585.259968
416.276262	2582.787282
416.655997	2580.775862
417.035670	2581.224524
417.415283	2580.584298
417.794834	2580.705286
418.174324	2581.151428
418.553753	2582.920873
418.933121	2586.356419
419.312428	2584.055132
419.691674	2586.152252
420.070859	2586.363981
420.449983	2584.743250
420.829045	2586.689135
421.208047	2584.970102
421.586988	2586.190061
421.965867	2588.425813
422.344686	2585.033116
422.723444	2586.933631
423.102141	2584.816347
423.480777	2585.103692
423.859352	2585.799372
424.237866	2586.621080
424.616319	2586.719382
424.994712	2586.908425
425.373044	2588.105699
425.751314	2586.207705
426.129524	2585.723754
426.507673	2588.438416
426.885762	2586.336254
427.263789	2587.014290
427.641756	2588.556883
428.019662	2589.645772
428.397508	2585.196954
428.775292	2586.820205
429.153016	2589.885227
429.530679	2590.217943
429.908282	2586.651327
430.285824	2588.156111
430.663305	2591.311873
431.040726	2589.219794
431.418086	2587.871286
431.795385	2590.245669
432.172624	2588.864393
432.549802	2586.293405
432.926920	2587.541090
433.303977	2589.388673
433.680974	2591.085021
434.057910	2591.039651
434.434786	2586.167376
434.811601	2588.597212
435.188355	2589.950762
435.565050	2589.963365
435.941683	2591.447984
436.318257	2586.855493
436.694770	2585.106213
437.071222	2587.218456
437.447614	2588.710638
437.823946	2585.890112
438.200218	2591.130392
438.576429	2590.306163
438.952580	2592.665423
439.328670	2592.587285
439.704700	2590.918663
440.080670	2593.575351
440.456580	2593.096442
440.832429	2594.480238
441.208218	2590.691811
441.583947	2592.156267
441.959616	2590.273396
442.335224	2592.126020
442.710773	2590.527974
443.086261	2593.509816
443.461689	2594.621391
443.837057	2593.068715
444.212365	2591.977306
444.587612	2594.122317
444.962800	2592.541915
445.337927	2592.937645
445.712995	2593.053592
446.088002	2593.645927
446.462949	2595.659868
446.837837	2595.596854
447.212664	2596.637852
447.587431	2593.169538
447.962139	2596.494179
448.336786	2594.341607
448.711374	2593.466967
449.085901	2599.014756
449.460369	2594.777667
449.834776	2594.926381
450.209124	2594.669282
450.583412	2597.109200
450.957640	2595.564087
451.331808	2596.910075
451.705917	2593.940835
452.079965	2595.312029
452.453954	2597.978799
452.827883	2598.664396
453.201752	2595.712801
453.575562	2598.329159
453.949311	2596.673140
454.323001	2598.694643
454.696632	2597.676330
455.070202	2600.562391
455.443713	2600.007864
455.817164	2595.039807
456.190556	2594.001329
456.563888	2596.705908
456.937160	2596.194231
457.310373	2599.470981
457.683526	2598.722369
458.056619	2597.804879
458.429653	2599.496187
458.802628	2603.425766
459.175542	2598.067019
459.548398	2600.895107
459.921194	2600.441403
460.293930	2600.075919
460.666607	2599.924685
461.039224	2602.047010
461.411782	2602.472988
461.784280	2604.212186
462.156719	2603.685385
462.529099	2601.631115
462.901419	2603.960128
463.273680	2603.340066
463.645882	2604.736466
464.018024	2604.088678
464.390106	2604.141610
464.762130	2605.167485
465.134094	2606.896600
465.505999	2608.323247
465.877845	2610.566560
466.249631	2610.881632
466.621358	2611.710902
466.993026	2612.028495
467.364634	2613.167796
467.736184	2609.036570
468.107674	2609.785182
468.479105	2608.078751
468.850477	2610.342229
469.221790	2609.495315
469.593043	2607.645212
469.964238	2609.984307
470.335373	2607.148658
470.706449	2609.785182
471.077467	2610.622013
471.448425	2612.136880
471.819324	2614.740636
472.190164	2617.122581
472.560945	2615.461521
472.931667	2612.610748
473.302330	2613.283742
473.672934	2611.415995
474.043479	2614.599483
474.413965	2614.647374
474.784393	2608.444235
475.154761	2609.896087
475.525070	2613.563526
475.895321	2611.088320
476.265513	2612.719133
476.635645	2618.019906
477.005719	2616.857920
477.375734	2617.697272
477.745691	2618.299690
478.115588	2621.551235
478.485427	2621.357150
478.855207	2625.082563
479.224928	2625.087604
479.594591	2627.013325
479.964194	2629.077677
480.333739	2628.061885
480.703226	2632.488018
481.072653	2630.748820
481.442022	2632.397277
481.811333	2633.939870
482.180584	2633.586989
482.549777	2634.504479
482.918912	2633.899541
483.287988	2635.671507
483.657005	2634.305354
484.025964	2638.497073
484.394864	2637.264511
484.763706	2641.010088
485.132489	2638.895324
485.501213	2641.320119
485.869879	2640.957156
486.238487	2642.199801
486.607036	2646.661222
486.975527	2645.151396
487.343959	2650.000986
487.712333	2647.518218
488.080648	2652.067859
488.448905	2657.434168
488.817104	2660.715959
489.185244	2663.420538
489.553326	2667.405570
489.921350	2670.178205
490.289315	2684.283353
490.657222	2688.679239
491.025070	2694.804241
491.392861	2697.362627
491.760593	2698.693491
492.128267	2697.218954
492.495883	2700.273893
492.863440	2699.931095
493.230939	2702.295396
493.598380	2702.716332
493.965763	2705.332691
494.333088	2706.608103
494.700354	2711.518187
495.067563	2716.783672
495.434713	2717.935576
495.801805	2731.297154
496.168839	2738.863926
496.535815	2740.877867
496.902733	2751.315576
497.269593	2756.281112
497.636395	2761.317225
498.003139	2771.581014
498.369825	2776.009668
498.736453	2788.413427
499.103023	2795.627318
499.469535	2803.620067
499.835989	2812.421922
500.202385	2824.926504
500.568723	2832.631908
500.935003	2844.997858
501.301226	2856.932790
501.667390	2874.876777
502.033497	2891.522667
502.399546	2899.593554
502.765537	2907.651839
503.131470	2925.978954
503.497345	2942.632405
503.863163	2948.205401
504.228923	2965.383133
504.594625	2987.775938
504.960269	3001.593741
505.325856	3024.651978
505.691385	3036.682692
506.056856	3056.083573
506.422270	3078.564598
506.787625	3096.659820
507.152924	3114.213118
507.518164	3140.134731
507.883347	3154.766680
508.248472	3178.281142
508.613540	3206.325081
508.978550	3233.547312
509.343503	3256.857607
509.708398	3286.444139
510.073236	3319.110816
510.438016	3345.024867
510.802738	3362.890716
511.167403	3402.466295
511.532010	3436.420986
511.896561	3474.269969
512.261053	3521.117412
512.625488	3539.036193
512.989866	3571.695309
513.354186	3599.580451
513.718449	3631.503558
514.082655	3684.775951
514.446803	3714.274263
514.810894	3762.437447
515.174927	3798.096048
515.538904	3832.766584
515.902822	3891.223804
516.266684	3913.346908
516.630488	3970.443016
516.994235	4007.881145
517.357925	4062.106317
517.721558	4117.039770
518.085133	4170.168490
518.448651	4220.355698
518.812112	4253.561778
519.175516	4302.498779
519.538863	4366.289540
519.902152	4410.843257
520.265385	4482.294051
520.628560	4535.110220
520.991678	4572.079522
521.354739	4635.560252
521.717743	4704.548442
522.080690	4752.625926
522.443580	4834.705993
522.806413	4892.994335
523.169189	4945.205565
523.531908	5013.452706
523.894569	5063.647475
524.257174	5119.200990
524.619722	5203.728537
524.982213	5261.976549
525.344647	5316.597451
525.707025	5377.943252
526.069345	5465.777796
526.431608	5519.113204
526.793815	5602.992963
527.155964	5637.431605
527.518057	5709.371391
527.880093	5763.276449
528.242072	5857.919072
528.603995	5898.898611
528.965860	5969.215146
529.327669	6045.044182
529.689421	6096.040494
530.051117	6166.357029
530.412755	6244.169759
530.774337	6312.479914
531.135862	6363.148551
531.497331	6449.422858
531.858743	6501.046794
532.220098	6603.951868
532.581396	6647.983826
532.942638	6681.051275
533.303824	6775.315810
533.664953	6838.983063
534.026025	6886.379991
534.387040	7002.659246
534.747999	7056.539098
535.108902	7149.140053
535.469748	7163.212434
535.830537	7246.225115
536.191270	7332.653177
536.551947	7370.701285
536.912567	7463.178732
537.273131	7545.284005
537.633638	7560.810759
537.994089	7657.328690
538.354483	7682.415992
538.714821	7817.037485
539.075103	7923.751150
539.435328	7966.149775
539.795497	8020.029627
540.155609	8091.074608
540.515665	8209.100623
540.875665	8199.875311
541.235609	8318.014752
541.595496	8367.675158
541.955328	8526.136268
542.315102	8512.570523
542.674821	8547.977067
543.034483	8619.435422
543.394090	8687.801030
543.753640	8736.014626
544.113134	8940.133465
544.472571	8868.786015
544.831953	9099.481818
545.191278	9056.276609
545.550548	9076.398374
545.909761	9211.362666
546.268918	9300.447416
546.628019	9402.563549
546.987064	9402.334176
547.346053	9364.994350
547.704986	9544.522441
548.063863	9533.938539
548.422684	9620.066652
548.781449	9658.117281
549.140158	9778.943657
549.498811	9809.354417
549.857408	9770.958469
550.215949	9964.054826
550.574434	10007.002936
550.932864	10020.883753
551.291237	10208.613802
551.649555	10185.653867
552.007817	10288.107757
552.366022	10285.030133
552.724173	10361.945537
553.082267	10472.951745
553.440305	10597.097720
553.798288	10520.310865
554.156215	10623.513366
554.514086	10711.950328
554.871902	10714.193642
555.229661	10777.755030
555.587365	10789.818511
555.945014	10846.778508
556.302606	10874.434278
556.660143	10972.850204
557.017625	11047.436596
557.375050	11059.326157
557.732421	11179.141782
558.089735	11228.787065
558.446994	11247.096535
558.804197	11380.137627
559.161345	11420.272773
559.518437	11303.630555
559.875474	11424.351066
560.232455	11491.756334
560.589381	11575.651217
560.946251	11556.310830
561.303065	11738.805640
561.659825	11733.358674
562.016528	11700.686956
562.373177	11687.128772
562.729770	11830.176554
563.086307	11763.353539
563.442789	11879.279913
563.799216	11949.498145
564.155587	11928.821852
564.511904	11983.450316
564.868164	12028.631657
565.224370	12101.781320
565.580520	12095.484919
565.936615	12182.502796
566.292654	12139.786579
566.648638	12230.247564
567.004567	12264.182091
567.360441	12293.128397
567.716260	12290.446503
568.072023	12390.314281
568.427732	12401.253585
568.783385	12337.082217
569.138982	12461.941516
569.494525	12487.129641
569.850013	12459.284828
570.205445	12475.298053
570.560823	12508.718382
570.916145	12492.548881
571.271412	12518.336904
571.626625	12491.396977
571.981782	12517.384126
572.336884	12474.662867
572.691931	12587.572111
573.046923	12496.896876
573.401860	12497.579953
573.756743	12511.685101
574.111570	12554.272769
574.466342	12546.300184
574.821059	12604.863268
575.175722	12508.776355
575.530330	12530.959953
575.884882	12488.705001
576.239380	12504.750994
576.593823	12498.729336
576.948211	12507.367353
577.302544	12410.110892
577.656823	12443.019545
578.011047	12506.858196
578.365216	12467.612814
578.719330	12423.714446
579.073389	12401.679563
579.427394	12421.806369
579.781344	12422.645721
580.135239	12357.700536
580.489080	12385.878066
580.842866	12279.771860
581.196597	12391.256977
581.550273	12373.907846
581.903895	12350.370699
582.257463	12461.008902
582.610975	12318.621512
582.964434	12389.941236
583.317837	12317.998929
583.671186	12288.372068
584.024481	12337.858555
584.377721	12233.491547
584.730906	12318.286275
585.084037	12336.174809
585.437113	12270.324737
585.790135	12293.700568
586.143103	12205.049357
586.496016	12224.770351
586.848874	12240.103020
587.201679	12246.563259
587.554428	12132.650826
587.907124	12179.226046
588.259765	12123.460802
588.612352	12195.612317
588.964884	12060.756410
589.317362	12113.693567
589.669786	12102.295518
590.022155	12064.108777
590.374470	12172.702793
590.726731	12063.140876
591.078937	11953.425204
591.431090	11976.952269
591.783188	11916.861715
592.135232	11834.459014
592.487222	11903.006103
592.839157	11923.533682
593.191038	11859.236285
593.542866	11806.941876
593.894639	11664.534321
594.246358	11731.014537
594.598022	11735.065104
594.949633	11640.145218
595.301190	11622.271807
595.652692	11585.423493
596.004141	11676.524705
596.355535	11456.906838
596.706876	11443.265476
597.058162	11412.983264
597.409395	11505.516164
597.760573	11536.156297
598.111698	11427.698392
598.462768	11428.668815
598.813785	11445.329828
599.164748	11314.544653
599.515657	11390.628268
599.866511	11273.456729
600.217312	11407.211143
600.568060	11180.671772
600.918753	11344.577327
601.269392	11339.989877
601.619978	11242.599826
601.970510	11284.885025
602.320988	11329.020327
602.671412	11387.089378
603.021783	11316.891310
603.372100	11245.029662
603.722363	11265.216963
604.072572	11265.753846
604.422728	11275.324476
604.772830	11219.355066
605.122878	11227.851931
605.472872	11203.518281
605.822813	11263.923907
606.172701	11224.381096
606.522534	11270.825247
606.872314	11314.017853
607.222041	11242.090670
607.571714	11333.789258
607.921333	11195.016375
608.270899	11254.328071
608.620411	11315.409211
608.969870	11261.632702
609.319276	11246.564694
609.668627	11266.610842
610.017926	11337.176913
610.367171	11368.618590
610.716362	11356.177022
611.065500	11333.900163
611.414585	11351.324912
611.763616	11416.887638
612.112594	11380.125024
612.461518	11401.978426
612.810389	11453.070520
613.159207	11390.814790
613.507971	11387.437217
613.856682	11492.008392
614.205340	11448.730086
614.553945	11580.155488
614.902496	11464.783641
615.250994	11527.440142
615.599439	11516.253822
615.947830	11545.439582
616.296169	11508.722338
616.644454	11525.537106
616.992686	11540.204343
617.340864	11634.821760
617.688990	11518.580314
618.037063	11661.804536
618.385082	11618.669903
618.733048	11669.031030
619.080961	11659.717498
619.428821	11637.407872
619.776628	11643.268213
620.124382	11593.398599
620.472083	11615.743513
620.819731	11637.163376
621.167326	11557.442569
621.514868	11538.823067
621.862357	11442.075763
622.209793	11437.319435
622.557176	11364.058866
622.904506	11306.493931
623.251783	11227.728422
623.599007	11163.829277
623.946179	11110.859353
624.293297	11094.770510
624.640363	10948.350197
624.987376	10941.849629
625.334336	10876.722962
625.681243	10793.722885
626.028097	10761.930848
626.374899	10726.978008
626.721647	10704.996057
627.068343	10661.627010
627.414987	10598.262227
627.761577	10524.429487
628.108115	10571.786087
628.454600	10450.185894
628.801032	10461.289036
629.147412	10446.347056
629.493739	10416.581563
629.840014	10338.441157
630.186236	10378.099915
630.532405	10278.968145
630.878521	10317.326285
631.224585	10274.209296
631.570597	10204.220436
631.916556	10211.696468
632.262462	10201.389828
632.608316	10174.943935
632.954117	10156.092541
633.299866	10132.951124
633.645562	10114.389595
633.991206	10007.116362
634.336797	9911.762937
634.682336	9897.821626
635.027823	9846.699285
635.373257	9813.067227
635.718639	9740.187266
636.063968	9713.902690
636.409245	9591.228732
636.754470	9586.288401
637.099642	9533.754537
637.444762	9432.694525
637.789829	9440.825907
638.134845	9365.884113
638.479808	9340.459054
638.824719	9312.571391
639.169577	9226.357578
639.514383	9224.386487
639.859137	9154.296804
640.203839	9186.451804
640.548489	9112.752655
640.893086	9120.450497
