Dividing Wavelength (nm)	Counts (n)	Blue Motor Position (mm): 32.500000	Red Motor Position (mm): 0.000000	
326.493990	2155.680564
326.888308	2155.680564
327.282561	2155.680564
327.676750	2131.881276
328.070874	2132.496297
328.464933	2140.559623
328.858929	2145.759573
329.252859	2159.705925
329.646726	2173.143121
330.040528	2185.418330
330.434265	2206.197966
330.827938	2225.843343
331.221547	2244.926631
331.615091	2263.258787
332.008571	2285.790224
332.401986	2304.581125
332.795338	2323.407314
333.188625	2343.846672
333.581847	2364.354086
333.975006	2380.899153
334.368100	2401.467061
334.761129	2419.728640
335.154095	2434.927719
335.546996	2458.411934
335.939833	2491.875114
336.332606	2505.408091
336.725315	2517.990811
337.117960	2524.554393
337.510540	2533.159643
337.903056	2541.293545
338.295508	2546.823691
338.687896	2553.072201
339.080220	2561.800959
339.472480	2569.471074
339.864676	2569.952504
340.256807	2572.929306
340.648875	2579.465162
341.040879	2577.413412
341.432818	2581.985739
341.824694	2581.038002
342.216506	2582.235276
342.608253	2581.194277
342.999937	2579.029102
343.391557	2581.683269
343.783113	2575.094481
344.174605	2576.780747
344.566033	2574.867629
344.957397	2574.305541
345.348697	2570.839748
345.739934	2572.503328
346.131106	2568.795560
346.522215	2568.692216
346.913260	2564.311453
347.304241	2566.416135
347.695159	2559.862635
348.086012	2558.640155
348.476802	2558.267110
348.867528	2557.147974
349.258191	2557.188303
349.648789	2555.870041
350.039324	2551.229659
350.429796	2555.083621
350.820203	2555.338199
351.210548	2550.788558
351.600828	2549.828218
351.991045	2550.120605
352.381198	2550.869217
352.771288	2547.789072
353.161314	2549.266130
353.551276	2548.149514
353.941175	2551.476676
354.331010	2550.249155
354.720782	2549.674463
355.110490	2552.633620
355.500135	2550.223949
355.889717	2551.549772
356.279235	2549.238403
356.668689	2552.552962
357.058080	2552.419371
357.447408	2548.109185
357.836672	2547.829401
358.225873	2548.754452
358.615010	2548.217570
359.004084	2554.133364
359.393095	2550.876778
359.782043	2552.847869
360.170927	2554.854249
360.559748	2555.562531
360.948505	2554.019938
361.337199	2557.289126
361.725830	2557.732747
362.114398	2557.647048
362.502903	2558.892213
362.891344	2557.715103
363.279722	2558.529250
363.668037	2557.783159
364.056289	2559.469425
364.444478	2560.679302
364.832603	2557.379867
365.220665	2561.304405
365.608665	2559.991184
365.996601	2560.709549
366.384474	2561.778273
366.772284	2561.531257
367.160031	2560.444888
367.547715	2561.836247
367.935336	2563.709035
368.322893	2564.240877
368.710388	2562.720969
369.097820	2565.370096
369.485189	2565.304561
369.872495	2566.133830
370.259738	2563.635939
370.646918	2566.453944
371.034035	2564.742472
371.421090	2565.072667
371.808081	2566.612740
372.195010	2565.382698
372.581875	2564.288768
372.968678	2568.435117
373.355418	2565.402863
373.742096	2567.142061
374.128710	2566.786660
374.515262	2568.843451
374.901751	2567.620971
375.288177	2567.840261
375.674540	2566.821948
376.060841	2570.028122
376.447079	2568.735066
376.833254	2567.197514
377.219367	2565.274314
377.605417	2567.573080
377.991404	2566.713563
378.377329	2564.737431
378.763191	2565.967472
379.148991	2573.236816
379.534727	2569.173646
379.920402	2572.294120
380.306013	2568.540981
380.691563	2573.524162
381.077049	2570.648184
381.462474	2572.382341
381.847835	2573.710685
382.233134	2578.182188
382.618371	2573.861919
383.003545	2575.533062
383.388657	2573.256981
383.773706	2574.723957
384.158693	2574.875191
384.543618	2575.981724
384.928480	2574.141703
385.313280	2572.583987
385.698017	2576.281673
386.082692	2575.028946
386.467305	2577.708320
386.851856	2576.793350
387.236344	2576.536251
387.620770	2577.123546
388.005133	2574.527352
388.389435	2577.168916
388.773674	2578.361149
389.157851	2576.569019
389.541965	2578.381314
389.926018	2578.383834
390.310008	2578.409040
390.693936	2577.846951
391.077802	2581.012796
391.461606	2577.831828
391.845348	2579.220666
392.229027	2581.151428
392.612645	2580.720409
392.996200	2580.523804
393.379694	2580.367528
393.763125	2581.174113
394.146494	2580.065059
394.529801	2582.749473
394.913047	2580.584298
395.296230	2582.227714
395.679351	2581.015317
396.062410	2580.153279
396.445408	2583.024216
396.828343	2583.815677
397.211217	2579.747466
397.594028	2582.003383
397.976778	2580.387693
398.359466	2580.402816
398.742092	2578.847620
399.124656	2584.120667
399.507158	2585.953127
399.889598	2589.335741
400.271977	2587.273909
400.654294	2583.760225
401.036549	2586.747108
401.418742	2585.242324
401.800874	2584.385328
402.182944	2587.170565
402.564952	2587.180648
402.946898	2587.203333
403.328783	2585.290215
403.710606	2588.375401
404.092367	2590.880855
404.474067	2587.631831
404.855705	2588.637541
405.237282	2589.834815
405.618797	2587.470514
406.000250	2588.317428
406.381642	2589.872624
406.762972	2590.805237
407.144240	2591.974785
407.525447	2591.795824
407.906593	2592.882193
408.287677	2593.277923
408.668700	2591.916812
409.049661	2593.487131
409.430560	2590.288519
409.811399	2591.586616
410.192176	2591.379929
410.572891	2593.547625
410.953545	2595.364961
411.334138	2591.944538
411.714669	2592.746082
412.095139	2595.458222
412.475547	2594.240784
412.855894	2593.383787
413.236180	2593.819847
413.616405	2595.692636
413.996568	2594.868407
414.376670	2596.963007
414.756711	2598.697164
415.136691	2597.845209
415.516609	2599.614654
415.896466	2600.703543
416.276262	2601.895776
416.655997	2597.194900
417.035670	2602.183122
417.415283	2603.080447
417.794834	2606.755448
418.174324	2609.268463
418.553753	2611.862137
418.933121	2613.634102
419.312428	2616.235338
419.691674	2618.345061
420.070859	2621.778087
420.449983	2622.955196
420.829045	2627.860239
421.208047	2633.289561
421.586988	2639.371713
421.965867	2644.881695
422.344686	2648.241624
422.723444	2656.171359
423.102141	2655.896616
423.480777	2667.665189
423.859352	2674.483350
424.237866	2687.030782
424.616319	2693.581761
424.994712	2702.749100
425.373044	2711.911397
425.751314	2726.029148
426.129524	2731.536609
426.507673	2750.052767
426.885762	2760.556011
427.263789	2772.506066
427.641756	2784.667850
428.019662	2800.804583
428.397508	2811.963177
428.775292	2831.999243
429.153016	2846.308558
429.530679	2865.858153
429.908282	2878.455996
430.285824	2887.640979
430.663305	2920.148859
431.040726	2928.499531
431.418086	2941.840944
431.795385	2975.788074
432.172624	3001.334121
432.549802	3014.030267
432.926920	3031.497865
433.303977	3054.757749
433.680974	3081.927048
434.057910	3107.364710
434.434786	3131.708442
434.811601	3152.324241
435.188355	3206.819114
435.565050	3218.862430
435.941683	3241.424114
436.318257	3296.652475
436.694770	3321.253306
437.071222	3367.102600
437.447614	3363.868700
437.823946	3389.863410
438.200218	3425.612753
438.576429	3439.397788
438.952580	3477.551761
439.328670	3505.320957
439.704700	3549.816701
440.080670	3559.972105
440.456580	3614.038480
440.832429	3659.600429
441.208218	3631.097745
441.583947	3685.741332
441.959616	3718.962536
442.335224	3766.414917
442.710773	3799.293323
443.086261	3857.942106
443.461689	3854.287270
443.837057	3886.268350
444.212365	3962.006645
444.587612	3991.212570
444.962800	3995.497551
445.337927	4047.983524
445.712995	3995.212726
446.088002	4148.173936
446.462949	4193.849311
446.837837	4230.095207
447.212664	4250.138834
447.587431	4444.676961
447.962139	4701.866548
448.336786	4981.917768
448.711374	4993.938399
449.085901	4741.742075
449.460369	4718.903128
449.834776	4698.609963
450.209124	4916.347480
450.583412	4947.078354
450.957640	5069.747271
451.331808	4975.669258
451.705917	4871.483731
452.079965	4891.048449
452.453954	4943.547025
452.827883	4933.810037
453.201752	4952.411894
453.575562	4998.934183
453.949311	5138.309484
454.323001	5159.857896
454.696632	5167.419627
455.070202	5327.652702
455.443713	5370.953693
455.817164	5471.532273
456.190556	5550.426331
456.563888	5536.275812
456.937160	5623.873422
457.310373	5492.135469
457.683526	5560.934616
458.056619	5564.760852
458.429653	5559.787754
458.802628	5617.203976
459.175542	5653.989275
459.548398	5797.626872
459.921194	5988.353886
460.293930	6047.968051
460.666607	6302.969777
461.039224	6519.389033
461.411782	6655.041441
461.784280	6575.827270
462.156719	6591.021308
462.529099	6553.971348
462.901419	6422.777840
463.273680	6305.951620
463.645882	6302.589170
464.018024	6305.994470
464.390106	6382.161263
464.762130	6644.323948
465.134094	7030.229316
465.505999	7664.938312
465.877845	8361.063685
466.249631	8710.569402
466.621358	8635.773802
466.993026	8444.910676
467.364634	8241.122032
467.736184	7963.780432
468.107674	7809.836197
468.479105	7732.280566
468.850477	7668.872933
469.221790	7501.196594
469.593043	7281.435054
469.964238	7183.992070
470.335373	7159.449213
470.706449	7315.843449
471.077467	7507.588777
471.448425	8167.372472
471.819324	8746.472499
472.190164	8778.025081
472.560945	8298.628994
472.931667	7829.042993
473.302330	7638.656256
473.672934	7521.850201
474.043479	7595.824093
474.413965	7500.745411
474.784393	7452.211702
475.154761	7601.891121
475.525070	7612.424612
475.895321	7573.942964
476.265513	7675.464241
476.635645	7834.016091
477.005719	7826.088877
477.375734	7909.600632
477.745691	8021.937704
478.115588	8221.973209
478.485427	8461.579251
478.855207	8932.024769
479.224928	9365.445533
479.594591	9746.909645
479.964194	9755.272919
480.333739	9838.754427
480.703226	9849.955870
481.072653	9939.849726
481.442022	10061.490248
481.811333	10209.392660
482.180584	10048.627743
482.549777	9988.527107
482.918912	9928.371018
483.287988	9911.465509
483.657005	9823.820008
484.025964	9739.531916
484.394864	9802.521133
484.763706	9760.669474
485.132489	9669.490124
485.501213	9656.516715
485.869879	9720.249503
486.238487	9657.603084
486.607036	9745.571218
486.975527	9684.371611
487.343959	9747.325540
487.712333	9791.909504
488.080648	9830.595319
488.448905	9932.434188
488.817104	9939.955590
489.185244	10110.633936
489.553326	10321.084465
489.921350	10791.207349
490.289315	11419.095663
490.657222	11708.944366
491.025070	11883.459029
491.392861	11796.161368
491.760593	11637.269240
492.128267	11385.534182
492.495883	11156.466672
492.863440	10925.425550
493.230939	10688.350167
493.598380	10514.876501
493.965763	10483.986831
494.333088	10350.134114
494.700354	10289.486512
495.067563	10264.878120
495.434713	10269.944480
495.801805	10309.658690
496.168839	10265.775445
496.535815	10234.018697
496.902733	10279.242888
497.269593	10240.138658
497.636395	10252.126521
498.003139	10356.841369
498.369825	10280.788002
498.736453	10370.006342
499.103023	10320.285442
499.469535	10323.509260
499.835989	10379.166119
500.202385	10351.364155
500.568723	10369.736641
500.935003	10437.580489
501.301226	10398.617411
501.667390	10567.959851
502.033497	10664.722278
502.399546	10589.110012
502.765537	10504.862249
503.131470	10605.952507
503.497345	10685.411174
503.863163	10459.292739
504.228923	10605.886972
504.594625	10718.695392
504.960269	10628.161310
505.325856	10784.905907
505.691385	10660.381845
506.056856	10729.627134
506.422270	10822.674231
506.787625	10760.783986
507.152924	10810.328446
507.518164	10881.534744
507.883347	10737.037630
508.248472	10817.948150
508.613540	10919.058572
508.978550	10997.592188
509.343503	10984.696916
509.708398	11031.703155
510.073236	11157.986579
510.438016	11172.227839
510.802738	11088.927813
511.167403	11223.554347
511.532010	11278.830599
511.896561	11379.131916
512.261053	11565.062273
512.625488	11483.312402
512.989866	11475.238994
513.354186	11451.916096
513.718449	11465.300359
514.082655	11602.460073
514.446803	11564.346429
514.810894	11663.382417
515.174927	11661.476861
515.538904	11649.360448
515.902822	11803.128243
516.266684	11679.272134
516.630488	11778.582865
516.994235	11768.586257
517.357925	11878.942156
517.721558	11946.944800
518.085133	12005.679284
518.448651	12033.435877
518.812112	12002.889005
519.175516	12004.981084
519.538863	12100.909201
519.902152	12103.195364
520.265385	12217.266593
520.628560	12241.562434
520.991678	12187.319619
521.354739	12236.299469
521.717743	12310.719503
522.080690	12286.630349
522.443580	12413.536356
522.806413	12437.343205
523.169189	12433.093513
523.531908	12493.688182
523.894569	12445.267899
524.257174	12458.349693
524.619722	12571.899163
524.982213	12543.721634
525.344647	12533.921631
525.707025	12542.932693
526.069345	12649.411945
526.431608	12625.814304
526.793815	12707.909494
527.155964	12603.769338
527.518057	12636.098258
527.880093	12590.732914
528.242072	12714.815875
528.603995	12638.646561
528.965860	12654.609374
529.327669	12678.111234
529.689421	12621.453706
530.051117	12634.462403
530.412755	12677.312211
530.774337	12683.149867
531.135862	12638.891057
531.497331	12698.437166
531.858743	12649.081749
532.220098	12741.133218
532.581396	12676.815657
532.942638	12600.858072
533.303824	12660.293275
533.664953	12647.639979
534.026025	12594.160899
534.387040	12700.468751
534.747999	12671.030933
535.108902	12723.282493
535.469748	12595.453955
535.830537	12629.380920
536.191270	12668.142352
536.551947	12593.253491
536.912567	12650.180721
537.273131	12683.754805
537.633638	12564.781054
537.994089	12633.567598
538.354483	12536.782486
538.714821	12666.652691
539.075103	12751.308787
539.435328	12681.382943
539.795497	12668.908607
540.155609	12656.862770
540.515665	12757.088470
540.875665	12613.723096
541.235609	12719.612533
541.595496	12677.178620
541.955328	12851.915095
542.315102	12705.116695
542.674821	12643.622180
543.034483	12661.772854
543.394090	12656.277996
543.753640	12633.625572
544.113134	12869.828835
544.472571	12629.484264
544.831953	12914.705187
545.191278	12720.943397
545.550548	12663.685972
545.909761	12769.552723
546.268918	12814.933190
546.628019	12880.420299
546.987064	12760.602155
547.346053	12614.912808
547.704986	12815.558293
548.063863	12696.105632
548.422684	12751.147471
548.781449	12706.203063
549.140158	12803.973722
549.498811	12749.080598
549.857408	12627.104839
550.215949	12834.487826
550.574434	12800.485243
550.932864	12737.059966
551.291237	12936.871140
551.649555	12818.434272
552.007817	12883.598747
552.366022	12795.935602
552.724173	12842.833456
553.082267	12939.502622
553.440305	13028.496632
553.798288	12843.183816
554.156215	12919.557297
554.514086	12970.077220
554.871902	12909.953899
555.229661	12928.001230
555.587365	12890.873132
555.945014	12900.358063
556.302606	12883.674364
556.660143	12940.089917
557.017625	12978.190958
557.375050	12936.553547
557.732421	13038.044577
558.089735	13032.340512
558.446994	13000.787930
558.804197	13125.100263
559.161345	13117.130199
559.518437	12925.006784
559.875474	13030.961756
560.232455	13053.886403
560.589381	13104.055966
560.946251	13040.600442
561.303065	13206.086399
561.659825	13157.560252
562.016528	13076.322058
562.373177	13025.446734
562.729770	13154.286023
563.086307	13026.568390
563.442789	13142.290597
563.799216	13181.747709
564.155587	13121.881486
564.511904	13154.346517
564.868164	13156.743586
565.224370	13216.496382
565.580520	13160.395902
565.936615	13227.622209
566.292654	13169.389320
566.648638	13228.632960
567.004567	13229.200090
567.360441	13234.236203
567.716260	13201.980380
568.072023	13292.471612
568.427732	13275.961833
568.783385	13166.359587
569.138982	13284.955251
569.494525	13275.170372
569.850013	13229.454668
570.205445	13213.050753
570.560823	13229.512641
570.916145	13190.741127
571.271412	13193.702805
571.626625	13155.720231
571.981782	13149.557421
572.336884	13099.652518
572.691931	13188.354141
573.046923	13077.315166
573.401860	13054.249366
573.756743	13046.354919
574.111570	13083.243562
574.466342	13055.696177
574.821059	13102.432715
575.175722	12975.559475
575.530330	13002.305317
575.884882	12935.857868
576.239380	12932.450048
576.593823	12912.658478
576.948211	12905.726892
577.302544	12782.909260
577.656823	12804.626551
578.011047	12853.089684
578.365216	12802.438690
578.719330	12736.326478
579.073389	12709.580637
579.427394	12715.998025
579.781344	12713.842932
580.135239	12653.212975
580.489080	12662.029953
580.842866	12545.841439
581.196597	12638.891057
581.550273	12637.794606
581.903895	12599.552413
582.257463	12705.739277
582.610975	12548.102397
582.964434	12607.033485
583.317837	12535.055890
583.671186	12482.038075
584.024481	12539.711396
584.377721	12422.744024
584.730906	12497.751352
585.084037	12508.917508
585.437113	12427.765013
585.790135	12460.025877
586.143103	12363.218079
586.496016	12386.208261
586.848874	12390.987275
587.201679	12389.270762
587.554428	12269.124943
587.907124	12316.060606
588.259765	12246.790111
588.612352	12318.553456
588.964884	12177.426354
589.317362	12237.952968
589.669786	12227.865619
590.022155	12186.931450
590.374470	12288.992130
590.726731	12177.688494
591.078937	12058.823128
591.431090	12086.025194
591.783188	12013.072136
592.135232	11941.086980
592.487222	11997.658808
592.839157	12011.806806
593.191038	11941.344078
593.542866	11886.125800
593.894639	11739.143398
594.246358	11795.858899
594.598022	11803.660085
594.949633	11709.602236
595.301190	11698.342819
595.652692	11654.583083
596.004141	11747.115982
596.355535	11526.815039
596.706876	11500.790082
597.058162	11473.051133
597.409395	11567.408930
597.760573	11592.665111
598.111698	11489.145017
598.462768	11477.363840
598.813785	11494.236582
599.164748	11363.305214
599.515657	11446.426279
599.866511	11315.131948
600.217312	11454.696292
600.568060	11216.663090
600.918753	11377.112934
601.269392	11375.608150
601.619978	11283.581886
601.970510	11322.630664
602.320988	11366.377797
602.671412	11438.766246
603.021783	11359.761283
603.372100	11287.511466
603.722363	11308.389404
604.072572	11306.403190
604.422728	11317.362658
604.772830	11267.218301
605.122878	11271.558734
605.472872	11240.099414
605.822813	11299.854731
606.172701	11258.676066
606.522534	11299.539659
606.872314	11343.763181
607.222041	11279.289344
607.571714	11356.517300
607.921333	11223.609800
608.270899	11283.244129
608.620411	11341.749240
608.969870	11287.962649
609.319276	11271.306677
609.668627	11286.803184
610.017926	11367.529701
610.367171	11397.179247
610.716362	11392.758155
611.065500	11363.499298
611.414585	11379.469674
611.763616	11441.848911
612.112594	11402.563199
612.461518	11424.580439
612.810389	11475.042389
613.159207	11416.970817
613.507971	11411.392780
613.856682	11516.740293
614.205340	11475.183541
614.553945	11604.040475
614.902496	11480.028090
615.250994	11545.414376
615.599439	11545.096783
615.947830	11572.339179
616.296169	11540.932790
616.644454	11555.607589
616.992686	11565.868858
617.340864	11658.432004
617.688990	11543.997812
618.037063	11681.754902
618.385082	11659.604072
618.733048	11696.820391
619.080961	11679.441013
619.428821	11664.509115
619.776628	11670.462718
620.124382	11614.261414
620.472083	11626.450924
620.819731	11653.136272
621.167326	11573.546535
621.514868	11561.828373
621.862357	11463.727519
622.209793	11452.992382
622.557176	11371.308046
622.904506	11316.329222
623.251783	11241.745351
623.599007	11172.399238
623.946179	11131.351643
624.293297	11104.593198
624.640363	10975.189300
624.987376	10955.722884
625.334336	10889.245188
625.681243	10813.975720
626.028097	10789.372369
626.374899	10743.132385
626.721647	10711.035359
627.068343	10673.357775
627.414987	10620.458427
627.761577	10557.237317
628.108115	10601.100396
628.454600	10470.481580
628.801032	10488.430608
629.147412	10467.083842
629.493739	10439.319687
629.840014	10356.304486
630.186236	10412.861191
630.532405	10305.892948
630.878521	10341.480973
631.224585	10292.004569
631.570597	10229.148942
631.916556	10225.478982
632.262462	10207.303102
632.608316	10186.780565
632.954117	10157.688066
633.299866	10145.032249
633.645562	10121.933682
633.991206	10013.979893
634.336797	9925.079145
634.682336	9914.616230
635.027823	9850.638947
635.373257	9822.731119
635.718639	9760.356922
636.063968	9730.856090
636.409245	9608.408984
636.754470	9594.639072
637.099642	9543.264673
637.444762	9441.614847
637.789829	9450.283111
638.134845	9369.959886
638.479808	9350.576650
