Dividing Wavelength (nm)	Counts (n)	Blue Motor Position (mm): 49.000000	Red Motor Position (mm): 0.000000	
326.493990	2154.831129
326.888308	2154.831129
327.282561	2154.831129
327.676750	2128.433127
328.070874	2129.877418
328.464933	2133.408746
328.858929	2143.415436
329.252859	2154.367343
329.646726	2169.881494
330.040528	2184.571416
330.434265	2202.850640
330.827938	2220.668598
331.221547	2239.504870
331.615091	2260.576893
332.008571	2279.445932
332.401986	2299.973510
332.795338	2322.207519
333.188625	2338.916424
333.581847	2361.783098
333.975006	2380.047198
334.368100	2398.288613
334.761129	2416.817374
335.154095	2432.583583
335.546996	2458.326235
335.939833	2488.368991
336.332606	2504.699809
336.725315	2514.608197
337.117960	2521.625483
337.510540	2527.609333
337.903056	2540.131559
338.295508	2547.496685
338.687896	2553.334341
339.080220	2561.377502
339.472480	2569.075344
339.864676	2572.001733
340.256807	2574.507187
340.648875	2575.820407
341.040879	2578.792168
341.432818	2576.848803
341.824694	2580.531366
342.216506	2581.211922
342.608253	2579.863413
342.999937	2576.269070
343.391557	2576.049780
343.783113	2576.445511
344.174605	2572.957032
344.566033	2571.479974
344.957397	2572.825962
345.348697	2569.105591
345.739934	2569.239181
346.131106	2568.722463
346.522215	2564.989488
346.913260	2562.191648
347.304241	2562.423541
347.695159	2557.682336
348.086012	2557.959599
348.476802	2559.424055
348.867528	2556.215360
349.258191	2555.401214
349.648789	2556.459856
350.039324	2552.389124
350.429796	2553.709907
350.820203	2549.644216
351.210548	2548.257899
351.600828	2548.467107
351.991045	2549.130018
352.381198	2546.463248
352.771288	2547.416026
353.161314	2547.206818
353.551276	2546.185985
353.941175	2546.619524
354.331010	2551.209494
354.720782	2546.715306
355.110490	2547.201777
355.500135	2548.141952
355.889717	2547.519370
356.279235	2549.253527
356.668689	2550.896943
357.058080	2548.565409
357.447408	2546.241437
357.836672	2545.598690
358.225873	2546.105326
358.615010	2545.938968
359.004084	2553.533466
359.393095	2551.690925
359.782043	2554.803837
360.170927	2553.682180
360.559748	2553.994732
360.948505	2552.351316
361.337199	2554.360216
361.725830	2554.440874
362.114398	2555.078580
362.502903	2557.321893
362.891344	2557.684857
363.279722	2558.435988
363.668037	2556.774928
364.056289	2557.238714
364.444478	2560.762481
364.832603	2559.403890
365.220665	2559.194682
365.608665	2560.107131
365.996601	2558.710731
366.384474	2562.877245
366.772284	2558.803993
367.160031	2561.450598
367.547715	2564.404715
367.935336	2563.456978
368.322893	2562.960424
368.710388	2563.756926
369.097820	2565.528892
369.485189	2565.032338
369.872495	2563.111659
370.259738	2563.918243
370.646918	2562.675599
371.034035	2561.332131
371.421090	2565.002091
371.808081	2566.784139
372.195010	2566.050651
372.581875	2565.622153
372.968678	2568.268759
373.355418	2564.820610
373.742096	2567.938563
374.128710	2568.402350
374.515262	2570.189439
374.901751	2569.549212
375.288177	2572.089954
375.674540	2573.446024
376.060841	2574.028277
376.447079	2574.431570
376.833254	2577.640264
377.219367	2575.744790
377.605417	2576.770665
377.991404	2578.938361
378.377329	2583.586305
378.763191	2582.328537
379.148991	2590.883375
379.534727	2593.325814
379.920402	2594.066864
380.306013	2597.353696
380.691563	2603.367793
381.077049	2605.762341
381.462474	2611.315172
381.847835	2613.787858
382.233134	2619.935545
382.618371	2623.116513
383.003545	2631.089098
383.388657	2637.942546
383.773706	2640.296765
384.158693	2648.385297
384.543618	2650.752118
384.928480	2658.828047
385.313280	2664.012873
385.698017	2673.427228
386.082692	2683.602797
386.467305	2687.386183
386.851856	2695.512523
387.236344	2706.986189
387.620770	2711.003989
388.005133	2723.770711
388.389435	2735.569532
388.773674	2739.390726
389.157851	2744.424318
389.541965	2758.937800
389.926018	2764.702360
390.310008	2774.928340
390.693936	2786.001235
391.077802	2793.767132
391.461606	2806.672486
391.845348	2812.414360
392.229027	2824.608912
392.612645	2839.329081
392.996200	2846.331243
393.379694	2861.182483
393.763125	2879.244937
394.146494	2887.905639
394.529801	2900.798390
394.913047	2915.437901
395.296230	2921.031061
395.679351	2922.092224
396.062410	2948.429732
396.445408	2939.706016
396.828343	2955.860393
397.211217	2960.336938
397.594028	2955.205043
397.976778	2970.351190
398.359466	2986.808037
398.742092	2984.080772
399.124656	2996.933194
399.507158	3011.093795
399.889598	3017.241482
400.271977	3031.233205
400.654294	3041.726367
401.036549	3050.986966
401.418742	3058.951989
401.800874	3079.696337
402.182944	3088.835949
402.564952	3118.634210
402.946898	3108.504011
403.328783	3117.295783
403.710606	3134.302116
404.092367	3154.749036
404.474067	3183.803726
404.855705	3171.518434
405.237282	3177.194773
405.618797	3204.873228
406.000250	3225.872155
406.381642	3257.379366
406.762972	3261.394645
407.144240	3254.291660
407.525447	3275.046090
407.906593	3272.538116
408.287677	3296.188689
408.668700	3312.905155
409.049661	3315.266936
409.430560	3328.865448
409.811399	3334.730831
410.192176	3355.780169
410.572891	3362.303422
410.953545	3399.693660
411.334138	3370.996892
411.714669	3420.501023
412.095139	3368.136037
412.475547	3415.837955
412.855894	3409.604568
413.236180	3441.310906
413.616405	3421.599994
413.996568	3443.372738
414.376670	3448.713840
414.756711	3440.900052
415.136691	3466.816623
415.516609	3489.257320
415.896466	3495.568844
416.276262	3524.076569
416.655997	3554.295766
417.035670	3561.464287
417.415283	3626.661530
417.794834	3649.412257
418.174324	3633.222591
418.553753	3634.916419
418.933121	3676.236237
419.312428	3670.310360
419.691674	3661.896674
420.070859	3698.727344
420.449983	3681.312678
420.829045	3729.415368
421.208047	3714.087740
421.586988	3757.678598
421.965867	3791.285450
422.344686	3801.849187
422.723444	3839.572142
423.102141	3741.793922
423.480777	3841.805373
423.859352	3815.339315
424.237866	3912.633584
424.616319	3894.959299
424.994712	3958.538331
425.373044	3942.048717
425.751314	4012.609747
426.129524	3943.306485
426.507673	4046.173750
426.885762	4021.608207
427.263789	4044.668965
427.641756	4044.053945
428.019662	4078.984100
428.397508	4077.751537
428.775292	4118.005151
429.153016	4124.170482
429.530679	4136.181031
429.908282	4144.723266
430.285824	4125.246768
430.663305	4199.291236
431.040726	4155.135770
431.418086	4142.575735
431.795385	4222.193198
432.172624	4254.058332
432.549802	4222.470462
432.926920	4240.285899
433.303977	4232.966144
433.680974	4277.792084
434.057910	4299.131288
434.434786	4301.886279
434.811601	4298.077687
435.188355	4402.253131
435.565050	4372.343965
435.941683	4373.228688
436.318257	4462.910815
436.694770	4467.745281
437.071222	4523.258467
437.447614	4458.928303
437.823946	4461.423674
438.200218	4480.476715
438.576429	4460.561637
438.952580	4485.961491
439.328670	4492.194878
439.704700	4534.384294
440.080670	4493.407275
440.456580	4559.209456
440.832429	4593.073407
441.208218	4492.696472
441.583947	4548.577663
441.959616	4564.900919
442.335224	4585.216769
442.710773	4611.675265
443.086261	4662.109488
443.461689	4620.499805
443.837057	4625.397286
444.212365	4700.994429
444.587612	4706.085994
444.962800	4676.222199
445.337927	4716.518662
445.712995	4600.869552
446.088002	4797.882885
446.462949	4818.337367
446.837837	4836.130119
447.212664	4827.895394
447.587431	5050.976534
447.962139	5347.872770
448.336786	5687.586045
448.711374	5670.292367
449.085901	5312.403211
449.460369	5250.220578
449.834776	5192.307803
450.209124	5428.679945
450.583412	5439.586482
450.957640	5557.259615
451.331808	5420.183080
451.705917	5272.502478
452.079965	5262.909163
452.453954	5298.698834
452.827883	5267.524339
453.201752	5269.155152
453.575562	5303.124968
453.949311	5440.299805
454.323001	5445.638387
454.696632	5437.421306
455.070202	5594.702785
455.443713	5621.967866
455.817164	5716.053441
456.190556	5786.150685
456.563888	5757.998361
456.937160	5835.075083
457.310373	5677.811248
457.683526	5735.275360
458.056619	5729.914093
458.429653	5708.342996
458.802628	5755.641622
459.175542	5791.511952
459.548398	5931.237613
459.921194	6121.669720
460.293930	6177.467732
460.666607	6429.248161
461.039224	6644.061808
461.411782	6774.216839
461.784280	6687.871956
462.156719	6691.672986
462.529099	6649.355020
462.901419	6512.676736
463.273680	6377.465428
463.645882	6365.616196
464.018024	6375.655654
464.390106	6440.316014
464.762130	6694.843872
465.134094	7088.779798
465.505999	7730.790905
465.877845	8436.786857
466.249631	8783.613200
466.621358	8706.483546
466.993026	8515.537242
467.364634	8297.199827
467.736184	8014.638113
468.107674	7861.079526
468.479105	7777.487113
468.850477	7708.967750
469.221790	7540.636061
469.593043	7310.058725
469.964238	7212.386369
470.335373	7190.769902
470.706449	7342.574167
471.077467	7536.388889
471.448425	8196.086884
471.819324	8778.803939
472.190164	8812.211666
472.560945	8332.056886
472.931667	7858.669854
473.302330	7658.498238
473.672934	7541.399796
474.043479	7624.263762
474.413965	7521.746858
474.784393	7470.377500
475.154761	7628.145451
475.525070	7634.875391
475.895321	7589.338648
476.265513	7689.070315
476.635645	7851.254317
477.005719	7838.233017
477.375734	7934.808921
477.745691	8044.852269
478.115588	8247.572188
478.485427	8484.675298
478.855207	8960.086352
479.224928	9402.026666
479.594591	9773.889900
479.964194	9783.921796
480.333739	9868.020845
480.703226	9869.757523
481.072653	9969.685795
481.442022	10091.180123
481.811333	10242.336601
482.180584	10077.798380
482.549777	10019.867961
482.918912	9951.905645
483.287988	9943.257546
483.657005	9848.836734
484.025964	9762.587633
484.394864	9828.059619
484.763706	9785.844996
485.132489	9691.898053
485.501213	9689.054843
485.869879	9747.471733
486.238487	9682.587042
486.607036	9759.212581
486.975527	9702.050937
487.343959	9760.102344
487.712333	9805.568511
488.080648	9850.152475
488.448905	9951.676273
488.817104	9958.864958
489.185244	10120.869999
489.553326	10339.525006
489.921350	10815.460340
490.289315	11448.873759
490.657222	11743.519119
491.025070	11913.985737
491.392861	11819.517034
491.760593	11667.438025
492.128267	11407.105279
492.495883	11177.334528
492.863440	10944.655031
493.230939	10714.294465
493.598380	10533.526250
493.965763	10510.679740
494.333088	10375.375171
494.700354	10305.958483
495.067563	10278.983268
495.434713	10281.939905
495.801805	10323.358025
496.168839	10284.767992
496.535815	10255.672973
496.902733	10299.863728
497.269593	10259.884857
497.636395	10265.646896
498.003139	10376.900120
498.369825	10303.551332
498.736453	10395.375949
499.103023	10338.259676
499.469535	10343.920892
499.835989	10393.624148
500.202385	10359.714827
500.568723	10382.503363
500.935003	10445.232961
501.301226	10412.281458
501.667390	10583.133724
502.033497	10680.538899
502.399546	10609.388053
502.765537	10522.314723
503.131470	10627.321958
503.497345	10717.646832
503.863163	10485.577315
504.228923	10613.657911
504.594625	10731.399100
504.960269	10637.885696
505.325856	10794.501743
505.691385	10668.672023
506.056856	10744.586758
506.422270	10847.297747
506.787625	10784.424477
507.152924	10833.439615
507.518164	10896.912783
507.883347	10760.698286
508.248472	10828.711013
508.613540	10937.839391
508.978550	11009.932932
509.343503	10989.440642
509.708398	11043.295288
510.073236	11181.062461
510.438016	11189.367762
510.802738	11101.208064
511.167403	11230.624565
511.532010	11290.763010
511.896561	11385.377906
512.261053	11582.623133
512.625488	11502.551965
512.989866	11494.037457
513.354186	11465.784310
513.718449	11476.348048
514.082655	11622.027312
514.446803	11573.576782
514.810894	11682.110304
515.174927	11681.404542
515.538904	11656.574339
515.902822	11822.692961
516.266684	11697.281656
516.630488	11795.107767
516.994235	11783.273658
517.357925	11908.362329
517.721558	11966.302831
518.085133	12019.791994
518.448651	12060.043087
518.812112	12019.028259
519.175516	12031.245496
519.538863	12116.395625
519.902152	12117.885286
520.265385	12223.174825
520.628560	12248.582241
520.991678	12207.665716
521.354739	12249.076274
521.717743	12325.520331
522.080690	12295.429683
522.443580	12427.686875
522.806413	12454.263838
523.169189	12447.760750
523.531908	12499.641785
523.894569	12453.953807
524.257174	12474.554483
524.619722	12580.953076
524.982213	12555.964076
525.344647	12551.593396
525.707025	12565.940519
526.069345	12661.868636
526.431608	12644.592602
526.793815	12730.486302
527.155964	12615.013632
527.518057	12654.468222
527.880093	12609.236469
528.242072	12728.401784
528.603995	12648.151656
528.965860	12664.419460
529.327669	12687.197913
529.689421	12637.829894
530.051117	12658.753203
530.412755	12689.806711
530.774337	12697.675952
531.135862	12658.107935
531.497331	12717.654044
531.858743	12679.487469
532.220098	12755.838264
532.581396	12680.591481
532.942638	12605.377466
533.303824	12667.265191
533.664953	12652.973520
534.026025	12607.083897
534.387040	12711.239176
534.747999	12682.461749
535.108902	12739.683887
535.469748	12608.651695
535.830537	12626.275569
536.191270	12671.376252
536.551947	12598.781116
536.912567	12668.648988
537.273131	12700.010006
537.633638	12577.343609
537.994089	12629.743883
538.354483	12553.987944
538.714821	12687.835619
539.075103	12765.481992
539.435328	12689.264787
539.795497	12671.242662
540.155609	12662.796208
540.515665	12770.694545
540.875665	12627.384623
541.235609	12727.063358
541.595496	12693.688399
541.955328	12855.816948
542.315102	12715.377963
542.674821	12647.602171
543.034483	12664.111949
543.394090	12666.680417
543.753640	12641.598156
544.113134	12879.880896
544.472571	12632.950057
544.831953	12913.301225
545.191278	12732.260788
545.550548	12677.082838
545.909761	12785.250876
546.268918	12829.272752
546.628019	12891.541085
546.987064	12784.406483
547.346053	12630.527783
547.704986	12832.970439
548.063863	12704.985625
548.422684	12756.987647
548.781449	12723.373233
549.140158	12814.625680
549.498811	12765.565171
549.857408	12631.208338
550.215949	12839.047550
550.574434	12808.044453
550.932864	12758.323553
551.291237	12947.886061
551.649555	12840.312879
552.007817	12896.967887
552.366022	12825.043224
552.724173	12859.489428
553.082267	12947.618880
553.440305	13040.660936
553.798288	12866.910007
554.156215	12931.204883
554.514086	12976.824805
554.871902	12926.675406
555.229661	12945.877161
555.587365	12899.937126
555.945014	12917.066967
556.302606	12891.291547
556.660143	12951.336731
557.017625	12995.318278
557.375050	12951.135085
557.732421	13046.609498
558.089735	13048.096638
558.446994	13028.047969
558.804197	13136.004279
559.161345	13127.260397
559.518437	12946.625773
559.875474	13043.357953
560.232455	13064.855954
560.589381	13104.887757
560.946251	13044.492213
561.303065	13224.466446
561.659825	13163.667610
562.016528	13087.485693
562.373177	13030.787836
562.729770	13148.007266
563.086307	13043.554558
563.442789	13143.376966
563.799216	13180.752081
564.155587	13126.000109
564.511904	13146.023572
564.868164	13157.993792
565.224370	13218.147360
565.580520	13175.347964
565.936615	13230.425090
566.292654	13166.178105
566.648638	13247.396135
567.004567	13238.944640
567.360441	13235.390627
567.716260	13213.297770
568.072023	13291.566725
568.427732	13276.518880
568.783385	13180.913398
569.138982	13296.857416
569.494525	13286.646558
569.850013	13241.349271
570.205445	13226.155233
570.560823	13236.605545
570.916145	13195.510059
571.271412	13197.730687
571.626625	13166.856140
571.981782	13165.066531
572.336884	13114.813788
572.691931	13194.970655
573.046923	13088.907299
573.401860	13068.939288
573.756743	13057.500910
574.111570	13085.817072
574.466342	13058.952763
574.821059	13115.121299
575.175722	12982.808654
575.530330	12997.929595
575.884882	12936.616562
576.239380	12937.861727
576.593823	12920.608378
576.948211	12910.180751
577.302544	12790.677678
577.656823	12811.575782
578.011047	12875.096841
578.365216	12808.178044
578.719330	12751.870876
579.073389	12721.439951
579.427394	12731.822207
579.781344	12719.047923
580.135239	12655.947801
580.489080	12664.311075
580.842866	12539.761807
581.196597	12643.939772
581.550273	12641.830049
581.903895	12589.399529
582.257463	12707.831356
582.610975	12553.496431
582.964434	12618.797018
583.317837	12539.325748
583.671186	12494.119201
584.024481	12553.304867
584.377721	12444.889813
584.730906	12518.778005
585.084037	12530.778471
585.437113	12443.364864
585.790135	12471.474338
586.143103	12377.965975
586.496016	12399.622772
586.848874	12409.442939
587.201679	12400.116805
587.554428	12275.139039
587.907124	12331.466372
588.259765	12259.022470
588.612352	12326.636946
588.964884	12189.041173
589.317362	12239.263668
589.669786	12242.071591
590.022155	12190.750124
590.374470	12295.855661
590.726731	12181.638238
591.078937	12068.310579
591.431090	12094.900145
591.783188	12015.804441
592.135232	11942.674943
592.487222	12003.856907
592.839157	12009.205571
593.191038	11946.720469
593.542866	11896.984445
593.894639	11749.064388
594.246358	11807.657720
594.598022	11818.279431
594.949633	11724.115718
595.301190	11706.655682
595.652692	11659.130204
596.004141	11754.435738
596.355535	11536.531863
596.706876	11522.169616
597.058162	11481.447175
597.409395	11575.860425
597.760573	11604.736154
598.111698	11498.095585
598.462768	11496.895791
598.813785	11513.219047
599.164748	11381.776002
599.515657	11461.022940
599.866511	11332.902015
600.217312	11468.292284
600.568060	11233.641696
600.918753	11395.041798
601.269392	11392.397713
601.619978	11292.010696
601.970510	11337.174393
602.320988	11380.951773
602.671412	11445.470980
603.021783	11370.945082
603.372100	11293.732250
603.722363	11315.603296
604.072572	11312.208078
604.422728	11321.319964
604.772830	11268.496233
605.122878	11286.208327
605.472872	11251.268090
605.822813	11307.234980
606.172701	11271.092428
606.522534	11314.204375
606.872314	11360.638443
607.222041	11300.719289
607.571714	11376.271062
607.921333	11243.628222
608.270899	11293.989348
608.620411	11352.615447
608.969870	11300.164762
609.319276	11285.593307
609.668627	11298.828856
610.017926	11374.478931
610.367171	11405.355999
610.716362	11397.166644
611.065500	11376.722245
611.414585	11384.944367
611.763616	11449.632453
612.112594	11409.847667
612.461518	11433.525966
612.810389	11481.885755
613.159207	11421.742269
613.507971	11416.723801
613.856682	11519.694409
614.205340	11478.462812
614.553945	11623.769030
614.902496	11491.002682
615.250994	11558.574308
615.599439	11552.822352
615.947830	11585.912485
616.296169	11553.757486
616.644454	11571.978736
616.992686	11581.771178
617.340864	11679.569562
617.688990	11559.796788
618.037063	11705.579395
618.385082	11669.641010
618.733048	11710.469315
619.080961	11691.968280
619.428821	11674.054540
619.776628	11678.538646
620.124382	11628.913528
620.472083	11646.497072
620.819731	11671.085300
621.167326	11592.365162
621.514868	11574.262379
621.862357	11476.032976
622.209793	11466.699279
622.557176	11388.034594
622.904506	11336.786224
623.251783	11258.673545
623.599007	11186.451455
623.946179	11137.610236
624.293297	11118.506783
624.640363	10980.512758
624.987376	10967.761160
625.334336	10901.129709
625.681243	10816.912192
626.028097	10787.365990
626.374899	10751.014229
626.721647	10723.436597
627.068343	10678.940853
627.414987	10615.954156
627.761577	10549.274814
628.108115	10607.467374
628.454600	10475.263114
628.801032	10489.769034
629.147412	10476.954421
629.493739	10442.402353
629.840014	10366.719510
630.186236	10421.030381
630.532405	10314.145317
630.878521	10347.716881
631.224585	10305.557711
631.570597	10223.212983
631.916556	10234.900899
632.262462	10222.529907
632.608316	10199.159118
632.954117	10174.966621
633.299866	10153.171192
633.645562	10128.638417
633.991206	10027.994301
634.336797	9930.727758
634.682336	9926.152911
635.027823	9863.171255
635.373257	9832.785700
635.718639	9758.736192
636.063968	9724.408454
636.409245	9611.549623
636.754470	9604.040824
637.099642	9543.461278
637.444762	9444.571484
637.789829	9450.285632
638.134845	9376.036997
638.479808	9356.878092
