Dividing Wavelength (nm)	Counts (n)	Blue Motor Position (mm): 10.000000	Red Motor Position (mm): 0.000000	
326.493990	2158.866573
326.888308	2158.866573
327.282561	2158.866573
327.676750	2134.001082
328.070874	2135.614251
328.464933	2141.013327
328.858929	2148.791827
329.252859	2161.810607
329.646726	2174.746208
330.040528	2190.744309
330.434265	2209.784747
330.827938	2228.250494
331.221547	2245.372773
331.615091	2266.066709
332.008571	2287.741150
332.401986	2308.006589
332.795338	2328.826554
333.188625	2345.691734
333.581847	2367.282996
333.975006	2387.850904
334.368100	2408.025602
334.761129	2422.713003
335.154095	2438.509459
335.546996	2459.394959
335.939833	2481.094606
336.332606	2494.224291
336.725315	2505.254336
337.117960	2512.672394
337.510540	2521.932993
337.903056	2531.715353
338.295508	2538.425128
338.687896	2543.922507
339.080220	2556.270813
339.472480	2560.777604
339.864676	2563.862791
340.256807	2568.551064
340.648875	2570.045766
341.040879	2569.302196
341.432818	2570.224727
341.824694	2574.681107
342.216506	2570.814542
342.608253	2569.438307
342.999937	2570.776733
343.391557	2571.348904
343.783113	2569.708008
344.174605	2568.961918
344.566033	2565.407904
344.957397	2564.742472
345.348697	2559.585372
345.739934	2559.766853
346.131106	2558.670402
346.522215	2557.261400
346.913260	2554.541697
347.304241	2554.055226
347.695159	2552.225287
348.086012	2551.151521
348.476802	2549.198074
348.867528	2547.269833
349.258191	2544.736653
349.648789	2547.002652
350.039324	2543.453679
350.429796	2543.103319
350.820203	2543.645243
351.210548	2540.998637
351.600828	2539.821528
351.991045	2540.842362
352.381198	2538.601569
352.771288	2539.249357
353.161314	2543.496529
353.551276	2541.845551
353.941175	2538.694830
354.331010	2539.950077
354.720782	2540.229861
355.110490	2540.549975
355.500135	2537.532844
355.889717	2539.524100
356.279235	2538.946888
356.668689	2542.473175
357.058080	2540.189532
357.447408	2537.852957
357.836672	2537.774819
358.225873	2538.354552
358.615010	2538.800694
359.004084	2541.805222
359.393095	2545.641540
359.782043	2544.436704
360.170927	2544.325799
360.559748	2546.155738
360.948505	2546.133052
361.337199	2545.855789
361.725830	2546.869061
362.114398	2546.944678
362.502903	2547.229503
362.891344	2547.090872
363.279722	2549.808054
363.668037	2547.738660
364.056289	2547.368135
364.444478	2551.272509
364.832603	2548.615821
365.220665	2550.632282
365.608665	2549.603887
365.996601	2551.111192
366.384474	2550.607077
366.772284	2552.205122
367.160031	2551.307797
367.547715	2556.653941
367.935336	2549.072045
368.322893	2554.423230
368.710388	2552.684032
369.097820	2554.246790
369.485189	2553.820812
369.872495	2551.557334
370.259738	2553.014227
370.646918	2553.606563
371.034035	2554.420709
371.421090	2555.517160
371.808081	2554.498847
372.195010	2557.059753
372.581875	2555.103786
372.968678	2554.924825
373.355418	2554.317366
373.742096	2554.667726
374.128710	2557.402552
374.515262	2556.863148
374.901751	2555.885165
375.288177	2558.325083
375.674540	2556.480021
376.060841	2557.969682
376.447079	2558.549414
376.833254	2559.096380
377.219367	2553.276368
377.605417	2556.694270
377.991404	2554.042623
378.377329	2555.973385
378.763191	2554.768549
379.148991	2559.603016
379.534727	2558.188972
379.920402	2561.317008
380.306013	2559.534960
380.691563	2562.053016
381.077049	2560.265927
381.462474	2562.153839
381.847835	2558.662840
382.233134	2560.021431
382.618371	2559.164435
383.003545	2562.499158
383.388657	2561.427913
383.773706	2559.993705
384.158693	2561.511092
384.543618	2560.081925
384.928480	2562.254662
385.313280	2561.349775
385.698017	2563.789694
386.082692	2563.925805
386.467305	2562.426062
386.851856	2565.130641
387.236344	2563.451937
387.620770	2565.256670
388.005133	2562.794066
388.389435	2561.203582
388.773674	2564.558470
389.157851	2563.867832
389.541965	2563.262893
389.926018	2565.385219
390.310008	2565.208779
390.693936	2565.102914
391.077802	2566.219530
391.461606	2565.533933
391.845348	2565.972513
392.229027	2565.007133
392.612645	2565.685168
392.996200	2568.215827
393.379694	2565.047462
393.763125	2569.289593
394.146494	2567.860426
394.529801	2567.603327
394.913047	2568.062072
395.296230	2569.385375
395.679351	2569.718091
396.062410	2569.705488
396.445408	2566.217009
396.828343	2567.328584
397.211217	2563.419169
397.594028	2564.470250
397.976778	2567.426886
398.359466	2568.029304
398.742092	2563.703994
399.124656	2567.741958
399.507158	2570.169274
399.889598	2570.441496
400.271977	2570.224727
400.654294	2570.370920
401.036549	2570.938050
401.418742	2571.744635
401.800874	2571.699264
402.182944	2572.949470
402.564952	2573.975345
402.946898	2571.422001
403.328783	2571.550550
403.710606	2572.846127
404.092367	2572.367217
404.474067	2573.211610
404.855705	2573.047773
405.237282	2576.130438
405.618797	2572.178174
406.000250	2571.091805
406.381642	2572.276476
406.762972	2571.248081
407.144240	2574.013154
407.525447	2573.405695
407.906593	2573.425859
408.287677	2573.042732
408.668700	2576.037177
409.049661	2573.418298
409.430560	2574.771847
409.811399	2573.299831
410.192176	2574.484502
410.572891	2573.151117
410.953545	2573.864440
411.334138	2573.272104
411.714669	2574.544996
412.095139	2575.283525
412.475547	2575.497774
412.855894	2577.695717
413.236180	2575.097002
413.616405	2575.820407
413.996568	2577.365521
414.376670	2575.454924
414.756711	2574.827300
415.136691	2574.943247
415.516609	2576.642116
415.896466	2576.926941
416.276262	2576.271591
416.655997	2572.694892
417.035670	2574.426528
417.415283	2573.526682
417.794834	2574.643298
418.174324	2574.789492
418.553753	2574.988617
418.933121	2577.186560
419.312428	2579.775193
419.691674	2577.357959
420.070859	2578.542631
420.449983	2577.418453
420.829045	2578.043556
421.208047	2580.833835
421.586988	2579.271077
421.965867	2575.006261
422.344686	2577.403330
422.723444	2579.538258
423.102141	2577.068093
423.480777	2578.829976
423.859352	2579.455079
424.237866	2579.666808
424.616319	2581.572364
424.994712	2578.530028
425.373044	2580.475913
425.751314	2577.458782
426.129524	2579.021540
426.507673	2580.773341
426.885762	2580.017168
427.263789	2578.885429
427.641756	2580.435584
428.019662	2581.423650
428.397508	2579.830645
428.775292	2583.210739
429.153016	2579.341653
429.530679	2582.883064
429.908282	2582.525142
430.285824	2582.963723
430.663305	2582.504978
431.040726	2580.299473
431.418086	2582.507498
431.795385	2579.639082
432.172624	2579.263516
432.549802	2583.079669
432.926920	2584.861717
433.303977	2582.812488
433.680974	2581.945409
434.057910	2581.983218
434.434786	2583.961871
434.811601	2581.791654
435.188355	2583.004052
435.565050	2584.297108
435.941683	2582.764597
436.318257	2580.733012
436.694770	2579.152610
437.071222	2578.759400
437.447614	2581.443815
437.823946	2579.384503
438.200218	2581.529514
438.576429	2586.265678
438.952580	2583.651840
439.328670	2581.400965
439.704700	2583.276274
440.080670	2583.785431
440.456580	2584.234093
440.832429	2583.563620
441.208218	2584.428178
441.583947	2582.310893
441.959616	2586.434557
442.335224	2584.145873
442.710773	2585.249886
443.086261	2586.361460
443.461689	2583.306521
443.837057	2586.089238
444.212365	2584.045050
444.587612	2584.914649
444.962800	2584.536562
445.337927	2585.403641
445.712995	2585.426326
446.088002	2584.871799
446.462949	2584.476069
446.837837	2586.139649
447.212664	2584.899526
447.587431	2585.943044
447.962139	2583.979515
448.336786	2586.870617
448.711374	2584.649988
449.085901	2587.654516
449.460369	2586.361460
449.834776	2585.580081
450.209124	2588.468662
450.583412	2587.775504
450.957640	2583.319124
451.331808	2586.890781
451.705917	2583.296439
452.079965	2586.880699
452.453954	2585.635534
452.827883	2584.599577
453.201752	2586.116964
453.575562	2588.332551
453.949311	2586.699217
454.323001	2585.887592
454.696632	2588.007397
455.070202	2588.251893
455.443713	2587.601584
455.817164	2583.112437
456.190556	2583.815677
456.563888	2583.873651
456.937160	2582.363825
457.310373	2586.757191
457.683526	2584.478589
458.056619	2586.759711
458.429653	2587.107551
458.802628	2587.873806
459.175542	2587.848601
459.548398	2588.733323
459.921194	2585.912797
460.293930	2588.756008
460.666607	2588.677870
461.039224	2588.700556
461.411782	2588.216605
461.784280	2589.600402
462.156719	2587.823395
462.529099	2589.295412
462.901419	2588.856831
463.273680	2587.609146
463.645882	2589.086204
464.018024	2587.709969
464.390106	2588.526636
464.762130	2588.337592
465.134094	2589.623087
465.505999	2588.171234
465.877845	2589.716348
466.249631	2589.610484
466.621358	2589.532346
466.993026	2590.439754
467.364634	2592.045361
467.736184	2589.365988
468.107674	2589.519743
468.479105	2588.672829
468.850477	2590.971595
469.221790	2591.304312
469.593043	2586.404310
469.964238	2593.905547
470.335373	2587.422623
470.706449	2589.605443
471.077467	2589.401276
471.448425	2592.481421
471.819324	2590.046544
472.190164	2592.451174
472.560945	2590.386822
472.931667	2588.060329
473.302330	2590.933787
473.672934	2590.943869
474.043479	2588.967737
474.413965	2590.868252
474.784393	2586.505133
475.154761	2588.468662
475.525070	2589.171903
475.895321	2589.499578
476.265513	2587.026892
476.635645	2590.296081
477.005719	2591.503437
477.375734	2591.425299
477.745691	2594.066864
478.115588	2591.516040
478.485427	2591.369847
478.855207	2590.674167
479.224928	2593.192224
479.594591	2589.471852
479.964194	2593.968561
480.333739	2593.013263
480.703226	2591.483272
481.072653	2591.858838
481.442022	2591.763057
481.811333	2595.168356
482.180584	2589.993612
482.549777	2593.325814
482.918912	2594.820516
483.287988	2592.680547
483.657005	2593.555187
484.025964	2591.879003
484.394864	2591.621904
484.763706	2596.945363
485.132489	2592.662902
485.501213	2592.980495
485.869879	2596.244642
486.238487	2592.940166
486.607036	2591.526122
486.975527	2594.671802
487.343959	2592.521750
487.712333	2594.205496
488.080648	2592.315063
488.448905	2592.178952
488.817104	2595.427975
489.185244	2594.845722
489.553326	2596.844540
489.921350	2596.627770
490.289315	2595.175918
490.657222	2598.336721
491.025070	2594.470156
491.392861	2596.940322
491.760593	2593.429158
492.128267	2596.806731
492.495883	2594.984354
492.863440	2598.283789
493.230939	2596.655496
493.598380	2593.202306
493.965763	2592.272213
494.333088	2589.978488
494.700354	2589.774321
495.067563	2591.732810
495.434713	2588.214084
495.801805	2595.385126
496.168839	2593.459405
496.535815	2592.967892
496.902733	2592.395721
497.269593	2594.686926
497.636395	2594.719693
498.003139	2596.219437
498.369825	2595.793459
498.736453	2595.881679
499.103023	2593.562748
499.469535	2595.564087
499.835989	2593.051071
500.202385	2593.353541
500.568723	2595.367482
500.935003	2594.233222
501.301226	2596.587441
501.667390	2595.904364
502.033497	2598.576176
502.399546	2595.259097
502.765537	2595.649786
503.131470	2595.276741
503.497345	2596.123655
503.863163	2594.359251
504.228923	2593.766915
504.594625	2594.308839
504.960269	2595.271700
505.325856	2593.731627
505.691385	2596.030393
506.056856	2597.008377
506.422270	2599.281937
506.787625	2596.847060
507.152924	2597.303285
507.518164	2595.637183
507.883347	2594.603747
508.248472	2596.433686
508.613540	2597.555342
508.978550	2595.798500
509.343503	2597.441916
509.708398	2596.171546
510.073236	2596.015270
510.438016	2595.985023
510.802738	2597.608274
511.167403	2597.366299
511.532010	2597.356217
511.896561	2596.597523
512.261053	2599.634818
512.625488	2593.819847
512.989866	2592.942687
513.354186	2593.719024
513.718449	2594.497882
514.082655	2598.676999
514.446803	2599.218923
514.810894	2601.013574
515.174927	2601.681527
515.538904	2599.672627
515.902822	2601.618512
516.266684	2600.552308
516.630488	2599.327308
516.994235	2601.603389
517.357925	2602.984665
517.721558	2599.236567
518.085133	2601.825200
518.448651	2601.043821
518.812112	2601.754623
519.175516	2601.981475
519.538863	2604.164295
519.902152	2603.637494
520.265385	2601.830241
520.628560	2604.691096
520.991678	2602.626743
521.354739	2603.506424
521.717743	2604.428956
522.080690	2603.995416
522.443580	2604.123966
522.806413	2606.621857
523.169189	2607.052876
523.531908	2604.643205
523.894569	2608.035901
524.257174	2604.028184
524.619722	2606.344594
524.982213	2605.696806
525.344647	2607.352825
525.707025	2608.111518
526.069345	2606.921806
526.431608	2607.652773
526.793815	2607.115891
527.155964	2607.299893
527.518057	2608.822321
527.880093	2608.043463
528.242072	2608.928185
528.603995	2610.553957
528.965860	2609.676797
529.327669	2608.597990
529.689421	2609.901128
530.051117	2609.500356
530.412755	2611.053032
530.774337	2609.255860
531.135862	2612.640995
531.497331	2608.141765
531.858743	2607.312496
532.220098	2607.269646
532.581396	2608.774430
532.942638	2606.881477
533.303824	2610.427929
533.664953	2612.686366
534.026025	2613.198043
534.387040	2610.730398
534.747999	2611.184102
535.108902	2613.132508
535.469748	2611.347939
535.830537	2611.675614
536.191270	2613.762652
536.551947	2613.477827
536.912567	2613.747528
537.273131	2612.540172
537.633638	2612.399020
537.994089	2612.502363
538.354483	2612.663680
538.714821	2613.278701
539.075103	2613.177878
539.435328	2613.654267
539.795497	2614.052518
540.155609	2613.573609
540.515665	2613.553444
540.875665	2615.438836
541.235609	2612.167127
541.595496	2617.069649
541.955328	2614.755759
542.315102	2613.167796
542.674821	2612.739298
543.034483	2614.130656
543.394090	2613.997066
543.753640	2614.022271
544.113134	2612.300717
544.472571	2613.855913
544.831953	2613.283742
545.191278	2615.297683
545.550548	2614.972529
545.909761	2615.088475
546.268918	2616.386572
546.628019	2616.936058
546.987064	2614.765842
547.346053	2613.971860
547.704986	2615.620317
548.063863	2614.334823
548.422684	2613.888681
548.781449	2614.418002
549.140158	2612.940944
549.498811	2615.650564
549.857408	2612.867847
550.215949	2614.612086
550.574434	2610.727877
550.932864	2611.756273
551.291237	2611.355501
551.649555	2617.712396
552.007817	2615.012858
552.366022	2615.274998
552.724173	2615.706017
553.082267	2617.339351
553.440305	2619.139042
553.798288	2616.983949
554.156215	2614.942282
554.514086	2616.426902
554.871902	2614.770883
555.229661	2616.605863
555.587365	2614.528907
555.945014	2614.425564
556.302606	2615.272477
556.660143	2617.939248
557.017625	2615.711058
557.375050	2616.321037
557.732421	2618.292129
558.089735	2618.156017
558.446994	2618.428240
558.804197	2617.944289
559.161345	2616.988990
559.518437	2617.692231
559.875474	2618.032509
560.232455	2620.792541
560.589381	2618.148456
560.946251	2620.132150
561.303065	2618.004783
561.659825	2620.616101
562.016528	2618.241717
562.373177	2617.301542
562.729770	2615.663167
563.086307	2618.461007
563.442789	2618.811367
563.799216	2620.580812
564.155587	2619.754063
564.511904	2618.912191
564.868164	2619.010493
565.224370	2621.773045
565.580520	2621.949486
565.936615	2619.650720
566.292654	2621.334465
566.648638	2624.364198
567.004567	2620.369084
567.360441	2619.660802
567.716260	2621.856224
568.072023	2620.888323
568.427732	2617.561161
568.783385	2617.162910
569.138982	2620.185082
569.494525	2620.137191
569.850013	2618.103085
570.205445	2621.972171
570.560823	2622.970319
570.916145	2624.759929
571.271412	2624.810341
571.626625	2625.868983
571.981782	2622.647686
572.336884	2624.787655
572.691931	2623.076184
573.046923	2622.657768
573.401860	2625.642131
573.756743	2624.429733
574.111570	2625.770680
574.466342	2624.747326
574.821059	2627.744292
575.175722	2623.698766
575.530330	2624.089456
575.884882	2623.194651
576.239380	2626.655403
576.593823	2625.584158
576.948211	2625.697584
577.302544	2625.206071
577.656823	2624.160032
578.011047	2625.395114
578.365216	2628.326545
578.719330	2626.771349
579.073389	2628.240846
579.427394	2625.730351
579.781344	2626.657923
580.135239	2626.766308
580.489080	2627.308232
580.842866	2625.760598
581.196597	2632.019191
581.550273	2629.019704
581.903895	2627.608181
582.257463	2629.443161
582.610975	2628.465177
582.964434	2629.102883
583.317837	2630.824437
583.671186	2630.758902
584.024481	2630.960548
584.377721	2634.131434
584.730906	2630.189252
585.084037	2632.493059
585.437113	2631.908285
585.790135	2634.678399
586.143103	2632.672020
586.496016	2637.193935
586.848874	2631.333594
587.201679	2634.612864
587.554428	2634.564973
587.907124	2634.842237
588.259765	2630.837040
588.612352	2637.667803
588.964884	2636.815848
589.317362	2637.781229
589.669786	2642.419091
590.022155	2643.172743
590.374470	2643.041673
590.726731	2640.755510
591.078937	2642.104019
591.431090	2645.375728
591.783188	2645.847076
592.135232	2646.041160
592.487222	2643.082003
592.839157	2648.642395
593.191038	2643.863382
593.542866	2647.631644
593.894639	2646.265491
594.246358	2647.369504
594.598022	2650.530307
594.949633	2650.558034
595.301190	2650.817653
595.652692	2652.715648
596.004141	2650.744557
596.355535	2654.245638
596.706876	2653.338230
597.058162	2655.999959
597.409395	2655.057264
597.760573	2655.488282
598.111698	2657.668581
598.462768	2659.818633
598.813785	2662.041782
599.164748	2662.676968
599.515657	2662.495486
599.866511	2661.804848
600.217312	2663.397853
600.568060	2665.295847
600.918753	2669.169974
601.269392	2669.621157
601.619978	2668.451609
601.970510	2672.373627
602.320988	2671.302382
602.671412	2675.443690
603.021783	2675.516787
603.372100	2678.231448
603.722363	2677.714730
604.072572	2678.385203
604.422728	2683.353260
604.772830	2681.664474
605.122878	2682.660102
605.472872	2682.430729
605.822813	2687.303004
606.172701	2687.804599
606.522534	2692.107224
606.872314	2695.472194
607.222041	2699.129551
607.571714	2699.638708
607.921333	2697.647452
608.270899	2705.262115
608.620411	2707.074410
608.969870	2708.680017
609.319276	2711.465255
609.668627	2713.065821
610.017926	2716.594629
610.367171	2721.960937
610.716362	2722.830536
611.065500	2725.502347
611.414585	2729.857904
611.763616	2731.508882
612.112594	2734.745303
612.461518	2739.209245
612.810389	2742.115470
613.159207	2746.355080
613.507971	2748.903384
613.856682	2751.983529
614.205340	2754.927562
614.553945	2760.810589
614.902496	2760.800507
615.250994	2771.026487
615.599439	2772.087650
615.947830	2777.945471
616.296169	2783.100051
616.644454	2787.785803
616.992686	2790.432409
617.340864	2800.907927
617.688990	2802.296765
618.037063	2810.549133
618.385082	2817.566420
618.733048	2824.840805
619.080961	2829.380364
619.428821	2837.849502
619.776628	2841.403516
620.124382	2844.778568
620.472083	2847.455421
620.819731	2855.359950
621.167326	2857.951103
621.514868	2861.023686
621.862357	2860.438912
622.209793	2864.822196
622.557176	2866.470653
622.904506	2867.345293
623.251783	2868.103987
623.599007	2870.256560
623.946179	2872.898124
624.293297	2876.885677
624.640363	2880.797612
624.987376	2884.747356
625.334336	2888.215670
625.681243	2887.146946
626.028097	2893.771022
626.374899	2897.851836
626.721647	2900.304357
627.068343	2908.249216
627.414987	2911.097468
627.761577	2914.328847
628.108115	2923.836463
628.454600	2929.361568
628.801032	2934.642177
629.147412	2940.638629
629.493739	2944.212807
629.840014	2947.633230
630.186236	2959.124540
630.532405	2961.561938
630.878521	2974.134576
631.224585	2980.562047
631.570597	2983.800988
631.916556	2992.312977
632.262462	2999.461333
632.608316	3006.380316
632.954117	3015.146883
633.299866	3023.132071
633.645562	3025.796320
633.991206	3029.105838
634.336797	3029.516692
634.682336	3037.612785
635.027823	3038.774771
635.373257	3039.049514
635.718639	3041.867519
636.063968	3047.558982
636.409245	3046.386913
636.754470	3050.261040
637.099642	3055.029972
637.444762	3056.925445
637.789829	3063.761250
638.134845	3066.475911
638.479808	3074.282138
638.824719	3080.303796
639.169577	3079.960998
639.514383	3087.258068
639.859137	3088.961978
640.203839	3101.499328
640.548489	3100.362547
640.893086	3106.810183
641.237632	3108.972838
641.582125	3118.094806
641.926566	3125.240642
642.270955	3137.961993
642.615292	3143.718991
642.959576	3153.261895
643.303809	3161.594923
643.647990	3171.069771
643.992118	3177.290555
644.336195	3185.671473
