Dividing Wavelength (nm)	Counts (n)	Blue Motor Position (mm): 48.500000	Red Motor Position (mm): 0.000000	
326.493990	2153.895995
326.888308	2153.895995
327.282561	2153.895995
327.676750	2127.409773
328.070874	2128.513786
328.464933	2134.301030
328.858929	2143.415436
329.252859	2156.983702
329.646726	2171.063645
330.040528	2185.067970
330.434265	2203.536237
330.827938	2222.261603
331.221547	2240.848337
331.615091	2260.208889
332.008571	2278.392331
332.401986	2303.283028
332.795338	2320.632159
333.188625	2341.603359
333.581847	2361.720083
333.975006	2381.027702
334.368100	2397.870197
334.761129	2416.706469
335.154095	2433.304468
335.546996	2458.958900
335.939833	2487.983343
336.332606	2501.102946
336.725315	2514.973681
337.117960	2522.984074
337.510540	2529.696370
337.903056	2537.472350
338.295508	2544.424101
338.687896	2551.733774
339.080220	2561.412790
339.472480	2568.740107
339.864676	2573.937537
340.256807	2574.234965
340.648875	2579.369380
341.040879	2577.259657
341.432818	2578.202353
341.824694	2580.304514
342.216506	2579.361818
342.608253	2579.071952
342.999937	2578.351067
343.391557	2576.087589
343.783113	2574.814697
344.174605	2575.827969
344.566033	2574.476940
344.957397	2571.633729
345.348697	2571.046435
345.739934	2568.674572
346.131106	2567.016032
346.522215	2566.637946
346.913260	2563.890517
347.304241	2562.688202
347.695159	2561.364899
348.086012	2563.217523
348.476802	2557.475649
348.867528	2555.645710
349.258191	2554.042623
349.648789	2551.796789
350.039324	2548.877961
350.429796	2550.725544
350.820203	2550.501212
351.210548	2548.915769
351.600828	2548.658671
351.991045	2550.105482
352.381198	2549.329144
352.771288	2547.232024
353.161314	2550.155893
353.551276	2549.689587
353.941175	2546.808567
354.331010	2549.820657
354.720782	2549.306459
355.110490	2548.744370
355.500135	2548.973743
355.889717	2551.441388
356.279235	2548.091541
356.668689	2552.157231
357.058080	2548.877961
357.447408	2547.892415
357.836672	2546.236396
358.225873	2548.920811
358.615010	2547.937786
359.004084	2551.872406
359.393095	2553.409958
359.782043	2554.052705
360.170927	2555.557490
360.559748	2552.565565
360.948505	2554.534135
361.337199	2556.454815
361.725830	2556.399362
362.114398	2556.543035
362.502903	2557.417675
362.891344	2557.581513
363.279722	2556.056564
363.668037	2559.056050
364.056289	2556.424568
364.444478	2558.065464
364.832603	2558.216698
365.220665	2558.257028
365.608665	2560.641493
365.996601	2557.757953
366.384474	2558.574620
366.772284	2561.185938
367.160031	2561.818603
367.547715	2562.005125
367.935336	2559.829868
368.322893	2561.929508
368.710388	2562.746175
369.097820	2565.380178
369.485189	2561.659806
369.872495	2563.774570
370.259738	2563.434292
370.646918	2565.102914
371.034035	2563.860270
371.421090	2563.257852
371.808081	2565.062585
372.195010	2567.424366
372.581875	2563.988819
372.968678	2566.983265
373.355418	2566.287586
373.742096	2568.777916
374.128710	2567.817576
374.515262	2568.115004
374.901751	2567.958728
375.288177	2569.632391
375.674540	2570.486867
376.060841	2573.148596
376.447079	2574.174471
376.833254	2574.774368
377.219367	2574.214800
377.605417	2575.601117
377.991404	2576.899214
378.377329	2578.106571
378.763191	2579.266036
379.148991	2586.187540
379.534727	2590.306163
379.920402	2591.395052
380.306013	2591.127871
380.691563	2598.377050
381.077049	2604.421394
381.462474	2607.249481
381.847835	2609.933896
382.233134	2613.056890
382.618371	2619.970833
383.003545	2622.204064
383.388657	2626.907461
383.773706	2634.002885
384.158693	2635.578245
384.543618	2645.756335
384.928480	2650.552993
385.313280	2656.398211
385.698017	2663.954900
386.082692	2673.026457
386.467305	2678.801098
386.851856	2687.318128
387.236344	2698.070909
387.620770	2703.825386
388.005133	2712.725543
388.389435	2722.354147
388.773674	2730.122565
389.157851	2736.277814
389.541965	2749.541090
389.926018	2751.663415
390.310008	2764.122627
390.693936	2774.943464
391.077802	2783.077366
391.461606	2794.165383
391.845348	2805.107208
392.229027	2813.586429
392.612645	2829.917247
392.996200	2839.152640
393.379694	2852.259640
393.763125	2870.080119
394.146494	2879.229813
394.529801	2891.757081
394.913047	2909.270049
395.296230	2914.878333
395.679351	2917.401430
396.062410	2938.080243
396.445408	2934.102773
396.828343	2950.647840
397.211217	2956.583799
397.594028	2952.623972
397.976778	2969.572332
398.359466	2981.998776
398.742092	2981.179588
399.124656	2998.115345
399.507158	3008.795029
399.889598	3014.980525
400.271977	3028.435364
400.654294	3038.026160
401.036549	3050.845814
401.418742	3055.168603
401.800874	3078.448652
402.182944	3086.683377
402.564952	3114.737398
402.946898	3106.913527
403.328783	3118.780403
403.710606	3130.453195
404.092367	3156.851197
404.474067	3182.213242
404.855705	3172.814011
405.237282	3172.589679
405.618797	3203.852395
406.000250	3226.272927
406.381642	3259.146291
406.762972	3260.283071
407.144240	3250.150352
407.525447	3273.926954
407.906593	3273.455606
408.287677	3293.456384
408.668700	3316.572595
409.049661	3310.482881
409.430560	3329.971982
409.811399	3331.285202
410.192176	3352.526104
410.572891	3362.772249
410.953545	3397.967065
411.334138	3368.496479
411.714669	3420.463214
412.095139	3364.009853
412.475547	3418.577822
412.855894	3409.357552
413.236180	3436.877211
413.616405	3418.678645
413.996568	3443.478602
414.376670	3446.588994
414.756711	3439.755710
415.136691	3465.198413
415.516609	3488.959892
415.896466	3493.968278
416.276262	3522.536497
416.655997	3551.036660
417.035670	3559.899009
417.415283	3627.916777
417.794834	3648.078872
418.174324	3631.644710
418.553753	3629.378712
418.933121	3673.889579
419.312428	3661.574041
419.691674	3661.011952
420.070859	3700.711038
420.449983	3680.823687
420.829045	3728.727251
421.208047	3713.636557
421.586988	3760.234463
421.965867	3791.774442
422.344686	3799.273158
422.723444	3836.038293
423.102141	3741.700660
423.480777	3842.516176
423.859352	3812.443172
424.237866	3909.566042
424.616319	3894.593815
424.994712	3952.078093
425.373044	3943.112401
425.751314	4008.458357
426.129524	3940.569138
426.507673	4042.728121
426.885762	4018.344060
427.263789	4042.193759
427.641756	4044.038821
428.019662	4076.080395
428.397508	4076.687854
428.775292	4117.107826
429.153016	4122.522025
429.530679	4134.194817
429.908282	4144.486332
430.285824	4121.110502
430.663305	4196.445505
431.040726	4155.004700
431.418086	4141.186897
431.795385	4217.540213
432.172624	4251.575563
432.549802	4216.889904
432.926920	4235.418665
433.303977	4228.348447
433.680974	4272.713121
434.057910	4291.559475
434.434786	4299.746309
434.811601	4296.502326
435.188355	4401.391094
435.565050	4370.478738
435.941683	4370.055282
436.318257	4457.418478
436.694770	4464.155980
437.071222	4521.907438
437.447614	4454.129125
437.823946	4455.802788
438.200218	4472.214264
438.576429	4455.729691
438.952580	4482.208352
439.328670	4484.592818
439.704700	4531.596536
440.080670	4495.738809
440.456580	4554.624527
440.832429	4587.933951
441.208218	4493.112368
441.583947	4546.089853
441.959616	4562.478644
442.335224	4585.390689
442.710773	4610.835913
443.086261	4664.519160
443.461689	4617.681800
443.837057	4625.661946
444.212365	4705.339903
444.587612	4704.959296
444.962800	4676.156664
445.337927	4712.684864
445.712995	4601.860138
446.088002	4791.163027
446.462949	4815.519362
446.837837	4833.360005
447.212664	4821.470444
447.587431	5048.077871
447.962139	5345.334549
448.336786	5687.757444
448.711374	5669.009393
449.085901	5308.942459
449.460369	5246.273355
449.834776	5183.763047
450.209124	5418.789201
450.583412	5435.639258
450.957640	5554.794491
451.331808	5414.927677
451.705917	5265.669194
452.079965	5257.731898
452.453954	5297.025171
452.827883	5264.265233
453.201752	5266.092651
453.575562	5297.713289
453.949311	5435.399803
454.323001	5435.273774
454.696632	5430.038536
455.070202	5585.311116
455.443713	5617.307319
455.817164	5712.005394
456.190556	5782.238750
456.563888	5758.086582
456.937160	5830.696841
457.310373	5672.633983
457.683526	5731.418878
458.056619	5728.404268
458.429653	5707.130598
458.802628	5755.545840
459.175542	5785.124810
459.548398	5920.658752
459.921194	6118.622343
460.293930	6172.628224
460.666607	6423.695330
461.039224	6640.664071
461.411782	6763.587566
461.784280	6679.213774
462.156719	6685.192583
462.529099	6645.047354
462.901419	6500.083934
463.273680	6376.910901
463.645882	6362.231061
464.018024	6366.347163
464.390106	6431.262102
464.762130	6691.925043
465.134094	7086.539005
465.505999	7720.668268
465.877845	8430.896268
466.249631	8773.137682
466.621358	8700.431641
466.993026	8505.006271
467.364634	8285.970657
467.736184	8006.058069
468.107674	7846.492947
468.479105	7766.073940
468.850477	7702.116822
469.221790	7528.312960
469.593043	7302.252498
469.964238	7198.477826
470.335373	7177.378077
470.706449	7336.116449
471.077467	7531.809001
471.448425	8189.424999
471.819324	8777.699927
472.190164	8806.744535
472.560945	8317.740009
472.931667	7846.780293
473.302330	7652.882393
473.672934	7539.116153
474.043479	7613.760518
474.413965	7517.116558
474.784393	7467.052859
475.154761	7617.969882
475.525070	7640.115670
475.895321	7583.599295
476.265513	7680.402051
476.635645	7842.581012
477.005719	7838.661515
477.375734	7923.738547
477.745691	8033.456740
478.115588	8236.456444
478.485427	8480.299576
478.855207	8952.643089
479.224928	9393.605418
479.594591	9770.764385
479.964194	9773.254715
480.333739	9858.387200
480.703226	9858.488023
481.072653	9958.723806
481.442022	10072.364016
481.811333	10226.467048
482.180584	10071.355786
482.549777	10008.633749
482.918912	9941.593965
483.287988	9932.151884
483.657005	9835.820475
484.025964	9755.343495
484.394864	9816.187701
484.763706	9772.919478
485.132489	9685.326909
485.501213	9674.029683
485.869879	9730.891378
486.238487	9673.003809
486.607036	9748.031301
486.975527	9695.124392
487.343959	9755.346016
487.712333	9799.423344
488.080648	9839.724849
488.448905	9940.210168
488.817104	9948.548237
489.185244	10113.734245
489.553326	10332.893368
489.921350	10807.528085
490.289315	11437.014445
490.657222	11734.555948
491.025070	11896.132490
491.392861	11820.167343
491.760593	11650.850109
492.128267	11395.956767
492.495883	11163.748618
492.863440	10924.319016
493.230939	10696.163955
493.598380	10522.932265
493.965763	10497.668522
494.333088	10368.647751
494.700354	10289.678076
495.067563	10268.301063
495.434713	10275.237691
495.801805	10312.726232
496.168839	10271.925653
496.535815	10243.644780
496.902733	10288.311924
497.269593	10243.057486
497.636395	10253.240616
498.003139	10357.985711
498.369825	10290.983735
498.736453	10387.499146
499.103023	10323.317696
499.469535	10331.315487
499.835989	10386.604341
500.202385	10356.160813
500.568723	10373.983813
500.935003	10437.169635
501.301226	10399.008100
501.667390	10577.893445
502.033497	10680.175936
502.399546	10593.649571
502.765537	10510.367189
503.131470	10609.072981
503.497345	10705.139729
503.863163	10475.457198
504.228923	10607.464853
504.594625	10726.189067
504.960269	10633.820005
505.325856	10782.234095
505.691385	10660.948975
506.056856	10728.447504
506.422270	10836.731489
506.787625	10770.704976
507.152924	10824.360497
507.518164	10884.725794
507.883347	10743.321429
508.248472	10821.678603
508.613540	10928.268760
508.978550	11000.485810
509.343503	10983.013171
509.708398	11029.585870
510.073236	11158.556230
510.438016	11182.209324
510.802738	11091.208935
511.167403	11230.584236
511.532010	11285.303440
511.896561	11376.387008
512.261053	11573.657440
512.625488	11492.658701
512.989866	11475.405352
513.354186	11455.984307
513.718449	11466.706841
514.082655	11606.424940
514.446803	11567.202243
514.810894	11676.527226
515.174927	11662.996769
515.538904	11649.494038
515.902822	11811.630149
516.266684	11686.261694
516.630488	11785.786674
516.994235	11771.588264
517.357925	11890.672921
517.721558	11952.555605
518.085133	12012.061385
518.448651	12042.399048
518.812112	12009.344203
519.175516	12016.880728
519.538863	12101.347781
519.902152	12110.258020
520.265385	12215.419010
520.628560	12240.624779
520.991678	12191.954960
521.354739	12241.995973
521.717743	12310.885861
522.080690	12282.040379
522.443580	12419.815113
522.806413	12432.314654
523.169189	12432.649891
523.531908	12483.666368
523.894569	12445.832508
524.257174	12466.985190
524.619722	12575.899319
524.982213	12547.225236
525.344647	12539.066128
525.707025	12548.588868
526.069345	12655.473932
526.431608	12633.663380
526.793815	12716.381153
527.155964	12606.912497
527.518057	12636.551961
527.880093	12591.103439
528.242072	12712.280174
528.603995	12636.851910
528.965860	12648.083601
529.327669	12678.748940
529.689421	12624.090229
530.051117	12642.739978
530.412755	12681.135926
530.774337	12681.246831
531.135862	12646.813230
531.497331	12705.462014
531.858743	12662.866784
532.220098	12749.375505
532.581396	12670.113443
532.942638	12593.719798
533.303824	12653.243222
533.664953	12643.140749
534.026025	12592.514962
534.387040	12697.320550
534.747999	12676.558558
535.108902	12718.034652
535.469748	12587.367944
535.830537	12616.374743
536.191270	12663.733863
536.551947	12589.780136
536.912567	12650.584013
537.273131	12679.457222
537.633638	12562.573029
537.994089	12615.522788
538.354483	12542.100903
538.714821	12672.024040
539.075103	12742.978281
539.435328	12678.650637
539.795497	12660.288234
540.155609	12657.813028
540.515665	12757.189293
540.875665	12610.181686
541.235609	12715.027603
541.595496	12672.727281
541.955328	12850.354858
542.315102	12695.987165
542.674821	12640.506747
543.034483	12647.660144
543.394090	12650.407573
543.753640	12617.965227
544.113134	12860.913554
544.472571	12625.234571
544.831953	12903.846541
545.191278	12723.438768
545.550548	12655.720949
545.909761	12774.011624
546.268918	12809.274495
546.628019	12874.549876
546.987064	12766.313782
547.346053	12617.388015
547.704986	12812.798262
548.063863	12689.940301
548.422684	12742.668250
548.781449	12702.601159
549.140158	12812.115185
549.498811	12754.968665
549.857408	12623.898665
550.215949	12824.408039
550.574434	12795.494501
550.932864	12733.531158
551.291237	12941.950103
551.649555	12818.683809
552.007817	12884.284344
552.366022	12807.270636
552.724173	12846.621883
553.082267	12929.553905
553.440305	13026.480170
553.798288	12849.880989
554.156215	12921.848502
554.514086	12967.639823
554.871902	12903.266808
555.229661	12934.809308
555.587365	12880.901729
555.945014	12894.490160
556.302606	12884.652348
556.660143	12933.138166
557.017625	12977.666677
557.375050	12932.238320
557.732421	13030.535778
558.089735	13029.887990
558.446994	13006.998631
558.804197	13120.805200
559.161345	13114.922173
559.518437	12931.935850
559.875474	13025.834903
560.232455	13049.288871
560.589381	13091.861415
560.946251	13027.763144
561.303065	13208.922048
561.659825	13159.117969
562.016528	13067.081623
562.373177	13014.237728
562.729770	13141.925114
563.086307	13020.720652
563.442789	13136.243733
563.799216	13174.168334
564.155587	13119.630611
564.511904	13135.553095
564.868164	13146.021051
565.224370	13213.577554
565.580520	13163.770954
565.936615	13221.605592
566.292654	13157.885407
566.648638	13231.579514
567.004567	13236.144279
567.360441	13230.296541
567.716260	13206.169578
568.072023	13278.396710
568.427732	13264.657045
568.783385	13157.257783
569.138982	13277.305300
569.494525	13275.654323
569.850013	13218.144839
570.205445	13208.917007
570.560823	13222.671796
570.916145	13185.311804
571.271412	13189.039738
571.626625	13151.089932
571.981782	13144.170948
572.336884	13096.504318
572.691931	13187.101414
573.046923	13079.636617
573.401860	13055.154253
573.756743	13052.245507
574.111570	13069.017426
574.466342	13043.788972
574.821059	13095.380140
575.175722	12965.641005
575.530330	12990.188904
575.884882	12927.431579
576.239380	12923.799428
576.593823	12902.104822
576.948211	12910.221080
577.302544	12773.610852
577.656823	12792.593317
578.011047	12864.580994
578.365216	12798.582208
578.719330	12729.160478
579.073389	12712.701111
579.427394	12725.614026
579.781344	12714.062222
580.135239	12641.499854
580.489080	12657.261021
580.842866	12532.684028
581.196597	12642.707210
581.550273	12628.337401
581.903895	12589.593613
582.257463	12694.071527
582.610975	12542.045450
582.964434	12605.402672
583.317837	12520.892769
583.671186	12484.823313
584.024481	12538.619986
584.377721	12430.139397
584.730906	12506.245696
585.084037	12511.521264
585.437113	12432.843976
585.790135	12453.169908
586.143103	12368.473482
586.496016	12384.159032
586.848874	12396.414077
587.201679	12392.726473
587.554428	12261.175043
587.907124	12312.831747
588.259765	12253.351172
588.612352	12322.755258
588.964884	12185.625791
589.317362	12232.145559
589.669786	12223.376472
590.022155	12176.675222
590.374470	12279.663475
590.726731	12173.867300
591.078937	12052.536809
591.431090	12074.254100
591.783188	12002.843635
592.135232	11929.656163
592.487222	11983.914102
592.839157	12001.280877
593.191038	11934.268819
593.542866	11890.637632
593.894639	11737.489899
594.246358	11793.418981
594.598022	11806.551186
594.949633	11705.045033
595.301190	11697.584125
595.652692	11653.942857
596.004141	11744.529871
596.355535	11523.510563
596.706876	11504.938952
597.058162	11473.184724
597.409395	11559.983311
597.760573	11597.035791
598.111698	11484.444141
598.462768	11487.488998
598.813785	11493.810605
599.164748	11376.540763
599.515657	11451.452309
599.866511	11325.519245
600.217312	11454.829883
600.568060	11223.927392
600.918753	11383.338759
601.269392	11386.731456
601.619978	11281.716659
601.970510	11321.216620
602.320988	11363.950482
602.671412	11433.911615
603.021783	11364.598270
603.372100	11288.834769
603.722363	11301.598970
604.072572	11299.522015
604.422728	11310.184055
604.772830	11257.839234
605.122878	11269.015472
605.472872	11238.264434
605.822813	11300.101747
606.172701	11260.558937
606.522534	11307.214816
606.872314	11352.791887
607.222041	11280.058120
607.571714	11361.205573
607.921333	11226.609286
608.270899	11283.743203
608.620411	11341.343427
608.969870	11286.415015
609.319276	11274.457398
609.668627	11280.242122
610.017926	11367.645647
610.367171	11393.040460
610.716362	11381.723069
611.065500	11361.634071
611.414585	11374.720907
611.763616	11433.341964
612.112594	11398.926007
612.461518	11420.958370
612.810389	11463.838424
613.159207	11410.598799
613.507971	11404.231821
613.856682	11509.314673
614.205340	11470.694394
614.553945	11604.801689
614.902496	11487.806590
615.250994	11551.264635
615.599439	11535.468179
615.947830	11576.520816
616.296169	11540.128726
616.644454	11564.046481
616.992686	11568.031513
617.340864	11666.013899
617.688990	11545.353882
618.037063	11688.464678
618.385082	11664.501553
618.733048	11697.919362
619.080961	11686.256653
619.428821	11661.401244
619.776628	11673.016062
620.124382	11611.002308
620.472083	11627.600307
620.819731	11656.536530
621.167326	11582.560118
621.514868	11558.604555
621.862357	11464.062756
622.209793	11458.182250
622.557176	11375.411545
622.904506	11322.519759
623.251783	11236.361398
623.599007	11180.432317
623.946179	11126.834769
624.293297	11111.655855
624.640363	10970.412807
624.987376	10953.900507
625.334336	10890.979345
625.681243	10806.892899
626.028097	10776.363672
626.374899	10738.524771
626.721647	10708.454288
627.068343	10677.864567
627.414987	10606.335635
627.761577	10540.432630
628.108115	10591.272667
628.454600	10464.921187
628.801032	10480.619340
629.147412	10463.547472
629.493739	10437.076374
629.840014	10359.165341
630.186236	10413.791284
630.532405	10306.656682
630.878521	10339.315798
631.224585	10296.846597
631.570597	10215.205111
631.916556	10218.915400
632.262462	10206.551970
632.608316	10187.589670
632.954117	10165.380867
633.299866	10151.759669
633.645562	10116.983269
633.991206	10020.215800
634.336797	9921.817518
634.682336	9912.425849
635.027823	9853.172127
635.373257	9819.139297
635.718639	9748.185057
636.063968	9721.587929
636.409245	9599.344989
636.754470	9592.496582
637.099642	9540.981031
637.444762	9444.432852
637.789829	9445.196587
638.134845	9369.670020
638.479808	9344.376031
