Dividing Wavelength (nm)	Counts (n)	Blue Motor Position (mm): 30.500000	Red Motor Position (mm): 0.000000	
326.493990	2153.202837
326.888308	2153.202837
327.282561	2153.202837
327.676750	2132.892028
328.070874	2130.910854
328.464933	2137.484519
328.858929	2145.416774
329.252859	2156.358599
329.646726	2170.337718
330.040528	2186.096365
330.434265	2204.849458
330.827938	2222.856459
331.221547	2242.983266
331.615091	2262.610998
332.008571	2283.254523
332.401986	2302.952832
332.795338	2323.828250
333.188625	2343.763493
333.581847	2360.162367
333.975006	2380.735315
334.368100	2400.907493
334.761129	2419.842066
335.154095	2435.603234
335.546996	2459.687346
335.939833	2492.543067
336.332606	2502.176712
336.725315	2517.693383
337.117960	2520.531553
337.510540	2528.791483
337.903056	2543.151210
338.295508	2549.563558
338.687896	2555.418858
339.080220	2564.369427
339.472480	2565.382698
339.864676	2571.822772
340.256807	2572.848647
340.648875	2577.103381
341.040879	2576.483319
341.432818	2582.015986
341.824694	2580.400296
342.216506	2580.876685
342.608253	2580.790985
342.999937	2583.009093
343.391557	2579.303845
343.783113	2577.657908
344.174605	2576.538772
344.566033	2575.613720
344.957397	2572.717577
345.348697	2568.546023
345.739934	2570.806980
346.131106	2567.850343
346.522215	2568.901424
346.913260	2563.083932
347.304241	2563.048644
347.695159	2560.306257
348.086012	2558.809034
348.476802	2558.168807
348.867528	2557.412634
349.258191	2555.496996
349.648789	2552.263096
350.039324	2552.106820
350.429796	2553.873744
350.820203	2552.207643
351.210548	2550.213867
351.600828	2546.884184
351.991045	2549.316541
352.381198	2548.981304
352.771288	2549.853424
353.161314	2549.034237
353.551276	2550.617159
353.941175	2547.670604
354.331010	2548.709082
354.720782	2550.110523
355.110490	2547.917621
355.500135	2549.054401
355.889717	2550.423074
356.279235	2551.252344
356.668689	2549.538352
357.058080	2549.674463
357.447408	2547.093392
357.836672	2548.232693
358.225873	2549.475337
358.615010	2546.450645
359.004084	2550.823846
359.393095	2551.600184
359.782043	2553.987170
360.170927	2554.193858
360.559748	2554.612273
360.948505	2555.086142
361.337199	2557.316852
361.725830	2558.007490
362.114398	2556.003632
362.502903	2557.442881
362.891344	2560.384394
363.279722	2554.733261
363.668037	2557.594116
364.056289	2556.719476
364.444478	2558.405742
364.832603	2559.890361
365.220665	2558.677964
365.608665	2560.278530
365.996601	2561.702656
366.384474	2562.231977
366.772284	2562.410938
367.160031	2560.454971
367.547715	2563.991340
367.935336	2558.287274
368.322893	2560.704508
368.710388	2563.772050
369.097820	2565.869170
369.485189	2562.060578
369.872495	2564.019066
370.259738	2565.153326
370.646918	2558.662840
371.034035	2563.462019
371.421090	2566.443861
371.808081	2565.216340
372.195010	2567.046279
372.581875	2564.324056
372.968678	2564.901268
373.355418	2565.002091
373.742096	2567.144582
374.128710	2567.522668
374.515262	2565.904458
374.901751	2565.821279
375.288177	2568.321691
375.674540	2566.327915
376.060841	2570.559963
376.447079	2566.305230
376.833254	2567.683985
377.219367	2565.677606
377.605417	2566.718604
377.991404	2568.573749
378.377329	2565.463357
378.763191	2566.285065
379.148991	2571.527865
379.534727	2569.634912
379.920402	2569.627350
380.306013	2569.828996
380.691563	2571.875705
381.077049	2573.113308
381.462474	2566.025446
381.847835	2570.794377
382.233134	2570.280179
382.618371	2571.311095
383.003545	2573.367886
383.388657	2574.071127
383.773706	2574.630695
384.158693	2574.809656
384.543618	2573.151117
384.928480	2573.443503
385.313280	2571.144737
385.698017	2574.030798
386.082692	2578.691345
386.467305	2574.550037
386.851856	2576.858885
387.236344	2575.248237
387.620770	2577.572208
388.005133	2575.512897
388.389435	2572.420149
388.773674	2575.515418
389.157851	2574.887794
389.541965	2576.400140
389.926018	2575.422156
390.310008	2576.188412
390.693936	2579.568505
391.077802	2579.560944
391.461606	2577.327713
391.845348	2580.521283
392.229027	2578.850141
392.612645	2579.724781
392.996200	2577.181519
393.379694	2581.194277
393.763125	2579.029102
394.146494	2578.330902
394.529801	2579.669328
394.913047	2579.949112
395.296230	2580.143197
395.679351	2580.173444
396.062410	2582.772159
396.445408	2581.665625
396.828343	2581.509350
397.211217	2578.691345
397.594028	2577.163875
397.976778	2579.495409
398.359466	2579.782754
398.742092	2578.338464
399.124656	2585.630493
399.507158	2583.152766
399.889598	2584.811305
400.271977	2583.480441
400.654294	2582.603280
401.036549	2581.703434
401.418742	2584.420616
401.800874	2585.668302
402.182944	2583.354412
402.564952	2583.999680
402.946898	2586.250555
403.328783	2586.376584
403.710606	2586.517736
404.092367	2587.034454
404.474067	2585.723754
404.855705	2588.395566
405.237282	2586.827767
405.618797	2585.479258
406.000250	2588.718200
406.381642	2587.213415
406.762972	2585.443970
407.144240	2586.747108
407.525447	2590.401945
407.906593	2587.959506
408.287677	2588.672829
408.668700	2586.653847
409.049661	2590.371698
409.430560	2587.137798
409.811399	2591.256421
410.192176	2589.091245
410.572891	2589.834815
410.953545	2590.404466
411.334138	2590.984198
411.714669	2589.124013
412.095139	2589.739033
412.475547	2590.091914
412.855894	2588.715679
413.236180	2591.069898
413.616405	2591.954620
413.996568	2591.563931
414.376670	2592.539394
414.756711	2590.177614
415.136691	2593.487131
415.516609	2594.001329
415.896466	2592.274734
416.276262	2593.260279
416.655997	2590.719538
417.035670	2592.884713
417.415283	2591.604260
417.794834	2590.812799
418.174324	2593.764395
418.553753	2594.964189
418.933121	2598.487956
419.312428	2596.174066
419.691674	2595.617019
420.070859	2598.765219
420.449983	2596.597523
420.829045	2597.464602
421.208047	2599.435693
421.586988	2600.282607
421.965867	2601.061465
422.344686	2598.649273
422.723444	2601.298399
423.102141	2600.905189
423.480777	2602.614140
423.859352	2600.635487
424.237866	2607.587238
424.616319	2603.302258
424.994712	2604.854933
425.373044	2609.563371
425.751314	2610.932044
426.129524	2609.268463
426.507673	2612.192332
426.885762	2614.425564
427.263789	2616.063939
427.641756	2617.730040
428.019662	2623.474435
428.397508	2624.742285
428.775292	2627.136833
429.153016	2631.172277
429.530679	2635.742083
429.908282	2640.405150
430.285824	2645.529483
430.663305	2648.607107
431.040726	2651.079793
431.418086	2658.054230
431.795385	2670.195849
432.172624	2674.894204
432.549802	2680.091634
432.926920	2686.372911
433.303977	2695.131916
433.680974	2705.062989
434.057910	2716.186295
434.434786	2723.390104
434.811601	2734.152967
435.188355	2752.611152
435.565050	2757.007038
435.941683	2770.797115
436.318257	2787.354785
436.694770	2803.519244
437.071222	2820.303766
437.447614	2822.784014
437.823946	2836.042248
438.200218	2857.830115
438.576429	2869.132382
438.952580	2886.463869
439.328670	2904.836354
439.704700	2928.252514
440.080670	2937.745007
440.456580	2966.870273
440.832429	2992.703666
441.208218	2989.424395
441.583947	3016.845752
441.959616	3038.648742
442.335224	3067.829461
442.710773	3089.478696
443.086261	3123.894654
443.461689	3134.939822
443.837057	3157.761125
444.212365	3200.931046
444.587612	3229.655541
444.962800	3238.858167
445.337927	3278.022891
445.712995	3262.917074
446.088002	3349.496371
446.462949	3385.250754
446.837837	3418.124118
447.212664	3437.764454
447.587431	3554.000859
447.962139	3707.675393
448.336786	3875.697050
448.711374	3901.774939
449.085901	3779.418573
449.460369	3786.458545
449.834776	3792.185296
450.209124	3939.777677
450.583412	3979.461640
450.957640	4067.752409
451.331808	4033.901061
451.705917	3988.991942
452.079965	4022.654247
452.453954	4074.822627
452.827883	4087.138166
453.201752	4125.478662
453.575562	4174.405580
453.949311	4287.541675
454.323001	4322.774300
454.696632	4354.042056
455.070202	4487.614989
455.443713	4537.887896
455.817164	4632.792658
456.190556	4713.062951
456.563888	4731.745467
456.937160	4817.024146
457.310373	4745.286006
457.683526	4819.292665
458.056619	4845.985575
458.429653	4873.540522
458.802628	4937.232980
459.175542	4985.723839
459.548398	5127.579388
459.921194	5298.502229
460.293930	5376.405700
460.666607	5600.265699
461.039224	5806.209436
461.411782	5933.352377
461.784280	5901.814919
462.156719	5944.440395
462.529099	5951.349297
462.901419	5864.263364
463.273680	5786.070027
463.645882	5808.263706
464.018024	5841.613460
464.390106	5924.215286
464.762130	6181.946797
465.134094	6537.108688
465.505999	7108.646985
465.877845	7754.133968
466.249631	8101.693799
466.621358	8076.838390
466.993026	7942.869726
467.364634	7783.256713
467.736184	7559.346303
468.107674	7439.437418
468.479105	7388.080663
468.850477	7351.008018
469.221790	7214.009621
469.593043	7029.203442
469.964238	6947.105731
470.335373	6946.863755
470.706449	7110.602953
471.077467	7306.401368
471.448425	7948.218391
471.819324	8522.184003
472.190164	8567.244357
472.560945	8112.786858
472.931667	7669.412336
473.302330	7490.224523
473.672934	7395.355048
474.043479	7479.905281
474.413965	7397.830255
474.784393	7353.291661
475.154761	7509.761514
475.525070	7528.900255
475.895321	7493.113104
476.265513	7600.293076
476.635645	7766.124352
477.005719	7757.859380
477.375734	7850.737599
477.745691	7965.862429
478.115588	8169.451948
478.485427	8408.952126
478.855207	8885.013489
479.224928	9309.702974
479.594591	9698.297798
479.964194	9711.261125
480.333739	9794.745153
480.703226	9802.705135
481.072653	9910.278317
481.442022	10029.126040
481.811333	10175.049800
482.180584	10021.652529
482.549777	9964.148087
482.918912	9910.096836
483.287988	9894.713755
483.657005	9808.668820
484.025964	9727.652437
484.394864	9795.382859
484.763706	9752.911138
485.132489	9665.137088
485.501213	9655.004369
485.869879	9715.944357
486.238487	9650.671497
486.607036	9734.667202
486.975527	9677.586217
487.343959	9736.512265
487.712333	9780.408112
488.080648	9826.083486
488.448905	9930.420248
488.817104	9934.390156
489.185244	10105.111352
489.553326	10324.043622
489.921350	10781.072109
490.289315	11415.536609
490.657222	11709.892103
491.025070	11887.413815
491.392861	11793.449228
491.760593	11633.823612
492.128267	11384.226002
492.495883	11154.747638
492.863440	10916.555639
493.230939	10694.071876
493.598380	10506.004070
493.965763	10484.959773
494.333088	10358.656184
494.700354	10283.548033
495.067563	10260.240258
495.434713	10268.684191
495.801805	10310.417383
496.168839	10268.769891
496.535815	10238.391898
496.902733	10285.067941
497.269593	10241.512372
497.636395	10246.881201
498.003139	10362.777328
498.369825	10290.524990
498.736453	10377.608402
499.103023	10321.202932
499.469535	10334.751033
499.835989	10378.709894
500.202385	10351.565802
500.568723	10369.298060
500.935003	10440.141395
501.301226	10400.807792
501.667390	10570.964379
502.033497	10670.522126
502.399546	10595.514798
502.765537	10504.781590
503.131470	10610.418969
503.497345	10700.179234
503.863163	10477.554318
504.228923	10612.904258
504.594625	10725.770652
504.960269	10639.513989
505.325856	10792.228183
505.691385	10667.827629
506.056856	10733.649975
506.422270	10845.329177
506.787625	10770.571386
507.152924	10822.061731
507.518164	10884.909796
507.883347	10750.510114
508.248472	10826.891157
508.613540	10935.028948
508.978550	11009.416214
509.343503	10994.292752
509.708398	11038.412931
510.073236	11172.915957
510.438016	11184.457678
510.802738	11095.803947
511.167403	11221.656352
511.532010	11290.248812
511.896561	11380.717359
512.261053	11580.916702
512.625488	11497.346974
512.989866	11482.021866
513.354186	11466.916049
513.718449	11474.160187
514.082655	11617.951539
514.446803	11570.448746
514.810894	11675.266937
515.174927	11676.426403
515.538904	11659.536017
515.902822	11815.640387
516.266684	11693.591532
516.630488	11790.225410
516.994235	11782.106631
517.357925	11896.739949
517.721558	11955.202210
518.085133	12021.634536
518.448651	12044.554142
518.812112	12021.632015
519.175516	12012.331086
519.538863	12109.383380
519.902152	12119.662293
520.265385	12223.520144
520.628560	12246.880851
520.991678	12203.950385
521.354739	12253.845205
521.717743	12325.608551
522.080690	12293.433387
522.443580	12434.215169
522.806413	12454.538581
523.169189	12442.396962
523.531908	12502.585818
523.894569	12465.984521
524.257174	12481.327273
524.619722	12582.475504
524.982213	12567.546127
525.344647	12550.229763
525.707025	12556.722770
526.069345	12665.215962
526.431608	12639.218732
526.793815	12722.765774
527.155964	12617.748458
527.518057	12645.522695
527.880093	12608.419802
528.242072	12725.959345
528.603995	12643.370122
528.965860	12656.220023
529.327669	12688.828727
529.689421	12638.772590
530.051117	12646.180565
530.412755	12679.598374
530.774337	12688.591793
531.135862	12650.062254
531.497331	12705.988814
531.858743	12668.275943
532.220098	12760.100560
532.581396	12691.334180
532.942638	12611.779731
533.303824	12675.638548
533.664953	12656.635918
534.026025	12606.541973
534.387040	12716.630690
534.747999	12681.458560
535.108902	12732.366652
535.469748	12607.388886
535.830537	12636.133546
536.191270	12674.824401
536.551947	12598.166095
536.912567	12658.826300
537.273131	12687.245804
537.633638	12574.422261
537.994089	12642.918939
538.354483	12552.084908
538.714821	12677.405472
539.075103	12758.676434
539.435328	12692.465919
539.795497	12663.701095
540.155609	12662.193790
540.515665	12764.050304
540.875665	12620.997481
541.235609	12719.448695
541.595496	12679.938652
541.955328	12865.276673
542.315102	12714.946945
542.674821	12650.286585
543.034483	12665.795695
543.394090	12667.204697
543.753640	12635.092547
544.113134	12880.992470
544.472571	12646.357006
544.831953	12918.029827
545.191278	12738.365625
545.550548	12667.552537
545.909761	12783.108386
546.268918	12823.160353
546.628019	12896.937640
546.987064	12782.160649
547.346053	12630.258081
547.704986	12827.899038
548.063863	12702.855737
548.422684	12762.598452
548.781449	12716.739075
549.140158	12808.581336
549.498811	12765.240016
549.857408	12648.255000
550.215949	12842.057118
550.574434	12809.405565
550.932864	12748.208478
551.291237	12948.700207
551.649555	12844.784383
552.007817	12899.027198
552.366022	12812.286584
552.724173	12855.035569
553.082267	12948.634672
553.440305	13035.690358
553.798288	12856.469777
554.156215	12932.462651
554.514086	12988.111948
554.871902	12916.197368
555.229661	12939.948764
555.587365	12903.634813
555.945014	12916.204930
556.302606	12890.527813
556.660143	12960.708236
557.017625	12985.203202
557.375050	12946.025875
557.732421	13049.682081
558.089735	13037.308569
558.446994	13021.033203
558.804197	13133.589566
559.161345	13122.670427
559.518437	12946.136781
559.875474	13038.513404
560.232455	13069.060276
560.589381	13110.773304
560.946251	13058.027711
561.303065	13220.032752
561.659825	13166.654494
562.016528	13088.675406
562.373177	13030.545861
562.729770	13160.869770
563.086307	13048.739385
563.442789	13154.041527
563.799216	13189.576621
564.155587	13141.720947
564.511904	13151.112617
564.868164	13168.497036
565.224370	13230.851068
565.580520	13179.206967
565.936615	13240.358684
566.292654	13165.311027
566.648638	13241.324065
567.004567	13241.225762
567.360441	13243.771545
567.716260	13214.018655
568.072023	13308.320999
568.427732	13288.337866
568.783385	13183.166793
569.138982	13305.742449
569.494525	13295.367755
569.850013	13237.956574
570.205445	13228.315367
570.560823	13240.935896
570.916145	13195.174822
571.271412	13214.631155
571.626625	13171.594825
571.981782	13162.238443
572.336884	13110.715330
572.691931	13196.225903
573.046923	13084.327411
573.401860	13063.988875
573.756743	13067.139597
574.111570	13092.778905
574.466342	13067.174885
574.821059	13119.678502
575.175722	12986.541629
575.530330	13012.425433
575.884882	12944.379939
576.239380	12940.841049
576.593823	12923.870004
576.948211	12909.535483
577.302544	12784.167028
577.656823	12816.500989
578.011047	12876.977191
578.365216	12812.039568
578.719330	12748.571441
579.073389	12717.099518
579.427394	12728.817680
579.781344	12721.591186
580.135239	12651.468736
580.489080	12675.658712
580.842866	12555.462481
581.196597	12650.775577
581.550273	12647.007314
581.903895	12610.554731
582.257463	12718.226215
582.610975	12562.323492
582.964434	12614.892644
583.317837	12540.820450
583.671186	12496.060045
584.024481	12539.771890
584.377721	12438.701796
584.730906	12510.757529
585.084037	12526.153213
585.437113	12446.939042
585.790135	12465.767751
586.143103	12374.429605
586.496016	12391.660269
586.848874	12409.074935
587.201679	12399.164027
587.554428	12272.643668
587.907124	12325.661483
588.259765	12261.074220
588.612352	12339.925428
588.964884	12192.950588
589.317362	12248.080646
589.669786	12236.879202
590.022155	12199.597349
590.374470	12290.043211
590.726731	12182.737210
591.078937	12063.478633
591.431090	12093.095412
591.783188	12020.976665
592.135232	11944.267948
592.487222	12006.634582
592.839157	12024.056810
593.191038	11943.451281
593.542866	11891.393806
593.894639	11744.426527
594.246358	11806.636886
594.598022	11814.846405
594.949633	11714.731610
595.301190	11702.877337
595.652692	11667.712768
596.004141	11748.708987
596.355535	11529.262519
596.706876	11514.633091
597.058162	11480.655714
597.409395	11578.033162
597.760573	11602.843201
598.111698	11501.009372
598.462768	11497.031902
598.813785	11510.544715
599.164748	11377.183510
599.515657	11454.691251
599.866511	11327.258443
600.217312	11465.277674
600.568060	11226.760521
600.918753	11392.498536
601.269392	11390.966025
601.619978	11288.149172
601.970510	11331.014103
602.320988	11373.647141
602.671412	11443.638521
603.021783	11373.652182
603.372100	11297.737446
603.722363	11315.016001
604.072572	11319.490025
604.422728	11323.802732
604.772830	11273.441605
605.122878	11278.702049
605.472872	11250.801783
605.822813	11303.025617
606.172701	11266.958682
606.522534	11299.731223
606.872314	11351.009840
607.222041	11287.405602
607.571714	11366.360153
607.921333	11232.280584
608.270899	11287.834100
608.620411	11355.267094
608.969870	11302.024948
609.319276	11275.329517
609.668627	11288.048349
610.017926	11374.922553
610.367171	11407.843808
610.716362	11393.481561
611.065500	11369.455422
611.414585	11377.135619
611.763616	11444.795466
612.112594	11403.339537
612.461518	11439.230032
612.810389	11483.657721
613.159207	11431.844742
613.507971	11424.204873
613.856682	11525.078361
614.205340	11483.355252
614.553945	11622.735594
614.902496	11493.966880
615.250994	11559.779144
615.599439	11556.204966
615.947830	11587.127403
616.296169	11548.590303
616.644454	11560.449617
616.992686	11577.728172
617.340864	11673.845332
617.688990	11562.942468
618.037063	11696.245699
618.385082	11664.209166
618.733048	11700.470186
619.080961	11690.150944
619.428821	11681.170128
619.776628	11683.496621
620.124382	11622.942281
620.472083	11642.015487
620.819731	11664.723364
621.167326	11583.974162
621.514868	11571.542676
621.862357	11481.172432
622.209793	11464.773558
622.557176	11379.545291
622.904506	11325.189050
623.251783	11253.859243
623.599007	11188.835920
623.946179	11140.760957
624.293297	11111.413880
624.640363	10969.780142
624.987376	10971.902467
625.334336	10901.734647
625.681243	10820.110805
626.028097	10788.636361
626.374899	10750.568087
626.721647	10726.153779
627.068343	10680.196100
627.414987	10620.672676
627.761577	10558.651360
628.108115	10606.512075
628.454600	10474.403597
628.801032	10498.555765
629.147412	10475.641201
629.493739	10447.788826
629.840014	10371.193534
630.186236	10418.083827
630.532405	10311.221447
630.878521	10352.470689
631.224585	10306.243308
631.570597	10223.815401
631.916556	10230.580630
632.262462	10207.366116
632.608316	10199.368326
632.954117	10166.512606
633.299866	10154.101285
633.645562	10128.383838
633.991206	10032.947234
634.336797	9936.300753
634.682336	9925.961347
635.027823	9864.817192
635.373257	9826.171707
635.718639	9759.681408
636.063968	9736.071164
636.409245	9615.607752
636.754470	9604.217264
637.099642	9546.601917
637.444762	9450.325961
637.789829	9458.986663
638.134845	9383.591166
638.479808	9361.589050
