Dividing Wavelength (nm)	Counts (n)	Blue Motor Position (mm): 41.000000	Red Motor Position (mm): 0.000000	
326.493990	2154.488331
326.888308	2154.488331
327.282561	2154.488331
327.676750	2129.436317
328.070874	2129.456481
328.464933	2135.382358
328.858929	2142.921403
329.252859	2155.806593
329.646726	2169.039621
330.040528	2184.578978
330.434265	2204.690661
330.827938	2221.888558
331.221547	2243.426888
331.615091	2262.893303
332.008571	2282.992383
332.401986	2303.174643
332.795338	2322.719196
333.188625	2343.380365
333.581847	2362.385515
333.975006	2382.600542
334.368100	2401.545198
334.761129	2419.216963
335.154095	2434.267328
335.546996	2462.344034
335.939833	2490.985350
336.332606	2504.483039
336.725315	2511.848165
337.117960	2520.997859
337.510540	2531.470857
337.903056	2540.060983
338.295508	2547.090872
338.687896	2555.212171
339.080220	2564.273645
339.472480	2567.593244
339.864676	2569.881928
340.256807	2576.143041
340.648875	2576.735377
341.040879	2579.296283
341.432818	2580.503639
341.824694	2579.936510
342.216506	2578.653536
342.608253	2581.814339
342.999937	2579.840728
343.391557	2581.103537
343.783113	2577.839390
344.174605	2575.764955
344.566033	2571.464851
344.957397	2572.815880
345.348697	2568.840930
345.739934	2570.779254
346.131106	2566.695919
346.522215	2566.811866
346.913260	2562.700805
347.304241	2559.532439
347.695159	2559.671071
348.086012	2561.596792
348.476802	2558.153684
348.867528	2556.563200
349.258191	2555.570092
349.648789	2553.619166
350.039324	2553.339382
350.429796	2552.043805
350.820203	2553.442726
351.210548	2550.435677
351.600828	2549.336706
351.991045	2546.972405
352.381198	2548.991387
352.771288	2548.406613
353.161314	2548.328475
353.551276	2547.131201
353.941175	2549.319062
354.331010	2547.224462
354.720782	2547.854607
355.110490	2546.072559
355.500135	2549.016592
355.889717	2547.073228
356.279235	2549.535831
356.668689	2550.571788
357.058080	2551.204453
357.447408	2543.390665
357.836672	2547.247147
358.225873	2547.035419
358.615010	2546.128011
359.004084	2551.436346
359.393095	2554.579506
359.782043	2556.303580
360.170927	2553.324258
360.559748	2555.373488
360.948505	2554.345092
361.337199	2555.625545
361.725830	2553.893909
362.114398	2557.468087
362.502903	2556.439692
362.891344	2556.500185
363.279722	2557.420196
363.668037	2559.413972
364.056289	2557.203426
364.444478	2558.057902
364.832603	2558.340207
365.220665	2559.461863
365.608665	2560.691905
365.996601	2561.253993
366.384474	2560.646534
366.772284	2561.964796
367.160031	2562.035372
367.547715	2562.035372
367.935336	2563.328428
368.322893	2560.565876
368.710388	2561.594271
369.097820	2565.717935
369.485189	2564.770198
369.872495	2566.015363
370.259738	2562.864642
370.646918	2566.030487
371.034035	2565.233984
371.421090	2564.455126
371.808081	2563.958572
372.195010	2568.619119
372.581875	2561.695094
372.968678	2566.917730
373.355418	2564.571073
373.742096	2568.719942
374.128710	2567.749520
374.515262	2568.140210
374.901751	2567.338666
375.288177	2567.295816
375.674540	2565.886814
376.060841	2568.682134
376.447079	2568.581311
376.833254	2568.818245
377.219367	2564.220712
377.605417	2570.539799
377.991404	2568.548543
378.377329	2566.043090
378.763191	2565.912020
379.148991	2570.892680
379.534727	2570.489387
379.920402	2571.721949
380.306013	2573.060376
380.691563	2570.335632
381.077049	2572.846127
381.462474	2573.680438
381.847835	2571.089285
382.233134	2574.343349
382.618371	2572.904100
383.003545	2574.708833
383.388657	2573.987948
383.773706	2574.880232
384.158693	2576.135480
384.543618	2574.766806
384.928480	2575.212948
385.313280	2577.463824
385.698017	2578.514904
386.082692	2578.688824
386.467305	2577.131108
386.851856	2576.632033
387.236344	2577.652867
387.620770	2580.052456
388.005133	2577.617579
388.389435	2580.685121
388.773674	2579.931468
389.157851	2578.809812
389.541965	2582.285687
389.926018	2582.073959
390.310008	2583.704772
390.693936	2586.116964
391.077802	2585.028075
391.461606	2586.928590
391.845348	2590.167531
392.229027	2591.037130
392.612645	2594.616350
392.996200	2598.712287
393.379694	2600.509458
393.763125	2604.045828
394.146494	2611.340378
394.529801	2613.593773
394.913047	2619.287757
395.296230	2624.034003
395.679351	2627.920732
396.062410	2633.350055
396.445408	2635.684109
396.828343	2642.202321
397.211217	2647.251037
397.594028	2651.770431
397.976778	2658.833088
398.359466	2671.100736
398.742092	2671.443534
399.124656	2682.902077
399.507158	2695.378933
399.889598	2702.343287
400.271977	2714.593291
400.654294	2722.354147
401.036549	2732.290261
401.418742	2745.155286
401.800874	2761.050044
402.182944	2773.252157
402.564952	2791.972482
402.946898	2797.111938
403.328783	2811.620379
403.710606	2826.267451
404.092367	2846.059021
404.474067	2869.336549
404.855705	2875.504401
405.237282	2884.492778
405.618797	2913.628127
406.000250	2938.226437
406.381642	2966.018318
406.762972	2978.258240
407.144240	2984.970536
407.525447	3011.819721
407.906593	3024.742719
408.287677	3047.248951
408.668700	3070.846592
409.049661	3080.775144
409.430560	3101.829523
409.811399	3120.083541
410.192176	3141.475678
410.572891	3162.918226
410.953545	3201.430120
411.334138	3188.819674
411.714669	3237.101325
412.095139	3208.094526
412.475547	3258.629573
412.855894	3261.535798
413.236180	3297.045685
413.616405	3285.178809
413.996568	3319.559478
414.376670	3330.034996
414.756711	3332.701767
415.136691	3359.558514
415.516609	3392.825088
415.896466	3403.073754
416.276262	3436.922581
416.655997	3471.807366
417.035670	3485.196670
417.415283	3553.514387
417.794834	3580.524890
418.174324	3571.627253
418.553753	3577.137234
418.933121	3623.475520
419.312428	3618.305817
419.691674	3619.359418
420.070859	3661.372394
420.449983	3641.371617
420.829045	3692.423382
421.208047	3682.678831
421.586988	3730.161459
421.965867	3764.877365
422.344686	3776.524951
422.723444	3815.215807
423.102141	3723.703741
423.480777	3827.453208
423.859352	3796.193013
424.237866	3898.382242
424.616319	3881.973287
424.994712	3945.219603
425.373044	3933.559414
425.751314	3995.825226
426.129524	3933.415741
426.507673	4036.789642
426.885762	4009.562370
427.263789	4039.647976
427.641756	4039.171587
428.019662	4071.223243
428.397508	4073.416145
428.775292	4112.142289
429.153016	4119.220069
429.530679	4132.427892
429.908282	4140.138337
430.285824	4120.661839
430.663305	4190.635575
431.040726	4151.939678
431.418086	4142.469871
431.795385	4216.549626
432.172624	4251.116818
432.549802	4218.611458
432.926920	4238.430755
433.303977	4230.783324
433.680974	4270.210188
434.057910	4295.297491
434.434786	4301.770332
434.811601	4291.395638
435.188355	4399.697266
435.565050	4370.645097
435.941683	4366.982698
436.318257	4460.264209
436.694770	4463.450218
437.071222	4517.080533
437.447614	4454.303045
437.823946	4455.986790
438.200218	4473.114110
438.576429	4459.102223
438.952580	4481.800018
439.328670	4486.188343
439.704700	4530.449673
440.080670	4493.233355
440.456580	4552.945822
440.832429	4589.531997
441.208218	4491.998273
441.583947	4544.501890
441.959616	4558.274322
442.335224	4586.242644
442.710773	4606.770222
443.086261	4663.069828
443.461689	4617.573415
443.837057	4627.257471
444.212365	4703.169687
444.587612	4706.065829
444.962800	4671.468391
445.337927	4712.095049
445.712995	4600.776290
446.088002	4792.269560
446.462949	4813.366789
446.837837	4834.653061
447.212664	4824.341381
447.587431	5050.679106
447.962139	5349.833778
448.336786	5687.097053
448.711374	5667.872613
449.085901	5309.912881
449.460369	5248.315022
449.834776	5187.231361
450.209124	5422.408750
450.583412	5429.766314
450.957640	5550.905241
451.331808	5412.979272
451.705917	5271.070791
452.079965	5257.666363
452.453954	5296.304286
452.827883	5263.977887
453.201752	5266.180872
453.575562	5299.142456
453.949311	5432.917035
454.323001	5439.924239
454.696632	5434.131953
455.070202	5586.573925
455.443713	5615.462257
455.817164	5710.936670
456.190556	5783.206651
456.563888	5747.835395
456.937160	5832.367983
457.310373	5671.645917
457.683526	5733.541203
458.056619	5727.343105
458.429653	5708.539601
458.802628	5756.639770
459.175542	5788.872908
459.548398	5922.445841
459.921194	6109.233194
460.293930	6168.189488
460.666607	6425.058962
461.039224	6643.262785
461.411782	6764.452124
461.784280	6680.930287
462.156719	6684.101173
462.529099	6639.305480
462.901419	6507.088617
463.273680	6372.046188
463.645882	6364.028233
464.018024	6362.450352
464.390106	6431.642709
464.762130	6689.951432
465.134094	7085.971875
465.505999	7718.929070
465.877845	8429.729241
466.249631	8778.254454
466.621358	8695.796300
466.993026	8496.879931
467.364634	8286.373949
467.736184	8003.718974
468.107674	7847.750715
468.479105	7764.974969
468.850477	7702.242850
469.221790	7521.809872
469.593043	7304.082437
469.964238	7201.310954
470.335373	7179.883530
470.706449	7337.288518
471.077467	7528.567539
471.448425	8190.803755
471.819324	8770.947301
472.190164	8805.451479
472.560945	8316.245307
472.931667	7847.939758
473.302330	7656.917836
473.672934	7534.601800
474.043479	7610.826567
474.413965	7508.811257
474.784393	7465.694268
475.154761	7621.773432
475.525070	7635.901266
475.895321	7583.490910
476.265513	7687.689039
476.635645	7851.629883
477.005719	7836.861823
477.375734	7929.291378
477.745691	8035.468161
478.115588	8235.624654
478.485427	8473.302455
478.855207	8951.213922
479.224928	9394.013752
479.594591	9776.125652
479.964194	9779.813256
480.333739	9863.541780
480.703226	9862.853662
481.072653	9963.263365
481.442022	10077.420294
481.811333	10222.943282
482.180584	10068.104241
482.549777	10008.563173
482.918912	9938.907030
483.287988	9931.005021
483.657005	9835.878448
484.025964	9756.644113
484.394864	9820.669287
484.763706	9775.001474
485.132489	9689.886633
485.501213	9679.695940
485.869879	9740.681299
486.238487	9676.462040
486.607036	9755.746787
486.975527	9703.328870
487.343959	9756.243341
487.712333	9802.304364
488.080648	9842.933543
488.448905	9937.929046
488.817104	9953.869175
489.185244	10123.990473
489.553326	10332.825312
489.921350	10807.109669
490.289315	11440.520567
490.657222	11726.666542
491.025070	11898.506874
491.392861	11809.769963
491.760593	11658.192549
492.128267	11401.305432
492.495883	11163.267188
492.863440	10936.032137
493.230939	10694.901146
493.598380	10521.661894
493.965763	10498.152473
494.333088	10369.391322
494.700354	10299.319283
495.067563	10274.892372
495.434713	10277.107959
495.801805	10318.513476
496.168839	10279.310943
496.535815	10247.851623
496.902733	10294.608325
497.269593	10254.591646
497.636395	10260.933417
498.003139	10367.460560
498.369825	10301.993615
498.736453	10393.556092
499.103023	10332.986629
499.469535	10339.759419
499.835989	10384.978569
500.202385	10357.869764
500.568723	10381.918589
500.935003	10443.581983
501.301226	10410.832127
501.667390	10575.430841
502.033497	10675.656541
502.399546	10606.091139
502.765537	10513.580924
503.131470	10614.358631
503.497345	10707.526716
503.863163	10479.003650
504.228923	10615.618919
504.594625	10729.896836
504.960269	10633.351178
505.325856	10790.783892
505.691385	10668.029275
506.056856	10737.544266
506.422270	10837.447333
506.787625	10775.864597
507.152924	10826.031640
507.518164	10887.745445
507.883347	10749.154044
508.248472	10829.860396
508.613540	10934.943248
508.978550	11014.240598
509.343503	10998.986067
509.708398	11048.946422
510.073236	11171.030565
510.438016	11193.866992
510.802738	11103.952972
511.167403	11221.369007
511.532010	11286.500714
511.896561	11384.316743
512.261053	11577.695405
512.625488	11502.680515
512.989866	11491.695841
513.354186	11465.459155
513.718449	11468.536780
514.082655	11609.941145
514.446803	11578.126423
514.810894	11683.917557
515.174927	11679.556959
515.538904	11672.683346
515.902822	11821.210862
516.266684	11695.786954
516.630488	11793.781944
516.994235	11783.225768
517.357925	11896.003941
517.721558	11954.161212
518.085133	12023.691327
518.448651	12054.376830
518.812112	12006.553924
519.175516	12014.140861
519.538863	12107.936569
519.902152	12117.623146
520.265385	12224.089795
520.628560	12248.088208
520.991678	12195.385465
521.354739	12242.961354
521.717743	12322.717449
522.080690	12290.161678
522.443580	12420.765371
522.806413	12445.840070
523.169189	12437.088627
523.531908	12498.537772
523.894569	12455.473715
524.257174	12471.156745
524.619722	12582.488107
524.982213	12557.700753
525.344647	12550.378478
525.707025	12553.627501
526.069345	12665.951971
526.431608	12645.406748
526.793815	12722.370044
527.155964	12614.633024
527.518057	12651.806493
527.880093	12606.058022
528.242072	12723.116135
528.603995	12644.814413
528.965860	12652.960917
529.327669	12691.167822
529.689421	12636.055408
530.051117	12648.756595
530.412755	12682.209692
530.774337	12691.369468
531.135862	12647.516471
531.497331	12702.107126
531.858743	12658.150785
532.220098	12750.338365
532.581396	12683.744723
532.942638	12605.856376
533.303824	12670.814163
533.664953	12656.230105
534.026025	12603.149276
534.387040	12709.941079
534.747999	12679.510154
535.108902	12729.402453
535.469748	12604.212959
535.830537	12636.768731
536.191270	12674.945389
536.551947	12602.637599
536.912567	12666.045232
537.273131	12694.661342
537.633638	12572.952764
537.994089	12633.963329
538.354483	12556.243860
538.714821	12677.249196
539.075103	12762.346394
539.435328	12693.721167
539.795497	12674.925224
540.155609	12668.744770
540.515665	12767.667332
540.875665	12619.165022
541.235609	12731.428997
541.595496	12677.826408
541.955328	12864.873381
542.315102	12711.125750
542.674821	12645.114361
543.034483	12662.287052
543.394090	12661.271259
543.753640	12638.029019
544.113134	12868.061911
544.472571	12630.845375
544.831953	12908.436512
545.191278	12739.383938
545.550548	12665.347032
545.909761	12782.813478
546.268918	12814.045947
546.628019	12886.711659
546.987064	12780.141667
547.346053	12619.449847
547.704986	12828.350221
548.063863	12702.162579
548.422684	12756.657452
548.781449	12706.273640
549.140158	12812.800782
549.498811	12760.544181
549.857408	12631.162968
550.215949	12835.022188
550.574434	12803.184781
550.932864	12744.609094
551.291237	12937.065224
551.649555	12826.679079
552.007817	12887.286351
552.366022	12805.097899
552.724173	12847.194054
553.082267	12943.613683
553.440305	13031.029812
553.798288	12851.637831
554.156215	12933.385182
554.514086	12971.622334
554.871902	12920.290785
555.229661	12937.609669
555.587365	12894.338925
555.945014	12914.561514
556.302606	12888.075291
556.660143	12953.340590
557.017625	12985.346875
557.375050	12948.254065
557.732421	13041.104557
558.089735	13038.742777
558.446994	13016.634797
558.804197	13126.292496
559.161345	13119.643214
559.518437	12936.314092
559.875474	13027.705171
560.232455	13052.757185
560.589381	13096.733690
560.946251	13028.547043
561.303065	13215.271382
561.659825	13157.918174
562.016528	13082.242893
562.373177	13018.741999
562.729770	13145.980722
563.086307	13031.508721
563.442789	13148.355106
563.799216	13172.552644
564.155587	13118.352678
564.511904	13145.625321
564.868164	13154.853153
565.224370	13215.674674
565.580520	13171.705730
565.936615	13229.913413
566.292654	13170.727746
566.648638	13245.674581
567.004567	13241.442532
567.360441	13243.721133
567.716260	13209.267368
568.072023	13289.051189
568.427732	13274.940999
568.783385	13179.280064
569.138982	13289.099080
569.494525	13286.318883
569.850013	13227.002147
570.205445	13218.989233
570.560823	13224.131210
570.916145	13192.805480
571.271412	13189.911857
571.626625	13152.899706
571.981782	13157.472032
572.336884	13106.190895
572.691931	13194.615254
573.046923	13087.997371
573.401860	13063.502404
573.756743	13062.600038
574.111570	13074.308117
574.466342	13055.338255
574.821059	13105.870782
575.175722	12976.960916
575.530330	13002.970749
575.884882	12930.640274
576.239380	12935.777210
576.593823	12911.889702
576.948211	12915.988160
577.302544	12792.512658
577.656823	12811.046461
578.011047	12863.630736
578.365216	12809.788693
578.719330	12746.600350
579.073389	12717.470042
579.427394	12736.888567
579.781344	12720.232595
580.135239	12654.942091
580.489080	12672.361798
580.842866	12547.162221
581.196597	12648.411276
581.550273	12631.707413
581.903895	12589.432296
582.257463	12707.339844
582.610975	12542.131150
582.964434	12620.274076
583.317837	12543.857745
583.671186	12487.351452
584.024481	12546.920246
584.377721	12433.867330
584.730906	12496.922082
585.084037	12521.152388
585.437113	12437.963267
585.790135	12460.088892
586.143103	12368.733102
586.496016	12392.386195
586.848874	12397.324006
587.201679	12399.942885
587.554428	12276.885799
587.907124	12325.784991
588.259765	12263.680497
588.612352	12338.045078
588.964884	12191.100484
589.317362	12246.674164
589.669786	12234.693862
590.022155	12190.455216
590.374470	12291.492542
590.726731	12177.133967
591.078937	12064.058366
591.431090	12093.165988
591.783188	12015.806962
592.135232	11941.487751
592.487222	12003.927483
592.839157	12007.446208
593.191038	11945.571086
593.542866	11891.272818
593.894639	11735.206257
594.246358	11800.443828
594.598022	11813.497896
594.949633	11707.600898
595.301190	11702.683252
595.652692	11654.129379
596.004141	11743.080539
596.355535	11527.863599
596.706876	11511.489931
597.058162	11473.260341
597.409395	11569.526215
597.760573	11599.644588
598.111698	11488.872794
598.462768	11488.320788
598.813785	11503.439208
599.164748	11374.776359
599.515657	11446.978285
599.866511	11321.715695
600.217312	11451.767382
600.568060	11224.388658
600.918753	11382.824562
601.269392	11381.942360
601.619978	11292.091354
601.970510	11325.327681
602.320988	11364.479803
602.671412	11440.374374
603.021783	11365.969464
603.372100	11280.073243
603.722363	11295.557147
604.072572	11307.245062
604.422728	11316.553553
604.772830	11262.913156
605.122878	11275.233736
605.472872	11242.821637
605.822813	11301.903960
606.172701	11261.078176
606.522534	11298.712910
606.872314	11343.165804
607.222041	11288.928030
607.571714	11369.742767
607.921333	11238.887016
608.270899	11287.866867
608.620411	11343.553973
608.969870	11291.166302
609.319276	11273.507140
609.668627	11291.521704
610.017926	11369.480627
610.367171	11397.360729
610.716362	11393.169009
611.065500	11367.507016
611.414585	11382.496887
611.763616	11442.083325
612.112594	11399.735112
612.461518	11432.941192
612.810389	11477.336114
613.159207	11424.565315
613.507971	11416.592731
613.856682	11516.944460
614.205340	11461.718619
614.553945	11604.766401
614.902496	11490.027219
615.250994	11552.424100
615.599439	11552.023329
615.947830	11580.808317
616.296169	11544.786752
616.644454	11560.043804
616.992686	11573.256669
617.340864	11663.604228
617.688990	11551.133565
618.037063	11685.155161
618.385082	11658.789926
618.733048	11700.480268
619.080961	11686.249091
619.428821	11657.900162
619.776628	11684.613237
620.124382	11621.535799
620.472083	11643.648820
620.819731	11668.816781
621.167326	11591.336767
621.514868	11573.601988
621.862357	11472.915022
622.209793	11459.074534
622.557176	11379.399097
622.904506	11327.749956
623.251783	11245.843809
623.599007	11176.873262
623.946179	11128.432815
624.293297	11110.546801
624.640363	10970.584206
624.987376	10954.092071
625.334336	10895.468493
625.681243	10803.777466
626.028097	10785.367172
626.374899	10746.451985
626.721647	10714.387726
627.068343	10680.417911
627.414987	10618.452048
627.761577	10551.089630
628.108115	10595.844993
628.454600	10468.941507
628.801032	10492.287091
629.147412	10464.149890
629.493739	10434.611249
629.840014	10358.484785
630.186236	10409.793649
630.532405	10300.418255
630.878521	10344.624133
631.224585	10294.472214
631.570597	10220.994876
631.916556	10224.047294
632.262462	10213.796108
632.608316	10201.099962
632.954117	10163.876082
633.299866	10156.105143
633.645562	10128.174631
633.991206	10022.388538
634.336797	9918.228217
634.682336	9917.383824
635.027823	9859.539104
635.373257	9826.857303
635.718639	9752.442311
636.063968	9724.663033
636.409245	9603.279610
636.754470	9595.785935
637.099642	9542.914313
637.444762	9440.639384
637.789829	9444.049724
638.134845	9366.562149
638.479808	9348.318213
