Dividing Wavelength (nm)	Counts (n)	Blue Motor Position (mm): 26.000000	Red Motor Position (mm): 0.000000	
326.493990	2157.591161
326.888308	2157.591161
327.282561	2157.591161
327.676750	2130.293313
328.070874	2134.028808
328.464933	2137.149282
328.858929	2144.932824
329.252859	2156.905564
329.646726	2174.663028
330.040528	2187.144925
330.434265	2207.604448
330.827938	2224.595657
331.221547	2244.518297
331.615091	2264.221647
332.008571	2286.783331
332.401986	2304.881073
332.795338	2325.365802
333.188625	2344.418843
333.581847	2365.377440
333.975006	2385.620193
334.368100	2402.392112
334.761129	2419.756367
335.154095	2437.768409
335.546996	2462.913685
335.939833	2489.213384
336.332606	2505.392968
336.725315	2516.382683
337.117960	2525.393746
337.510540	2531.571680
337.903056	2537.933616
338.295508	2549.702189
338.687896	2553.558672
339.080220	2559.509754
339.472480	2569.864284
339.864676	2572.137845
340.256807	2576.725295
340.648875	2577.516756
341.040879	2580.410378
341.432818	2579.538258
341.824694	2579.190419
342.216506	2580.286870
342.608253	2580.675039
342.999937	2578.348546
343.391557	2577.778896
343.783113	2580.483475
344.174605	2576.531210
344.566033	2573.624985
344.957397	2574.237485
345.348697	2571.414439
345.739934	2572.178174
346.131106	2569.692885
346.522215	2567.474777
346.913260	2564.661813
347.304241	2561.800959
347.695159	2562.060578
348.086012	2558.786349
348.476802	2560.333983
348.867528	2556.202757
349.258191	2554.871893
349.648789	2553.818292
350.039324	2553.717468
350.429796	2551.025492
350.820203	2551.874927
351.210548	2548.391489
351.600828	2549.619010
351.991045	2548.265461
352.381198	2548.096582
352.771288	2548.628424
353.161314	2548.262940
353.551276	2550.647406
353.941175	2546.564071
354.331010	2547.385779
354.720782	2552.802499
355.110490	2548.426777
355.500135	2549.946685
355.889717	2548.144473
356.279235	2550.662529
356.668689	2551.204453
357.058080	2550.869217
357.447408	2548.187323
357.836672	2549.061963
358.225873	2548.406613
358.615010	2547.093392
359.004084	2554.362736
359.393095	2551.678322
359.782043	2555.590257
360.170927	2554.322407
360.559748	2554.881975
360.948505	2556.003632
361.337199	2556.180072
361.725830	2555.791903
362.114398	2557.130330
362.502903	2556.744681
362.891344	2559.439178
363.279722	2557.642007
363.668037	2555.408776
364.056289	2559.716442
364.444478	2561.445557
364.832603	2557.914229
365.220665	2559.643345
365.608665	2560.434806
365.996601	2560.633932
366.384474	2561.415310
366.772284	2563.761967
367.160031	2559.393808
367.547715	2561.952193
367.935336	2561.662327
368.322893	2563.197358
368.710388	2560.891030
369.097820	2567.381516
369.485189	2559.580330
369.872495	2564.951680
370.259738	2564.437482
370.646918	2560.797769
371.034035	2564.066957
371.421090	2565.385219
371.808081	2562.557132
372.195010	2567.258008
372.581875	2567.696588
372.968678	2566.685837
373.355418	2563.472101
373.742096	2566.262380
374.128710	2567.326063
374.515262	2569.574418
374.901751	2568.304047
375.288177	2568.175498
375.674540	2566.068295
376.060841	2568.697257
376.447079	2568.793039
376.833254	2565.904458
377.219367	2563.328428
377.605417	2565.420507
377.991404	2564.689540
378.377329	2562.904971
378.763191	2566.143913
379.148991	2566.816907
379.534727	2568.939233
379.920402	2569.929819
380.306013	2569.844120
380.691563	2569.995354
381.077049	2573.390571
381.462474	2569.405539
381.847835	2570.832186
382.233134	2570.607854
382.618371	2571.689182
383.003545	2572.221024
383.388657	2571.946281
383.773706	2571.837896
384.158693	2572.044583
384.543618	2573.982907
384.928480	2572.483164
385.313280	2573.698082
385.698017	2573.650191
386.082692	2576.412743
386.467305	2573.912331
386.851856	2573.050293
387.236344	2569.690364
387.620770	2575.283525
388.005133	2575.389389
388.389435	2575.197825
388.773674	2574.655901
389.157851	2576.692527
389.541965	2576.334605
389.926018	2576.024574
390.310008	2576.760583
390.693936	2577.209245
391.077802	2574.552557
391.461606	2574.131621
391.845348	2578.003227
392.229027	2576.642116
392.612645	2577.052970
392.996200	2580.007086
393.379694	2578.121694
393.763125	2579.190419
394.146494	2579.124884
394.529801	2579.611355
394.913047	2580.211252
395.296230	2581.695872
395.679351	2578.714030
396.062410	2579.623958
396.445408	2579.588670
396.828343	2580.826273
397.211217	2579.434915
397.594028	2578.507343
397.976778	2577.650346
398.359466	2575.956519
398.742092	2574.096333
399.124656	2581.547158
399.507158	2580.445666
399.889598	2582.736871
400.271977	2582.842735
400.654294	2585.101172
401.036549	2581.824422
401.418742	2582.136973
401.800874	2581.093454
402.182944	2584.438260
402.564952	2584.518918
402.946898	2585.161666
403.328783	2585.721234
403.710606	2584.236614
404.092367	2582.371387
404.474067	2586.346337
404.855705	2583.717375
405.237282	2583.561099
405.618797	2586.593353
406.000250	2585.328024
406.381642	2584.952458
406.762972	2583.515729
407.144240	2586.086717
407.525447	2587.830957
407.906593	2585.680904
408.287677	2586.227870
408.668700	2586.747108
409.049661	2587.651996
409.430560	2585.895153
409.811399	2588.042685
410.192176	2584.644947
410.572891	2588.912284
410.953545	2587.833477
411.334138	2588.244331
411.714669	2592.214240
412.095139	2586.656368
412.475547	2589.154259
412.855894	2589.660895
413.236180	2589.948241
413.616405	2589.247521
413.996568	2589.570155
414.376670	2589.381111
414.756711	2590.885896
415.136691	2591.795824
415.516609	2588.372881
415.896466	2592.211719
416.276262	2591.180803
416.655997	2586.263158
417.035670	2587.594022
417.415283	2588.178796
417.794834	2586.772314
418.174324	2588.284660
418.553753	2591.992429
418.933121	2592.622573
419.312428	2593.862697
419.691674	2588.294743
420.070859	2592.035279
420.449983	2592.259610
420.829045	2591.553849
421.208047	2592.773808
421.586988	2591.884044
421.965867	2596.358068
422.344686	2593.587954
422.723444	2594.528129
423.102141	2594.283633
423.480777	2592.390680
423.859352	2590.306163
424.237866	2592.761205
424.616319	2594.671802
424.994712	2597.336052
425.373044	2594.959148
425.751314	2596.942842
426.129524	2596.184148
426.507673	2595.322111
426.885762	2597.094077
427.263789	2594.260948
427.641756	2599.685230
428.019662	2597.144488
428.397508	2599.110538
428.775292	2596.572317
429.153016	2596.957966
429.530679	2597.940991
429.908282	2597.663727
430.285824	2596.854622
430.663305	2596.579879
431.040726	2597.376381
431.418086	2597.129365
431.795385	2600.501897
432.172624	2596.398397
432.549802	2599.854108
432.926920	2597.315888
433.303977	2602.125148
433.680974	2599.188676
434.057910	2600.229674
434.434786	2603.123297
434.811601	2600.942998
435.188355	2600.867380
435.565050	2597.784715
435.941683	2601.852926
436.318257	2602.173039
436.694770	2601.144644
437.071222	2599.075250
437.447614	2598.684561
437.823946	2599.067688
438.200218	2604.277721
438.576429	2605.296034
438.952580	2604.915427
439.328670	2605.379213
439.704700	2603.622371
440.080670	2604.285283
440.456580	2606.392485
440.832429	2606.153030
441.208218	2604.759151
441.583947	2607.935078
441.959616	2605.364090
442.335224	2609.044132
442.710773	2606.881477
443.086261	2607.562033
443.461689	2608.895418
443.837057	2609.734770
444.212365	2611.698299
444.587612	2612.048660
444.962800	2612.303238
445.337927	2615.506891
445.712995	2613.056890
446.088002	2616.424381
446.462949	2616.207612
446.837837	2618.503857
447.212664	2618.047633
447.587431	2625.435444
447.962139	2627.590537
448.336786	2633.806280
448.711374	2633.458440
449.085901	2632.278810
449.460369	2632.621608
449.834776	2635.716877
450.209124	2641.436066
450.583412	2643.898670
450.957640	2644.750625
451.331808	2647.447642
451.705917	2650.258085
452.079965	2653.900319
452.453954	2656.957779
452.827883	2663.838954
453.201752	2667.967659
453.575562	2671.904800
453.949311	2682.145904
454.323001	2688.217974
454.696632	2690.201668
455.070202	2703.366641
455.443713	2711.051880
455.817164	2720.612428
456.190556	2729.610888
456.563888	2739.942733
456.937160	2745.470358
457.310373	2752.081831
457.683526	2766.650766
458.056619	2775.941612
458.429653	2785.048457
458.802628	2798.379788
459.175542	2812.701706
459.548398	2835.061744
459.921194	2866.508462
460.293930	2888.576113
460.666607	2928.675971
461.039224	2965.574697
461.411782	2995.798934
461.784280	3002.990140
462.156719	3022.955630
462.529099	3031.825540
462.901419	3036.057589
463.273680	3038.739483
463.645882	3057.895868
464.018024	3081.770772
464.390106	3114.303858
464.762130	3175.629495
465.134094	3267.086108
465.505999	3408.462747
465.877845	3558.253072
466.249631	3648.497287
466.621358	3661.720234
466.993026	3656.968947
467.364634	3652.255468
467.736184	3635.090339
468.107674	3641.933705
468.479105	3662.887261
468.850477	3685.945499
469.221790	3686.215201
469.593043	3675.815300
469.964238	3685.978266
470.335373	3717.177968
470.706449	3797.196203
471.077467	3892.942837
471.448425	4114.478864
471.819324	4321.758507
472.190164	4372.298595
472.560945	4278.928864
472.931667	4189.846634
473.302330	4181.382537
473.672934	4188.606511
474.043479	4259.149897
474.413965	4276.998102
474.784393	4302.130775
475.154761	4400.781114
475.525070	4454.734063
475.895321	4488.343436
476.265513	4572.097166
476.635645	4688.111760
477.005719	4734.994491
477.375734	4824.530424
477.745691	4922.442235
478.115588	5065.157300
478.485427	5229.375407
478.855207	5500.634855
479.224928	5771.123005
479.594591	6011.039079
479.964194	6080.110448
480.333739	6193.090268
480.703226	6268.828563
481.072653	6390.418673
481.442022	6521.713004
481.811333	6674.507857
482.180584	6665.648029
482.549777	6703.126487
482.918912	6740.897333
483.287988	6799.760365
483.657005	6822.667368
484.025964	6844.997159
484.394864	6950.392563
484.763706	6995.067268
485.132489	7014.904209
485.501213	7072.706079
485.869879	7175.535535
486.238487	7201.684000
486.607036	7322.946435
486.975527	7349.561207
487.343959	7449.234901
487.712333	7547.295425
488.080648	7640.171123
488.448905	7771.626771
488.817104	7845.905653
489.185244	8029.479270
489.553326	8246.052280
489.921350	8647.023137
490.289315	9171.887911
490.657222	9451.898801
491.025070	9654.890943
491.392861	9661.898147
491.760593	9614.060117
492.128267	9483.433739
492.495883	9367.560297
492.863440	9240.588755
493.230939	9123.359243
493.598380	9033.339359
493.965763	9071.647087
494.333088	9010.674331
494.700354	9008.645267
495.067563	9031.096045
495.434713	9074.480215
495.801805	9159.355602
496.168839	9170.688116
496.535815	9189.519346
496.902733	9268.330225
497.269593	9272.093446
497.636395	9319.109768
498.003139	9454.263102
498.369825	9425.382332
498.736453	9539.841730
499.103023	9528.194144
499.469535	9569.808869
499.835989	9641.385692
500.202385	9652.637547
500.568723	9700.601605
500.935003	9789.615779
501.301226	9792.007807
501.667390	9958.438981
502.033497	10088.641902
502.399546	10036.347493
502.765537	9983.397733
503.131470	10104.549263
503.497345	10211.648577
503.863163	10025.640082
504.228923	10169.799438
504.594625	10306.165170
504.960269	10232.513912
505.325856	10402.882227
505.691385	10308.022835
506.056856	10380.335667
506.422270	10504.259831
506.787625	10459.426329
507.152924	10523.239775
507.518164	10596.407082
507.883347	10485.126132
508.248472	10566.392052
508.613540	10688.708088
508.978550	10774.634556
509.343503	10764.045612
509.708398	10823.823614
510.073236	10961.943668
510.438016	10988.571043
510.802738	10912.757130
511.167403	11046.037676
511.532010	11112.341452
511.896561	11222.286497
512.261053	11413.033676
512.625488	11340.534322
512.989866	11337.534835
513.354186	11324.790798
513.718449	11344.025321
514.082655	11489.026550
514.446803	11455.230654
514.810894	11569.082593
515.174927	11574.038048
515.538904	11556.411653
515.902822	11718.056251
516.266684	11601.948396
516.630488	11699.300638
516.994235	11692.507683
517.357925	11812.033441
517.721558	11864.907583
518.085133	11941.369284
518.448651	11970.691156
518.812112	11942.566558
519.175516	11948.172321
519.538863	12039.601208
519.902152	12052.241901
520.265385	12157.649908
520.628560	12186.051768
520.991678	12137.966722
521.354739	12197.563243
521.717743	12267.756269
522.080690	12242.326169
522.443580	12373.184440
522.806413	12399.358111
523.169189	12389.485011
523.531908	12445.807303
523.894569	12411.424113
524.257174	12427.974221
524.619722	12534.821477
524.982213	12517.361440
525.344647	12503.231086
525.707025	12514.755164
526.069345	12622.565280
526.431608	12597.735077
526.793815	12679.752129
527.155964	12571.400089
527.518057	12606.093310
527.880093	12564.561764
528.242072	12692.660004
528.603995	12606.640275
528.965860	12616.954476
529.327669	12647.072849
529.689421	12597.588883
530.051117	12615.459774
530.412755	12657.387050
530.774337	12661.924089
531.135862	12620.889096
531.497331	12675.618383
531.858743	12633.562557
532.220098	12730.511507
532.581396	12659.322853
532.942638	12576.037951
533.303824	12638.059266
533.664953	12621.670475
534.026025	12574.296232
534.387040	12688.576669
534.747999	12659.612720
535.108902	12708.479144
535.469748	12580.209505
535.830537	12610.184206
536.191270	12649.283395
536.551947	12579.208836
536.912567	12638.127322
537.273131	12675.265502
537.633638	12554.698746
537.994089	12615.726955
538.354483	12527.882328
538.714821	12645.094197
539.075103	12736.631468
539.435328	12665.044563
539.795497	12638.243268
540.155609	12640.524391
540.515665	12737.324627
540.875665	12600.631220
541.235609	12697.595293
541.595496	12658.755723
541.955328	12835.662415
542.315102	12694.114377
542.674821	12624.826238
543.034483	12643.937252
543.394090	12642.828198
543.753640	12615.699228
544.113134	12855.796783
544.472571	12617.486317
544.831953	12905.147159
545.191278	12720.398953
545.550548	12658.629695
545.909761	12769.401489
546.268918	12798.385603
546.628019	12881.783931
546.987064	12763.377310
547.346053	12612.203188
547.704986	12808.825832
548.063863	12698.038915
548.422684	12740.931572
548.781449	12701.590408
549.140158	12800.119760
549.498811	12746.872572
549.857408	12621.413376
550.215949	12827.470540
550.574434	12792.701702
550.932864	12740.805543
551.291237	12933.667487
551.649555	12828.665293
552.007817	12872.288918
552.366022	12802.504225
552.724173	12828.899707
553.082267	12919.229622
553.440305	13009.652799
553.798288	12835.380110
554.156215	12918.153336
554.514086	12957.139099
554.871902	12895.967218
555.229661	12917.162749
555.587365	12882.565310
555.945014	12896.683062
556.302606	12882.056154
556.660143	12939.653857
557.017625	12964.504225
557.375050	12933.450717
557.732421	13027.811035
558.089735	13026.021425
558.446994	13001.644926
558.804197	13119.388636
559.161345	13109.006379
559.518437	12925.936877
559.875474	13020.448430
560.232455	13054.347669
560.589381	13102.369700
560.946251	13034.858568
561.303065	13215.064694
561.659825	13169.563240
562.016528	13084.317328
562.373177	13015.492975
562.729770	13149.005414
563.086307	13035.181202
563.442789	13127.557825
563.799216	13170.957119
564.155587	13113.714817
564.511904	13139.225576
564.868164	13152.705621
565.224370	13213.464128
565.580520	13153.093790
565.936615	13220.390673
566.292654	13154.399449
566.648638	13222.195407
567.004567	13222.606261
567.360441	13225.986354
567.716260	13197.602137
568.072023	13283.720169
568.427732	13271.187860
568.783385	13172.603056
569.138982	13280.945013
569.494525	13266.345832
569.850013	13221.076270
570.205445	13205.007593
570.560823	13213.343140
570.916145	13179.794262
571.271412	13187.240046
571.626625	13151.157987
571.981782	13137.748518
572.336884	13089.691198
572.691931	13179.217049
573.046923	13068.021798
573.401860	13046.682594
573.756743	13038.473075
574.111570	13066.693454
574.466342	13044.214949
574.821059	13092.085746
575.175722	12964.791571
575.530330	12974.258858
575.884882	12923.471753
576.239380	12915.907502
576.593823	12901.522569
576.948211	12896.398236
577.302544	12771.054987
577.656823	12802.345429
578.011047	12847.458715
578.365216	12790.844037
578.719330	12729.215931
579.073389	12694.353831
579.427394	12713.278323
579.781344	12705.651057
580.135239	12639.828711
580.489080	12655.484015
580.842866	12531.091023
581.196597	12631.777989
581.550273	12619.177625
581.903895	12577.837643
582.257463	12692.201259
582.610975	12543.151983
582.964434	12607.184720
583.317837	12517.013601
583.671186	12472.185140
584.024481	12530.614634
584.377721	12425.196545
584.730906	12484.349444
585.084037	12503.866272
585.437113	12410.199113
585.790135	12442.943927
586.143103	12351.852798
586.496016	12376.902291
586.848874	12387.939898
587.201679	12382.497972
587.554428	12260.068510
587.907124	12307.412506
588.259765	12251.901841
588.612352	12312.786376
588.964884	12178.540449
589.317362	12230.847462
589.669786	12216.928836
590.022155	12175.112465
590.374470	12278.698094
590.726731	12157.768375
591.078937	12051.329453
591.431090	12070.450549
591.783188	11996.907676
592.135232	11921.242478
592.487222	11988.705719
592.839157	12007.312618
593.191038	11936.509612
593.542866	11874.884027
593.894639	11732.284908
594.246358	11791.465533
594.598022	11796.143724
594.949633	11700.129908
595.301190	11688.958711
595.652692	11641.244190
596.004141	11735.221380
596.355535	11510.227122
596.706876	11493.810605
597.058162	11460.128135
597.409395	11554.697661
597.760573	11588.312075
598.111698	11480.038172
598.462768	11476.869807
598.813785	11489.553350
599.164748	11361.255985
599.515657	11441.007039
599.866511	11310.484004
600.217312	11444.450147
600.568060	11212.806607
600.918753	11373.934487
601.269392	11373.853828
601.619978	11282.049376
601.970510	11317.193780
602.320988	11359.446211
602.671412	11430.707961
603.021783	11357.396982
603.372100	11274.349013
603.722363	11300.084103
604.072572	11293.270984
604.422728	11309.707666
604.772830	11249.826320
605.122878	11255.669017
605.472872	11228.988711
605.822813	11289.243102
606.172701	11249.670044
606.522534	11291.793926
606.872314	11344.569766
607.222041	11271.813313
607.571714	11347.685199
607.921333	11211.329549
608.270899	11271.326841
608.620411	11340.168838
608.969870	11283.715477
609.319276	11252.488049
609.668627	11276.241966
610.017926	11355.718277
610.367171	11387.623740
610.716362	11376.588654
611.065500	11350.659479
611.414585	11367.164217
611.763616	11429.114957
612.112594	11397.161603
612.461518	11427.088413
612.810389	11471.493417
613.159207	11416.262535
613.507971	11408.478993
613.856682	11511.585713
614.205340	11459.462703
614.553945	11604.398397
614.902496	11476.668161
615.250994	11546.793132
615.599439	11530.946264
615.947830	11577.340003
616.296169	11533.146728
616.644454	11548.401260
616.992686	11557.903835
617.340864	11647.706949
617.688990	11546.339428
618.037063	11676.267606
618.385082	11636.155145
618.733048	11682.538802
619.080961	11659.036943
619.428821	11649.836837
619.776628	11672.118737
620.124382	11610.609098
620.472083	11626.944957
620.819731	11642.045733
621.167326	11564.782489
621.514868	11551.914944
621.862357	11464.100564
622.209793	11455.512959
622.557176	11358.896725
622.904506	11309.049796
623.251783	11236.028682
623.599007	11170.949907
623.946179	11124.440221
624.293297	11105.170411
624.640363	10969.180244
624.987376	10950.590990
625.334336	10883.503314
625.681243	10796.707248
626.028097	10778.241501
626.374899	10738.744061
626.721647	10712.870339
627.068343	10661.556434
627.414987	10601.425551
627.761577	10542.975892
628.108115	10588.762172
628.454600	10460.245517
628.801032	10476.735131
629.147412	10453.969280
629.493739	10430.779972
629.840014	10352.042191
630.186236	10403.557742
630.532405	10297.892637
630.878521	10335.809675
631.224585	10292.228900
631.570597	10210.476508
631.916556	10214.577487
632.262462	10202.834119
632.608316	10181.875522
632.954117	10154.166820
633.299866	10141.384974
633.645562	10114.266087
633.991206	10016.553402
634.336797	9917.499770
634.682336	9908.657586
635.027823	9845.315488
635.373257	9814.912289
635.718639	9747.887628
636.063968	9720.133556
636.409245	9595.019679
636.754470	9585.272608
637.099642	9539.955156
637.444762	9432.371892
637.789829	9440.220968
638.134845	9370.640442
638.479808	9346.667235
638.824719	9318.351074
