Dividing Wavelength (nm)	Counts (n)	Blue Motor Position (mm): 16.500000	Red Motor Position (mm): 0.000000	
326.493990	2159.474032
326.888308	2159.474032
327.282561	2159.474032
327.676750	2136.738428
328.070874	2132.771040
328.464933	2137.557616
328.858929	2146.452732
329.252859	2161.578714
329.646726	2175.872905
330.040528	2188.148115
330.434265	2206.611341
330.827938	2225.346789
331.221547	2244.598956
331.615091	2264.100659
332.008571	2285.369288
332.401986	2304.381999
332.795338	2322.356233
333.188625	2345.575788
333.581847	2363.988602
333.975006	2388.803682
334.368100	2402.865981
334.761129	2421.767787
335.154095	2436.515683
335.546996	2461.192131
335.939833	2485.659371
336.332606	2497.180928
336.725315	2513.080727
337.117960	2517.975688
337.510540	2525.865093
337.903056	2536.025539
338.295508	2544.177085
338.687896	2548.378887
339.080220	2555.204609
339.472480	2563.215002
339.864676	2565.780950
340.256807	2568.679613
340.648875	2574.524831
341.040879	2573.675397
341.432818	2574.764286
341.824694	2575.938875
342.216506	2576.679924
342.608253	2575.459965
342.999937	2576.400140
343.391557	2574.222362
343.783113	2573.214131
344.174605	2575.515418
344.566033	2571.553071
344.957397	2568.558625
345.348697	2565.992678
345.739934	2564.306412
346.131106	2562.700805
346.522215	2561.508572
346.913260	2560.081925
347.304241	2556.429609
347.695159	2555.025648
348.086012	2557.823488
348.476802	2551.973229
348.867528	2553.712427
349.258191	2550.806202
349.648789	2549.684545
350.039324	2546.115408
350.429796	2548.547765
350.820203	2544.038453
351.210548	2546.997610
351.600828	2542.251364
351.991045	2547.690769
352.381198	2543.244471
352.771288	2542.468134
353.161314	2543.002496
353.551276	2545.573484
353.941175	2542.571477
354.331010	2544.015768
354.720782	2544.295552
355.110490	2543.259595
355.500135	2544.567774
355.889717	2543.080634
356.279235	2544.935778
356.668689	2542.944523
357.058080	2544.159441
357.447408	2544.277908
357.836672	2544.471992
358.225873	2543.317568
358.615010	2543.433515
359.004084	2549.261088
359.393095	2546.407795
359.782043	2548.071376
360.170927	2551.474155
360.559748	2549.208156
360.948505	2550.791079
361.337199	2551.393497
361.725830	2549.422405
362.114398	2553.490617
362.502903	2549.283774
362.891344	2553.596481
363.279722	2552.651264
363.668037	2553.256203
364.056289	2553.362067
364.444478	2552.910884
364.832603	2555.055895
365.220665	2555.365926
365.608665	2553.505740
365.996601	2553.755277
366.384474	2556.918601
366.772284	2555.784342
367.160031	2556.109496
367.547715	2558.047820
367.935336	2556.202757
368.322893	2557.805844
368.710388	2559.126627
369.097820	2560.767522
369.485189	2554.919784
369.872495	2557.392470
370.259738	2557.914229
370.646918	2558.257027
371.034035	2558.463715
371.421090	2559.267779
371.808081	2558.045299
372.195010	2559.963458
372.581875	2558.927501
372.968678	2560.122254
373.355418	2558.345248
373.742096	2562.284909
374.128710	2560.946483
374.515262	2562.151319
374.901751	2559.277861
375.288177	2562.564693
375.674540	2561.173335
376.060841	2561.899261
376.447079	2561.964796
376.833254	2562.758778
377.219367	2557.967161
377.605417	2558.942624
377.991404	2560.223078
378.377329	2559.625701
378.763191	2558.814075
379.148991	2564.626525
379.534727	2563.363716
379.920402	2565.773388
380.306013	2564.228274
380.691563	2564.135013
381.077049	2566.887483
381.462474	2566.118707
381.847835	2565.619633
382.233134	2566.017884
382.618371	2563.056206
383.003545	2566.340518
383.388657	2563.545198
383.773706	2564.994530
384.158693	2568.629202
384.543618	2567.076526
384.928480	2567.096691
385.313280	2567.613409
385.698017	2569.269428
386.082692	2569.549212
386.467305	2568.004098
386.851856	2569.239181
387.236344	2568.969479
387.620770	2569.564336
388.005133	2568.858574
388.389435	2569.811352
388.773674	2568.629202
389.157851	2567.056362
389.541965	2568.498132
389.926018	2574.345870
390.310008	2569.216496
390.693936	2570.370920
391.077802	2568.087277
391.461606	2572.445355
391.845348	2571.106929
392.229027	2571.510221
392.612645	2571.195149
392.996200	2574.489543
393.379694	2573.085582
393.763125	2572.004254
394.146494	2572.369738
394.529801	2571.641291
394.913047	2571.888308
395.296230	2573.952660
395.679351	2572.158009
396.062410	2574.650860
396.445408	2573.768658
396.828343	2573.872002
397.211217	2569.912175
397.594028	2569.982751
397.976778	2572.402505
398.359466	2574.209759
398.742092	2568.409911
399.124656	2571.913513
399.507158	2575.361662
399.889598	2571.580797
400.271977	2573.186405
400.654294	2576.473237
401.036549	2576.130438
401.418742	2576.604307
401.800874	2575.744790
402.182944	2574.363514
402.564952	2577.327713
402.946898	2576.737898
403.328783	2574.693710
403.710606	2577.869637
404.092367	2578.441807
404.474067	2578.091447
404.855705	2577.594894
405.237282	2577.178998
405.618797	2577.239492
406.000250	2577.254616
406.381642	2576.848803
406.762972	2578.663618
407.144240	2579.623958
407.525447	2581.912642
407.906593	2578.850141
408.287677	2579.049267
408.668700	2579.147569
409.049661	2578.532548
409.430560	2579.525656
409.811399	2579.840728
410.192176	2578.159503
410.572891	2583.029257
410.953545	2579.455079
411.334138	2579.024061
411.714669	2579.444997
412.095139	2578.855182
412.475547	2579.200501
412.855894	2580.334761
413.236180	2579.838207
413.616405	2582.510019
413.996568	2580.430543
414.376670	2580.160841
414.756711	2580.785944
415.136691	2579.969277
415.516609	2582.144535
415.896466	2583.856007
416.276262	2585.481779
416.655997	2578.363670
417.035670	2580.609504
417.415283	2578.439287
417.794834	2577.962898
418.174324	2578.809812
418.553753	2581.741243
418.933121	2578.928279
419.312428	2585.045719
419.691674	2582.696541
420.070859	2582.154617
420.449983	2583.656881
420.829045	2584.589495
421.208047	2584.465986
421.586988	2582.366346
421.965867	2584.677715
422.344686	2583.682087
422.723444	2585.144022
423.102141	2582.981367
423.480777	2585.665781
423.859352	2585.116295
424.237866	2585.577561
424.616319	2585.443970
424.994712	2586.636203
425.373044	2584.523960
425.751314	2583.616552
426.129524	2583.488002
426.507673	2585.254927
426.885762	2585.789289
427.263789	2586.573189
427.641756	2587.911615
428.019662	2586.043867
428.397508	2585.401120
428.775292	2585.317941
429.153016	2585.267530
429.530679	2585.822057
429.908282	2587.135277
430.285824	2589.497058
430.663305	2585.817016
431.040726	2587.281471
431.418086	2586.810123
431.795385	2588.705597
432.172624	2586.910946
432.549802	2584.750812
432.926920	2584.513877
433.303977	2586.064032
433.680974	2585.915318
434.057910	2586.023703
434.434786	2585.892633
434.811601	2586.747108
435.188355	2588.667788
435.565050	2590.159970
435.941683	2585.411203
436.318257	2586.275761
436.694770	2586.129567
437.071222	2584.924731
437.447614	2583.798033
437.823946	2586.754670
438.200218	2589.492017
438.576429	2588.990422
438.952580	2590.018817
439.328670	2590.845567
439.704700	2587.241142
440.080670	2590.704414
440.456580	2587.546131
440.832429	2588.700556
441.208218	2589.492017
441.583947	2591.707604
441.959616	2590.013776
442.335224	2591.422779
442.710773	2589.842377
443.086261	2592.347830
443.461689	2590.056626
443.837057	2592.370516
444.212365	2588.768611
444.587612	2588.140988
444.962800	2590.081832
445.337927	2590.016297
445.712995	2593.030907
446.088002	2589.660895
446.462949	2593.114086
446.837837	2589.217274
447.212664	2591.286667
447.587431	2592.108376
447.962139	2591.944538
448.336786	2592.831781
448.711374	2591.135433
449.085901	2592.612491
449.460369	2593.479569
449.834776	2591.528643
450.209124	2592.869590
450.583412	2591.687439
450.957640	2593.119127
451.331808	2593.784559
451.705917	2589.423961
452.079965	2594.563417
452.453954	2595.377564
452.827883	2594.011411
453.201752	2591.752974
453.575562	2593.434199
453.949311	2591.889085
454.323001	2593.963520
454.696632	2594.195413
455.070202	2593.605598
455.443713	2593.182141
455.817164	2591.664754
456.190556	2595.533840
456.563888	2591.437902
456.937160	2588.839187
457.310373	2593.207347
457.683526	2592.647779
458.056619	2596.269848
458.429653	2595.498552
458.802628	2597.547781
459.175542	2594.276072
459.548398	2597.759509
459.921194	2594.772625
460.293930	2594.760022
460.666607	2594.772625
461.039224	2595.468305
461.411782	2596.453850
461.784280	2597.315887
462.156719	2594.581062
462.529099	2596.796649
462.901419	2595.065012
463.273680	2595.858994
463.645882	2594.792790
464.018024	2594.364292
464.390106	2597.169694
464.762130	2598.492997
465.134094	2594.906216
465.505999	2597.492328
465.877845	2599.723038
466.249631	2597.857812
466.621358	2597.865373
466.993026	2600.958121
467.364634	2602.125148
467.736184	2599.912082
468.107674	2600.577514
468.479105	2598.170363
468.850477	2599.070209
469.221790	2600.015425
469.593043	2595.861515
469.964238	2598.097266
470.335373	2595.674992
470.706449	2600.212030
471.077467	2600.380909
471.448425	2599.493666
471.819324	2598.384612
472.190164	2601.457195
472.560945	2601.240426
472.931667	2599.844026
473.302330	2599.070209
473.672934	2598.639190
474.043479	2600.287648
474.413965	2601.842844
474.784393	2595.090218
475.154761	2597.832606
475.525070	2596.448809
475.895321	2596.471494
476.265513	2599.634818
476.635645	2601.857967
477.005719	2601.048862
477.375734	2601.661362
477.745691	2603.166147
478.115588	2603.685385
478.485427	2603.720673
478.855207	2603.156064
479.224928	2605.631271
479.594591	2607.831734
479.964194	2605.749738
480.333739	2608.199739
480.703226	2605.633791
481.072653	2609.535644
481.442022	2609.702002
481.811333	2611.398351
482.180584	2605.782505
482.549777	2609.603700
482.918912	2608.635798
483.287988	2610.319544
483.657005	2612.426746
484.025964	2609.442383
484.394864	2612.681324
484.763706	2611.055552
485.132489	2610.954729
485.501213	2612.421705
485.869879	2611.360542
486.238487	2608.802157
486.607036	2611.511777
486.975527	2609.684358
487.343959	2610.314503
487.712333	2612.348608
488.080648	2612.444390
488.448905	2611.451283
488.817104	2614.236520
489.185244	2615.033023
489.553326	2616.847838
489.921350	2617.767849
490.289315	2618.166100
490.657222	2618.176182
491.025070	2623.270268
491.392861	2622.861935
491.760593	2620.890843
492.128267	2620.749691
492.495883	2619.401182
492.863440	2617.790534
493.230939	2618.884464
493.598380	2618.524022
493.965763	2613.921448
494.333088	2615.567385
494.700354	2618.675256
495.067563	2617.646861
495.434713	2617.508229
495.801805	2623.083745
496.168839	2619.396141
496.535815	2621.594084
496.902733	2620.353961
497.269593	2621.241204
497.636395	2622.072994
498.003139	2624.482666
498.369825	2622.768673
498.736453	2625.420320
499.103023	2624.275978
499.469535	2625.354785
499.835989	2626.030300
500.202385	2625.130454
500.568723	2626.141205
500.935003	2626.612553
501.301226	2626.526853
501.667390	2624.893520
502.033497	2628.102214
502.399546	2627.449385
502.765537	2625.750516
503.131470	2628.427368
503.497345	2630.499283
503.863163	2631.353758
504.228923	2628.704632
504.594625	2632.472894
504.960269	2630.930301
505.325856	2630.499283
505.691385	2632.621608
506.056856	2633.856691
506.422270	2631.497431
506.787625	2633.241670
507.152924	2631.270579
507.518164	2635.172432
507.883347	2638.136631
508.248472	2637.095632
508.613540	2635.560601
508.978550	2637.035139
509.343503	2638.938174
509.708398	2640.836169
510.073236	2641.602424
510.438016	2640.737866
510.802738	2641.962867
511.167403	2641.673000
511.532010	2645.204328
511.896561	2646.215080
512.261053	2649.625420
512.625488	2646.638537
512.989866	2646.948568
513.354186	2648.314720
513.718449	2649.138949
514.082655	2650.555513
514.446803	2653.199598
514.810894	2655.689928
515.174927	2658.044147
515.538904	2657.015752
515.902822	2659.193530
516.266684	2661.278047
516.630488	2660.428613
516.994235	2666.944304
517.357925	2668.083605
517.721558	2667.791218
518.085133	2673.061745
518.448651	2675.385717
518.812112	2676.396468
519.175516	2674.211128
519.538863	2676.943433
519.902152	2683.373425
520.265385	2683.741429
520.628560	2686.382994
520.991678	2689.700073
521.354739	2692.157635
521.717743	2695.424303
522.080690	2697.387832
522.443580	2701.987885
522.806413	2703.311188
523.169189	2707.187836
523.531908	2711.344267
523.894569	2711.540872
524.257174	2716.040102
524.619722	2720.095710
524.982213	2721.524877
525.344647	2726.069477
525.707025	2728.436299
526.069345	2733.729511
526.431608	2738.745459
526.793815	2743.315265
527.155964	2748.497571
527.518057	2749.863723
527.880093	2754.592326
528.242072	2760.709766
528.603995	2767.021291
528.965860	2770.083792
529.327669	2776.241561
529.689421	2779.155348
530.051117	2785.570216
530.412755	2793.857873
530.774337	2797.737041
531.135862	2805.225675
531.497331	2810.145841
531.858743	2812.280770
532.220098	2824.074549
532.581396	2827.089159
532.942638	2832.611743
533.303824	2844.700430
533.664953	2851.526152
534.026025	2858.561083
534.387040	2869.840664
534.747999	2879.106305
535.108902	2891.154663
535.469748	2899.417114
535.830537	2907.288876
536.191270	2917.030906
536.551947	2927.793769
536.912567	2939.612754
537.273131	2948.142387
537.633638	2956.208233
537.994089	2970.298258
538.354483	2981.643374
538.714821	2998.564007
539.075103	3012.704444
539.435328	3022.237266
539.795497	3034.366282
540.155609	3050.412275
540.515665	3069.266190
540.875665	3075.456727
541.235609	3095.538163
541.595496	3108.589711
541.955328	3132.555356
542.315102	3142.514155
542.674821	3154.764159
543.034483	3172.803928
543.394090	3185.651309
543.753640	3204.492621
544.113134	3236.577045
544.472571	3243.029722
544.831953	3274.032818
545.191278	3282.706123
545.550548	3299.377219
545.909761	3326.047443
546.268918	3348.694827
546.628019	3377.225237
546.987064	3392.182341
547.346053	3400.245666
547.704986	3434.039041
548.063863	3456.658698
548.422684	3477.024960
548.781449	3501.005729
549.140158	3531.280378
549.498811	3552.115467
549.857408	3564.279771
550.215949	3606.741410
550.574434	3628.257055
550.932864	3651.978204
551.291237	3693.466900
551.649555	3717.813153
552.007817	3750.918410
552.366022	3772.486987
552.724173	3803.119558
553.082267	3841.704550
553.440305	3886.444790
553.798288	3894.881161
554.156215	3942.000826
554.514086	3974.856546
554.871902	4000.115248
555.229661	4038.070095
555.587365	4067.525557
555.945014	4102.652317
556.302606	4136.002070
556.660143	4176.807690
557.017625	4219.740677
557.375050	4249.337291
557.732421	4306.206548
558.089735	4341.078729
558.446994	4375.151888
558.804197	4432.230353
559.161345	4472.403307
559.518437	4478.273731
559.875474	4533.371022
560.232455	4584.959670
560.589381	4629.301659
560.946251	4661.756608
561.303065	4734.593719
561.659825	4768.440026
562.016528	4793.469355
562.373177	4823.693593
562.729770	4893.997524
563.086307	4915.326646
563.442789	4979.765195
563.799216	5031.983987
564.155587	5066.699893
564.511904	5114.124548
564.868164	5164.760418
565.224370	5228.105037
565.580520	5264.050984
565.936615	5326.047094
566.292654	5354.892576
566.648638	5422.930509
567.004567	5467.708558
567.360441	5518.777967
567.716260	5564.637344
568.072023	5636.103261
568.427732	5676.863511
568.783385	5703.871493
569.138982	5784.701353
569.494525	5832.486451
569.850013	5870.567327
570.205445	5925.611686
570.560823	5980.494727
570.916145	6022.754720
571.271412	6076.004428
571.626625	6115.438854
571.981782	6163.710423
572.336884	6196.659404
572.691931	6280.559328
573.046923	6297.779909
573.401860	6338.174675
573.756743	6393.710547
574.111570	6451.832530
574.466342	6499.683162
574.821059	6572.873154
575.175722	6579.378763
575.530330	6634.415560
575.884882	6668.614748
576.239380	6718.743982
576.593823	6762.539006
576.948211	6815.322407
577.302544	6821.540671
577.656823	6876.864813
578.011047	6957.891279
578.365216	6989.983265
578.719330	7019.373192
579.073389	7054.384005
579.427394	7115.394569
579.781344	7159.189593
580.135239	7188.312339
580.489080	7242.562716
580.842866	7243.487768
581.196597	7343.635330
581.550273	7383.024386
581.903895	7419.111486
582.257463	7519.359871
582.610975	7504.191039
582.964434	7586.326559
583.317837	7594.309226
583.671186	7628.137889
584.024481	7702.194959
584.377721	7698.575411
584.730906	7789.056561
585.084037	7848.464038
585.437113	7854.004266
585.790135	7921.386849
586.143103	7923.829288
586.496016	7979.234090
586.848874	8032.040176
587.201679	8084.001869
587.554428	8060.205103
587.907124	8131.240002
588.259765	8148.773135
588.612352	8239.070282
588.964884	8208.909059
589.317362	8284.596943
589.669786	8325.248807
590.022155	8342.635747
590.374470	8452.661450
590.726731	8430.109848
591.078937	8402.960714
591.431090	8466.275086
591.783188	8462.032955
592.135232	8463.704098
592.487222	8551.253817
592.839157	8607.220707
593.191038	8601.257022
593.542866	8608.934699
593.894639	8559.274292
594.246358	8638.433011
594.598022	8684.501595
594.949633	8668.642125
595.301190	8700.114048
595.652692	8718.887305
596.004141	8816.204260
596.355535	8707.186787
596.706876	8739.888752
597.058162	8749.754290
597.409395	8862.388791
597.760573	8918.229652
598.111698	8876.118373
598.462768	8916.001462
598.813785	8963.179100
599.164748	8905.694823
599.515657	9005.151747
599.866511	8950.303993
600.217312	9086.301721
600.568060	8947.395248
600.918753	9102.630018
601.269392	9135.145461
601.619978	9093.782793
601.970510	9162.239142
602.320988	9223.411023
602.671412	9310.159199
603.021783	9281.961505
603.372100	9268.373075
603.722363	9306.133837
604.072572	9342.921658
604.422728	9384.511177
604.772830	9374.370896
605.122878	9408.063448
605.472872	9418.231455
605.822813	9494.935131
606.172701	9494.902364
606.522534	9555.645747
606.872314	9626.340368
607.222041	9601.842881
607.571714	9688.074338
607.921333	9614.607082
608.270899	9681.142752
608.620411	9756.596222
608.969870	9744.066434
609.319276	9757.967416
609.668627	9795.438312
610.017926	9889.085307
610.367171	9943.872567
610.716362	9954.479154
611.065500	9958.985946
611.414585	9994.422737
611.763616	10081.624616
612.112594	10070.087935
612.461518	10121.986614
612.810389	10179.823772
613.159207	10146.123659
613.507971	10169.267596
613.856682	10275.686354
614.205340	10258.831256
614.553945	10388.933354
614.902496	10311.531478
615.250994	10384.290452
615.599439	10398.214119
615.947830	10447.924937
616.296169	10432.307442
616.644454	10468.437392
616.992686	10502.122382
617.340864	10600.618966
617.688990	10516.179639
618.037063	10645.951542
618.385082	10628.287339
618.733048	10686.923520
619.080961	10701.938597
619.428821	10705.346417
619.776628	10722.594725
620.124382	10697.744357
620.472083	10731.383976
620.819731	10765.615932
621.167326	10718.450896
621.514868	10724.228058
621.862357	10649.939095
622.209793	10658.594756
622.557176	10610.759247
622.904506	10573.462270
623.251783	10516.179639
623.599007	10478.209668
623.946179	10441.318505
624.293297	10442.316653
624.640363	10332.106948
624.987376	10336.298667
625.334336	10291.896184
625.681243	10225.718437
626.028097	10206.846877
626.374899	10184.512045
626.721647	10178.860912
627.068343	10149.254215
627.414987	10104.231670
627.761577	10051.571777
628.108115	10102.618501
628.454600	9993.578343
628.801032	10020.293938
629.147412	10004.162246
629.493739	10001.278706
629.840014	9925.646275
630.186236	9975.901538
630.532405	9887.464576
630.878521	9935.093397
631.224585	9902.351103
631.570597	9829.196399
631.916556	9846.033853
632.262462	9834.081277
632.608316	9824.803033
632.954117	9810.218975
633.299866	9795.546697
633.645562	9785.449266
633.991206	9699.061533
634.336797	9608.661042
634.682336	9617.651939
635.027823	9566.703518
635.373257	9537.968941
635.718639	9483.635385
636.063968	9464.690729
636.409245	9354.881795
636.754470	9349.765024
637.099642	9302.675606
637.444762	9211.312254
637.789829	9226.077794
638.134845	9162.861725
638.479808	9133.002970
638.824719	9114.653170
639.169577	9034.985296
639.514383	9040.233137
639.859137	8976.991862
640.203839	9017.981484
640.548489	8941.134134
640.893086	8950.361967
641.237632	8892.602946
641.582125	8899.537053
641.926566	8892.328203
642.270955	8880.242037
642.615292	8874.016212
642.959576	8859.202782
643.303809	8850.524435
643.647990	8874.598465
