Dividing Wavelength (nm)	Counts (n)	Blue Motor Position (mm): 46.000000	Red Motor Position (mm): 0.000000	
326.493990	2154.664771
326.888308	2154.664771
327.282561	2154.664771
327.676750	2127.061933
328.070874	2128.024794
328.464933	2136.622482
328.858929	2141.794705
329.252859	2155.098310
329.646726	2172.200425
330.040528	2183.459842
330.434265	2203.816021
330.827938	2221.208002
331.221547	2241.854048
331.615091	2258.996491
332.008571	2281.747218
332.401986	2302.012657
332.795338	2322.323466
333.188625	2340.020436
333.581847	2360.147243
333.975006	2378.217259
334.368100	2400.055537
334.761129	2419.317786
335.154095	2433.460743
335.546996	2459.314301
335.939833	2486.909577
336.332606	2499.804849
336.725315	2512.110305
337.117960	2522.936183
337.510540	2530.228212
337.903056	2537.784902
338.295508	2547.705893
338.687896	2550.849052
339.080220	2562.821792
339.472480	2567.623491
339.864676	2571.036352
340.256807	2575.112125
340.648875	2574.033318
341.040879	2573.859399
341.432818	2580.254102
341.824694	2580.357446
342.216506	2579.437435
342.608253	2579.555902
342.999937	2577.657908
343.391557	2577.025243
343.783113	2573.723287
344.174605	2575.848134
344.566033	2569.955025
344.957397	2571.308575
345.348697	2569.037535
345.739934	2567.346228
346.131106	2566.648028
346.522215	2566.002760
346.913260	2563.182235
347.304241	2564.825651
347.695159	2560.107131
348.086012	2558.738458
348.476802	2556.543035
348.867528	2555.401214
349.258191	2552.686552
349.648789	2552.310987
350.039324	2552.689073
350.429796	2553.281409
350.820203	2552.137067
351.210548	2550.135729
351.600828	2549.107333
351.991045	2548.885523
352.381198	2548.575492
352.771288	2549.926521
353.161314	2549.056922
353.551276	2549.790410
353.941175	2550.012220
354.331010	2547.917621
354.720782	2547.287477
355.110490	2547.854607
355.500135	2551.000287
355.889717	2548.774617
356.279235	2550.488609
356.668689	2549.591284
357.058080	2550.425595
357.447408	2543.758669
357.836672	2544.933258
358.225873	2548.220090
358.615010	2546.221273
359.004084	2550.173537
359.393095	2551.189330
359.782043	2550.478527
360.170927	2553.898950
360.559748	2552.653785
360.948505	2552.056408
361.337199	2554.214022
361.725830	2553.248641
362.114398	2557.251317
362.502903	2555.996070
362.891344	2555.113868
363.279722	2557.001780
363.668037	2557.780638
364.056289	2556.230484
364.444478	2560.356668
364.832603	2556.991698
365.220665	2561.619477
365.608665	2560.596123
365.996601	2558.390618
366.384474	2561.001936
366.772284	2560.848181
367.160031	2561.201061
367.547715	2561.231308
367.935336	2560.669220
368.322893	2561.468242
368.710388	2564.087122
369.097820	2564.376988
369.485189	2565.987637
369.872495	2563.635939
370.259738	2563.003274
370.646918	2564.261042
371.034035	2565.475960
371.421090	2562.564693
371.808081	2564.008984
372.195010	2564.208110
372.581875	2564.744993
372.968678	2565.985116
373.355418	2565.738100
373.742096	2570.968297
374.128710	2568.435117
374.515262	2566.191804
374.901751	2567.497462
375.288177	2569.692885
375.674540	2568.379664
376.060841	2566.953018
376.447079	2571.994172
376.833254	2568.730025
377.219367	2565.264231
377.605417	2566.247256
377.991404	2567.104252
378.377329	2565.647359
378.763191	2568.354459
379.148991	2573.980386
379.534727	2573.433421
379.920402	2576.448031
380.306013	2578.207394
380.691563	2579.273598
381.077049	2580.402816
381.462474	2581.680749
381.847835	2583.477920
382.233134	2587.687284
382.618371	2589.524784
383.003545	2593.673654
383.388657	2595.153232
383.773706	2600.043152
384.158693	2602.006681
384.543618	2605.081785
384.928480	2610.745521
385.313280	2614.612086
385.698017	2620.961420
386.082692	2626.708335
386.467305	2627.552728
386.851856	2634.028090
387.236344	2642.300624
387.620770	2648.360091
388.005133	2653.141625
388.389435	2662.951711
388.773674	2669.293482
389.157851	2675.736077
389.541965	2686.922397
389.926018	2688.129753
390.310008	2699.830272
390.693936	2707.850747
391.077802	2715.936758
391.461606	2727.831361
391.845348	2737.028946
392.229027	2746.473547
392.612645	2759.724220
392.996200	2770.892897
393.379694	2779.808177
393.763125	2799.350210
394.146494	2812.283290
394.529801	2820.734785
394.913047	2839.621468
395.296230	2845.040708
395.679351	2856.040506
396.062410	2877.659494
396.445408	2874.896942
396.828343	2892.944273
397.211217	2899.538102
397.594028	2900.190931
397.976778	2917.088879
398.359466	2934.816096
398.742092	2935.789039
399.124656	2954.073304
399.507158	2970.802373
399.889598	2979.465596
400.271977	2999.118534
400.654294	3004.469719
401.036549	3022.421268
401.418742	3030.103986
401.800874	3057.437122
402.182944	3063.365519
402.564952	3094.529932
402.946898	3087.910898
403.328783	3099.969337
403.710606	3115.392748
404.092367	3140.837972
404.474067	3169.587672
404.855705	3161.143739
405.237282	3165.277486
405.618797	3198.990202
406.000250	3217.524004
406.381642	3250.765372
406.762972	3255.713265
407.144240	3249.595825
407.525447	3270.929988
407.906593	3271.086264
408.287677	3292.680046
408.668700	3312.348108
409.049661	3312.085968
409.430560	3327.116168
409.811399	3331.272599
410.192176	3353.557020
410.572891	3357.741178
410.953545	3399.270203
411.334138	3369.744165
411.714669	3420.634613
412.095139	3366.928681
412.475547	3418.915580
412.855894	3407.547778
413.236180	3437.222530
413.616405	3417.136052
413.996568	3445.626133
414.376670	3447.438428
414.756711	3439.342335
415.136691	3467.320739
415.516609	3488.891836
415.896466	3494.865603
416.276262	3526.667723
416.655997	3554.147052
417.035670	3561.187023
417.415283	3631.117910
417.794834	3649.109788
418.174324	3632.388280
418.553753	3631.064977
418.933121	3677.788912
419.312428	3666.549659
419.691674	3661.783248
420.070859	3698.301367
420.449983	3681.562216
420.829045	3730.065677
421.208047	3712.018347
421.586988	3761.209926
421.965867	3788.709420
422.344686	3799.822644
422.723444	3837.283458
423.102141	3740.964652
423.480777	3848.197556
423.859352	3812.181032
424.237866	3913.523348
424.616319	3896.955596
424.994712	3958.351809
425.373044	3946.653811
425.751314	4010.714274
426.129524	3944.352524
426.507673	4041.235940
426.885762	4020.680635
427.263789	4044.185015
427.641756	4048.412022
428.019662	4077.948142
428.397508	4080.279676
428.775292	4117.841313
429.153016	4124.515801
429.530679	4136.725476
429.908282	4144.027587
430.285824	4122.206953
430.663305	4199.727296
431.040726	4151.468330
431.418086	4145.154285
431.795385	4221.573136
432.172624	4253.808794
432.549802	4220.171695
432.926920	4240.477463
433.303977	4235.524529
433.680974	4272.952576
434.057910	4300.618428
434.434786	4306.924912
434.811601	4299.549704
435.188355	4405.832350
435.565050	4372.669120
435.941683	4371.373543
436.318257	4459.606338
436.694770	4466.971464
437.071222	4524.584291
437.447614	4453.665339
437.823946	4459.792861
438.200218	4480.146520
438.576429	4459.480310
438.952580	4486.034587
439.328670	4493.009024
439.704700	4534.321280
440.080670	4496.983974
440.456580	4558.458324
440.832429	4594.905867
441.208218	4492.464579
441.583947	4549.913568
441.959616	4564.326227
442.335224	4591.351853
442.710773	4607.697794
443.086261	4664.020086
443.461689	4621.099702
443.837057	4630.458604
444.212365	4704.654306
444.587612	4705.387794
444.962800	4677.537940
445.337927	4720.682655
445.712995	4603.251497
446.088002	4798.462618
446.462949	4817.568591
446.837837	4835.875541
447.212664	4825.606711
447.587431	5054.762441
447.962139	5349.798490
448.336786	5691.089647
448.711374	5666.241800
449.085901	5315.654755
449.460369	5253.066310
449.834776	5191.067679
450.209124	5428.712713
450.583412	5439.737716
450.957640	5561.378238
451.331808	5420.898924
451.705917	5272.048775
452.079965	5260.524697
452.453954	5300.367456
452.827883	5268.293115
453.201752	5270.118013
453.575562	5306.502541
453.949311	5442.699394
454.323001	5442.648982
454.696632	5437.801913
455.070202	5593.497950
455.443713	5623.787722
455.817164	5716.544953
456.190556	5784.782012
456.563888	5766.618734
456.937160	5835.788406
457.310373	5678.406104
457.683526	5732.883333
458.056619	5732.916100
458.429653	5710.281320
458.802628	5757.877374
459.175542	5792.162261
459.548398	5927.297952
459.921194	6115.171673
460.293930	6175.728534
460.666607	6431.995589
461.039224	6643.998794
461.411782	6773.914370
461.784280	6688.885228
462.156719	6691.282296
462.529099	6649.602036
462.901419	6507.643144
463.273680	6382.481376
463.645882	6369.971753
464.018024	6376.558021
464.390106	6440.258041
464.762130	6701.765376
465.134094	7094.017557
465.505999	7741.238696
465.877845	8439.269625
466.249631	8790.302811
466.621358	8709.752735
466.993026	8514.377776
467.364634	8295.120351
467.736184	8010.781630
468.107674	7857.719597
468.479105	7772.214066
468.850477	7707.715023
469.221790	7534.609362
469.593043	7313.789179
469.964238	7211.796554
470.335373	7187.417534
470.706449	7345.377049
471.077467	7539.285032
471.448425	8199.633336
471.819324	8784.339126
472.190164	8813.489598
472.560945	8326.604878
472.931667	7859.698250
473.302330	7666.362438
473.672934	7543.602780
474.043479	7624.598999
474.413965	7523.208792
474.784393	7472.172151
475.154761	7627.941284
475.525070	7641.058366
475.895321	7597.381809
476.265513	7695.359155
476.635645	7851.967640
477.005719	7848.625355
477.375734	7933.352028
477.745691	8048.486941
478.115588	8251.617714
478.485427	8491.417841
478.855207	8968.273186
479.224928	9403.571780
479.594591	9781.645715
479.964194	9793.948651
480.333739	9873.288851
480.703226	9873.669458
481.072653	9971.777874
481.442022	10087.820194
481.811333	10241.088915
482.180584	10084.248537
482.549777	10027.248210
482.918912	9958.665832
483.287988	9940.933574
483.657005	9854.510553
484.025964	9762.000339
484.394864	9834.345937
484.763706	9792.564854
485.132489	9694.726141
485.501213	9692.082055
485.869879	9745.316640
486.238487	9686.806488
486.607036	9766.686091
486.975527	9711.518224
487.343959	9766.726420
487.712333	9808.694026
488.080648	9854.901242
488.448905	9952.460172
488.817104	9964.286719
489.185244	10127.645309
489.553326	10343.893165
489.921350	10822.066772
490.289315	11453.952722
490.657222	11744.499624
491.025070	11912.465829
491.392861	11822.604741
491.760593	11668.872234
492.128267	11411.493603
492.495883	11180.313850
492.863440	10950.051586
493.230939	10711.383198
493.598380	10537.118072
493.965763	10507.889462
494.333088	10376.398525
494.700354	10307.722887
495.067563	10282.096181
495.434713	10288.745463
495.801805	10326.173510
496.168839	10289.355443
496.535815	10249.989072
496.902733	10305.582917
497.269593	10265.470456
497.636395	10264.144632
498.003139	10376.007836
498.369825	10309.421755
498.736453	10397.034489
499.103023	10345.539102
499.469535	10348.921716
499.835989	10394.602132
500.202385	10370.931394
500.568723	10392.149611
500.935003	10446.115163
501.301226	10425.459035
501.667390	10592.522873
502.033497	10689.597852
502.399546	10613.771337
502.765537	10514.826089
503.131470	10624.216607
503.497345	10717.677079
503.863163	10492.365228
504.228923	10621.776689
504.594625	10733.191230
504.960269	10648.734259
505.325856	10793.664912
505.691385	10677.652838
506.056856	10745.567263
506.422270	10847.164157
506.787625	10784.661411
507.152924	10834.503299
507.518164	10890.739891
507.883347	10760.930179
508.248472	10836.237456
508.613540	10945.575042
508.978550	11025.363904
509.343503	10997.551858
509.708398	11048.275948
510.073236	11180.986844
510.438016	11192.505880
510.802738	11109.853643
511.167403	11236.558003
511.532010	11298.448249
511.896561	11399.230997
512.261053	11589.264853
512.625488	11502.675474
512.989866	11497.089875
513.354186	11472.920063
513.718449	11480.668317
514.082655	11622.670059
514.446803	11577.213974
514.810894	11682.551405
515.174927	11686.080212
515.538904	11675.403048
515.902822	11827.814773
516.266684	11699.605628
516.630488	11796.514249
516.994235	11790.048969
517.357925	11906.779407
517.721558	11964.440125
518.085133	12025.120494
518.448651	12062.626678
518.812112	12022.849454
519.175516	12026.068231
519.538863	12119.546346
519.902152	12123.339815
520.265385	12234.252761
520.628560	12253.905699
520.991678	12200.308152
521.354739	12256.885021
521.717743	12328.073675
522.080690	12299.639047
522.443580	12438.409409
522.806413	12449.331069
523.169189	12443.223711
523.531908	12504.292249
523.894569	12457.006226
524.257174	12475.797127
524.619722	12598.481167
524.982213	12566.323647
525.344647	12549.939897
525.707025	12567.349522
526.069345	12671.986232
526.431608	12647.377839
526.793815	12735.469482
527.155964	12627.868574
527.518057	12653.533088
527.880093	12610.602622
528.242072	12733.677352
528.603995	12651.690546
528.965860	12665.475582
529.327669	12696.148482
529.689421	12647.854228
530.051117	12662.299655
530.412755	12694.091691
530.774337	12704.093341
531.135862	12657.508038
531.497331	12714.888972
531.858743	12676.982015
532.220098	12766.472578
532.581396	12688.261597
532.942638	12601.150458
533.303824	12676.568641
533.664953	12659.847133
534.026025	12610.844597
534.387040	12720.461967
534.747999	12691.500538
535.108902	12736.296231
535.469748	12609.312087
535.830537	12634.096919
536.191270	12676.828260
536.551947	12603.401334
536.912567	12676.883713
537.273131	12704.173999
537.633638	12576.670615
537.994089	12640.078248
538.354483	12562.202504
538.714821	12690.721680
539.075103	12760.110642
539.435328	12692.407946
539.795497	12669.150583
540.155609	12668.439780
540.515665	12774.757715
540.875665	12631.309161
541.235609	12729.861198
541.595496	12694.258049
541.955328	12863.139224
542.315102	12714.954507
542.674821	12659.839572
543.034483	12669.551354
543.394090	12666.758555
543.753640	12637.376190
544.113134	12882.923232
544.472571	12640.761325
544.831953	12923.857401
545.191278	12734.476375
545.550548	12673.004545
545.909761	12793.994758
546.268918	12834.175274
546.628019	12896.042835
546.987064	12789.712298
547.346053	12640.584884
547.704986	12833.512363
548.063863	12710.409906
548.422684	12763.931837
548.781449	12709.815050
549.140158	12817.809168
549.498811	12768.438628
549.857408	12641.194864
550.215949	12841.351357
550.574434	12809.448415
550.932864	12752.236360
551.291237	12959.684882
551.649555	12837.822549
552.007817	12896.935119
552.366022	12816.770691
552.724173	12867.008309
553.082267	12947.744909
553.440305	13042.347202
553.798288	12871.661294
554.156215	12938.922890
554.514086	12989.901558
554.871902	12927.955859
555.229661	12948.773304
555.587365	12902.944175
555.945014	12920.966300
556.302606	12901.850244
556.660143	12958.817803
557.017625	12998.698371
557.375050	12956.128348
557.732421	13055.151733
558.089735	13052.863049
558.446994	13031.750697
558.804197	13146.457111
559.161345	13135.026295
559.518437	12952.828912
559.875474	13037.439639
560.232455	13052.336248
560.589381	13115.048202
560.946251	13050.841546
561.303065	13219.437895
561.659825	13175.529445
562.016528	13091.518617
562.373177	13033.073999
562.729770	13155.788287
563.086307	13045.472717
563.442789	13143.712203
563.799216	13184.979088
564.155587	13133.667704
564.511904	13158.669306
564.868164	13161.315912
565.224370	13224.524420
565.580520	13173.147500
565.936615	13237.129825
566.292654	13174.737984
566.648638	13244.729364
567.004567	13258.852157
567.360441	13255.353596
567.716260	13221.502248
568.072023	13301.144917
568.427732	13284.846867
568.783385	13181.319211
569.138982	13293.656283
569.494525	13295.224082
569.850013	13246.050147
570.205445	13225.817476
570.560823	13245.964447
570.916145	13195.129452
571.271412	13196.883773
571.626625	13167.889577
571.981782	13163.339935
572.336884	13109.051750
572.691931	13194.922764
573.046923	13094.487856
573.401860	13070.421388
573.756743	13059.532495
574.111570	13090.601127
574.466342	13066.774113
574.821059	13112.308335
575.175722	12989.725117
575.530330	13002.600224
575.884882	12932.195470
576.239380	12940.876337
576.593823	12919.338007
576.948211	12925.440324
577.302544	12792.585755
577.656823	12818.900578
578.011047	12876.069783
578.365216	12820.075167
578.719330	12750.716452
579.073389	12724.726783
579.427394	12736.941499
579.781344	12733.395047
580.135239	12658.594407
580.489080	12674.733661
580.842866	12555.149930
581.196597	12653.185248
581.550273	12636.952733
581.903895	12599.663318
582.257463	12712.718755
582.610975	12566.482443
582.964434	12629.111218
583.317837	12542.526880
583.671186	12501.564985
584.024481	12551.479970
584.377721	12444.731016
584.730906	12515.486131
585.084037	12538.171323
585.437113	12450.109928
585.790135	12471.126498
586.143103	12385.671378
586.496016	12401.780386
586.848874	12406.075449
587.201679	12413.906881
587.554428	12282.862087
587.907124	12326.848675
588.259765	12261.558171
588.612352	12338.329903
588.964884	12190.331708
589.317362	12251.906882
589.669786	12248.985533
590.022155	12198.884026
590.374470	12294.693675
590.726731	12186.260976
591.078937	12074.937176
591.431090	12095.313520
591.783188	12022.428517
592.135232	11944.220057
592.487222	12005.480158
592.839157	12015.605316
593.191038	11950.236674
593.542866	11894.776420
593.894639	11754.478588
594.246358	11810.546301
594.598022	11820.018629
594.949633	11723.072199
595.301190	11710.749099
595.652692	11673.527739
596.004141	11760.558219
596.355535	11541.328521
596.706876	11513.453461
597.058162	11484.870118
597.409395	11572.830691
597.760573	11610.581372
598.111698	11499.570123
598.462768	11503.103972
598.813785	11508.455157
599.164748	11387.908565
599.515657	11468.821605
599.866511	11332.922180
600.217312	11476.101031
600.568060	11236.396686
600.918753	11395.152703
601.269392	11399.107488
601.619978	11294.301900
601.970510	11337.761687
602.320988	11378.300126
602.671412	11453.551950
603.021783	11377.191072
603.372100	11303.300360
603.722363	11317.405508
604.072572	11316.359469
604.422728	11323.376755
604.772830	11272.219126
605.122878	11279.496031
605.472872	11250.106104
605.822813	11316.891310
606.172701	11275.132912
606.522534	11311.323356
606.872314	11362.145748
607.222041	11298.039916
607.571714	11379.532688
607.921333	11250.703481
608.270899	11294.445573
608.620411	11352.998575
608.969870	11313.130610
609.319276	11290.871395
609.668627	11305.576441
610.017926	11382.060827
610.367171	11414.714901
610.716362	11402.764846
611.065500	11375.018335
611.414585	11386.131558
611.763616	11455.029008
612.112594	11419.254460
612.461518	11445.347472
612.810389	11488.464461
613.159207	11423.262177
613.507971	11425.843248
613.856682	11527.165399
614.205340	11482.354582
614.553945	11629.407561
614.902496	11496.210194
615.250994	11560.815101
615.599439	11553.323946
615.947830	11586.164543
616.296169	11557.165306
616.644454	11568.326420
616.992686	11583.447361
617.340864	11675.518995
617.688990	11559.806870
618.037063	11704.135105
618.385082	11671.894405
618.733048	11709.950076
619.080961	11695.386182
619.428821	11678.768019
619.776628	11682.627022
620.124382	11629.243723
620.472083	11644.800724
620.819731	11671.919611
621.167326	11598.843045
621.514868	11585.851992
621.862357	11476.806793
622.209793	11473.461987
622.557176	11388.463092
622.904506	11330.376397
623.251783	11249.836403
623.599007	11186.975735
623.946179	11139.659465
624.293297	11115.618202
624.640363	10977.460340
624.987376	10964.744029
625.334336	10908.215050
625.681243	10812.410442
626.028097	10794.426126
626.374899	10750.000958
626.721647	10722.728315
627.068343	10687.258757
627.414987	10618.721750
627.761577	10561.219828
628.108115	10604.314132
628.454600	10474.786725
628.801032	10489.796761
629.147412	10475.605913
629.493739	10448.285379
629.840014	10376.254852
630.186236	10422.361246
630.532405	10315.899638
630.878521	10355.946564
631.224585	10306.611312
631.570597	10229.141380
631.916556	10228.735567
632.262462	10215.802487
632.608316	10201.629283
632.954117	10175.488380
633.299866	10157.559516
633.645562	10134.536567
633.991206	10031.142501
634.336797	9935.710938
634.682336	9925.863044
635.027823	9867.093273
635.373257	9830.310494
635.718639	9761.430688
636.063968	9730.213343
636.409245	9617.382238
636.754470	9600.391029
637.099642	9549.190550
637.444762	9448.740518
637.789829	9451.361918
638.134845	9378.502122
638.479808	9354.261733
