Dividing Wavelength (nm)	Counts (n)	Blue Motor Position (mm): 4.500000	Red Motor Position (mm): 0.000000	
326.493990	2160.268014
326.888308	2160.268014
327.282561	2160.268014
327.676750	2135.977214
328.070874	2137.920579
328.464933	2140.889818
328.858929	2151.156128
329.252859	2164.111893
329.646726	2177.639830
330.040528	2191.699608
330.434265	2210.614017
330.827938	2229.808210
331.221547	2248.490727
331.615091	2269.804725
332.008571	2289.187962
332.401986	2309.226548
332.795338	2327.926708
333.188625	2347.955213
333.581847	2369.339787
333.975006	2387.878630
334.368100	2405.759603
334.761129	2423.605288
335.154095	2439.472319
335.546996	2457.199537
335.939833	2472.096147
336.332606	2485.760194
336.725315	2497.508603
337.117960	2503.875580
337.510540	2512.259019
337.903056	2523.553724
338.295508	2527.468180
338.687896	2530.787780
339.080220	2543.683052
339.472480	2544.792106
339.864676	2551.844680
340.256807	2555.524722
340.648875	2557.130330
341.040879	2558.375495
341.432818	2558.967830
341.824694	2561.453119
342.216506	2561.317008
342.608253	2561.372461
342.999937	2562.128634
343.391557	2558.584703
343.783113	2559.416493
344.174605	2553.964485
344.566033	2555.471790
344.957397	2553.500699
345.348697	2551.837118
345.739934	2552.210163
346.131106	2547.605069
346.522215	2546.541386
346.913260	2543.367980
347.304241	2546.022147
347.695159	2542.621889
348.086012	2541.061652
348.476802	2537.585776
348.867528	2540.484440
349.258191	2538.208359
349.648789	2537.316074
350.039324	2531.218799
350.429796	2536.237268
350.820203	2532.416073
351.210548	2531.551515
351.600828	2530.250897
351.991045	2529.595547
352.381198	2526.696884
352.771288	2529.270393
353.161314	2529.285516
353.551276	2531.720394
353.941175	2526.858201
354.331010	2529.575383
354.720782	2526.235618
355.110490	2532.108563
355.500135	2528.047913
355.889717	2528.930115
356.279235	2532.279962
356.668689	2530.621422
357.058080	2532.244674
357.447408	2527.805938
357.836672	2529.797193
358.225873	2527.697553
358.615010	2530.911288
359.004084	2533.739376
359.393095	2530.835671
359.782043	2535.932278
360.170927	2532.158974
360.559748	2536.590148
360.948505	2535.130734
361.337199	2538.057124
361.725830	2537.064017
362.114398	2539.357742
362.502903	2535.476053
362.891344	2539.398071
363.279722	2536.098636
363.668037	2538.939326
364.056289	2538.709953
364.444478	2542.856303
364.832603	2540.060983
365.220665	2539.942516
365.608665	2539.025026
365.996601	2541.943854
366.384474	2540.986034
366.772284	2539.355221
367.160031	2542.027033
367.547715	2542.395037
367.935336	2544.444266
368.322893	2542.949564
368.710388	2543.693134
369.097820	2547.610111
369.485189	2542.974770
369.872495	2545.202960
370.259738	2545.671787
370.646918	2542.730274
371.034035	2543.751107
371.421090	2546.831252
371.808081	2543.899821
372.195010	2544.068700
372.581875	2546.254040
372.968678	2546.642209
373.355418	2546.329658
373.742096	2547.867209
374.128710	2545.686910
374.515262	2546.128011
374.901751	2544.708927
375.288177	2546.420398
375.674540	2544.172044
376.060841	2546.632127
376.447079	2547.489123
376.833254	2547.249668
377.219367	2542.700027
377.605417	2548.439380
377.991404	2545.606252
378.377329	2544.207332
378.763191	2547.302600
379.148991	2547.433670
379.534727	2548.837632
379.920402	2552.467262
380.306013	2549.150183
380.691563	2551.327962
381.077049	2549.566078
381.462474	2552.018600
381.847835	2549.283774
382.233134	2551.721172
382.618371	2554.466080
383.003545	2548.756973
383.388657	2551.668239
383.773706	2550.670091
384.158693	2552.179917
384.543618	2553.770401
384.928480	2553.052036
385.313280	2554.037582
385.698017	2550.032385
386.082692	2550.438198
386.467305	2554.277037
386.851856	2555.552448
387.236344	2554.753426
387.620770	2553.745195
388.005133	2553.830894
388.389435	2554.203940
388.773674	2554.602191
389.157851	2552.850390
389.541965	2557.344579
389.926018	2554.428271
390.310008	2554.400545
390.693936	2557.062274
391.077802	2553.483055
391.461606	2551.416182
391.845348	2552.278219
392.229027	2554.337530
392.612645	2554.458518
392.996200	2555.491955
393.379694	2557.883982
393.763125	2557.082439
394.146494	2554.884496
394.529801	2558.060422
394.913047	2554.098076
395.296230	2557.861297
395.679351	2559.403890
396.062410	2560.439847
396.445408	2558.156204
396.828343	2559.590413
397.211217	2553.556152
397.594028	2555.076059
397.976778	2557.079918
398.359466	2558.625032
398.742092	2553.709907
399.124656	2561.652245
399.507158	2558.070505
399.889598	2559.509754
400.271977	2561.269117
400.654294	2562.935218
401.036549	2558.645196
401.418742	2560.979251
401.800874	2562.148798
402.182944	2559.542522
402.564952	2559.265258
402.946898	2558.733417
403.328783	2562.075702
403.710606	2561.301884
404.092367	2559.300546
404.474067	2563.346072
404.855705	2561.069991
405.237282	2562.292471
405.618797	2561.841288
406.000250	2563.018397
406.381642	2563.562842
406.762972	2562.768860
407.144240	2563.502348
407.525447	2563.356155
407.906593	2561.198541
408.287677	2563.792214
408.668700	2562.720969
409.049661	2565.468398
409.430560	2561.695094
409.811399	2564.170301
410.192176	2563.376319
410.572891	2562.509241
410.953545	2565.523851
411.334138	2567.386557
411.714669	2567.154664
412.095139	2563.905640
412.475547	2566.146433
412.855894	2563.991340
413.236180	2565.881773
413.616405	2565.148285
413.996568	2566.005281
414.376670	2565.753223
414.756711	2567.116855
415.136691	2566.562328
415.516609	2563.703994
415.896466	2567.242884
416.276262	2567.295816
416.655997	2565.511248
417.035670	2562.312636
417.415283	2562.867163
417.794834	2560.366750
418.174324	2563.424210
418.553753	2568.518296
418.933121	2567.961249
419.312428	2569.292113
419.691674	2568.697257
420.070859	2565.581824
420.449983	2567.121897
420.829045	2565.755744
421.208047	2569.105591
421.586988	2568.684654
421.965867	2568.795560
422.344686	2568.001578
422.723444	2567.341187
423.102141	2568.601475
423.480777	2571.490056
423.859352	2568.142730
424.237866	2569.637432
424.616319	2569.680282
424.994712	2573.340160
425.373044	2568.523337
425.751314	2569.534089
426.129524	2569.367731
426.507673	2572.926785
426.885762	2570.212124
427.263789	2567.472257
427.641756	2569.314798
428.019662	2570.754048
428.397508	2572.924265
428.775292	2570.249932
429.153016	2569.629871
429.530679	2572.657083
429.908282	2573.256981
430.285824	2571.195149
430.663305	2570.262535
431.040726	2570.849830
431.418086	2572.276476
431.795385	2572.742783
432.172624	2569.914696
432.549802	2570.910324
432.926920	2571.522824
433.303977	2573.519121
433.680974	2572.536096
434.057910	2573.292269
434.434786	2570.529717
434.811601	2572.674727
435.188355	2572.180694
435.565050	2573.438462
435.941683	2571.505180
436.318257	2565.420507
436.694770	2571.147258
437.071222	2570.320509
437.447614	2567.832699
437.823946	2568.775395
438.200218	2573.909810
438.576429	2574.958370
438.952580	2572.460478
439.328670	2574.358473
439.704700	2572.921744
440.080670	2572.571384
440.456580	2573.617423
440.832429	2573.498956
441.208218	2573.846796
441.583947	2574.250088
441.959616	2576.188412
442.335224	2575.696899
442.710773	2573.720767
443.086261	2573.647670
443.461689	2575.724626
443.837057	2573.811508
444.212365	2575.001220
444.587612	2576.962229
444.962800	2577.252095
445.337927	2576.039698
445.712995	2574.439131
446.088002	2577.000037
446.462949	2573.861919
446.837837	2573.808987
447.212664	2577.441138
447.587431	2575.807805
447.962139	2575.722105
448.336786	2577.642785
448.711374	2577.355439
449.085901	2577.665470
449.460369	2577.007599
449.834776	2576.047259
450.209124	2577.090778
450.583412	2575.530541
450.957640	2576.579101
451.331808	2576.130438
451.705917	2576.364852
452.079965	2575.465006
452.453954	2576.102712
452.827883	2579.520614
453.201752	2575.916189
453.575562	2576.412743
453.949311	2576.299317
454.323001	2578.661098
454.696632	2576.372414
455.070202	2577.365521
455.443713	2577.983062
455.817164	2575.364183
456.190556	2576.904256
456.563888	2576.538772
456.937160	2572.813359
457.310373	2576.470716
457.683526	2577.244533
458.056619	2579.162692
458.429653	2578.328382
458.802628	2577.819225
459.175542	2578.396437
459.548398	2577.897363
459.921194	2576.168247
460.293930	2577.229410
460.666607	2578.739236
461.039224	2578.782085
461.411782	2580.478434
461.784280	2577.736046
462.156719	2578.388875
462.529099	2580.468351
462.901419	2578.187229
463.273680	2579.686973
463.645882	2578.910635
464.018024	2578.081365
464.390106	2579.621437
464.762130	2578.461972
465.134094	2579.850810
465.505999	2581.272415
465.877845	2580.365008
466.249631	2581.849628
466.621358	2581.950451
466.993026	2581.277457
467.364634	2583.394741
467.736184	2579.339133
468.107674	2579.470203
468.479105	2579.525656
468.850477	2579.346695
469.221790	2580.649833
469.593043	2579.092116
469.964238	2582.089082
470.335373	2579.623958
470.706449	2583.298959
471.077467	2579.313927
471.448425	2580.271746
471.819324	2578.908114
472.190164	2580.576736
472.560945	2582.159658
472.931667	2579.931468
473.302330	2583.974474
473.672934	2580.619586
474.043479	2581.269895
474.413965	2580.357446
474.784393	2577.680593
475.154761	2579.417271
475.525070	2576.611869
475.895321	2576.367373
476.265513	2578.860223
476.635645	2583.361974
477.005719	2579.495409
477.375734	2582.865420
477.745691	2580.445666
478.115588	2582.457087
478.485427	2580.725450
478.855207	2582.076479
479.224928	2583.281315
479.594591	2582.353743
479.964194	2582.300811
480.333739	2582.847776
480.703226	2581.406006
481.072653	2582.331058
481.442022	2579.654205
481.811333	2582.172261
482.180584	2579.560944
482.549777	2581.471541
482.918912	2582.058835
483.287988	2582.338619
483.657005	2583.228383
484.025964	2584.279464
484.394864	2582.691500
484.763706	2585.698548
485.132489	2582.409196
485.501213	2582.903229
485.869879	2581.098496
486.238487	2578.104050
486.607036	2582.489854
486.975527	2581.925245
487.343959	2582.797364
487.712333	2582.724268
488.080648	2581.673187
488.448905	2582.114288
488.817104	2581.227045
489.185244	2583.177972
489.553326	2583.649319
489.921350	2582.613362
490.289315	2584.707962
490.657222	2586.280802
491.025070	2582.787282
491.392861	2583.782910
491.760593	2580.463310
492.128267	2581.582446
492.495883	2584.337437
492.863440	2582.986408
493.230939	2584.907087
493.598380	2585.562437
493.965763	2579.162692
494.333088	2581.751325
494.700354	2578.686303
495.067563	2583.379618
495.434713	2577.773855
495.801805	2587.490679
496.168839	2584.196285
496.535815	2583.976994
496.902733	2583.006572
497.269593	2585.131419
497.636395	2581.658064
498.003139	2583.601428
498.369825	2583.246027
498.736453	2586.999166
499.103023	2582.510019
499.469535	2583.382138
499.835989	2584.947417
500.202385	2584.448342
500.568723	2584.105544
500.935003	2582.041191
501.301226	2583.291397
501.667390	2584.876840
502.033497	2586.542942
502.399546	2584.947417
502.765537	2586.575709
503.131470	2583.644278
503.497345	2583.772828
503.863163	2586.507654
504.228923	2583.263671
504.594625	2583.770307
504.960269	2582.378949
505.325856	2585.806933
505.691385	2585.809454
506.056856	2587.190730
506.422270	2582.683938
506.787625	2581.627817
507.152924	2584.229052
507.518164	2582.986408
507.883347	2585.754001
508.248472	2583.840883
508.613540	2586.129567
508.978550	2583.644278
509.343503	2584.400451
509.708398	2587.704928
510.073236	2586.006059
510.438016	2585.761563
510.802738	2586.192582
511.167403	2586.031265
511.532010	2583.606470
511.896561	2586.321131
512.261053	2585.771645
512.625488	2582.827611
512.989866	2580.647312
513.354186	2581.572364
513.718449	2581.174113
514.082655	2581.930286
514.446803	2587.904053
514.810894	2586.598394
515.174927	2585.988415
515.538904	2585.385997
515.902822	2585.504464
516.266684	2586.338775
516.630488	2583.543455
516.994235	2586.341296
517.357925	2586.187540
517.721558	2584.889443
518.085133	2581.910121
518.448651	2586.535380
518.812112	2587.664598
519.175516	2586.293405
519.538863	2585.605287
519.902152	2589.668457
520.265385	2586.820205
520.628560	2586.754670
520.991678	2586.295925
521.354739	2586.016141
521.717743	2585.406162
522.080690	2586.139649
522.443580	2584.120667
522.806413	2586.419433
523.169189	2585.184351
523.531908	2587.097469
523.894569	2585.401120
524.257174	2585.333065
524.619722	2586.053950
524.982213	2589.141657
525.344647	2586.187540
525.707025	2587.765422
526.069345	2585.910277
526.431608	2587.125195
526.793815	2585.817016
527.155964	2585.620411
527.518057	2583.271233
527.880093	2587.692325
528.242072	2585.887592
528.603995	2587.851121
528.965860	2586.817685
529.327669	2587.163004
529.689421	2587.309197
530.051117	2587.281471
530.412755	2588.289702
530.774337	2586.938672
531.135862	2585.776686
531.497331	2581.668146
531.858743	2583.238465
532.220098	2584.924731
532.581396	2582.512539
532.942638	2581.595049
533.303824	2586.280802
533.664953	2586.240472
534.026025	2586.868096
534.387040	2587.679722
534.747999	2587.727613
535.108902	2587.515884
535.469748	2586.321131
535.830537	2586.787438
536.191270	2586.510174
536.551947	2585.791810
536.912567	2586.411872
537.273131	2586.762232
537.633638	2584.203846
537.994089	2585.723754
538.354483	2586.341296
538.714821	2588.075452
539.075103	2588.987901
539.435328	2587.843559
539.795497	2582.290728
540.155609	2588.743405
540.515665	2588.125864
540.875665	2588.990422
541.235609	2588.667788
541.595496	2584.713003
541.955328	2585.748960
542.315102	2586.825246
542.674821	2587.059660
543.034483	2587.651996
543.394090	2587.566296
543.753640	2586.300966
544.113134	2588.060329
544.472571	2587.654516
544.831953	2588.025041
545.191278	2586.217787
545.550548	2586.091758
545.909761	2587.732654
546.268918	2589.199630
546.628019	2586.787438
546.987064	2586.512695
547.346053	2584.110585
547.704986	2586.341296
548.063863	2586.946234
548.422684	2588.748447
548.781449	2586.353898
549.140158	2588.153590
549.498811	2588.022520
549.857408	2590.094435
550.215949	2586.532859
550.574434	2582.872982
550.932864	2585.822057
551.291237	2583.535893
551.649555	2586.522777
552.007817	2587.820874
552.366022	2586.220308
552.724173	2586.071594
553.082267	2588.080494
553.440305	2586.419433
553.798288	2588.294743
554.156215	2587.762901
554.514086	2585.224680
554.871902	2589.862542
555.229661	2586.996646
555.587365	2588.292222
555.945014	2587.397417
556.302606	2588.516553
556.660143	2589.582757
557.017625	2588.004876
557.375050	2587.946903
557.732421	2587.735175
558.089735	2588.488827
558.446994	2585.963209
558.804197	2586.845411
559.161345	2587.893971
559.518437	2589.519743
559.875474	2587.102510
560.232455	2586.437078
560.589381	2589.179465
560.946251	2590.354054
561.303065	2589.365988
561.659825	2584.448342
562.016528	2586.293405
562.373177	2586.505133
562.729770	2584.276943
563.086307	2588.617377
563.442789	2587.717531
563.799216	2584.634865
564.155587	2586.744588
564.511904	2590.588468
564.868164	2589.517222
565.224370	2587.417582
565.580520	2587.611666
565.936615	2589.711307
566.292654	2589.179465
566.648638	2590.500247
567.004567	2588.612335
567.360441	2587.999835
567.716260	2588.098138
568.072023	2586.787438
568.427732	2585.489341
568.783385	2587.034454
569.138982	2584.009762
569.494525	2582.363825
569.850013	2584.385328
570.205445	2588.458580
570.560823	2588.889599
570.916145	2588.143508
571.271412	2587.218456
571.626625	2586.716862
571.981782	2586.941193
572.336884	2589.234918
572.691931	2589.295412
573.046923	2586.174937
573.401860	2585.111254
573.756743	2589.451687
574.111570	2590.399424
574.466342	2587.140318
574.821059	2587.785586
575.175722	2591.042172
575.530330	2586.608477
575.884882	2588.128385
576.239380	2588.652665
576.593823	2589.131574
576.948211	2587.170565
577.302544	2585.834660
577.656823	2586.825246
578.011047	2588.882037
578.365216	2587.077304
578.719330	2587.581419
579.073389	2587.150401
579.427394	2585.557396
579.781344	2587.525967
580.135239	2588.037644
580.489080	2589.648292
580.842866	2587.780545
581.196597	2589.655854
581.550273	2587.432705
581.903895	2586.464804
582.257463	2588.534197
582.610975	2587.772983
582.964434	2590.233066
583.317837	2587.525967
583.671186	2590.033941
584.024481	2589.333220
584.377721	2590.157449
584.730906	2588.667788
585.084037	2589.292891
585.437113	2586.618559
585.790135	2587.127716
586.143103	2588.347675
586.496016	2589.534867
586.848874	2583.417426
587.201679	2584.672674
587.554428	2585.925400
587.907124	2585.839701
588.259765	2585.312900
588.612352	2590.787593
588.964884	2588.703076
589.317362	2589.108889
589.669786	2587.669640
590.022155	2591.382449
590.374470	2586.235431
590.726731	2588.408169
591.078937	2589.519743
591.431090	2589.068560
591.783188	2589.991091
592.135232	2591.707604
592.487222	2587.674681
592.839157	2590.996801
593.191038	2590.099476
593.542866	2586.915987
593.894639	2589.290371
594.246358	2587.283991
594.598022	2585.451532
594.949633	2586.464804
595.301190	2588.466142
595.652692	2584.929772
596.004141	2585.880030
596.355535	2588.166193
596.706876	2587.946903
597.058162	2588.692994
597.409395	2586.411872
597.760573	2587.092427
598.111698	2588.955134
598.462768	2588.120823
598.813785	2587.314238
599.164748	2587.735175
599.515657	2590.311204
599.866511	2587.462952
600.217312	2587.818354
600.568060	2588.660226
600.918753	2588.889599
601.269392	2585.761563
601.619978	2589.431523
601.970510	2590.943869
602.320988	2587.631831
602.671412	2588.433374
603.021783	2587.198292
603.372100	2589.406317
603.722363	2588.370360
604.072572	2587.803230
604.422728	2590.767429
604.772830	2584.150914
605.122878	2585.038157
605.472872	2586.457242
605.822813	2584.140832
606.172701	2585.784248
606.522534	2588.214084
606.872314	2590.104517
607.222041	2589.003025
607.571714	2590.273396
607.921333	2587.682243
608.270899	2587.440267
608.620411	2586.716862
608.969870	2587.835998
609.319276	2588.844228
609.668627	2586.416913
610.017926	2586.454722
610.367171	2587.911615
610.716362	2585.154104
611.065500	2589.257603
611.414585	2585.338106
611.763616	2588.224167
612.112594	2588.279619
612.461518	2588.985381
612.810389	2589.139136
613.159207	2587.357088
613.507971	2586.076635
613.856682	2588.874475
614.205340	2588.690473
614.553945	2589.328179
614.902496	2589.345823
615.250994	2589.890268
615.599439	2589.754157
615.947830	2588.400607
616.296169	2587.954465
616.644454	2585.489341
616.992686	2587.959506
617.340864	2589.169383
617.688990	2587.664598
618.037063	2588.279619
618.385082	2586.784917
618.733048	2589.650813
619.080961	2589.597881
619.428821	2588.637541
619.776628	2589.161821
620.124382	2587.893971
620.472083	2587.727613
620.819731	2587.967068
621.167326	2588.264496
621.514868	2585.030596
621.862357	2590.006214
622.209793	2586.822726
622.557176	2589.925556
622.904506	2584.660071
623.251783	2586.447160
623.599007	2584.163517
623.946179	2586.439598
624.293297	2583.238465
624.640363	2590.026379
624.987376	2586.721903
625.334336	2588.115782
625.681243	2588.246852
626.028097	2588.471183
626.374899	2586.575709
626.721647	2588.670309
627.068343	2588.655185
627.414987	2586.621080
627.761577	2589.252562
628.108115	2586.517736
628.454600	2590.890937
628.801032	2588.130905
629.147412	2589.292891
629.493739	2588.186358
629.840014	2587.165524
630.186236	2589.882706
630.532405	2589.829774
630.878521	2587.536049
631.224585	2589.539908
631.570597	2589.615525
631.916556	2588.100658
632.262462	2587.835998
632.608316	2586.999166
632.954117	2588.569486
633.299866	2589.434043
633.645562	2586.943713
633.991206	2588.952613
634.336797	2586.217787
634.682336	2590.076791
635.027823	2588.284660
635.373257	2588.241811
635.718639	2588.864393
636.063968	2589.212233
636.409245	2587.793148
636.754470	2588.776173
637.099642	2588.635021
637.444762	2589.527305
637.789829	2587.765422
638.134845	2586.747108
638.479808	2587.974629
638.824719	2586.429516
639.169577	2586.421954
639.514383	2588.415730
639.859137	2588.103179
640.203839	2583.989597
640.548489	2589.383632
640.893086	2588.687953
641.237632	2586.086717
641.582125	2585.154104
641.926566	2584.987746
642.270955	2589.169383
642.615292	2587.425144
642.959576	2586.850452
643.303809	2588.675350
643.647990	2589.786924
643.992118	2589.484455
644.336195	2588.014959
