Dividing Wavelength (nm)	Counts (n)	Blue Motor Position (mm): 48.000000	Red Motor Position (mm): 0.000000	
326.493990	2151.612353
326.888308	2151.612353
327.282561	2151.612353
327.676750	2127.445061
328.070874	2129.395988
328.464933	2134.626185
328.858929	2142.732360
329.252859	2155.131078
329.646726	2169.029539
330.040528	2182.562517
330.434265	2203.770651
330.827938	2220.900492
331.221547	2240.175343
331.615091	2260.589496
332.008571	2279.909718
332.401986	2300.434776
332.795338	2318.600574
333.188625	2340.821980
333.581847	2362.614888
333.975006	2377.062835
334.368100	2400.748696
334.761129	2418.279309
335.154095	2432.301278
335.546996	2455.820781
335.939833	2489.780514
336.332606	2499.424242
336.725315	2515.775224
337.117960	2522.122037
337.510540	2531.004550
337.903056	2539.506456
338.295508	2543.829245
338.687896	2552.920966
339.080220	2559.103941
339.472480	2567.925961
339.864676	2573.395613
340.256807	2572.838565
340.648875	2575.744790
341.040879	2575.240675
341.432818	2579.591191
341.824694	2576.942064
342.216506	2578.139338
342.608253	2575.984245
342.999937	2576.884091
343.391557	2577.854513
343.783113	2574.237485
344.174605	2572.190777
344.566033	2574.479461
344.957397	2572.132803
345.348697	2566.582493
345.739934	2570.587690
346.131106	2567.714232
346.522215	2564.734910
346.913260	2562.675599
347.304241	2561.972358
347.695159	2558.221739
348.086012	2560.250804
348.476802	2555.983467
348.867528	2556.215360
349.258191	2550.511295
349.648789	2554.186296
350.039324	2551.224618
350.429796	2553.397355
350.820203	2545.465100
351.210548	2548.265461
351.600828	2545.417209
351.991045	2546.985008
352.381198	2548.336037
352.771288	2548.580533
353.161314	2546.924514
353.551276	2546.354863
353.941175	2546.052394
354.331010	2545.167672
354.720782	2545.795295
355.110490	2548.784699
355.500135	2552.011038
355.889717	2549.371994
356.279235	2547.491643
356.668689	2551.453990
357.058080	2548.817467
357.447408	2547.310162
357.836672	2547.269833
358.225873	2545.553320
358.615010	2547.169010
359.004084	2552.328631
359.393095	2552.835267
359.782043	2549.714792
360.170927	2553.309135
360.559748	2555.171841
360.948505	2555.723848
361.337199	2555.444064
361.725830	2552.305945
362.114398	2555.108827
362.502903	2557.934394
362.891344	2555.171841
363.279722	2555.703683
363.668037	2558.733417
364.056289	2558.423386
364.444478	2557.016904
364.832603	2558.428427
365.220665	2558.635114
365.608665	2561.601833
365.996601	2560.069322
366.384474	2560.996895
366.772284	2562.158881
367.160031	2558.677964
367.547715	2560.727193
367.935336	2561.004456
368.322893	2563.562842
368.710388	2560.772563
369.097820	2565.702812
369.485189	2562.453788
369.872495	2565.183573
370.259738	2562.279868
370.646918	2560.845660
371.034035	2564.702143
371.421090	2565.299519
371.808081	2567.061403
372.195010	2566.968141
372.581875	2563.215002
372.968678	2566.832030
373.355418	2567.184911
373.742096	2564.797925
374.128710	2568.107442
374.515262	2567.169787
374.901751	2567.119376
375.288177	2570.365879
375.674540	2571.910993
376.060841	2570.869994
376.447079	2571.573235
376.833254	2573.277145
377.219367	2570.262535
377.605417	2573.075499
377.991404	2571.053997
378.377329	2576.095150
378.763191	2575.883422
379.148991	2579.003896
379.534727	2588.236769
379.920402	2586.520257
380.306013	2590.427151
380.691563	2593.827409
381.077049	2596.080805
381.462474	2600.118769
381.847835	2600.806887
382.233134	2607.183946
382.618371	2609.759976
383.003545	2616.923455
383.388657	2618.841614
383.773706	2625.871503
384.158693	2629.483490
384.543618	2637.703092
384.928480	2642.681231
385.313280	2647.966881
385.698017	2654.089362
386.082692	2662.087153
386.467305	2668.701147
386.851856	2678.203722
387.236344	2686.975329
387.620770	2691.759384
388.005133	2700.830941
388.389435	2712.513815
388.773674	2717.953220
389.157851	2726.129971
389.541965	2734.722618
389.926018	2742.632188
390.310008	2753.011924
390.693936	2764.122627
391.077802	2774.945984
391.461606	2782.449742
391.845348	2792.368212
392.229027	2803.103349
392.612645	2817.614311
392.996200	2828.477997
393.379694	2845.007941
393.763125	2860.832122
394.146494	2870.274204
394.529801	2883.144269
394.913047	2900.387536
395.296230	2904.932136
395.679351	2910.106881
396.062410	2929.041455
396.445408	2931.342741
396.828343	2940.963783
397.211217	2951.635906
397.594028	2947.081224
397.976778	2960.823409
398.359466	2976.118270
398.742092	2976.456027
399.124656	2992.484376
399.507158	3006.266890
399.889598	3012.792664
400.271977	3027.429654
400.654294	3035.281251
401.036549	3047.778272
401.418742	3056.996022
401.800874	3076.553178
402.182944	3085.236565
402.564952	3117.333592
402.946898	3106.429576
403.328783	3116.690845
403.710606	3131.988226
404.092367	3155.411948
404.474067	3182.021678
404.855705	3172.408198
405.237282	3174.560770
405.618797	3201.525902
406.000250	3227.921384
406.381642	3260.031013
406.762972	3260.343565
407.144240	3248.312851
407.525447	3272.195317
407.906593	3276.949126
408.287677	3296.672640
408.668700	3315.103098
409.049661	3311.334836
409.430560	3328.376457
409.811399	3331.103721
410.192176	3351.671628
410.572891	3361.116230
410.953545	3398.140985
411.334138	3367.452961
411.714669	3423.697114
412.095139	3367.773074
412.475547	3417.088161
412.855894	3407.192376
413.236180	3436.514248
413.616405	3416.241248
413.996568	3442.871143
414.376670	3445.800053
414.756711	3442.142696
415.136691	3464.832929
415.516609	3490.459635
415.896466	3495.097497
416.276262	3522.249151
416.655997	3551.286197
417.035670	3559.893967
417.415283	3627.321921
417.794834	3648.393944
418.174324	3630.155049
418.553753	3630.389463
418.933121	3675.941329
419.312428	3664.631500
419.691674	3661.165707
420.070859	3701.981409
420.449983	3680.531300
420.829045	3732.762695
421.208047	3712.330898
421.586988	3758.013834
421.965867	3791.300573
422.344686	3799.862973
422.723444	3837.210361
423.102141	3742.330805
423.480777	3844.850230
423.859352	3810.013336
424.237866	3912.431938
424.616319	3897.605905
424.994712	3954.931386
425.373044	3944.241619
425.751314	4007.465250
426.129524	3946.179943
426.507673	4042.483625
426.885762	4020.151314
427.263789	4044.500087
427.641756	4047.552505
428.019662	4074.154674
428.397508	4081.618102
428.775292	4118.214359
429.153016	4122.027992
429.530679	4137.088439
429.908282	4143.858708
430.285824	4119.525059
430.663305	4198.174621
431.040726	4156.033095
431.418086	4146.258298
431.795385	4220.010378
432.172624	4251.895677
432.549802	4222.402406
432.926920	4235.915219
433.303977	4232.441864
433.680974	4272.927370
434.057910	4296.608191
434.434786	4298.430568
434.811601	4296.998880
435.188355	4406.021394
435.565050	4373.682392
435.941683	4372.699367
436.318257	4462.134477
436.694770	4463.518274
437.071222	4522.666132
437.447614	4454.350936
437.823946	4457.879743
438.200218	4475.934636
438.576429	4455.192808
438.952580	4485.288497
439.328670	4490.216225
439.704700	4534.996794
440.080670	4495.582533
440.456580	4557.031678
440.832429	4593.209518
441.208218	4495.806864
441.583947	4547.176222
441.959616	4561.213315
442.335224	4589.484106
442.710773	4614.752889
443.086261	4663.989839
443.461689	4617.525524
443.837057	4629.616731
444.212365	4701.034758
444.587612	4708.024318
444.962800	4675.279503
445.337927	4714.025811
445.712995	4601.403914
446.088002	4794.084376
446.462949	4818.168488
446.837837	4833.851518
447.212664	4823.517152
447.587431	5052.002409
447.962139	5351.832596
448.336786	5688.090160
448.711374	5667.431512
449.085901	5312.304909
449.460369	5253.152009
449.834776	5188.360580
450.209124	5424.130304
450.583412	5436.897026
450.957640	5559.334050
451.331808	5421.486219
451.705917	5271.521974
452.079965	5261.853041
452.453954	5302.913239
452.827883	5265.928814
453.201752	5271.075832
453.575562	5301.695800
453.949311	5437.171769
454.323001	5441.648313
454.696632	5434.789824
455.070202	5586.999902
455.443713	5619.296054
455.817164	5714.016815
456.190556	5784.978617
456.563888	5758.948619
456.937160	5833.860165
457.310373	5677.544067
457.683526	5737.889199
458.056619	5728.227827
458.429653	5709.205033
458.802628	5756.937198
459.175542	5789.719822
459.548398	5930.254588
459.921194	6118.816427
460.293930	6175.486558
460.666607	6430.173212
461.039224	6642.478886
461.411782	6774.839421
461.784280	6689.129724
462.156719	6685.250556
462.529099	6649.105483
462.901419	6512.401993
463.273680	6377.437702
463.645882	6363.002358
464.018024	6371.511826
464.390106	6434.874088
464.762130	6693.777668
465.134094	7090.735765
465.505999	7728.439206
465.877845	8437.502701
466.249631	8787.058829
466.621358	8707.622847
466.993026	8507.604986
467.364634	8298.434910
467.736184	8016.846138
468.107674	7859.017694
468.479105	7776.425950
468.850477	7705.421298
469.221790	7532.121552
469.593043	7307.757438
469.964238	7204.421346
470.335373	7185.779159
470.706449	7340.814805
471.077467	7537.351749
471.448425	8203.303296
471.819324	8775.209597
472.190164	8817.104106
472.560945	8322.695463
472.931667	7852.393618
473.302330	7657.898341
473.672934	7538.183540
474.043479	7622.451467
474.413965	7517.020776
474.784393	7474.165927
475.154761	7629.882128
475.525070	7638.406719
475.895321	7594.137827
476.265513	7691.074174
476.635645	7852.834719
477.005719	7842.616300
477.375734	7931.849764
477.745691	8046.006693
478.115588	8247.186540
478.485427	8482.648754
478.855207	8959.514181
479.224928	9392.423268
479.594591	9775.117421
479.964194	9781.149162
480.333739	9864.706287
480.703226	9871.776505
481.072653	9971.803079
481.442022	10087.043856
481.811333	10237.315611
482.180584	10076.182690
482.549777	10021.271922
482.918912	9958.461666
483.287988	9942.440879
483.657005	9842.762144
484.025964	9769.662892
484.394864	9825.428136
484.763706	9785.154358
485.132489	9696.805617
485.501213	9691.693887
485.869879	9748.789995
486.238487	9686.262043
486.607036	9759.953630
486.975527	9701.428355
487.343959	9757.680070
487.712333	9808.041197
488.080648	9843.193163
488.448905	9954.945461
488.817104	9954.156520
489.185244	10125.356626
489.553326	10346.164205
489.921350	10812.337345
490.289315	11446.940477
490.657222	11738.861093
491.025070	11903.416958
491.392861	11824.006182
491.760593	11669.860300
492.128267	11405.320711
492.495883	11173.926708
492.863440	10936.609349
493.230939	10714.233971
493.598380	10523.663232
493.965763	10503.856539
494.333088	10371.334686
494.700354	10301.534870
495.067563	10277.879256
495.434713	10277.526375
495.801805	10317.583383
496.168839	10286.834866
496.535815	10245.817517
496.902733	10295.944231
497.269593	10254.468137
497.636395	10263.819478
498.003139	10378.530933
498.369825	10300.221650
498.736453	10393.530887
499.103023	10335.507206
499.469535	10349.884577
499.835989	10392.971319
500.202385	10363.997287
500.568723	10382.737776
500.935003	10440.466550
501.301226	10417.388147
501.667390	10583.100957
502.033497	10684.216420
502.399546	10607.600964
502.765537	10518.664928
503.131470	10625.106371
503.497345	10712.212468
503.863163	10481.831737
504.228923	10612.805956
504.594625	10731.804913
504.960269	10644.610595
505.325856	10790.375559
505.691385	10674.350882
506.056856	10738.532332
506.422270	10841.399597
506.787625	10780.187387
507.152924	10832.680922
507.518164	10896.194419
507.883347	10750.704198
508.248472	10830.180509
508.613540	10933.083062
508.978550	11012.544250
509.343503	10989.302010
509.708398	11039.035513
510.073236	11176.696822
510.438016	11189.970180
510.802738	11103.791655
511.167403	11228.189688
511.532010	11295.020264
511.896561	11389.511652
512.261053	11581.637587
512.625488	11499.393683
512.989866	11492.489822
513.354186	11463.593928
513.718449	11475.753192
514.082655	11614.878955
514.446803	11574.053171
514.810894	11685.200531
515.174927	11674.914057
515.538904	11660.554330
515.902822	11821.246150
516.266684	11694.020030
516.630488	11793.943261
516.994235	11775.754778
517.357925	11894.373127
517.721558	11957.281686
518.085133	12021.586645
518.448651	12056.574773
518.812112	12012.094152
519.175516	12027.938499
519.538863	12114.515275
519.902152	12116.002415
520.265385	12223.741955
520.628560	12247.231212
520.991678	12196.756659
521.354739	12255.196235
521.717743	12320.486739
522.080690	12299.553347
522.443580	12436.140890
522.806413	12450.326697
523.169189	12436.924790
523.531908	12493.163902
523.894569	12456.701236
524.257174	12473.019451
524.619722	12584.968355
524.982213	12562.535220
525.344647	12549.481152
525.707025	12563.719891
526.069345	12668.142352
526.431608	12648.817089
526.793815	12730.113256
527.155964	12615.890792
527.518057	12648.534784
527.880093	12603.953340
528.242072	12722.727966
528.603995	12648.766677
528.965860	12660.530210
529.327669	12686.570290
529.689421	12638.381900
530.051117	12664.626147
530.412755	12696.622351
530.774337	12698.661497
531.135862	12655.161381
531.497331	12714.084908
531.858743	12672.389524
532.220098	12761.388575
532.581396	12684.974765
532.942638	12608.011469
533.303824	12669.858865
533.664953	12654.006957
534.026025	12608.641613
534.387040	12711.360164
534.747999	12680.054598
535.108902	12731.166857
535.469748	12604.281015
535.830537	12620.821041
536.191270	12667.517249
536.551947	12599.098709
536.912567	12671.066221
537.273131	12695.654449
537.633638	12575.410327
537.994089	12625.103501
538.354483	12553.088098
538.714821	12683.601050
539.075103	12761.587700
539.435328	12692.042462
539.795497	12668.039008
540.155609	12660.454592
540.515665	12767.919389
540.875665	12621.625105
541.235609	12715.370402
541.595496	12686.048530
541.955328	12859.862474
542.315102	12705.091489
542.674821	12649.827840
543.034483	12651.945125
543.394090	12657.429900
543.753640	12624.707770
544.113134	12875.842932
544.472571	12631.498205
544.831953	12913.031523
545.191278	12729.651991
545.550548	12659.789160
545.909761	12783.869600
546.268918	12830.666631
546.628019	12890.484963
546.987064	12787.370682
547.346053	12628.725570
547.704986	12827.684789
548.063863	12707.627189
548.422684	12757.292637
548.781449	12717.217985
549.140158	12817.594919
549.498811	12754.656114
549.857408	12636.451138
550.215949	12831.924399
550.574434	12802.569760
550.932864	12750.585382
551.291237	12951.059467
551.649555	12833.955984
552.007817	12895.735325
552.366022	12821.247235
552.724173	12856.943646
553.082267	12950.716669
553.440305	13033.883105
553.798288	12858.821476
554.156215	12932.797888
554.514086	12978.085093
554.871902	12926.877053
555.229661	12942.534876
555.587365	12896.282290
555.945014	12913.800299
556.302606	12883.346689
556.660143	12948.324642
557.017625	12989.011794
557.375050	12947.714662
557.732421	13040.408878
558.089735	13048.076473
558.446994	13020.929860
558.804197	13131.063948
559.161345	13127.761992
559.518437	12936.160337
559.875474	13042.503478
560.232455	13062.484091
560.589381	13106.616872
560.946251	13045.777707
561.303065	13210.888098
561.659825	13162.929081
562.016528	13084.256834
562.373177	13026.969162
562.729770	13150.726968
563.086307	13039.551882
563.442789	13144.279333
563.799216	13179.799303
564.155587	13129.609575
564.511904	13155.629491
564.868164	13151.384839
565.224370	13221.098956
565.580520	13169.311182
565.936615	13237.679311
566.292654	13169.084330
566.648638	13242.113005
567.004567	13243.781627
567.360441	13242.307090
567.716260	13210.991442
568.072023	13287.659830
568.427732	13274.452007
568.783385	13172.376204
569.138982	13291.463381
569.494525	13284.219243
569.850013	13233.774937
570.205445	13221.144326
570.560823	13244.999066
570.916145	13191.293133
571.271412	13200.455431
571.626625	13158.984378
571.981782	13153.245025
572.336884	13106.936986
572.691931	13191.905634
573.046923	13090.059203
573.401860	13066.348135
573.756743	13058.947722
574.111570	13082.545363
574.466342	13056.878328
574.821059	13111.342954
575.175722	12981.233294
575.530330	13000.291376
575.884882	12933.417950
576.239380	12936.263681
576.593823	12916.696442
576.948211	12918.100404
577.302544	12793.110035
577.656823	12810.996049
578.011047	12870.272457
578.365216	12812.062253
578.719330	12748.079928
579.073389	12719.889796
579.427394	12729.904048
579.781344	12723.763923
580.135239	12655.468891
580.489080	12657.533244
580.842866	12541.947148
581.196597	12646.135195
581.550273	12630.810087
581.903895	12595.864809
582.257463	12705.247765
582.610975	12553.917368
582.964434	12613.682767
583.317837	12536.653936
583.671186	12497.118687
584.024481	12547.131974
584.377721	12440.103237
584.730906	12509.081345
585.084037	12529.187987
585.437113	12440.798916
585.790135	12459.743573
586.143103	12389.772357
586.496016	12394.208572
586.848874	12401.208215
587.201679	12400.000858
587.554428	12276.260696
587.907124	12323.080412
588.259765	12262.601690
588.612352	12331.184067
588.964884	12196.796988
589.317362	12244.740882
589.669786	12244.113258
590.022155	12195.201463
590.374470	12296.669807
590.726731	12186.825586
591.078937	12066.957029
591.431090	12087.356058
591.783188	12016.061540
592.135232	11943.005139
592.487222	11999.518994
592.839157	12011.413596
593.191038	11944.772063
593.542866	11892.192828
593.894639	11747.458781
594.246358	11800.660598
594.598022	11813.739872
594.949633	11717.158926
595.301190	11711.966537
595.652692	11664.413333
596.004141	11757.949422
596.355535	11535.042202
596.706876	11511.870538
597.058162	11475.859056
597.409395	11567.305587
597.760573	11601.900505
598.111698	11501.669763
598.462768	11489.586118
598.813785	11510.922801
599.164748	11386.539892
599.515657	11467.435288
599.866511	11330.870430
600.217312	11467.999897
600.568060	11228.958464
600.918753	11391.447455
601.269392	11396.062632
601.619978	11291.962805
601.970510	11331.273722
602.320988	11371.459280
602.671412	11447.953749
603.021783	11370.539270
603.372100	11297.177878
603.722363	11313.339817
604.072572	11306.400669
604.422728	11319.585807
604.772830	11270.409351
605.122878	11277.136771
605.472872	11253.745817
605.822813	11303.290277
606.172701	11267.447673
606.522534	11311.840074
606.872314	11362.271777
607.222041	11290.974738
607.571714	11367.683456
607.921333	11240.890875
608.270899	11286.034408
608.620411	11346.198058
608.969870	11298.707868
609.319276	11286.276383
609.668627	11301.886316
610.017926	11378.022862
610.367171	11408.920094
610.716362	11390.527445
611.065500	11369.087417
611.414585	11380.142668
611.763616	11451.485077
612.112594	11408.453788
612.461518	11440.525608
612.810389	11478.470373
613.159207	11418.750344
613.507971	11418.316805
613.856682	11520.009481
614.205340	11478.682102
614.553945	11624.099226
614.902496	11495.953095
615.250994	11556.026005
615.599439	11551.304964
615.947830	11588.216293
616.296169	11547.342617
616.644454	11569.322048
616.992686	11576.505692
617.340864	11674.661999
617.688990	11560.477344
618.037063	11698.846934
618.385082	11664.567088
618.733048	11708.641896
619.080961	11684.918226
619.428821	11669.136894
619.776628	11684.240191
620.124382	11628.510235
620.472083	11648.377423
620.819731	11670.621514
621.167326	11594.535379
621.514868	11579.036352
621.862357	11468.778755
622.209793	11468.204064
622.557176	11382.360775
622.904506	11326.134266
623.251783	11244.092008
623.599007	11186.038080
623.946179	11132.972374
624.293297	11113.843716
624.640363	10979.713735
624.987376	10962.987187
625.334336	10900.691128
625.681243	10816.392954
626.028097	10785.415063
626.374899	10749.948025
626.721647	10717.886287
627.068343	10678.260297
627.414987	10618.633529
627.761577	10551.213138
628.108115	10602.579975
628.454600	10464.727102
628.801032	10484.120421
629.147412	10471.147012
629.493739	10448.915523
629.840014	10364.899653
630.186236	10415.008723
630.532405	10316.393671
630.878521	10360.844045
631.224585	10299.646958
631.570597	10222.537469
631.916556	10232.917205
632.262462	10210.862157
632.608316	10195.539569
632.954117	10173.575262
633.299866	10155.124639
633.645562	10126.606832
633.991206	10034.217605
634.336797	9929.608622
634.682336	9925.709289
635.027823	9866.231236
635.373257	9830.585237
635.718639	9763.159804
636.063968	9725.903157
636.409245	9608.928223
636.754470	9598.699722
637.099642	9547.368172
637.444762	9444.548799
637.789829	9453.186816
638.134845	9376.470537
638.479808	9351.191671
