Dividing Wavelength (nm)	Counts (n)	Blue Motor Position (mm): 46.500000	Red Motor Position (mm): 0.000000	
326.493990	2154.087559
326.888308	2154.087559
327.282561	2154.087559
327.676750	2127.281223
328.070874	2126.656120
328.464933	2133.461678
328.858929	2143.987607
329.252859	2153.969092
329.646726	2169.377379
330.040528	2185.582168
330.434265	2204.330219
330.827938	2220.739175
331.221547	2241.044942
331.615091	2263.576379
332.008571	2280.862496
332.401986	2303.192287
332.795338	2323.366985
333.188625	2342.243585
333.581847	2360.207737
333.975006	2379.396889
334.368100	2400.773902
334.761129	2416.953485
335.154095	2434.131217
335.546996	2457.819599
335.939833	2488.167345
336.332606	2503.116887
336.725315	2515.671880
337.117960	2520.365195
337.510540	2532.383305
337.903056	2540.474357
338.295508	2547.055584
338.687896	2549.296377
339.080220	2561.889179
339.472480	2566.196845
339.864676	2568.921588
340.256807	2575.331416
340.648875	2576.727815
341.040879	2577.889801
341.432818	2580.085224
341.824694	2581.272415
342.216506	2578.494740
342.608253	2580.150759
342.999937	2577.690676
343.391557	2580.957343
343.783113	2575.759914
344.174605	2577.229410
344.566033	2573.808987
344.957397	2573.708164
345.348697	2571.008626
345.739934	2570.575087
346.131106	2566.685837
346.522215	2564.611402
346.913260	2564.256001
347.304241	2561.621998
347.695159	2559.897923
348.086012	2559.242573
348.476802	2557.200906
348.867528	2557.717624
349.258191	2554.776111
349.648789	2553.596481
350.039324	2554.680329
350.429796	2551.275029
350.820203	2548.787220
351.210548	2552.507592
351.600828	2546.551468
351.991045	2548.038609
352.381198	2548.303269
352.771288	2550.044988
353.161314	2547.017775
353.551276	2547.274874
353.941175	2549.603887
354.331010	2547.998279
354.720782	2548.126829
355.110490	2548.756973
355.500135	2548.653629
355.889717	2548.421736
356.279235	2547.300080
356.668689	2552.167314
357.058080	2550.506253
357.447408	2547.211859
357.836672	2546.180943
358.225873	2548.106664
358.615010	2547.458876
359.004084	2551.174206
359.393095	2552.850390
359.782043	2551.050698
360.170927	2554.513971
360.559748	2553.301573
360.948505	2556.515309
361.337199	2555.698642
361.725830	2556.099414
362.114398	2552.447098
362.502903	2554.314845
362.891344	2558.040258
363.279722	2554.942469
363.668037	2556.590926
364.056289	2559.161915
364.444478	2556.537994
364.832603	2557.644527
365.220665	2556.963972
365.608665	2560.701987
365.996601	2560.752399
366.384474	2560.989333
366.772284	2563.487225
367.160031	2560.114693
367.547715	2560.414641
367.935336	2560.986812
368.322893	2562.410938
368.710388	2559.875238
369.097820	2566.055692
369.485189	2559.081256
369.872495	2563.189797
370.259738	2563.290620
370.646918	2563.451937
371.034035	2562.874724
371.421090	2563.456978
371.808081	2564.581155
372.195010	2566.867318
372.581875	2565.944787
372.968678	2565.354972
373.355418	2564.172822
373.742096	2566.254818
374.128710	2568.064592
374.515262	2567.447051
374.901751	2567.774726
375.288177	2566.711042
375.674540	2569.816393
376.060841	2571.386713
376.447079	2569.153482
376.833254	2569.755899
377.219367	2569.259346
377.605417	2569.397977
377.991404	2568.762792
378.377329	2568.762792
378.763191	2570.149109
379.148991	2577.496591
379.534727	2575.724626
379.920402	2576.674883
380.306013	2581.035481
380.691563	2583.283836
381.077049	2583.583784
381.462474	2587.934300
381.847835	2590.152408
382.233134	2592.486462
382.618371	2594.311360
383.003545	2600.199427
383.388657	2602.084819
383.773706	2605.255705
384.158693	2611.045470
384.543618	2613.654267
384.928480	2618.191306
385.313280	2623.345885
385.698017	2628.049282
386.082692	2635.482463
386.467305	2639.775006
386.851856	2645.700882
387.236344	2654.767397
387.620770	2659.075063
388.005133	2665.671413
388.389435	2677.550892
388.773674	2682.987777
389.157851	2687.663447
389.541965	2699.096784
389.926018	2704.848740
390.310008	2715.636809
390.693936	2723.740464
391.077802	2733.858060
391.461606	2744.293248
391.845348	2751.875144
392.229027	2762.038110
392.612645	2776.352466
392.996200	2786.447377
393.379694	2802.417752
393.763125	2818.977943
394.146494	2824.913901
394.529801	2843.225893
394.913047	2858.087214
395.296230	2865.112062
395.679351	2872.431818
396.062410	2893.312277
396.445408	2891.699108
396.828343	2909.338105
397.211217	2917.913108
397.594028	2918.850762
397.976778	2935.610078
398.359466	2953.634724
398.742092	2951.837552
399.124656	2968.112918
399.507158	2985.197388
399.889598	2993.968996
400.271977	3008.847961
400.654294	3021.052595
401.036549	3031.812938
401.418742	3040.622354
401.800874	3063.957855
402.182944	3073.664597
402.564952	3104.314812
402.946898	3096.286775
403.328783	3108.405708
403.710606	3122.667133
404.092367	3149.392810
404.474067	3178.001358
404.855705	3166.494924
405.237282	3165.179183
405.618797	3199.544729
406.000250	3224.301835
406.381642	3252.433994
406.762972	3259.635283
407.144240	3249.943664
407.525447	3273.364865
407.906593	3271.638270
408.287677	3292.818678
408.668700	3314.223417
409.049661	3313.920948
409.430560	3328.895695
409.811399	3332.747137
410.192176	3352.241279
410.572891	3359.762680
410.953545	3401.984864
411.334138	3368.115872
411.714669	3419.210487
412.095139	3364.125799
412.475547	3418.161927
412.855894	3414.068510
413.236180	3440.612706
413.616405	3419.896084
413.996568	3445.671504
414.376670	3446.657049
414.756711	3439.672531
415.136691	3470.335349
415.516609	3491.107423
415.896466	3497.008094
416.276262	3523.368287
416.655997	3554.094120
417.035670	3560.813978
417.415283	3629.401397
417.794834	3650.115498
418.174324	3633.651089
418.553753	3632.254690
418.933121	3676.800846
419.312428	3665.329700
419.691674	3663.703928
420.070859	3697.870348
420.449983	3682.386444
420.829045	3730.219433
421.208047	3713.903738
421.586988	3759.231273
421.965867	3791.416520
422.344686	3800.838436
422.723444	3839.957790
423.102141	3739.921133
423.480777	3845.132534
423.859352	3814.058862
424.237866	3910.531423
424.616319	3897.961306
424.994712	3957.832570
425.373044	3947.052062
425.751314	4011.974562
426.129524	3946.479891
426.507673	4048.255746
426.885762	4019.236344
427.263789	4046.128379
427.641756	4049.634502
428.019662	4079.470571
428.397508	4082.611210
428.775292	4118.176550
429.153016	4125.077890
429.530679	4137.020383
429.908282	4145.590345
430.285824	4125.834063
430.663305	4197.849466
431.040726	4153.762055
431.418086	4147.321981
431.795385	4216.554668
432.172624	4254.217128
432.549802	4225.825349
432.926920	4243.519799
433.303977	4234.559148
433.680974	4275.016929
434.057910	4297.308911
434.434786	4304.863080
434.811601	4299.159014
435.188355	4407.347217
435.565050	4376.850757
435.941683	4370.486300
436.318257	4464.760918
436.694770	4467.893995
437.071222	4525.451369
437.447614	4459.576092
437.823946	4457.499136
438.200218	4474.467660
438.576429	4460.105413
438.952580	4486.916789
439.328670	4487.796471
439.704700	4534.575858
440.080670	4497.402389
440.456580	4560.363880
440.832429	4593.955609
441.208218	4496.174868
441.583947	4552.310637
441.959616	4566.080549
442.335224	4591.266153
442.710773	4610.170480
443.086261	4662.296011
443.461689	4619.541985
443.837057	4629.886433
444.212365	4706.945511
444.587612	4712.213517
444.962800	4674.742620
445.337927	4720.349939
445.712995	4608.297692
446.088002	4796.562103
446.462949	4817.409794
446.837837	4840.112631
447.212664	4824.043953
447.587431	5052.380496
447.962139	5356.561198
448.336786	5688.987486
448.711374	5676.591288
449.085901	5317.903110
449.460369	5254.976907
449.834776	5192.431311
450.209124	5428.649698
450.583412	5437.232263
450.957640	5563.263629
451.331808	5415.429272
451.705917	5273.218322
452.079965	5261.754738
452.453954	5304.115554
452.827883	5266.271612
453.201752	5272.331079
453.575562	5304.710410
453.949311	5438.384166
454.323001	5446.447492
454.696632	5434.189926
455.070202	5591.932671
455.443713	5620.904182
455.817164	5713.676537
456.190556	5790.226458
456.563888	5759.737559
456.937160	5837.504919
457.310373	5677.818809
457.683526	5735.983643
458.056619	5732.772428
458.429653	5712.829623
458.802628	5761.945585
459.175542	5791.106139
459.548398	5928.122180
459.921194	6115.771570
460.293930	6179.509399
460.666607	6433.626403
461.039224	6649.654968
461.411782	6774.378156
461.784280	6691.017636
462.156719	6692.310692
462.529099	6653.012377
462.901419	6508.011148
463.273680	6379.615480
463.645882	6371.330344
464.018024	6373.077104
464.390106	6442.912208
464.762130	6698.997782
465.134094	7095.754234
465.505999	7732.585555
465.877845	8439.430942
466.249631	8792.823388
466.621358	8714.708189
466.993026	8510.919545
467.364634	8294.263355
467.736184	8015.727002
468.107674	7859.599947
468.479105	7769.690968
468.850477	7710.739715
469.221790	7534.150617
469.593043	7313.814385
469.964238	7215.358130
470.335373	7189.837288
470.706449	7351.756629
471.077467	7537.324023
471.448425	8202.080816
471.819324	8783.260319
472.190164	8812.186460
472.560945	8327.930701
472.931667	7855.062909
473.302330	7667.733632
473.672934	7542.231586
474.043479	7619.956096
474.413965	7520.292485
474.784393	7478.481155
475.154761	7633.647870
475.525070	7644.088100
475.895321	7597.008764
476.265513	7694.950821
476.635645	7857.500307
477.005719	7847.002104
477.375734	7937.773120
477.745691	8047.002321
478.115588	8252.124350
478.485427	8492.436154
478.855207	8963.884862
479.224928	9400.030369
479.594591	9781.728894
479.964194	9786.449935
480.333739	9871.284992
480.703226	9867.284837
481.072653	9973.963214
481.442022	10086.537220
481.811333	10248.242312
482.180584	10080.964225
482.549777	10018.741263
482.918912	9959.958888
483.287988	9952.003948
483.657005	9855.319658
484.025964	9770.159446
484.394864	9827.363939
484.763706	9789.709041
485.132489	9702.827275
485.501213	9689.495943
485.869879	9758.393393
486.238487	9686.940078
486.607036	9764.750288
486.975527	9713.640550
487.343959	9765.113251
487.712333	9806.755703
488.080648	9842.318522
488.448905	9952.994534
488.817104	9963.243200
489.185244	10128.391400
489.553326	10346.166726
489.921350	10821.666001
490.289315	11454.119080
490.657222	11749.601271
491.025070	11922.374217
491.392861	11829.523724
491.760593	11674.573779
492.128267	11413.187431
492.495883	11176.033910
492.863440	10941.930287
493.230939	10716.810001
493.598380	10535.570438
493.965763	10509.953814
494.333088	10381.326253
494.700354	10305.499738
495.067563	10275.053689
495.434713	10285.350246
495.801805	10324.023457
496.168839	10289.209249
496.535815	10260.696483
496.902733	10302.470004
497.269593	10257.208004
497.636395	10270.894737
498.003139	10381.908507
498.369825	10313.842847
498.736453	10398.965251
499.103023	10346.764102
499.469535	10345.042548
499.835989	10400.384335
500.202385	10371.705211
500.568723	10388.094002
500.935003	10453.087078
501.301226	10422.199929
501.667390	10593.596639
502.033497	10692.312513
502.399546	10613.030287
502.765537	10521.142655
503.131470	10627.263985
503.497345	10715.015350
503.863163	10490.018571
504.228923	10617.688313
504.594625	10742.519885
504.960269	10645.951542
505.325856	10800.198247
505.691385	10681.791625
506.056856	10741.655327
506.422270	10846.382778
506.787625	10785.387337
507.152924	10840.187200
507.518164	10899.796323
507.883347	10761.086455
508.248472	10834.435243
508.613540	10938.688825
508.978550	11014.495176
509.343503	10998.812147
509.708398	11049.740403
510.073236	11175.953252
510.438016	11195.316324
510.802738	11112.575866
511.167403	11239.159239
511.532010	11296.058742
511.896561	11396.702858
512.261053	11588.294431
512.625488	11506.988181
512.989866	11499.108857
513.354186	11472.002573
513.718449	11479.123203
514.082655	11623.950512
514.446803	11576.679612
514.810894	11689.518279
515.174927	11682.140551
515.538904	11672.587564
515.902822	11829.503560
516.266684	11701.153262
516.630488	11796.985597
516.994235	11785.199379
517.357925	11913.471539
517.721558	11961.150772
518.085133	12026.736183
518.448651	12067.519118
518.812112	12019.429031
519.175516	12029.120649
519.538863	12115.652055
519.902152	12126.392233
520.265385	12236.417937
520.628560	12259.125814
520.991678	12198.437883
521.354739	12259.171184
521.717743	12328.824807
522.080690	12299.339098
522.443580	12439.367229
522.806413	12449.167232
523.169189	12457.916154
523.531908	12512.063188
523.894569	12465.898821
524.257174	12480.896254
524.619722	12589.134868
524.982213	12570.749780
525.344647	12556.042214
525.707025	12563.558574
526.069345	12676.112416
526.431608	12658.191114
526.793815	12733.427815
527.155964	12629.940488
527.518057	12654.017039
527.880093	12608.596243
528.242072	12728.610992
528.603995	12655.501659
528.965860	12665.634378
529.327669	12703.805995
529.689421	12639.538845
530.051117	12667.776868
530.412755	12695.233513
530.774337	12696.095550
531.135862	12659.464006
531.497331	12719.509189
531.858743	12680.699866
532.220098	12764.662804
532.581396	12687.573479
532.942638	12614.373405
533.303824	12674.713496
533.664953	12661.500632
534.026025	12611.386521
534.387040	12725.092267
534.747999	12691.460209
535.108902	12739.903177
535.469748	12612.694701
535.830537	12633.996096
536.191270	12685.201617
536.551947	12606.874689
536.912567	12672.616376
537.273131	12709.210112
537.633638	12580.217067
537.994089	12645.996563
538.354483	12552.672203
538.714821	12689.305116
539.075103	12762.089295
539.435328	12700.125952
539.795497	12674.494206
540.155609	12674.867251
540.515665	12777.973971
540.875665	12632.052732
541.235609	12738.567271
541.595496	12688.533819
541.955328	12864.094522
542.315102	12727.998492
542.674821	12659.688337
543.034483	12670.720902
543.394090	12668.802743
543.753640	12638.853248
544.113134	12884.942214
544.472571	12635.483237
544.831953	12925.241198
545.191278	12740.888722
545.550548	12674.539576
545.909761	12791.940488
546.268918	12829.217300
546.628019	12895.284141
546.987064	12789.669448
547.346053	12630.202628
547.704986	12840.146521
548.063863	12716.169425
548.422684	12761.522165
548.781449	12728.545457
549.140158	12821.458964
549.498811	12770.780244
549.857408	12639.642189
550.215949	12841.318589
550.574434	12819.583655
550.932864	12756.740631
551.291237	12958.192700
551.649555	12851.746216
552.007817	12901.867888
552.366022	12825.529696
552.724173	12867.746838
553.082267	12945.549486
553.440305	13044.492213
553.798288	12866.252136
554.156215	12939.918517
554.514086	12979.773880
554.871902	12924.956373
555.229661	12954.731948
555.587365	12906.541038
555.945014	12913.828026
556.302606	12895.153071
556.660143	12958.099439
557.017625	12991.371054
557.375050	12956.715642
557.732421	13056.656517
558.089735	13045.732337
558.446994	13030.596272
558.804197	13149.756546
559.161345	13136.510915
559.518437	12961.623205
559.875474	13041.049105
560.232455	13056.386815
560.589381	13103.728291
560.946251	13043.879713
561.303065	13222.457547
561.659825	13175.032892
562.016528	13083.437647
562.373177	13029.930840
562.729770	13167.014937
563.086307	13045.369374
563.442789	13149.779232
563.799216	13189.616950
564.155587	13139.704486
564.511904	13158.760047
564.868164	13168.194567
565.224370	13222.119789
565.580520	13173.344105
565.936615	13242.412954
566.292654	13176.232686
566.648638	13252.608688
567.004567	13260.147733
567.360441	13252.991815
567.716260	13219.074932
568.072023	13302.536275
568.427732	13281.832257
568.783385	13180.593284
569.138982	13290.210654
569.494525	13294.296509
569.850013	13243.756422
570.205445	13235.625040
570.560823	13246.955034
570.916145	13192.727342
571.271412	13207.495402
571.626625	13165.268177
571.981782	13165.840348
572.336884	13115.113737
572.691931	13205.153786
573.046923	13088.728338
573.401860	13072.478178
573.756743	13067.913414
574.111570	13090.341507
574.466342	13066.789236
574.821059	13119.330662
575.175722	12985.268737
575.530330	13006.176923
575.884882	12938.764093
576.239380	12941.478755
576.593823	12922.531578
576.948211	12919.610229
577.302544	12796.417032
577.656823	12815.064260
578.011047	12883.369374
578.365216	12817.879745
578.719330	12755.296340
579.073389	12724.623440
579.427394	12742.126326
579.781344	12735.051066
580.135239	12664.520283
580.489080	12671.136797
580.842866	12551.986606
581.196597	12651.650217
581.550273	12645.759629
581.903895	12602.839245
582.257463	12713.323693
582.610975	12554.970969
582.964434	12615.169907
583.317837	12539.232486
583.671186	12508.476407
584.024481	12553.004919
584.377721	12444.040378
584.730906	12519.773632
585.084037	12536.293494
585.437113	12457.124693
585.790135	12475.257723
586.143103	12382.326573
586.496016	12405.099985
586.848874	12419.991554
587.201679	12411.386304
587.554428	12282.670523
587.907124	12325.850526
588.259765	12267.632761
588.612352	12335.738750
588.964884	12202.254037
589.317362	12246.681726
589.669786	12243.825912
590.022155	12195.952595
590.374470	12308.952579
590.726731	12188.496728
591.078937	12077.001528
591.431090	12097.312337
591.783188	12023.618230
592.135232	11940.890375
592.487222	12006.858914
592.839157	12012.263031
593.191038	11947.522012
593.542866	11901.702965
593.894639	11750.717887
594.246358	11818.551653
594.598022	11823.330667
594.949633	11730.021430
595.301190	11713.226826
595.652692	11666.336533
596.004141	11755.355748
596.355535	11536.065556
596.706876	11519.840602
597.058162	11488.517393
597.409395	11578.302864
597.760573	11608.758995
598.111698	11498.329999
598.462768	11503.950886
598.813785	11514.176866
599.164748	11386.224820
599.515657	11470.961575
599.866511	11341.608088
600.217312	11471.412758
600.568060	11233.336706
600.918753	11392.652291
601.269392	11393.952909
601.619978	11290.400047
601.970510	11335.299084
602.320988	11382.096115
602.671412	11448.851074
603.021783	11378.937832
603.372100	11300.031171
603.722363	11313.808645
604.072572	11320.737711
604.422728	11324.659728
604.772830	11277.771957
605.122878	11281.449478
605.472872	11257.473751
605.822813	11313.491052
606.172701	11270.522777
606.522534	11313.866618
606.872314	11372.863242
607.222041	11298.249123
607.571714	11381.367668
607.921333	11249.987637
608.270899	11296.479678
608.620411	11355.756086
608.969870	11310.335290
609.319276	11286.783019
609.668627	11300.063939
610.017926	11382.355734
610.367171	11410.437482
610.716362	11399.951882
611.065500	11374.234435
611.414585	11389.660366
611.763616	11451.202772
612.112594	11412.075857
612.461518	11440.931421
612.810389	11484.275262
613.159207	11427.501787
613.507971	11422.158164
613.856682	11526.499967
614.205340	11488.046045
614.553945	11624.263063
614.902496	11503.419044
615.250994	11563.691079
615.599439	11552.880325
615.947830	11590.777199
616.296169	11558.077754
616.644454	11574.237173
616.992686	11585.728483
617.340864	11680.623163
617.688990	11561.520863
618.037063	11697.674866
618.385082	11674.669561
618.733048	11712.500900
619.080961	11692.364011
619.428821	11670.550938
619.776628	11683.597444
620.124382	11623.522014
620.472083	11649.821713
620.819731	11670.840804
621.167326	11600.667943
621.514868	11580.084912
621.862357	11481.842905
622.209793	11480.743934
622.557176	11391.573484
622.904506	11332.405461
623.251783	11248.835733
623.599007	11190.933040
623.946179	11140.670216
624.293297	11120.193049
624.640363	10983.038376
624.987376	10969.928856
625.334336	10903.998125
625.681243	10825.119191
626.028097	10788.880857
626.374899	10761.343554
626.721647	10722.980373
627.068343	10684.871770
627.414987	10623.084868
627.761577	10554.129445
628.108115	10605.392939
628.454600	10481.564556
628.801032	10491.374642
629.147412	10472.077105
629.493739	10443.486201
629.840014	10380.794412
630.186236	10421.912583
630.532405	10316.214710
630.878521	10357.080824
631.224585	10304.856991
631.570597	10222.623168
631.916556	10234.719417
632.262462	10220.452952
632.608316	10203.181959
632.954117	10171.556280
633.299866	10157.728395
633.645562	10134.155960
633.991206	10033.297595
634.336797	9931.375546
634.682336	9927.897150
635.027823	9868.199806
635.373257	9831.790073
635.718639	9764.987222
636.063968	9726.810564
636.409245	9613.039284
636.754470	9602.437737
637.099642	9546.571670
637.444762	9446.605589
637.789829	9456.403072
638.134845	9376.528510
638.479808	9359.486889
