Dividing Wavelength (nm)	Counts (n)	Blue Motor Position (mm): 45.500000	Red Motor Position (mm): 0.000000	
326.493990	2152.562610
326.888308	2152.562610
327.282561	2152.562610
327.676750	2128.647376
328.070874	2130.983951
328.464933	2135.800773
328.858929	2140.874695
329.252859	2158.705256
329.646726	2168.543068
330.040528	2184.163083
330.434265	2203.291741
330.827938	2219.620038
331.221547	2241.985118
331.615091	2262.492531
332.008571	2280.738988
332.401986	2305.823769
332.795338	2319.875986
333.188625	2342.954388
333.581847	2362.072964
333.975006	2379.253216
334.368100	2399.702657
334.761129	2416.792168
335.154095	2434.126176
335.546996	2459.823457
335.939833	2488.898312
336.332606	2503.905827
336.725315	2515.702127
337.117960	2520.957530
337.510540	2529.900537
337.903056	2538.896476
338.295508	2547.032898
338.687896	2552.880637
339.080220	2564.437482
339.472480	2567.444530
339.864676	2570.176836
340.256807	2576.042218
340.648875	2575.616241
341.040879	2575.175140
341.432818	2578.247723
341.824694	2579.419791
342.216506	2579.815522
342.608253	2580.049936
342.999937	2578.126735
343.391557	2578.109091
343.783113	2577.410892
344.174605	2574.441652
344.566033	2574.353432
344.957397	2572.773030
345.348697	2571.706826
345.739934	2570.103739
346.131106	2568.687175
346.522215	2564.384550
346.913260	2563.383881
347.304241	2565.128120
347.695159	2561.014539
348.086012	2558.577141
348.476802	2558.425906
348.867528	2557.205947
349.258191	2551.368291
349.648789	2555.176883
350.039324	2550.806202
350.429796	2553.281409
350.820203	2550.705379
351.210548	2549.929041
351.600828	2552.943651
351.991045	2548.436860
352.381198	2548.769576
352.771288	2546.619524
353.161314	2551.469114
353.551276	2547.380738
353.941175	2546.511139
354.331010	2547.960471
354.720782	2546.551468
355.110490	2549.137580
355.500135	2551.055739
355.889717	2550.440718
356.279235	2546.435522
356.668689	2551.229659
357.058080	2550.750749
357.447408	2547.489123
357.836672	2544.114070
358.225873	2546.420398
358.615010	2545.497867
359.004084	2553.014227
359.393095	2553.409958
359.782043	2552.295863
360.170927	2551.080945
360.559748	2554.670247
360.948505	2557.548745
361.337199	2556.154866
361.725830	2554.576985
362.114398	2555.766697
362.502903	2557.929352
362.891344	2556.258210
363.279722	2560.102090
363.668037	2557.236194
364.056289	2557.780638
364.444478	2560.177707
364.832603	2559.353478
365.220665	2560.989333
365.608665	2560.026472
365.996601	2561.203582
366.384474	2558.998077
366.772284	2561.380022
367.160031	2561.979920
367.547715	2561.231308
367.935336	2560.490259
368.322893	2563.157029
368.710388	2563.454457
369.097820	2565.634756
369.485189	2563.154508
369.872495	2564.024108
370.259738	2561.604354
370.646918	2562.915054
371.034035	2566.925292
371.421090	2562.753737
371.808081	2564.334138
372.195010	2567.104252
372.581875	2564.137533
372.968678	2565.130641
373.355418	2566.542164
373.742096	2565.501166
374.128710	2572.566343
374.515262	2568.503173
374.901751	2567.429407
375.288177	2569.544171
375.674540	2568.462843
376.060841	2568.518296
376.447079	2567.416804
376.833254	2569.090467
377.219367	2566.874880
377.605417	2567.512586
377.991404	2570.073492
378.377329	2570.549881
378.763191	2567.588203
379.148991	2573.390571
379.534727	2575.608679
379.920402	2573.584656
380.306013	2574.025757
380.691563	2577.418453
381.077049	2578.063721
381.462474	2582.169741
381.847835	2580.221335
382.233134	2584.823908
382.618371	2586.666450
383.003545	2587.205853
383.388657	2590.122161
383.773706	2592.194075
384.158693	2593.497213
384.543618	2597.056268
384.928480	2602.616661
385.313280	2607.539348
385.698017	2609.966663
386.082692	2612.809874
386.467305	2621.621811
386.851856	2623.774383
387.236344	2631.936012
387.620770	2636.916672
388.005133	2643.729791
388.389435	2649.804381
388.773674	2655.513488
389.157851	2661.204951
389.541965	2670.699964
389.926018	2675.710871
390.310008	2686.370391
390.693936	2692.122347
391.077802	2700.107535
391.461606	2713.287632
391.845348	2718.059084
392.229027	2729.419324
392.612645	2740.754358
392.996200	2750.314907
393.379694	2762.141454
393.763125	2779.402364
394.146494	2787.465690
394.529801	2800.537402
394.913047	2818.597336
395.296230	2825.914570
395.679351	2836.465705
396.062410	2855.223839
396.445408	2857.101669
396.828343	2871.852085
397.211217	2880.480020
397.594028	2883.320710
397.976778	2897.483832
398.359466	2915.316913
398.742092	2920.678180
399.124656	2936.877928
399.507158	2951.729168
399.889598	2963.671661
400.271977	2981.197232
400.654294	2991.831546
401.036549	3004.812518
401.418742	3016.891122
401.800874	3041.519679
402.182944	3049.880433
402.564952	3080.258426
402.946898	3077.087540
403.328783	3088.094900
403.710606	3109.217334
404.092367	3131.090901
404.474067	3158.920591
404.855705	3154.181906
405.237282	3157.226763
405.618797	3188.126515
406.000250	3213.538972
406.381642	3243.289341
406.762972	3252.111361
407.144240	3239.553846
407.525447	3264.936056
407.906593	3265.432610
408.287677	3287.434726
408.668700	3309.363745
409.049661	3308.050524
409.430560	3326.909481
409.811399	3327.259841
410.192176	3351.638861
410.572891	3360.191178
410.953545	3400.283475
411.334138	3365.824668
411.714669	3419.195364
412.095139	3363.374667
412.475547	3416.639499
412.855894	3410.988365
413.236180	3434.928805
413.616405	3419.512956
413.996568	3441.492387
414.376670	3444.446503
414.756711	3440.819393
415.136691	3467.061119
415.516609	3488.319665
415.896466	3494.679081
416.276262	3522.412989
416.655997	3552.934655
417.035670	3560.269533
417.415283	3626.500213
417.794834	3649.540806
418.174324	3631.687560
418.553753	3629.386273
418.933121	3674.663397
419.312428	3667.986388
419.691674	3658.647651
420.070859	3698.238352
420.449983	3680.916948
420.829045	3728.966706
421.208047	3712.915672
421.586988	3760.468876
421.965867	3788.709420
422.344686	3800.793066
422.723444	3835.950073
423.102141	3743.512955
423.480777	3844.081454
423.859352	3809.857060
424.237866	3910.765837
424.616319	3894.976943
424.994712	3954.707054
425.373044	3943.699695
425.751314	4007.311495
426.129524	3944.992751
426.507673	4045.576373
426.885762	4018.215511
427.263789	4040.381464
427.641756	4048.114594
428.019662	4076.476126
428.397508	4077.827155
428.775292	4118.083289
429.153016	4119.691417
429.530679	4134.338489
429.908282	4144.299809
430.285824	4118.854585
430.663305	4196.321997
431.040726	4152.932785
431.418086	4142.545488
431.795385	4217.605748
432.172624	4252.913990
432.549802	4220.481726
432.926920	4235.527050
433.303977	4233.578644
433.680974	4276.441055
434.057910	4299.007780
434.434786	4302.523985
434.811601	4294.069970
435.188355	4401.073501
435.565050	4373.725242
435.941683	4372.326321
436.318257	4462.268068
436.694770	4463.835867
437.071222	4519.744783
437.447614	4455.888487
437.823946	4459.470227
438.200218	4472.988081
438.576429	4454.126604
438.952580	4478.251046
439.328670	4488.252695
439.704700	4530.643758
440.080670	4495.983305
440.456580	4555.761307
440.832429	4591.256071
441.208218	4494.324765
441.583947	4548.010533
441.959616	4563.199529
442.335224	4583.505297
442.710773	4608.973206
443.086261	4663.616793
443.461689	4613.595944
443.837057	4626.004745
444.212365	4700.339079
444.587612	4704.268658
444.962800	4673.507537
445.337927	4712.359710
445.712995	4606.387094
446.088002	4796.299963
446.462949	4814.438034
446.837837	4832.447556
447.212664	4826.650229
447.587431	5049.481832
447.962139	5350.804201
448.336786	5686.913051
448.711374	5667.050905
449.085901	5305.842149
449.460369	5245.789404
449.834776	5187.410322
450.209124	5424.500829
450.583412	5433.801757
450.957640	5554.978493
451.331808	5416.349283
451.705917	5267.279843
452.079965	5255.959932
452.453954	5299.389473
452.827883	5261.308596
453.201752	5270.859062
453.575562	5301.980626
453.949311	5435.404844
454.323001	5440.433395
454.696632	5433.380821
455.070202	5586.208441
455.443713	5617.617350
455.817164	5710.664447
456.190556	5782.747906
456.563888	5758.797384
456.937160	5833.605587
457.310373	5674.610115
457.683526	5730.997941
458.056619	5727.572477
458.429653	5707.054981
458.802628	5755.392085
459.175542	5782.760509
459.548398	5925.226037
459.921194	6116.303412
460.293930	6177.971847
460.666607	6429.800167
461.039224	6640.769935
461.411782	6771.900429
461.784280	6680.521953
462.156719	6685.638725
462.529099	6648.193034
462.901419	6505.944275
463.273680	6376.830243
463.645882	6368.461928
464.018024	6369.034098
464.390106	6436.862823
464.762130	6695.975611
465.134094	7088.217709
465.505999	7728.219916
465.877845	8429.598171
466.249631	8786.199312
466.621358	8707.428763
466.993026	8504.582814
467.364634	8289.247407
467.736184	8005.493460
468.107674	7848.017896
468.479105	7772.924868
468.850477	7697.045421
469.221790	7530.848661
469.593043	7306.003117
469.964238	7207.816563
470.335373	7181.801689
470.706449	7338.732808
471.077467	7536.698920
471.448425	8199.247687
471.819324	8775.179350
472.190164	8809.005492
472.560945	8316.635996
472.931667	7854.520985
473.302330	7657.817682
473.672934	7539.020371
474.043479	7618.433668
474.413965	7514.999273
474.784393	7471.398333
475.154761	7621.213864
475.525070	7636.929661
475.895321	7590.223371
476.265513	7691.338835
476.635645	7853.802620
477.005719	7845.966147
477.375734	7930.975124
477.745691	8036.420939
478.115588	8247.236952
478.485427	8479.203125
478.855207	8957.769942
479.224928	9390.578206
479.594591	9768.208520
479.964194	9783.785685
480.333739	9861.505154
480.703226	9862.538590
481.072653	9964.306884
481.442022	10075.623122
481.811333	10233.222194
482.180584	10070.581968
482.549777	10015.242702
482.918912	9947.986148
483.287988	9937.291340
483.657005	9839.848357
484.025964	9759.331048
484.394864	9818.042846
484.763706	9779.437690
485.132489	9690.428557
485.501213	9683.925468
485.869879	9741.503007
486.238487	9687.187095
486.607036	9761.849104
486.975527	9698.602788
487.343959	9757.453218
487.712333	9802.914343
488.080648	9844.024953
488.448905	9948.800294
488.817104	9956.944278
489.185244	10118.430080
489.553326	10340.545839
489.921350	10815.616616
490.289315	11447.046341
490.657222	11736.559806
491.025070	11901.708006
491.392861	11823.605410
491.760593	11659.561222
492.128267	11402.338868
492.495883	11173.203302
492.863440	10933.811509
493.230939	10708.635770
493.598380	10523.890084
493.965763	10501.141877
494.333088	10365.121464
494.700354	10301.010590
495.067563	10270.882134
495.434713	10271.454305
495.801805	10325.039250
496.168839	10272.782649
496.535815	10252.416388
496.902733	10297.990939
497.269593	10251.100647
497.636395	10256.643395
498.003139	10375.675120
498.369825	10301.492020
498.736453	10390.914528
499.103023	10332.288429
499.469535	10342.416107
499.835989	10388.991328
500.202385	10362.870589
500.568723	10377.837775
500.935003	10443.420666
501.301226	10406.564790
501.667390	10578.652138
502.033497	10675.366675
502.399546	10609.446027
502.765537	10514.758034
503.131470	10618.620927
503.497345	10704.766684
503.863163	10479.648918
504.228923	10611.669175
504.594625	10723.721423
504.960269	10634.926539
505.325856	10787.479416
505.691385	10669.488689
506.056856	10743.006357
506.422270	10835.551859
506.787625	10773.591037
507.152924	10828.895015
507.518164	10887.122863
507.883347	10748.140772
508.248472	10820.279683
508.613540	10936.372415
508.978550	11006.441933
509.343503	10985.659776
509.708398	11042.813858
510.073236	11172.268168
510.438016	11184.490446
510.802738	11102.675039
511.167403	11230.110367
511.532010	11289.606065
511.896561	11381.229036
512.261053	11575.638614
512.625488	11497.263795
512.989866	11480.774181
513.354186	11462.646192
513.718449	11472.909981
514.082655	11608.741351
514.446803	11569.387583
514.810894	11673.721824
515.174927	11675.607215
515.538904	11656.564257
515.902822	11817.903865
516.266684	11687.889987
516.630488	11794.099536
516.994235	11775.633790
517.357925	11896.306410
517.721558	11954.796397
518.085133	12021.364834
518.448651	12047.563711
518.812112	12007.955365
519.175516	12019.875173
519.538863	12109.726179
519.902152	12120.274793
520.265385	12224.719939
520.628560	12239.974471
520.991678	12189.678879
521.354739	12240.153432
521.717743	12314.591109
522.080690	12288.364506
522.443580	12424.563880
522.806413	12444.670522
523.169189	12430.729212
523.531908	12504.249399
523.894569	12455.088067
524.257174	12472.230511
524.619722	12578.926532
524.982213	12553.501472
525.344647	12548.606512
525.707025	12554.111452
526.069345	12666.922393
526.431608	12635.417702
526.793815	12722.899365
527.155964	12613.045061
527.518057	12643.460863
527.880093	12601.591559
528.242072	12716.938201
528.603995	12643.339875
528.965860	12660.386537
529.327669	12689.554653
529.689421	12628.052576
530.051117	12650.941935
530.412755	12681.793797
530.774337	12684.155577
531.135862	12644.441367
531.497331	12708.728682
531.858743	12665.715036
532.220098	12751.712080
532.581396	12675.288188
532.942638	12608.157662
533.303824	12668.442301
533.664953	12649.553097
534.026025	12597.677103
534.387040	12704.768855
534.747999	12680.029393
535.108902	12724.167215
535.469748	12596.121908
535.830537	12623.586114
536.191270	12670.647805
536.551947	12591.058068
536.912567	12662.854182
537.273131	12692.344932
537.633638	12570.099471
537.994089	12632.030046
538.354483	12546.889999
538.714821	12672.039164
539.075103	12754.187286
539.435328	12688.680013
539.795497	12668.676714
540.155609	12658.972493
540.515665	12766.220521
540.875665	12625.955456
541.235609	12715.907285
541.595496	12677.039988
541.955328	12849.598685
542.315102	12704.751211
542.674821	12648.076039
543.034483	12653.394456
543.394090	12652.660968
543.753640	12626.908234
544.113134	12868.661808
544.472571	12634.716981
544.831953	12912.076225
545.191278	12726.770971
545.550548	12657.271104
545.909761	12774.437601
546.268918	12815.664158
546.628019	12886.502451
546.987064	12777.162345
547.346053	12619.830454
547.704986	12824.443327
548.063863	12700.352804
548.422684	12749.559507
548.781449	12704.012682
549.140158	12814.194661
549.498811	12754.419179
549.857408	12628.289510
550.215949	12828.390550
550.574434	12802.607569
550.932864	12741.135739
551.291237	12943.480093
551.649555	12832.564626
552.007817	12890.885735
552.366022	12808.107468
552.724173	12851.549611
553.082267	12935.421808
553.440305	13023.972196
553.798288	12854.670085
554.156215	12925.989809
554.514086	12970.934217
554.871902	12918.206268
555.229661	12941.377932
555.587365	12894.764902
555.945014	12908.900298
556.302606	12883.939025
556.660143	12948.216257
557.017625	12980.887975
557.375050	12942.376080
557.732421	13044.333417
558.089735	13040.048436
558.446994	13017.927853
558.804197	13131.893218
559.161345	13123.318215
559.518437	12947.434878
559.875474	13036.552396
560.232455	13060.855798
560.589381	13094.039193
560.946251	13033.855378
561.303065	13208.193602
561.659825	13159.382630
562.016528	13077.781472
562.373177	13019.001618
562.729770	13151.636897
563.086307	13041.502809
563.442789	13140.314465
563.799216	13176.830063
564.155587	13124.286117
564.511904	13138.749187
564.868164	13157.265345
565.224370	13218.112072
565.580520	13169.563240
565.936615	13232.406264
566.292654	13162.961849
566.648638	13240.630906
567.004567	13242.531421
567.360441	13243.612749
567.716260	13208.717882
568.072023	13285.847536
568.427732	13273.738684
568.783385	13167.932427
569.138982	13280.214046
569.494525	13276.836473
569.850013	13232.275194
570.205445	13217.514695
570.560823	13237.104619
570.916145	13192.984441
571.271412	13190.438658
571.626625	13154.127227
571.981782	13162.213238
572.336884	13102.047066
572.691931	13184.774922
573.046923	13080.906988
573.401860	13056.248184
573.756743	13065.866705
574.111570	13077.841966
574.466342	13055.890262
574.821059	13112.381432
575.175722	12977.449908
575.530330	12999.893125
575.884882	12924.689192
576.239380	12918.254159
576.593823	12914.521184
576.948211	12917.162749
577.302544	12786.783387
577.656823	12801.059935
578.011047	12868.384544
578.365216	12806.721151
578.719330	12736.717168
579.073389	12719.652862
579.427394	12727.527144
579.781344	12724.275600
580.135239	12647.211481
580.489080	12666.995489
580.842866	12537.473124
581.196597	12639.669915
581.550273	12636.214204
581.903895	12587.977923
582.257463	12697.123945
582.610975	12547.845298
582.964434	12615.101852
583.317837	12535.287783
583.671186	12487.689209
584.024481	12548.397304
584.377721	12437.045777
584.730906	12517.311029
585.084037	12523.746062
585.437113	12448.857201
585.790135	12461.429838
586.143103	12377.918084
586.496016	12390.064744
586.848874	12404.749625
587.201679	12399.663101
587.554428	12280.417127
587.907124	12327.042759
588.259765	12258.525917
588.612352	12324.544868
588.964884	12194.566277
589.317362	12243.304153
589.669786	12233.118501
590.022155	12191.163498
590.374470	12289.972634
590.726731	12175.135150
591.078937	12069.601115
591.431090	12083.928074
591.783188	12013.699760
592.135232	11931.483582
592.487222	12002.105106
592.839157	12008.618277
593.191038	11944.020931
593.542866	11892.187787
593.894639	11737.240362
594.246358	11805.971454
594.598022	11800.441308
594.949633	11709.307329
595.301190	11706.746422
595.652692	11656.415543
596.004141	11750.133113
596.355535	11526.681448
596.706876	11508.414827
597.058162	11478.523306
597.409395	11565.526059
597.760573	11600.557037
598.111698	11487.572177
598.462768	11495.524597
598.813785	11501.004331
599.164748	11375.582944
599.515657	11456.322064
599.866511	11330.366315
600.217312	11455.719646
600.568060	11220.842206
600.918753	11393.537013
601.269392	11387.553164
601.619978	11293.245778
601.970510	11321.990437
602.320988	11363.872344
602.671412	11445.077770
603.021783	11366.713034
603.372100	11283.932247
603.722363	11308.797738
604.072572	11308.346555
604.422728	11306.821606
604.772830	11260.069945
605.122878	11275.505958
605.472872	11239.630587
605.822813	11300.159721
606.172701	11259.573391
606.522534	11311.078860
606.872314	11359.791530
607.222041	11287.498863
607.571714	11371.492048
607.921333	11235.348126
608.270899	11291.244440
608.620411	11346.613953
608.969870	11295.985645
609.319276	11278.812955
609.668627	11289.666559
610.017926	11371.585309
610.367171	11403.959599
610.716362	11393.942826
611.065500	11373.042202
611.414585	11380.246011
611.763616	11444.528285
612.112594	11411.894375
612.461518	11434.259454
612.810389	11474.490383
613.159207	11413.820096
613.507971	11410.714745
613.856682	11518.277845
614.205340	11473.061215
614.553945	11618.322063
614.902496	11496.147179
615.250994	11557.999617
615.599439	11544.315404
615.947830	11579.011146
616.296169	11547.806403
616.644454	11563.093702
616.992686	11581.773698
617.340864	11663.337047
617.688990	11554.443083
618.037063	11691.640605
618.385082	11661.247488
618.733048	11705.372708
619.080961	11692.023733
619.428821	11659.349494
619.776628	11672.736278
620.124382	11619.544543
620.472083	11642.345682
620.819731	11669.273005
621.167326	11595.074783
621.514868	11569.579147
621.862357	11470.225566
622.209793	11461.983280
622.557176	11381.876825
622.904506	11322.653349
623.251783	11240.273334
623.599007	11179.567759
623.946179	11134.633434
624.293297	11107.723755
624.640363	10970.659823
624.987376	10955.846393
625.334336	10894.372042
625.681243	10810.593106
626.028097	10785.490681
626.374899	10754.815259
626.721647	10706.891530
627.068343	10673.521612
627.414987	10619.251071
627.761577	10553.088447
628.108115	10598.657957
628.454600	10470.511827
628.801032	10485.620165
629.147412	10465.785745
629.493739	10442.636766
629.840014	10365.237411
630.186236	10408.112424
630.532405	10307.992588
630.878521	10350.537406
631.224585	10299.619232
631.570597	10222.048477
631.916556	10225.962933
632.262462	10210.224451
632.608316	10193.286174
632.954117	10167.598974
633.299866	10152.843517
633.645562	10124.108940
633.991206	10025.234269
634.336797	9930.619373
634.682336	9918.666797
635.027823	9858.175472
635.373257	9822.912601
635.718639	9759.343651
636.063968	9725.635975
636.409245	9604.222306
636.754470	9596.700904
637.099642	9542.886587
637.444762	9438.078478
637.789829	9447.644067
638.134845	9374.484322
638.479808	9350.417853
