Dividing Wavelength (nm)	Counts (n)	Blue Motor Position (mm): 34.000000	Red Motor Position (mm): 0.000000	
326.493990	2155.189051
326.888308	2155.189051
327.282561	2155.189051
327.676750	2131.152830
328.070874	2130.421862
328.464933	2135.659621
328.858929	2145.827628
329.252859	2156.383805
329.646726	2173.548933
330.040528	2186.953362
330.434265	2205.618234
330.827938	2224.449464
331.221547	2242.890005
331.615091	2262.104363
332.008571	2281.986673
332.401986	2303.797225
332.795338	2325.143991
333.188625	2343.148472
333.581847	2364.129755
333.975006	2381.955275
334.368100	2402.989489
334.761129	2419.406007
335.154095	2436.724891
335.546996	2458.328755
335.939833	2491.597850
336.332606	2502.675786
336.725315	2516.395286
337.117960	2524.408200
337.510540	2529.847605
337.903056	2542.057280
338.295508	2548.262940
338.687896	2553.909032
339.080220	2560.747358
339.472480	2570.262535
339.864676	2571.648853
340.256807	2572.873853
340.648875	2576.153124
341.040879	2579.981880
341.432818	2579.855851
341.824694	2581.189236
342.216506	2578.267888
342.608253	2580.569174
342.999937	2581.199319
343.391557	2582.089082
343.783113	2578.628330
344.174605	2575.437280
344.566033	2572.412587
344.957397	2570.567525
345.348697	2569.206414
345.739934	2569.498801
346.131106	2571.457289
346.522215	2569.004768
346.913260	2564.364385
347.304241	2564.409756
347.695159	2560.182748
348.086012	2559.091338
348.476802	2558.027655
348.867528	2557.757953
349.258191	2556.109496
349.648789	2554.861810
350.039324	2553.858621
350.429796	2555.386090
350.820203	2551.509443
351.210548	2548.850234
351.600828	2548.646068
351.991045	2549.528270
352.381198	2549.271171
352.771288	2548.565409
353.161314	2548.381407
353.551276	2548.767055
353.941175	2547.955430
354.331010	2548.076417
354.720782	2548.951057
355.110490	2549.916438
355.500135	2548.663712
355.889717	2548.867878
356.279235	2549.578681
356.668689	2551.222097
357.058080	2550.067673
357.447408	2548.772097
357.836672	2548.537683
358.225873	2547.466438
358.615010	2547.675646
359.004084	2555.257541
359.393095	2552.739485
359.782043	2555.509599
360.170927	2555.345761
360.559748	2555.023127
360.948505	2555.620504
361.337199	2554.861810
361.725830	2555.484393
362.114398	2554.352654
362.502903	2559.645865
362.891344	2557.415155
363.279722	2556.467418
363.668037	2558.365412
364.056289	2558.791390
364.444478	2559.577810
364.832603	2559.035886
365.220665	2559.124106
365.608665	2561.223747
365.996601	2562.736093
366.384474	2561.866494
366.772284	2562.383212
367.160031	2563.439334
367.547715	2564.303892
367.935336	2560.608726
368.322893	2563.295661
368.710388	2564.795404
369.097820	2567.313460
369.485189	2564.092163
369.872495	2565.392781
370.259738	2562.249621
370.646918	2561.468242
371.034035	2565.639797
371.421090	2564.283727
371.808081	2565.627194
372.195010	2562.105948
372.581875	2566.249777
372.968678	2568.694737
373.355418	2566.466547
373.742096	2567.691547
374.128710	2567.094170
374.515262	2569.672720
374.901751	2567.076526
375.288177	2569.551733
375.674540	2568.349417
376.060841	2569.730694
376.447079	2570.096177
376.833254	2569.957546
377.219367	2566.075857
377.605417	2565.241546
377.991404	2562.695763
378.377329	2566.126269
378.763191	2568.293965
379.148991	2571.258163
379.534727	2570.413770
379.920402	2570.204562
380.306013	2569.708008
380.691563	2570.257494
381.077049	2572.213462
381.462474	2573.824111
381.847835	2568.845971
382.233134	2571.679100
382.618371	2572.367217
383.003545	2573.146075
383.388657	2572.828483
383.773706	2572.679769
384.158693	2575.664132
384.543618	2572.170612
384.928480	2577.199163
385.313280	2574.643298
385.698017	2575.691858
386.082692	2573.357804
386.467305	2573.642629
386.851856	2575.706982
387.236344	2578.043556
387.620770	2576.561457
388.005133	2576.637074
388.389435	2577.052970
388.773674	2574.630695
389.157851	2576.332085
389.541965	2577.509194
389.926018	2577.675552
390.310008	2578.787127
390.693936	2581.892477
391.077802	2575.127249
391.461606	2577.975501
391.845348	2580.057497
392.229027	2576.805953
392.612645	2578.658577
392.996200	2577.932651
393.379694	2581.446335
393.763125	2578.451890
394.146494	2580.065059
394.529801	2581.423650
394.913047	2583.493044
395.296230	2582.215111
395.679351	2581.516911
396.062410	2582.774679
396.445408	2583.598908
396.828343	2584.062694
397.211217	2579.815522
397.594028	2579.868454
397.976778	2579.954154
398.359466	2583.223342
398.742092	2579.991962
399.124656	2582.126891
399.507158	2584.556727
399.889598	2587.180648
400.271977	2584.735688
400.654294	2588.229208
401.036549	2585.408682
401.418742	2585.358271
401.800874	2585.983374
402.182944	2586.747108
402.564952	2588.098138
402.946898	2588.942531
403.328783	2586.510174
403.710606	2589.638210
404.092367	2585.741398
404.474067	2589.834815
404.855705	2589.476893
405.237282	2592.216760
405.618797	2587.624269
406.000250	2592.569641
406.381642	2589.338262
406.762972	2591.914291
407.144240	2592.219281
407.525447	2592.791452
407.906593	2591.251379
408.287677	2590.371698
408.668700	2592.284816
409.049661	2597.411669
409.430560	2594.956627
409.811399	2595.591813
410.192176	2593.928232
410.572891	2598.692122
410.953545	2597.467122
411.334138	2598.840837
411.714669	2599.143306
412.095139	2603.869387
412.475547	2604.260077
412.855894	2606.142948
413.236180	2608.711416
413.616405	2611.668052
413.996568	2613.039246
414.376670	2615.121243
414.756711	2616.696603
415.136691	2622.564507
415.516609	2627.588016
415.896466	2631.452061
416.276262	2638.970942
416.655997	2639.061682
417.035670	2645.075779
417.415283	2656.899805
417.794834	2661.837616
418.174324	2668.323060
418.553753	2680.633558
418.933121	2690.080680
419.312428	2696.235929
419.691674	2702.106352
420.070859	2715.193188
420.449983	2719.989846
420.829045	2736.625653
421.208047	2745.520769
421.586988	2760.361926
421.965867	2775.808022
422.344686	2790.732358
422.723444	2810.007209
423.102141	2804.593010
423.480777	2834.653411
423.859352	2841.456448
424.237866	2878.367776
424.616319	2887.973695
424.994712	2917.139290
425.373044	2931.922474
425.751314	2966.918164
426.129524	2965.115952
426.507673	3007.822086
426.885762	3020.004035
427.263789	3042.979093
427.641756	3062.672361
428.019662	3095.311311
428.397508	3113.993827
428.775292	3148.881133
429.153016	3174.628826
429.530679	3196.545242
429.908282	3221.420816
430.285824	3235.566294
430.663305	3285.932462
431.040726	3290.073770
431.418086	3306.795277
431.795385	3363.828371
432.172624	3403.960997
432.549802	3411.568098
432.926920	3444.953139
433.303977	3466.826706
433.680974	3510.979652
434.057910	3546.018192
434.434786	3573.406780
434.811601	3592.033844
435.188355	3676.258922
435.565050	3684.763348
435.941683	3706.394939
436.318257	3785.611631
436.694770	3813.118687
437.071222	3874.691340
437.447614	3855.721478
437.823946	3881.091085
438.200218	3917.427722
438.576429	3926.030451
438.952580	3969.149960
439.328670	3995.242972
439.704700	4045.951939
440.080670	4039.153943
440.456580	4109.233543
440.832429	4157.038805
441.208218	4101.933953
441.583947	4165.119775
441.959616	4194.300494
442.335224	4235.925301
442.710773	4268.390332
443.086261	4333.932894
443.461689	4312.507990
443.837057	4339.493286
444.212365	4423.902366
444.587612	4442.950366
444.962800	4426.155762
445.337927	4476.708453
445.712995	4394.557810
446.088002	4579.280810
446.462949	4616.156851
446.837837	4643.699195
447.212664	4644.117610
447.587431	4871.211509
447.962139	5158.494264
448.336786	5483.729345
448.711374	5480.122400
449.085901	5158.814377
449.460369	5108.722952
449.834776	5063.148400
450.209124	5301.426099
450.583412	5316.055527
450.957640	5442.311225
451.331808	5315.022091
451.705917	5180.156102
452.079965	5180.786246
452.453954	5227.394234
452.827883	5195.934913
453.201752	5206.009659
453.575562	5245.295371
453.949311	5380.531885
454.323001	5386.946753
454.696632	5387.823914
455.070202	5545.831319
455.443713	5580.075877
455.817164	5671.179610
456.190556	5741.695270
456.563888	5720.280448
456.937160	5799.212315
457.310373	5649.129603
457.683526	5707.362492
458.056619	5701.469383
458.429653	5686.328277
458.802628	5739.767028
459.175542	5770.863386
459.548398	5909.643831
459.921194	6097.991421
460.293930	6159.564074
460.666607	6408.660088
461.039224	6622.019363
461.411782	6748.590133
461.784280	6663.921434
462.156719	6672.178844
462.529099	6632.943543
462.901419	6491.231668
463.273680	6361.684096
463.645882	6352.138671
464.018024	6355.601944
464.390106	6427.340084
464.762130	6688.739034
465.134094	7078.009373
465.505999	7712.274747
465.877845	8414.041171
466.249631	8768.739276
466.621358	8687.188530
466.993026	8491.319538
467.364634	8278.716437
467.736184	7993.860997
468.107674	7838.041453
468.479105	7758.338290
468.850477	7696.569032
469.221790	7518.523040
469.593043	7301.579504
469.964238	7198.976900
470.335373	7172.266347
470.706449	7329.678896
471.077467	7527.103083
471.448425	8188.436933
471.819324	8766.634594
472.190164	8800.642218
472.560945	8313.049215
472.931667	7843.291814
473.302330	7647.294273
473.672934	7527.471088
474.043479	7608.656350
474.413965	7506.673808
474.784393	7463.892055
475.154761	7610.380424
475.525070	7627.207796
475.895321	7584.655416
476.265513	7681.332144
476.635645	7843.742998
477.005719	7836.629930
477.375734	7926.029752
477.745691	8027.997171
478.115588	8233.101556
478.485427	8473.171385
478.855207	8943.001882
479.224928	9381.821721
479.594591	9755.656047
479.964194	9765.677860
480.333739	9851.853865
480.703226	9848.816570
481.072653	9958.128950
481.442022	10072.318646
481.811333	10213.952384
482.180584	10054.485564
482.549777	10000.492286
482.918912	9929.278426
483.287988	9927.403117
483.657005	9828.677160
484.025964	9746.206404
484.394864	9813.253750
484.763706	9770.111555
485.132489	9681.432618
485.501213	9663.155915
485.869879	9730.031862
486.238487	9668.015587
486.607036	9746.188760
486.975527	9698.121358
487.343959	9752.180171
487.712333	9794.014186
488.080648	9840.221402
488.448905	9937.308984
488.817104	9946.468761
489.185244	10115.317168
489.553326	10336.210447
489.921350	10800.712445
490.289315	11428.552868
490.657222	11716.725387
491.025070	11899.749518
491.392861	11812.512351
491.760593	11653.184163
492.128267	11400.682849
492.495883	11161.777527
492.863440	10929.526528
493.230939	10704.628052
493.598380	10520.961174
493.965763	10498.815385
494.333088	10366.792607
494.700354	10299.168048
495.067563	10275.010839
495.434713	10278.234657
495.801805	10313.464761
496.168839	10275.978741
496.535815	10246.228371
496.902733	10294.656216
497.269593	10251.796326
497.636395	10259.821843
498.003139	10368.216733
498.369825	10293.753849
498.736453	10383.476305
499.103023	10327.655609
499.469535	10331.320528
499.835989	10394.418130
500.202385	10360.370177
500.568723	10378.457837
500.935003	10441.328587
501.301226	10410.126365
501.667390	10576.431510
502.033497	10683.979486
502.399546	10594.728378
502.765537	10513.898517
503.131470	10609.040214
503.497345	10697.777124
503.863163	10472.049378
504.228923	10606.310429
504.594625	10723.613038
504.960269	10632.862186
505.325856	10787.192070
505.691385	10675.533033
506.056856	10734.769111
506.422270	10836.918012
506.787625	10770.783114
507.152924	10828.211939
507.518164	10890.949098
507.883347	10751.291493
508.248472	10823.067441
508.613540	10926.869840
508.978550	11007.815648
509.343503	10985.561474
509.708398	11043.229753
510.073236	11165.132415
510.438016	11187.600838
510.802738	11095.541807
511.167403	11226.435366
511.532010	11290.422732
511.896561	11387.217927
512.261053	11574.395969
512.625488	11492.620892
512.989866	11489.404636
513.354186	11458.265429
513.718449	11470.265896
514.082655	11619.305088
514.446803	11566.130998
514.810894	11680.880262
515.174927	11678.417658
515.538904	11661.867550
515.902822	11821.820841
516.266684	11689.707322
516.630488	11790.243054
516.994235	11778.877772
517.357925	11894.358004
517.721558	11947.479163
518.085133	12017.291582
518.448651	12052.113352
518.812112	12009.036692
519.175516	12020.144875
519.538863	12110.633586
519.902152	12111.619132
520.265385	12221.707850
520.628560	12247.752971
520.991678	12202.135570
521.354739	12250.938980
521.717743	12329.948984
522.080690	12302.820015
522.443580	12430.885487
522.806413	12454.382305
523.169189	12444.662961
523.531908	12492.226247
523.894569	12452.471708
524.257174	12467.890077
524.619722	12573.981160
524.982213	12555.555743
525.344647	12543.903115
525.707025	12558.535064
526.069345	12660.557936
526.431608	12639.732929
526.793815	12719.279817
527.155964	12608.802930
527.518057	12646.805668
527.880093	12604.245727
528.242072	12724.434396
528.603995	12638.641520
528.965860	12667.751663
529.327669	12685.788911
529.689421	12633.726395
530.051117	12650.934373
530.412755	12690.446937
530.774337	12691.797966
531.135862	12646.067139
531.497331	12699.820963
531.858743	12663.136486
532.220098	12758.421856
532.581396	12684.382429
532.942638	12604.838062
533.303824	12670.413392
533.664953	12656.492245
534.026025	12605.052312
534.387040	12720.275444
534.747999	12685.854446
535.108902	12732.928741
535.469748	12603.408895
535.830537	12643.133188
536.191270	12676.145184
536.551947	12602.952671
536.912567	12661.672031
537.273131	12704.761293
537.633638	12578.959299
537.994089	12635.994914
538.354483	12549.443343
538.714821	12682.784383
539.075103	12762.555602
539.435328	12693.895086
539.795497	12672.833146
540.155609	12664.081703
540.515665	12769.265378
540.875665	12626.434366
541.235609	12730.914800
541.595496	12691.314016
541.955328	12868.883619
542.315102	12723.665620
542.674821	12654.684992
543.034483	12678.948065
543.394090	12668.724605
543.753640	12644.441367
544.113134	12884.367523
544.472571	12641.139411
544.831953	12922.481166
545.191278	12741.286974
545.550548	12665.160509
545.909761	12782.775670
546.268918	12828.622443
546.628019	12895.944532
546.987064	12775.909618
547.346053	12626.822534
547.704986	12823.929129
548.063863	12707.296994
548.422684	12755.878593
548.781449	12726.246691
549.140158	12817.363026
549.498811	12772.736212
549.857408	12640.809216
550.215949	12838.130060
550.574434	12809.259372
550.932864	12752.974889
551.291237	12951.064509
551.649555	12838.170389
552.007817	12887.949262
552.366022	12810.408755
552.724173	12862.806508
553.082267	12944.788272
553.440305	13038.399978
553.798288	12861.762989
554.156215	12932.518104
554.514086	12982.559117
554.871902	12919.090990
555.229661	12940.468003
555.587365	12902.346798
555.945014	12916.517481
556.302606	12902.366962
556.660143	12951.550980
557.017625	12984.139519
557.375050	12949.771453
557.732421	13041.777552
558.089735	13040.081203
558.446994	13021.320549
558.804197	13133.234165
559.161345	13135.011171
559.518437	12944.695011
559.875474	13044.940876
560.232455	13068.336871
560.589381	13111.789096
560.946251	13053.528481
561.303065	13220.678019
561.659825	13168.018126
562.016528	13087.107607
562.373177	13027.097712
562.729770	13165.472343
563.086307	13046.964899
563.442789	13153.270231
563.799216	13190.514275
564.155587	13138.950833
564.511904	13151.183193
564.868164	13168.229855
565.224370	13230.833424
565.580520	13170.266481
565.936615	13238.604362
566.292654	13175.171523
566.648638	13242.274322
567.004567	13241.079569
567.360441	13249.301691
567.716260	13220.136095
568.072023	13305.500474
568.427732	13280.173717
568.783385	13180.280733
569.138982	13297.966469
569.494525	13286.323925
569.850013	13239.950350
570.205445	13238.886667
570.560823	13241.412285
570.916145	13192.472763
571.271412	13208.536400
571.626625	13159.143175
571.981782	13172.126667
572.336884	13122.723359
572.691931	13197.108104
573.046923	13091.208586
573.401860	13063.063824
573.756743	13064.377044
574.111570	13097.731839
574.466342	13068.480543
574.821059	13111.239610
575.175722	12986.939880
575.530330	13010.166996
575.884882	12948.082666
576.239380	12936.271243
576.593823	12918.339858
576.948211	12918.140733
577.302544	12799.560192
577.656823	12816.243890
578.011047	12875.633724
578.365216	12815.071822
578.719330	12747.233015
579.073389	12712.028117
579.427394	12735.867733
579.781344	12725.384654
580.135239	12656.585507
580.489080	12675.356243
580.842866	12562.850292
581.196597	12658.788491
581.550273	12642.949186
581.903895	12605.304369
582.257463	12709.043754
582.610975	12557.988099
582.964434	12619.689302
583.317837	12545.251624
583.671186	12499.722443
584.024481	12548.999722
584.377721	12432.430601
584.730906	12511.178465
585.084037	12524.146833
585.437113	12441.333279
585.790135	12475.514822
586.143103	12374.308618
586.496016	12388.446534
586.848874	12406.541755
587.201679	12404.643761
587.554428	12282.821758
587.907124	12330.511073
588.259765	12266.410281
588.612352	12336.295797
588.964884	12193.028725
589.317362	12242.600912
589.669786	12237.247206
590.022155	12198.599200
590.374470	12299.535703
590.726731	12181.794514
591.078937	12069.631362
591.431090	12093.904517
591.783188	12035.449818
592.135232	11949.500665
592.487222	12012.068946
592.839157	12027.492357
593.191038	11953.836058
593.542866	11904.949468
593.894639	11751.232085
594.246358	11811.055457
594.598022	11823.900317
594.949633	11726.583363
595.301190	11710.350848
595.652692	11664.917448
596.004141	11759.519742
596.355535	11540.968078
596.706876	11515.764830
597.058162	11493.699699
597.409395	11578.945611
597.760573	11606.193047
598.111698	11495.776655
598.462768	11493.805563
598.813785	11507.230156
599.164748	11371.938190
599.515657	11456.022115
599.866511	11331.828249
600.217312	11458.131838
600.568060	11223.723226
600.918753	11391.364276
601.269392	11390.003165
601.619978	11291.645212
601.970510	11340.030207
602.320988	11367.834691
602.671412	11444.006525
603.021783	11365.183044
603.372100	11296.323403
603.722363	11319.666466
604.072572	11319.326188
604.422728	11329.161479
604.772830	11274.540577
605.122878	11278.197934
605.472872	11251.739438
605.822813	11311.245218
606.172701	11260.717733
606.522534	11306.693056
606.872314	11351.118224
607.222041	11292.199739
607.571714	11364.212622
607.921333	11237.185627
608.270899	11296.426746
608.620411	11354.044614
608.969870	11303.015534
609.319276	11280.834458
609.668627	11298.082765
610.017926	11370.390556
610.367171	11402.996739
610.716362	11399.064639
611.065500	11379.247863
611.414585	11386.912937
611.763616	11449.022473
612.112594	11410.712225
612.461518	11433.379773
612.810389	11483.251908
613.159207	11432.343816
613.507971	11420.406363
613.856682	11528.823939
614.205340	11474.850825
614.553945	11617.936415
614.902496	11495.166675
615.250994	11558.246633
615.599439	11548.852443
615.947830	11588.420459
616.296169	11545.411855
616.644454	11566.370453
616.992686	11575.436968
617.340864	11670.709734
617.688990	11560.278218
618.037063	11696.086903
618.385082	11664.652788
618.733048	11709.662730
619.080961	11690.443331
619.428821	11668.663026
619.776628	11681.903616
620.124382	11626.294648
620.472083	11644.425158
620.819731	11669.343582
621.167326	11589.267373
621.514868	11575.104252
621.862357	11467.899074
622.209793	11466.122067
622.557176	11381.304654
622.904506	11325.007568
623.251783	11248.417318
623.599007	11193.562002
623.946179	11143.480659
624.293297	11121.349994
624.640363	10973.979423
624.987376	10967.241921
625.334336	10904.482076
625.681243	10822.187760
626.028097	10790.879674
626.374899	10749.398540
626.721647	10728.313914
627.068343	10684.229023
627.414987	10630.263471
627.761577	10560.551875
628.108115	10608.311767
628.454600	10483.187808
628.801032	10495.873872
629.147412	10478.870060
629.493739	10453.145052
629.840014	10370.112207
630.186236	10417.390668
630.532405	10317.170009
630.878521	10348.200831
631.224585	10311.075254
631.570597	10236.093132
631.916556	10236.093132
632.262462	10214.159071
632.608316	10195.264827
632.954117	10172.844295
633.299866	10150.128856
633.645562	10135.428851
633.991206	10032.538901
634.336797	9931.615001
634.682336	9923.430688
635.027823	9868.116627
635.373257	9832.218571
635.718639	9773.569787
636.063968	9740.482173
636.409245	9616.182443
636.754470	9607.002502
637.099642	9550.191219
637.444762	9446.114077
637.789829	9456.410634
638.134845	9376.672183
638.479808	9358.047640
