Dividing Wavelength (nm)	Counts (n)	Blue Motor Position (mm): 0.500000	Red Motor Position (mm): 0.000000	
326.493990	2159.158960
326.888308	2159.158960
327.282561	2159.158960
327.676750	2137.693727
328.070874	2135.992337
328.464933	2142.452576
328.858929	2151.299801
329.252859	2163.267500
329.646726	2176.369459
330.040528	2191.482838
330.434265	2208.605117
330.827938	2227.524568
331.221547	2246.136508
331.615091	2268.045362
332.008571	2285.651592
332.401986	2309.337453
332.795338	2329.809579
333.188625	2347.831704
333.581847	2367.706453
333.975006	2386.890564
334.368100	2407.176167
334.761129	2425.815834
335.154095	2439.066507
335.546996	2456.455967
335.939833	2468.461475
336.332606	2484.477220
336.725315	2493.301760
337.117960	2504.800632
337.510540	2510.454286
337.903056	2518.704134
338.295508	2528.083201
338.687896	2532.685775
339.080220	2542.533669
339.472480	2547.090872
339.864676	2549.621531
340.256807	2553.339382
340.648875	2556.210319
341.040879	2557.790721
341.432818	2558.471277
341.824694	2558.856925
342.216506	2561.806000
342.608253	2558.209137
342.999937	2558.375495
343.391557	2557.992367
343.783113	2554.120761
344.174605	2555.433981
344.566033	2553.341902
344.957397	2552.905843
345.348697	2551.201933
345.739934	2547.085831
346.131106	2546.901828
346.522215	2546.795964
346.913260	2543.032743
347.304241	2538.291538
347.695159	2539.743390
348.086012	2537.749614
348.476802	2536.383461
348.867528	2534.614016
349.258191	2535.397915
349.648789	2533.888090
350.039324	2534.248532
350.429796	2532.499252
350.820203	2530.112266
351.210548	2528.546987
351.600828	2531.009591
351.991045	2528.352903
352.381198	2527.034641
352.771288	2528.347862
353.161314	2527.561442
353.551276	2527.987419
353.941175	2529.683767
354.331010	2529.484642
354.720782	2529.116638
355.110490	2527.937008
355.500135	2528.708304
355.889717	2526.762419
356.279235	2527.473222
356.668689	2530.366844
357.058080	2528.287368
357.447408	2526.039013
357.836672	2526.775022
358.225873	2528.335259
358.615010	2526.528005
359.004084	2534.319108
359.393095	2531.566638
359.782043	2532.443799
360.170927	2531.044879
360.559748	2533.719211
360.948505	2532.796680
361.337199	2537.001002
361.725830	2534.823224
362.114398	2534.243491
362.502903	2535.065199
362.891344	2536.998482
363.279722	2537.369007
363.668037	2536.418749
364.056289	2537.363965
364.444478	2536.693492
364.832603	2537.116949
365.220665	2537.938657
365.608665	2538.339429
365.996601	2542.594162
366.384474	2537.679037
366.772284	2543.557023
367.160031	2541.412012
367.547715	2540.209697
367.935336	2542.989893
368.322893	2541.676672
368.710388	2541.328833
369.097820	2544.003165
369.485189	2541.351518
369.872495	2542.100129
370.259738	2540.973432
370.646918	2542.939482
371.034035	2539.975283
371.421090	2541.893442
371.808081	2541.482588
372.195010	2544.091385
372.581875	2545.608773
372.968678	2543.373021
373.355418	2543.219266
373.742096	2543.604914
374.128710	2543.415871
374.515262	2545.492826
374.901751	2544.560213
375.288177	2545.379400
375.674540	2545.190357
376.060841	2544.547610
376.447079	2549.117416
376.833254	2543.894780
377.219367	2543.201622
377.605417	2543.478885
377.991404	2544.565254
378.377329	2541.956457
378.763191	2541.941333
379.148991	2549.729916
379.534727	2547.922662
379.920402	2548.835111
380.306013	2548.323434
380.691563	2546.516180
381.077049	2547.763866
381.462474	2549.245965
381.847835	2548.731767
382.233134	2549.656819
382.618371	2551.753939
383.003545	2551.080945
383.388657	2550.201264
383.773706	2548.850234
384.158693	2553.001625
384.543618	2548.920811
384.928480	2554.582026
385.313280	2550.440718
385.698017	2550.758311
386.082692	2551.007848
386.467305	2551.912735
386.851856	2550.566747
387.236344	2551.055739
387.620770	2552.878116
388.005133	2551.965667
388.389435	2554.511450
388.773674	2554.095555
389.157851	2550.097920
389.541965	2550.256716
389.926018	2554.866852
390.310008	2552.681511
390.693936	2553.084804
391.077802	2556.411965
391.461606	2552.376522
391.845348	2554.302242
392.229027	2554.549259
392.612645	2553.026830
392.996200	2556.263251
393.379694	2558.067984
393.763125	2557.543704
394.146494	2556.568241
394.529801	2557.034548
394.913047	2560.704508
395.296230	2558.788869
395.679351	2556.149825
396.062410	2558.020093
396.445408	2557.546225
396.828343	2556.285936
397.211217	2552.888199
397.594028	2554.400545
397.976778	2554.690411
398.359466	2556.505227
398.742092	2552.862993
399.124656	2558.400700
399.507158	2555.620504
399.889598	2560.570917
400.271977	2558.740978
400.654294	2560.480176
401.036549	2558.335165
401.418742	2559.156873
401.800874	2559.429096
402.182944	2560.049158
402.564952	2557.969682
402.946898	2558.899775
403.328783	2560.235680
403.710606	2560.651576
404.092367	2564.190466
404.474067	2563.071329
404.855705	2560.359189
405.237282	2562.312636
405.618797	2562.746175
406.000250	2562.892368
406.381642	2560.631411
406.762972	2563.036041
407.144240	2560.155022
407.525447	2562.075702
407.906593	2559.945814
408.287677	2562.489076
408.668700	2563.368757
409.049661	2561.934549
409.430560	2558.221739
409.811399	2562.466391
410.192176	2562.718449
410.572891	2563.058727
410.953545	2562.350444
411.334138	2563.577965
411.714669	2562.559652
412.095139	2562.302553
412.475547	2561.926988
412.855894	2563.908161
413.236180	2564.530743
413.616405	2566.751372
413.996568	2564.477811
414.376670	2565.934705
414.756711	2563.797256
415.136691	2565.360013
415.516609	2564.303892
415.896466	2566.217009
416.276262	2563.512430
416.655997	2563.169632
417.035670	2561.705177
417.415283	2565.697771
417.794834	2563.893037
418.174324	2564.409756
418.553753	2563.041082
418.933121	2565.274314
419.312428	2568.437638
419.691674	2565.531412
420.070859	2565.745662
420.449983	2564.341700
420.829045	2563.545198
421.208047	2565.627194
421.586988	2568.669531
421.965867	2568.200703
422.344686	2569.440827
422.723444	2566.186763
423.102141	2568.044428
423.480777	2569.753379
423.859352	2565.919581
424.237866	2568.200703
424.616319	2568.122566
424.994712	2569.460992
425.373044	2567.056362
425.751314	2567.845302
426.129524	2568.132648
426.507673	2567.300857
426.885762	2569.501321
427.263789	2567.444530
427.641756	2568.609037
428.019662	2567.484860
428.397508	2568.520817
428.775292	2570.128945
429.153016	2572.273956
429.530679	2569.760941
429.908282	2567.447051
430.285824	2570.123904
430.663305	2569.181208
431.040726	2570.194480
431.418086	2570.479305
431.795385	2569.092988
432.172624	2569.929819
432.549802	2573.141034
432.926920	2569.886969
433.303977	2571.313616
433.680974	2572.001733
434.057910	2567.973852
434.434786	2569.266907
434.811601	2570.975859
435.188355	2568.001578
435.565050	2572.347052
435.941683	2570.804459
436.318257	2568.694737
436.694770	2565.163408
437.071222	2569.095508
437.447614	2568.755230
437.823946	2569.460992
438.200218	2573.176322
438.576429	2572.699933
438.952580	2572.989800
439.328670	2571.462330
439.704700	2571.404357
440.080670	2572.780592
440.456580	2572.311764
440.832429	2572.213462
441.208218	2573.062896
441.583947	2572.654563
441.959616	2572.510890
442.335224	2572.503328
442.710773	2571.663976
443.086261	2573.466189
443.461689	2570.789336
443.837057	2575.162537
444.212365	2573.675397
444.587612	2573.466189
444.962800	2572.485684
445.337927	2575.318813
445.712995	2573.478792
446.088002	2574.131621
446.462949	2574.277814
446.837837	2575.512897
447.212664	2574.920562
447.587431	2575.107084
447.962139	2576.009451
448.336786	2575.427197
448.711374	2574.847465
449.085901	2575.598597
449.460369	2573.877043
449.834776	2575.505335
450.209124	2572.001733
450.583412	2574.240006
450.957640	2573.420818
451.331808	2574.126580
451.705917	2573.206569
452.079965	2577.496591
452.453954	2575.659091
452.827883	2575.550706
453.201752	2574.124059
453.575562	2574.350911
453.949311	2574.882753
454.323001	2575.139852
454.696632	2577.317630
455.070202	2574.711354
455.443713	2575.805284
455.817164	2571.999213
456.190556	2571.752196
456.563888	2574.313102
456.937160	2572.291600
457.310373	2576.258988
457.683526	2576.753021
458.056619	2577.443659
458.429653	2577.967939
458.802628	2575.475088
459.175542	2576.168247
459.548398	2579.591191
459.921194	2574.960891
460.293930	2577.705799
460.666607	2578.267888
461.039224	2576.286714
461.411782	2577.884760
461.784280	2579.263516
462.156719	2579.308886
462.529099	2577.352918
462.901419	2577.635223
463.273680	2576.468196
463.645882	2577.385686
464.018024	2575.893504
464.390106	2578.288052
464.762130	2577.128587
465.134094	2577.531879
465.505999	2577.446180
465.877845	2578.020871
466.249631	2580.798547
466.621358	2577.063052
466.993026	2580.780903
467.364634	2581.660584
467.736184	2577.894842
468.107674	2579.704617
468.479105	2576.160685
468.850477	2578.376272
469.221790	2578.232600
469.593043	2579.747466
469.964238	2578.416602
470.335373	2577.201684
470.706449	2578.522466
471.077467	2578.283011
471.448425	2578.930799
471.819324	2576.697568
472.190164	2579.303845
472.560945	2579.170254
472.931667	2581.388362
473.302330	2578.812332
473.672934	2578.656057
474.043479	2580.309555
474.413965	2576.710171
474.784393	2575.601117
475.154761	2575.971642
475.525070	2575.868298
475.895321	2575.041549
476.265513	2572.120201
476.635645	2581.605132
477.005719	2580.972467
477.375734	2579.003896
477.745691	2579.717219
478.115588	2580.249061
478.485427	2580.327199
478.855207	2580.738053
479.224928	2580.181006
479.594591	2582.038671
479.964194	2580.924576
480.333739	2580.780903
480.703226	2581.748804
481.072653	2580.362487
481.442022	2578.966087
481.811333	2578.963567
482.180584	2579.775193
482.549777	2581.544638
482.918912	2579.553382
483.287988	2579.742425
483.657005	2581.045563
484.025964	2583.490523
484.394864	2579.775193
484.763706	2580.521283
485.132489	2583.382138
485.501213	2584.395410
485.869879	2580.468351
486.238487	2580.019689
486.607036	2580.846438
486.975527	2584.970102
487.343959	2579.465162
487.712333	2582.222673
488.080648	2581.141345
488.448905	2583.394741
488.817104	2580.407858
489.185244	2580.609504
489.553326	2580.359967
489.921350	2581.905080
490.289315	2580.906932
490.657222	2582.283167
491.025070	2580.339802
491.392861	2583.629155
491.760593	2582.109247
492.128267	2583.883733
492.495883	2581.158989
492.863440	2583.606470
493.230939	2582.303331
493.598380	2583.099834
493.965763	2580.261664
494.333088	2576.926941
494.700354	2579.422312
495.067563	2578.766962
495.434713	2577.531879
495.801805	2581.947930
496.168839	2581.910121
496.535815	2584.279464
496.902733	2581.655543
497.269593	2583.397262
497.636395	2580.450707
498.003139	2583.293918
498.369825	2582.421798
498.736453	2582.131932
499.103023	2581.647981
499.469535	2583.228383
499.835989	2581.980697
500.202385	2583.354412
500.568723	2583.707293
500.935003	2581.388362
501.301226	2581.814339
501.667390	2586.016141
502.033497	2583.246027
502.399546	2583.724937
502.765537	2581.521952
503.131470	2583.649319
503.497345	2584.559248
503.863163	2583.268712
504.228923	2583.089751
504.594625	2583.407344
504.960269	2584.513877
505.325856	2582.648650
505.691385	2582.116809
506.056856	2582.759556
506.422270	2584.713003
506.787625	2582.999011
507.152924	2581.748804
507.518164	2584.050091
507.883347	2582.900708
508.248472	2583.528332
508.613540	2581.342992
508.978550	2584.723085
509.343503	2583.185533
509.708398	2585.335585
510.073236	2586.608477
510.438016	2582.820050
510.802738	2585.711151
511.167403	2583.162848
511.532010	2586.734506
511.896561	2581.784092
512.261053	2583.520770
512.625488	2579.702096
512.989866	2580.561613
513.354186	2582.136973
513.718449	2577.032805
514.082655	2580.833835
514.446803	2582.620924
514.810894	2583.450194
515.174927	2586.311049
515.538904	2584.642427
515.902822	2584.702921
516.266684	2583.414906
516.630488	2583.001531
516.994235	2584.713003
517.357925	2583.929103
517.721558	2585.839701
518.085133	2583.288877
518.448651	2584.183682
518.812112	2582.686459
519.175516	2583.578743
519.538863	2582.257961
519.902152	2584.730647
520.265385	2585.955647
520.628560	2582.724268
520.991678	2584.632344
521.354739	2584.954978
521.717743	2585.131419
522.080690	2582.174782
522.443580	2584.776017
522.806413	2586.424475
523.169189	2584.556727
523.531908	2584.317272
523.894569	2585.524629
524.257174	2581.879874
524.619722	2585.075966
524.982213	2584.634865
525.344647	2582.557910
525.707025	2584.947417
526.069345	2585.479258
526.431608	2585.312900
526.793815	2583.427509
527.155964	2584.647468
527.518057	2585.703590
527.880093	2586.185020
528.242072	2585.368353
528.603995	2586.260637
528.965860	2586.926069
529.327669	2587.369691
529.689421	2583.442632
530.051117	2586.628641
530.412755	2582.136973
530.774337	2586.840370
531.135862	2585.817016
531.497331	2581.383321
531.858743	2578.376272
532.220098	2582.038671
532.581396	2581.879874
532.942638	2580.876685
533.303824	2583.044381
533.664953	2583.845924
534.026025	2584.914649
534.387040	2587.359609
534.747999	2586.300966
535.108902	2583.203177
535.469748	2584.854155
535.830537	2587.185689
536.191270	2583.354412
536.551947	2586.154773
536.912567	2583.399782
537.273131	2584.483630
537.633638	2585.819536
537.994089	2585.754001
538.354483	2585.199474
538.714821	2587.533528
539.075103	2585.950606
539.435328	2587.359609
539.795497	2583.248548
540.155609	2585.443970
540.515665	2584.496233
540.875665	2585.118816
541.235609	2585.015472
541.595496	2585.970771
541.955328	2585.002869
542.315102	2587.881368
542.674821	2582.951120
543.034483	2585.751481
543.394090	2582.628486
543.753640	2587.001687
544.113134	2586.726944
544.472571	2586.540421
544.831953	2585.985894
545.191278	2585.537232
545.550548	2585.287694
545.909761	2583.843404
546.268918	2586.696697
546.628019	2586.338775
546.987064	2587.034454
547.346053	2585.030596
547.704986	2584.549165
548.063863	2584.944896
548.422684	2588.975298
548.781449	2587.447829
549.140158	2586.550503
549.498811	2588.750967
549.857408	2586.540421
550.215949	2585.776686
550.574434	2583.787951
550.932864	2580.659915
551.291237	2580.990111
551.649555	2586.255596
552.007817	2585.640575
552.366022	2584.392890
552.724173	2585.106213
553.082267	2586.696697
553.440305	2582.741912
553.798288	2585.380956
554.156215	2583.475400
554.514086	2585.398600
554.871902	2584.957499
555.229661	2587.788107
555.587365	2586.696697
555.945014	2589.124012
556.302606	2587.520926
556.660143	2583.722416
557.017625	2585.242324
557.375050	2585.373394
557.732421	2586.530339
558.089735	2586.593353
558.446994	2586.104361
558.804197	2587.036975
559.161345	2588.307346
559.518437	2588.897161
559.875474	2588.541759
560.232455	2586.096800
560.589381	2586.656368
560.946251	2587.294074
561.303065	2585.706110
561.659825	2587.657037
562.016528	2584.614700
562.373177	2587.689804
562.729770	2586.338775
563.086307	2588.115782
563.442789	2585.998497
563.799216	2587.929259
564.155587	2585.527149
564.511904	2588.118302
564.868164	2585.774166
565.224370	2586.237952
565.580520	2586.626121
565.936615	2585.012952
566.292654	2585.028075
566.648638	2585.282653
567.004567	2584.740729
567.360441	2584.236614
567.716260	2586.971440
568.072023	2586.668971
568.427732	2584.445822
568.783385	2585.973291
569.138982	2583.654361
569.494525	2585.292736
569.850013	2581.980698
570.205445	2584.798702
570.560823	2585.070925
570.916145	2587.813312
571.271412	2586.447160
571.626625	2588.211564
571.981782	2586.689135
572.336884	2586.356419
572.691931	2582.878023
573.046923	2585.678384
573.401860	2585.713672
573.756743	2588.042685
574.111570	2586.701738
574.466342	2585.272571
574.821059	2588.496389
575.175722	2585.708631
575.530330	2585.759042
575.884882	2586.789958
576.239380	2586.174938
576.593823	2587.982191
576.948211	2587.165524
577.302544	2584.589495
577.656823	2588.763570
578.011047	2589.887747
578.365216	2587.150401
578.719330	2586.948755
579.073389	2585.960688
579.427394	2583.586305
579.781344	2586.253075
580.135239	2585.930442
580.489080	2587.825915
580.842866	2588.892119
581.196597	2585.196954
581.550273	2586.573189
581.903895	2585.451532
582.257463	2584.077817
582.610975	2587.367170
582.964434	2587.049578
583.317837	2588.382963
583.671186	2588.730802
584.024481	2582.943558
584.377721	2587.941862
584.730906	2587.410020
585.084037	2589.108889
585.437113	2587.493199
585.790135	2587.019331
586.143103	2587.508323
586.496016	2589.197109
586.848874	2584.513877
587.201679	2583.515729
587.554428	2584.009762
587.907124	2586.565627
588.259765	2580.153279
588.612352	2587.178127
588.964884	2587.289032
589.317362	2585.116295
589.669786	2586.149732
590.022155	2585.703590
590.374470	2585.282653
590.726731	2586.459763
591.078937	2587.120154
591.431090	2586.734506
591.783188	2588.221646
592.135232	2585.640575
592.487222	2587.039495
592.839157	2588.163673
593.191038	2586.248034
593.542866	2585.872468
593.894639	2586.210226
594.246358	2585.708631
594.598022	2585.612849
594.949633	2584.826429
595.301190	2587.145360
595.652692	2586.726944
596.004141	2587.256265
596.355535	2588.166193
596.706876	2584.380287
597.058162	2585.161666
597.409395	2584.246696
597.760573	2588.589650
598.111698	2583.853486
598.462768	2588.453539
598.813785	2588.193920
599.164748	2587.926738
599.515657	2585.161666
599.866511	2586.547983
600.217312	2586.064032
600.568060	2584.395410
600.918753	2588.080494
601.269392	2584.259299
601.619978	2586.684094
601.970510	2586.026223
602.320988	2585.408682
602.671412	2586.699217
603.021783	2584.589495
603.372100	2588.743405
603.722363	2586.530339
604.072572	2587.082345
604.422728	2586.966399
604.772830	2581.794175
605.122878	2585.186871
605.472872	2583.828280
605.822813	2581.511870
606.172701	2583.513208
606.522534	2589.219794
606.872314	2584.498754
607.222041	2588.819023
607.571714	2586.805082
607.921333	2586.225349
608.270899	2585.461614
608.620411	2585.396079
608.969870	2585.038157
609.319276	2586.288363
609.668627	2589.789445
610.017926	2589.539908
610.367171	2584.549165
610.716362	2587.583940
611.065500	2586.593353
611.414585	2585.650657
611.763616	2588.176276
612.112594	2587.258786
612.461518	2588.317428
612.810389	2585.421285
613.159207	2586.447160
613.507971	2587.140318
613.856682	2585.728795
614.205340	2585.872468
614.553945	2585.282653
614.902496	2583.185533
615.250994	2586.656368
615.599439	2587.581419
615.947830	2587.462952
616.296169	2587.561255
616.644454	2587.899012
616.992686	2587.513364
617.340864	2586.452201
617.688990	2586.147211
618.037063	2585.396079
618.385082	2585.096131
618.733048	2588.337593
619.080961	2584.713003
619.428821	2586.779876
619.776628	2586.127047
620.124382	2588.037644
620.472083	2586.532859
620.819731	2586.358940
621.167326	2585.010431
621.514868	2584.579412
621.862357	2585.033116
622.209793	2583.805595
622.557176	2588.992942
622.904506	2585.171748
623.251783	2585.048240
623.599007	2582.711665
623.946179	2583.956830
624.293297	2582.976325
624.640363	2584.947417
624.987376	2588.415730
625.334336	2586.260637
625.681243	2587.059660
626.028097	2585.678384
626.374899	2586.195102
626.721647	2585.428847
627.068343	2587.019331
627.414987	2586.588312
627.761577	2586.734506
628.108115	2589.519743
628.454600	2586.883220
628.801032	2587.646954
629.147412	2587.132757
629.493739	2584.408013
629.840014	2587.548652
630.186236	2587.203333
630.532405	2584.445822
630.878521	2584.864237
631.224585	2587.115113
631.570597	2586.984043
631.916556	2585.491861
632.262462	2584.970102
632.608316	2586.361460
632.954117	2588.715679
633.299866	2587.488158
633.645562	2587.906574
633.991206	2589.202150
634.336797	2586.416913
634.682336	2586.510174
635.027823	2584.609659
635.373257	2585.915318
635.718639	2585.794330
636.063968	2585.887592
636.409245	2587.956985
636.754470	2584.753332
637.099642	2583.545976
637.444762	2587.107551
637.789829	2587.946903
638.134845	2586.482448
638.479808	2587.616707
638.824719	2587.001687
639.169577	2587.571337
639.514383	2585.998497
639.859137	2583.629155
640.203839	2586.306007
640.548489	2586.679053
640.893086	2582.721747
641.237632	2581.189236
641.582125	2583.714854
641.926566	2581.199319
642.270955	2587.886409
642.615292	2582.704103
642.959576	2586.003538
643.303809	2586.782397
643.647990	2587.566296
643.992118	2583.480441
644.336195	2584.828949
