Dividing Wavelength (nm)	Counts (n)	Blue Motor Position (mm): 21.500000	Red Motor Position (mm): 0.000000	
326.493990	2156.073774
326.888308	2156.073774
327.282561	2156.073774
327.676750	2130.076543
328.070874	2133.466719
328.464933	2136.357821
328.858929	2147.891981
329.252859	2158.662406
329.646726	2173.606907
330.040528	2189.103414
330.434265	2207.485981
330.827938	2227.277551
331.221547	2243.124418
331.615091	2265.040835
332.008571	2283.887188
332.401986	2307.003399
332.795338	2326.668940
333.188625	2343.836590
333.581847	2365.924405
333.975006	2383.863351
334.368100	2403.470919
334.761129	2420.434402
335.154095	2435.270518
335.546996	2460.526698
335.939833	2485.901346
336.332606	2501.591938
336.725315	2511.391941
337.117960	2521.925432
337.510540	2526.449867
337.903056	2539.708102
338.295508	2547.894936
338.687896	2553.036913
339.080220	2561.642162
339.472480	2565.536454
339.864676	2570.933009
340.256807	2570.978379
340.648875	2573.708164
341.040879	2577.509194
341.432818	2578.046077
341.824694	2578.777044
342.216506	2578.348546
342.608253	2577.357959
342.999937	2577.685634
343.391557	2578.061200
343.783113	2574.187074
344.174605	2573.443503
344.566033	2571.469892
344.957397	2570.837227
345.348697	2567.661300
345.739934	2568.286403
346.131106	2564.036710
346.522215	2563.482183
346.913260	2562.496638
347.304241	2561.133006
347.695159	2559.741647
348.086012	2555.383570
348.476802	2557.195865
348.867528	2556.016235
349.258191	2551.529608
349.648789	2553.987170
350.039324	2549.830739
350.429796	2550.780996
350.820203	2547.322765
351.210548	2545.563402
351.600828	2548.028526
351.991045	2546.180943
352.381198	2547.431150
352.771288	2546.057435
353.161314	2546.682538
353.551276	2548.033567
353.941175	2546.528783
354.331010	2545.185316
354.720782	2546.317055
355.110490	2546.110367
355.500135	2544.035932
355.889717	2548.963660
356.279235	2546.170861
356.668689	2548.383928
357.058080	2547.784030
357.447408	2545.414688
357.836672	2545.573484
358.225873	2548.104144
358.615010	2544.930737
359.004084	2550.004659
359.393095	2550.859134
359.782043	2551.189330
360.170927	2550.521377
360.559748	2553.059598
360.948505	2553.059598
361.337199	2554.292160
361.725830	2552.943651
362.114398	2554.022458
362.502903	2554.249310
362.891344	2557.014383
363.279722	2555.227294
363.668037	2555.844835
364.056289	2554.932387
364.444478	2555.955741
364.832603	2554.947510
365.220665	2555.650751
365.608665	2555.391132
365.996601	2558.945145
366.384474	2559.865156
366.772284	2562.053016
367.160031	2558.738458
367.547715	2558.430947
367.935336	2558.045299
368.322893	2558.559497
368.710388	2561.811041
369.097820	2560.959086
369.485189	2561.022100
369.872495	2560.901113
370.259738	2560.487738
370.646918	2558.864487
371.034035	2561.886658
371.421090	2562.874724
371.808081	2562.665517
372.195010	2562.562173
372.581875	2562.342883
372.968678	2563.580486
373.355418	2562.539488
373.742096	2561.498489
374.128710	2562.781463
374.515262	2564.213151
374.901751	2563.830023
375.288177	2565.486042
375.674540	2566.814386
376.060841	2565.798594
376.447079	2566.033007
376.833254	2564.911351
377.219367	2563.399004
377.605417	2563.325908
377.991404	2563.439334
378.377329	2562.143757
378.763191	2563.298181
379.148991	2567.489901
379.534727	2568.354459
379.920402	2567.179870
380.306013	2566.627863
380.691563	2567.525189
381.077049	2566.650549
381.462474	2566.373285
381.847835	2568.389747
382.233134	2566.040569
382.618371	2568.112483
383.003545	2568.558625
383.388657	2566.660631
383.773706	2568.263718
384.158693	2567.933522
384.543618	2569.110632
384.928480	2573.506518
385.313280	2572.079871
385.698017	2569.506362
386.082692	2573.065417
386.467305	2571.008626
386.851856	2570.030642
387.236344	2569.826476
387.620770	2571.182546
388.005133	2571.815211
388.389435	2573.771178
388.773674	2572.662125
389.157851	2570.179356
389.541965	2573.130952
389.926018	2573.521641
390.310008	2573.551888
390.693936	2574.043401
391.077802	2570.146589
391.461606	2573.017526
391.845348	2571.487536
392.229027	2576.034657
392.612645	2575.127249
392.996200	2575.313772
393.379694	2576.201015
393.763125	2573.289748
394.146494	2574.625654
394.529801	2574.933164
394.913047	2574.857547
395.296230	2575.913669
395.679351	2574.570201
396.062410	2576.919379
396.445408	2577.259657
396.828343	2576.173288
397.211217	2574.151786
397.594028	2571.958884
397.976778	2573.125911
398.359466	2575.457444
398.742092	2573.972825
399.124656	2576.478278
399.507158	2575.966601
399.889598	2574.134142
400.271977	2576.982393
400.654294	2578.439287
401.036549	2575.971642
401.418742	2579.210583
401.800874	2580.062538
402.182944	2577.393248
402.564952	2580.811150
402.946898	2580.090265
403.328783	2579.739905
403.710606	2578.008268
404.092367	2579.255954
404.474067	2578.499781
404.855705	2579.276118
405.237282	2581.312745
405.618797	2583.102354
406.000250	2582.948599
406.381642	2579.197981
406.762972	2581.126222
407.144240	2581.411047
407.525447	2582.361305
407.906593	2580.249061
408.287677	2582.573033
408.668700	2583.571182
409.049661	2584.339957
409.430560	2580.009606
409.811399	2583.656881
410.192176	2582.361305
410.572891	2582.094123
410.953545	2582.575554
411.334138	2583.125039
411.714669	2583.210739
412.095139	2585.738878
412.475547	2584.007241
412.855894	2583.067066
413.236180	2585.312900
413.616405	2586.500092
413.996568	2583.898857
414.376670	2585.907756
414.756711	2585.670822
415.136691	2585.164186
415.516609	2584.387848
415.896466	2588.685432
416.276262	2585.733837
416.655997	2582.323496
417.035670	2582.875502
417.415283	2583.568661
417.794834	2584.264340
418.174324	2585.325503
418.553753	2587.349526
418.933121	2586.018662
419.312428	2585.176789
419.691674	2588.030082
420.070859	2589.673498
420.449983	2585.322982
420.829045	2587.568817
421.208047	2586.865576
421.586988	2587.964547
421.965867	2588.388004
422.344686	2586.817685
422.723444	2589.207192
423.102141	2588.705597
423.480777	2589.499578
423.859352	2589.018148
424.237866	2588.259455
424.616319	2590.245669
424.994712	2590.676688
425.373044	2591.800865
425.751314	2587.989753
426.129524	2591.072418
426.507673	2593.507296
426.885762	2587.992273
427.263789	2590.391863
427.641756	2587.168045
428.019662	2590.447315
428.397508	2590.860690
428.775292	2591.142995
429.153016	2590.762387
429.530679	2590.492686
429.908282	2588.572006
430.285824	2588.972778
430.663305	2591.437902
431.040726	2590.616194
431.418086	2588.819023
431.795385	2591.889085
432.172624	2593.716504
432.549802	2591.967223
432.926920	2591.188365
433.303977	2590.331369
433.680974	2594.709611
434.057910	2592.148705
434.434786	2593.787080
434.811601	2591.649631
435.188355	2591.614342
435.565050	2593.381267
435.941683	2592.521750
436.318257	2591.662233
436.694770	2590.038982
437.071222	2588.050247
437.447614	2591.211050
437.823946	2589.791965
438.200218	2591.107707
438.576429	2596.491659
438.952580	2594.457553
439.328670	2597.139447
439.704700	2594.765064
440.080670	2596.121134
440.456580	2596.572317
440.832429	2594.865887
441.208218	2592.947728
441.583947	2596.237081
441.959616	2594.223140
442.335224	2596.121134
442.710773	2594.749940
443.086261	2597.141968
443.461689	2594.313880
443.837057	2599.745724
444.212365	2594.949066
444.587612	2597.139447
444.962800	2596.027873
445.337927	2598.729931
445.712995	2598.218254
446.088002	2596.199272
446.462949	2597.331011
446.837837	2598.646752
447.212664	2594.775146
447.587431	2598.152719
447.962139	2599.634818
448.336786	2599.284458
448.711374	2598.803028
449.085901	2598.669437
449.460369	2600.985848
449.834776	2601.187494
450.209124	2598.082143
450.583412	2600.703543
450.957640	2600.403594
451.331808	2602.404932
451.705917	2602.488111
452.079965	2601.542895
452.453954	2601.583224
452.827883	2601.363934
453.201752	2601.127000
453.575562	2600.741352
453.949311	2602.162957
454.323001	2601.316043
454.696632	2605.018771
455.070202	2600.459047
455.443713	2605.653956
455.817164	2601.462237
456.190556	2602.873760
456.563888	2601.832761
456.937160	2598.124993
457.310373	2602.624222
457.683526	2605.336363
458.056619	2601.260590
458.429653	2605.018771
458.802628	2607.894749
459.175542	2603.329984
459.548398	2607.917434
459.921194	2606.347115
460.293930	2607.859461
460.666607	2607.506580
461.039224	2609.951540
461.411782	2609.853237
461.784280	2610.536313
462.156719	2610.443052
462.529099	2611.567229
462.901419	2610.604369
463.273680	2610.248968
463.645882	2610.352311
464.018024	2610.745521
464.390106	2610.995058
464.762130	2612.633433
465.134094	2614.120574
465.505999	2614.869185
465.877845	2618.874382
466.249631	2620.719444
466.621358	2620.835391
466.993026	2624.139867
467.364634	2625.102727
467.736184	2620.870679
468.107674	2619.499485
468.479105	2622.521657
468.850477	2621.276492
469.221790	2621.420165
469.593043	2619.224742
469.964238	2621.243724
470.335373	2621.604167
470.706449	2622.761112
471.077467	2623.681122
471.448425	2624.845629
471.819324	2628.059364
472.190164	2633.670168
472.560945	2629.128089
472.931667	2630.259828
473.302330	2627.824951
473.672934	2626.862090
474.043479	2628.966772
474.413965	2629.435599
474.784393	2627.310753
475.154761	2630.148922
475.525070	2629.599437
475.895321	2634.285189
476.265513	2634.756537
476.635645	2641.075623
477.005719	2640.024543
477.375734	2642.961015
477.745691	2648.087868
478.115588	2654.124650
478.485427	2655.294198
478.855207	2663.329797
479.224928	2668.834737
479.594591	2677.523166
479.964194	2680.704134
480.333739	2681.246058
480.703226	2688.742254
481.072653	2693.783407
481.442022	2700.896476
481.811333	2707.233206
482.180584	2708.110367
482.549777	2712.208825
482.918912	2719.475648
483.287988	2722.200392
483.657005	2728.869838
484.025964	2733.492576
484.394864	2742.478433
484.763706	2746.105543
485.132489	2751.050915
485.501213	2757.856473
485.869879	2768.757968
486.238487	2772.614451
486.607036	2785.739095
486.975527	2795.821402
487.343959	2805.018988
487.712333	2817.886533
488.080648	2829.410611
488.448905	2843.407374
488.817104	2855.483458
489.185244	2875.794267
489.553326	2902.051117
489.921350	2936.643515
490.289315	2984.801657
490.657222	3013.979856
491.025070	3042.545554
491.392861	3057.323697
491.760593	3066.518761
492.128267	3072.258115
492.495883	3075.907910
492.863440	3081.848910
493.230939	3088.967019
493.598380	3098.623349
493.965763	3114.003910
494.333088	3128.719038
494.700354	3148.084630
495.067563	3169.839730
495.434713	3192.245138
495.801805	3220.500805
496.168839	3244.022829
496.535815	3268.275820
496.902733	3300.786222
497.269593	3322.417813
497.636395	3348.883870
498.003139	3389.094634
498.369825	3411.522728
498.736453	3452.197277
499.103023	3475.409270
499.469535	3506.959332
499.835989	3544.208417
500.202385	3570.911409
500.568723	3613.073099
500.935003	3655.340654
501.301226	3686.714275
501.667390	3745.385744
502.033497	3799.550421
502.399546	3824.630162
502.765537	3848.787371
503.131470	3905.190321
503.497345	3961.371460
503.863163	3967.413283
504.228923	4026.210781
504.594625	4092.690997
504.960269	4118.597487
505.325856	4194.461811
505.691385	4216.531982
506.056856	4279.543885
506.422270	4344.473946
506.787625	4379.779667
507.152924	4444.755099
507.518164	4502.468749
507.883347	4527.021689
508.248472	4589.857151
508.613540	4677.225388
508.978550	4743.211572
509.343503	4796.514212
509.708398	4864.615159
510.073236	4952.764775
510.438016	5015.398591
510.802738	5049.469229
511.167403	5137.664216
511.532010	5224.127566
511.896561	5308.342562
512.261053	5426.028298
512.625488	5465.944154
512.989866	5527.544534
513.354186	5584.093677
513.718449	5647.161032
514.082655	5765.615545
514.446803	5815.190252
514.810894	5918.813690
515.174927	5981.931456
515.538904	6046.198606
515.902822	6174.879099
516.266684	6193.780906
516.630488	6299.768645
516.994235	6366.130394
517.357925	6485.343600
517.721558	6578.786428
518.085133	6678.719741
518.448651	6764.540344
518.812112	6816.023128
519.175516	6892.225209
519.538863	7003.942220
519.902152	7080.718993
520.265385	7198.334153
520.628560	7289.485776
520.991678	7336.776841
521.354739	7433.796367
521.717743	7546.302318
522.080690	7610.566947
522.443580	7759.384329
522.806413	7837.219745
523.169189	7912.756394
523.531908	8011.973863
523.894569	8072.838234
524.257174	8150.466962
524.619722	8287.157849
524.982213	8344.692538
525.344647	8421.577696
525.707025	8496.229622
526.069345	8621.978684
526.431608	8687.508643
526.793815	8803.598855
527.155964	8815.654774
527.518057	8899.847084
527.880093	8951.163510
528.242072	9085.137215
528.603995	9111.898180
528.965860	9183.265795
529.327669	9273.328529
529.689421	9320.518770
530.051117	9393.565089
530.412755	9483.186722
530.774337	9549.228358
531.135862	9591.327034
531.497331	9687.613072
531.858743	9728.857273
532.220098	9851.558957
532.581396	9865.601091
532.942638	9878.856805
533.303824	9982.661725
533.664953	10030.681236
534.026025	10056.247448
534.387040	10191.796513
534.747999	10227.029137
535.108902	10317.134721
535.469748	10287.986769
535.830537	10360.004693
536.191270	10451.000041
536.551947	10448.769330
536.912567	10553.799250
537.273131	10624.014961
537.633638	10587.196894
537.994089	10677.448671
538.354483	10655.814560
538.714821	10805.856942
539.075103	10922.917576
539.435328	10914.992882
539.795497	10939.180338
540.155609	10988.835703
540.515665	11112.553180
540.875665	11039.521985
541.235609	11166.450677
541.595496	11180.465084
541.955328	11352.887669
542.315102	11282.089705
542.674821	11267.220822
543.034483	11321.123359
543.394090	11360.830007
543.753640	11378.358099
544.113134	11611.428286
544.472571	11456.662342
544.831953	11727.455483
545.191278	11605.943510
545.550548	11585.728483
545.909761	11712.752957
546.268918	11773.952565
546.628019	11869.794982
546.987064	11812.356075
547.346053	11709.362781
547.704986	11906.176989
548.063863	11833.801143
548.422684	11904.193295
548.781449	11896.061914
549.140158	12013.911488
549.498811	11988.214206
549.857408	11903.623645
550.215949	12099.918614
550.574434	12102.754263
550.932864	12073.422309
551.291237	12264.237544
551.649555	12191.647449
552.007817	12262.541196
552.366022	12210.728217
552.724173	12267.736105
553.082267	12354.864887
553.440305	12471.242444
553.798288	12331.698265
554.156215	12415.809917
554.514086	12480.235863
554.871902	12445.429216
555.229661	12481.939773
555.587365	12449.855349
555.945014	12474.814102
556.302606	12471.537352
556.660143	12543.986294
557.017625	12593.634098
557.375050	12572.728433
557.732421	12687.056761
558.089735	12693.942977
558.446994	12680.573837
558.804197	12811.727016
559.161345	12812.614259
559.518437	12637.560192
559.875474	12750.020773
560.232455	12788.996454
560.589381	12847.574661
560.946251	12790.440744
561.303065	12974.606697
561.659825	12940.450359
562.016528	12863.635777
562.373177	12814.623159
562.729770	12941.294752
563.086307	12835.211232
563.442789	12951.240949
563.799216	12990.892145
564.155587	12945.388169
564.511904	12978.276657
564.868164	12996.729801
565.224370	13051.501937
565.580520	13005.468641
565.936615	13075.533118
566.292654	13004.664577
566.648638	13087.780601
567.004567	13101.406840
567.360441	13097.071448
567.716260	13080.929673
568.072023	13168.683558
568.427732	13156.307526
568.783385	13051.285168
569.138982	13165.941171
569.494525	13182.760981
569.850013	13123.658493
570.205445	13120.235549
570.560823	13131.885656
570.916145	13087.533584
571.271412	13107.466307
571.626625	13063.174729
571.981782	13059.318246
572.336884	13014.736802
572.691931	13107.040329
573.046923	12993.258966
573.401860	12973.011172
573.756743	12975.103251
574.111570	13006.837314
574.466342	12986.516423
574.821059	13042.702603
575.175722	12909.974064
575.530330	12926.536775
575.884882	12865.001930
576.239380	12873.466027
576.593823	12839.100482
576.948211	12848.040968
577.302544	12732.036456
577.656823	12743.782345
578.011047	12808.848518
578.365216	12743.764701
578.719330	12704.121067
579.073389	12670.078155
579.427394	12681.193899
579.781344	12674.912622
580.135239	12605.155655
580.489080	12622.603089
580.842866	12497.963080
581.196597	12598.156013
581.550273	12589.762492
581.903895	12547.817571
582.257463	12661.543482
582.610975	12510.447498
582.964434	12564.574367
583.317837	12492.180877
583.671186	12448.963065
584.024481	12495.371927
584.377721	12390.074826
584.730906	12456.567646
585.084037	12486.504538
585.437113	12396.182184
585.790135	12430.106629
586.143103	12338.105571
586.496016	12349.675019
586.848874	12364.001979
587.201679	12359.790095
587.554428	12230.156823
587.907124	12283.711521
588.259765	12230.063562
588.612352	12292.606637
588.964884	12153.397694
589.317362	12203.763863
589.669786	12194.452851
590.022155	12153.697643
590.374470	12259.675300
590.726731	12148.081798
591.078937	12032.684745
591.431090	12055.851367
591.783188	11984.095584
592.135232	11908.785786
592.487222	11969.032616
592.839157	11985.297899
593.191038	11918.938670
593.542866	11861.789630
593.894639	11724.612272
594.246358	11782.444389
594.598022	11788.808845
594.949633	11695.897859
595.301190	11677.220384
595.652692	11638.527008
596.004141	11724.123280
596.355535	11504.240752
596.706876	11486.037145
597.058162	11452.276538
597.409395	11550.339583
597.760573	11575.888151
598.111698	11479.352575
598.462768	11476.456432
598.813785	11479.372740
599.164748	11357.699451
599.515657	11431.549834
599.866511	11313.359982
600.217312	11436.220463
600.568060	11204.244207
600.918753	11369.606656
601.269392	11364.941068
601.619978	11280.017791
601.970510	11312.641618
602.320988	11353.994203
602.671412	11425.825604
603.021783	11345.424241
603.372100	11285.842844
603.722363	11297.941613
604.072572	11297.001438
604.422728	11309.243880
604.772830	11250.552246
605.122878	11252.185580
605.472872	11233.866027
605.822813	11288.005499
606.172701	11253.967628
606.522534	11295.282404
606.872314	11342.752430
607.222041	11273.365988
607.571714	11350.780467
607.921333	11213.063706
608.270899	11273.950762
608.620411	11336.488796
608.969870	11285.442072
609.319276	11258.630695
609.668627	11282.540888
610.017926	11359.264729
610.367171	11389.572146
610.716362	11371.784435
611.065500	11350.777947
611.414585	11365.513239
611.763616	11434.695514
612.112594	11390.517362
612.461518	11419.708164
612.810389	11468.745988
613.159207	11414.263717
613.507971	11405.154352
613.856682	11510.786690
614.205340	11462.308434
614.553945	11598.772469
614.902496	11473.504837
615.250994	11537.910618
615.599439	11528.569360
615.947830	11566.035216
616.296169	11529.683455
616.644454	11538.513036
616.992686	11555.463916
617.340864	11649.055458
617.688990	11542.911443
618.037063	11672.602688
618.385082	11639.444498
618.733048	11682.443020
619.080961	11657.484267
619.428821	11642.794345
619.776628	11659.084833
620.124382	11612.285282
620.472083	11622.619647
620.819731	11652.130562
621.167326	11568.475134
621.514868	11546.105014
621.862357	11456.518669
622.209793	11447.242946
622.557176	11372.185206
622.904506	11309.385032
623.251783	11230.753115
623.599007	11171.902685
623.946179	11117.841351
624.293297	11106.188724
624.640363	10961.237907
624.987376	10957.328492
625.334336	10886.681762
625.681243	10803.255707
626.028097	10776.310739
626.374899	10729.559079
626.721647	10707.037724
627.068343	10665.415437
627.414987	10602.123751
627.761577	10532.568430
628.108115	10588.041287
628.454600	10455.728643
628.801032	10477.531633
629.147412	10450.926944
629.493739	10421.148848
629.840014	10346.330563
630.186236	10392.842769
630.532405	10298.071597
630.878521	10322.929527
631.224585	10289.894846
631.570597	10212.485408
631.916556	10218.693589
632.262462	10194.236431
632.608316	10180.400984
632.954117	10158.792078
633.299866	10139.618050
633.645562	10124.124063
633.991206	10013.183391
634.336797	9915.937013
634.682336	9907.419983
635.027823	9858.233445
635.373257	9815.701230
635.718639	9747.910314
636.063968	9721.391324
636.409245	9601.237943
636.754470	9592.554555
637.099642	9540.774343
637.444762	9441.314898
637.789829	9449.032905
638.134845	9371.885607
638.479808	9350.508594
638.824719	9315.243203
639.169577	9229.271365
639.514383	9232.288495
639.859137	9162.718052
640.203839	9194.769708
