Dividing Wavelength (nm)	Counts (n)	Blue Motor Position (mm): 3.000000	Red Motor Position (mm): 0.000000	
326.493990	2161.432520
326.888308	2161.432520
327.282561	2161.432520
327.676750	2137.025774
328.070874	2137.635753
328.464933	2143.158338
328.858929	2150.364667
329.252859	2162.576862
329.646726	2177.231496
330.040528	2190.335976
330.434265	2211.123174
330.827938	2231.854919
331.221547	2252.037178
331.615091	2270.671803
332.008571	2289.530760
332.401986	2310.859882
332.795338	2328.927377
333.188625	2349.575943
333.581847	2369.937164
333.975006	2389.194372
334.368100	2406.946795
334.761129	2428.623756
335.154095	2440.372165
335.546996	2458.086780
335.939833	2472.804429
336.332606	2485.251038
336.725315	2496.891062
337.117960	2501.183604
337.510540	2511.517970
337.903056	2519.919053
338.295508	2529.963552
338.687896	2532.322812
339.080220	2542.601724
339.472480	2549.253527
339.864676	2550.181099
340.256807	2556.946328
340.648875	2559.020762
341.040879	2561.422872
341.432818	2561.455640
341.824694	2562.746175
342.216506	2560.885989
342.608253	2560.124775
342.999937	2561.659806
343.391557	2560.127296
343.783113	2560.775084
344.174605	2557.697459
344.566033	2555.895247
344.957397	2556.996739
345.348697	2553.321738
345.739934	2549.616490
346.131106	2548.719164
346.522215	2546.720347
346.913260	2544.023330
347.304241	2545.419729
347.695159	2539.065355
348.086012	2540.149203
348.476802	2539.357742
348.867528	2539.912269
349.258191	2535.682741
349.648789	2534.903882
350.039324	2533.454551
350.429796	2534.051927
350.820203	2531.488501
351.210548	2528.552028
351.600828	2531.201155
351.991045	2528.458767
352.381198	2529.550177
352.771288	2529.076308
353.161314	2530.717204
353.551276	2526.790145
353.941175	2529.817358
354.331010	2529.013294
354.720782	2529.514889
355.110490	2531.458254
355.500135	2529.900537
355.889717	2529.240146
356.279235	2530.147554
356.668689	2529.532533
357.058080	2533.454551
357.447408	2526.959024
357.836672	2529.797193
358.225873	2529.451874
358.615010	2530.170239
359.004084	2532.970600
359.393095	2532.728624
359.782043	2532.658048
360.170927	2534.336753
360.559748	2534.818183
360.948505	2538.830941
361.337199	2537.089222
361.725830	2535.544109
362.114398	2534.745086
362.502903	2536.668286
362.891344	2541.018802
363.279722	2536.413708
363.668037	2540.350849
364.056289	2536.764068
364.444478	2540.522248
364.832603	2541.386806
365.220665	2540.005530
365.608665	2538.765406
365.996601	2541.485109
366.384474	2540.582742
366.772284	2541.270860
367.160031	2541.951415
367.547715	2543.839327
367.935336	2541.966539
368.322893	2542.962167
368.710388	2542.924358
369.097820	2546.858979
369.485189	2542.301776
369.872495	2541.452341
370.259738	2543.962836
370.646918	2541.580891
371.034035	2544.847558
371.421090	2544.058618
371.808081	2544.053577
372.195010	2545.875954
372.581875	2546.347302
372.968678	2545.419729
373.355418	2545.129863
373.742096	2548.071376
374.128710	2548.220090
374.515262	2548.819988
374.901751	2547.201777
375.288177	2545.928886
375.674540	2546.369987
376.060841	2546.927034
376.447079	2548.096582
376.833254	2547.206818
377.219367	2544.368649
377.605417	2546.904349
377.991404	2545.092054
378.377329	2544.668597
378.763191	2544.988711
379.148991	2549.755122
379.534727	2546.415357
379.920402	2548.797302
380.306013	2547.776469
380.691563	2548.721685
381.077049	2549.230842
381.462474	2551.887530
381.847835	2552.805020
382.233134	2549.598846
382.618371	2551.653116
383.003545	2550.274360
383.388657	2551.456511
383.773706	2550.589433
384.158693	2554.065308
384.543618	2554.486244
384.928480	2549.911397
385.313280	2554.024979
385.698017	2553.488096
386.082692	2554.773590
386.467305	2554.390463
386.851856	2551.365770
387.236344	2555.118909
387.620770	2555.340720
388.005133	2553.155380
388.389435	2555.680998
388.773674	2555.257541
389.157851	2552.832746
389.541965	2554.297201
389.926018	2555.494475
390.310008	2552.784855
390.693936	2556.076728
391.077802	2554.032541
391.461606	2557.694939
391.845348	2555.116389
392.229027	2556.550597
392.612645	2557.306770
392.996200	2557.699980
393.379694	2558.544373
393.763125	2557.795762
394.146494	2555.088662
394.529801	2559.119065
394.913047	2556.719476
395.296230	2558.496482
395.679351	2558.917419
396.062410	2559.088818
396.445408	2557.820968
396.828343	2556.275854
397.211217	2555.045812
397.594028	2555.834753
397.976778	2555.131512
398.359466	2557.861297
398.742092	2556.089331
399.124656	2559.111503
399.507158	2557.427758
399.889598	2562.504200
400.271977	2557.793241
400.654294	2558.655279
401.036549	2561.440516
401.418742	2559.784497
401.800874	2560.092008
402.182944	2562.287430
402.564952	2558.758622
402.946898	2560.517985
403.328783	2561.866494
403.710606	2562.640311
404.092367	2559.398849
404.474067	2562.378171
404.855705	2562.005125
405.237282	2563.462019
405.618797	2563.683830
406.000250	2563.830023
406.381642	2564.470250
406.762972	2564.603840
407.144240	2564.084601
407.525447	2564.578634
407.906593	2561.929508
408.287677	2564.205589
408.668700	2562.819272
409.049661	2566.247256
409.430560	2565.115517
409.811399	2563.250290
410.192176	2563.426731
410.572891	2566.017884
410.953545	2564.961762
411.334138	2567.840261
411.714669	2566.448903
412.095139	2567.212637
412.475547	2562.680640
412.855894	2564.598799
413.236180	2566.552246
413.616405	2565.770867
413.996568	2563.961093
414.376670	2567.646177
414.756711	2568.291444
415.136691	2568.132648
415.516609	2565.682647
415.896466	2565.773388
416.276262	2569.408060
416.655997	2564.354303
417.035670	2563.824982
417.415283	2565.188614
417.794834	2561.795917
418.174324	2564.664334
418.553753	2570.002916
418.933121	2567.988975
419.312428	2570.224727
419.691674	2567.910837
420.070859	2563.913202
420.449983	2567.013512
420.829045	2567.068964
421.208047	2567.994016
421.586988	2568.719942
421.965867	2571.089285
422.344686	2569.518965
422.723444	2567.409242
423.102141	2567.857905
423.480777	2569.206414
423.859352	2569.120714
424.237866	2567.890672
424.616319	2568.271280
424.994712	2571.616085
425.373044	2572.215982
425.751314	2572.399985
426.129524	2570.749007
426.507673	2570.043245
426.885762	2570.746486
427.263789	2575.568350
427.641756	2569.980231
428.019662	2570.711198
428.397508	2571.081723
428.775292	2572.052145
429.153016	2569.198852
429.530679	2569.614747
429.908282	2571.051476
430.285824	2569.332442
430.663305	2570.905283
431.040726	2571.916034
431.418086	2571.048955
431.795385	2572.823442
432.172624	2570.965776
432.549802	2572.468040
432.926920	2571.469892
433.303977	2571.744635
433.680974	2571.860581
434.057910	2573.120870
434.434786	2572.515931
434.811601	2569.960066
435.188355	2573.352763
435.565050	2573.851837
435.941683	2574.928123
436.318257	2570.171795
436.694770	2568.573749
437.071222	2570.958215
437.447614	2570.640622
437.823946	2569.491239
438.200218	2572.931826
438.576429	2572.836044
438.952580	2575.540623
439.328670	2573.602300
439.704700	2572.654563
440.080670	2573.007444
440.456580	2575.588514
440.832429	2572.992320
441.208218	2572.190777
441.583947	2574.555078
441.959616	2574.721436
442.335224	2573.975345
442.710773	2575.938875
443.086261	2577.214287
443.461689	2574.048442
443.837057	2575.298648
444.212365	2575.346539
444.587612	2575.490212
444.962800	2575.223031
445.337927	2576.208576
445.712995	2574.371076
446.088002	2575.253278
446.462949	2574.852506
446.837837	2576.243864
447.212664	2577.078175
447.587431	2573.509038
447.962139	2577.985583
448.336786	2579.424833
448.711374	2576.649677
449.085901	2576.316961
449.460369	2576.498443
449.834776	2578.766962
450.209124	2574.567681
450.583412	2575.555747
450.957640	2576.929461
451.331808	2574.459296
451.705917	2576.455593
452.079965	2578.202353
452.453954	2579.298804
452.827883	2578.570357
453.201752	2578.091447
453.575562	2575.107084
453.949311	2579.664287
454.323001	2577.451221
454.696632	2578.691345
455.070202	2580.347364
455.443713	2576.881570
455.817164	2576.647157
456.190556	2574.151786
456.563888	2575.104564
456.937160	2574.441652
457.310373	2580.914493
457.683526	2577.867116
458.056619	2578.545151
458.429653	2577.547003
458.802628	2578.978690
459.175542	2579.092116
459.548398	2579.026581
459.921194	2579.540779
460.293930	2578.734194
460.666607	2580.425502
461.039224	2579.339133
461.411782	2580.697724
461.784280	2580.735533
462.156719	2576.352249
462.529099	2579.487847
462.901419	2579.664287
463.273680	2578.935841
463.645882	2578.424163
464.018024	2580.347364
464.390106	2580.768300
464.762130	2578.290573
465.134094	2579.066911
465.505999	2581.748804
465.877845	2579.442477
466.249631	2581.262333
466.621358	2580.692683
466.993026	2584.007241
467.364634	2585.186871
467.736184	2580.392734
468.107674	2581.703434
468.479105	2579.260995
468.850477	2580.342322
469.221790	2581.025399
469.593043	2581.002714
469.964238	2582.010944
470.335373	2580.886767
470.706449	2584.680235
471.077467	2579.571026
471.448425	2581.587487
471.819324	2580.475913
472.190164	2581.108578
472.560945	2580.508681
472.931667	2580.483475
473.302330	2583.223342
473.672934	2584.229052
474.043479	2582.162179
474.413965	2580.307034
474.784393	2579.702096
475.154761	2579.142528
475.525070	2578.794688
475.895321	2578.451890
476.265513	2578.126735
476.635645	2583.190574
477.005719	2582.441963
477.375734	2583.397262
477.745691	2578.749318
478.115588	2580.002045
478.485427	2580.569174
478.855207	2584.667632
479.224928	2582.058835
479.594591	2583.571182
479.964194	2582.315934
480.333739	2583.535893
480.703226	2583.954309
481.072653	2583.109916
481.442022	2583.119998
481.811333	2583.919021
482.180584	2585.693507
482.549777	2583.563620
482.918912	2582.441963
483.287988	2582.235276
483.657005	2582.951120
484.025964	2581.872313
484.394864	2581.567323
484.763706	2585.189392
485.132489	2581.562282
485.501213	2584.350040
485.869879	2583.606470
486.238487	2582.346181
486.607036	2581.257292
486.975527	2582.613362
487.343959	2584.614700
487.712333	2582.278126
488.080648	2585.731316
488.448905	2583.404823
488.817104	2583.924062
489.185244	2583.200657
489.553326	2580.549010
489.921350	2585.925400
490.289315	2588.035123
490.657222	2584.317272
491.025070	2583.954309
491.392861	2585.537232
491.760593	2583.871130
492.128267	2584.473548
492.495883	2583.210739
492.863440	2582.220152
493.230939	2582.923393
493.598380	2586.096800
493.965763	2581.539597
494.333088	2579.565985
494.700354	2581.980697
495.067563	2582.331058
495.434713	2578.454410
495.801805	2582.706624
496.168839	2585.534711
496.535815	2585.411203
496.902733	2583.755184
497.269593	2585.839701
497.636395	2581.915162
498.003139	2582.799885
498.369825	2583.964392
498.736453	2584.854155
499.103023	2584.937334
499.469535	2585.343147
499.835989	2583.881213
500.202385	2586.747108
500.568723	2582.862899
500.935003	2583.482961
501.301226	2582.399113
501.667390	2586.492530
502.033497	2586.066553
502.399546	2584.221490
502.765537	2583.840883
503.131470	2584.448342
503.497345	2584.652509
503.863163	2584.942375
504.228923	2583.745101
504.594625	2586.313569
504.960269	2585.713672
505.325856	2583.724937
505.691385	2585.469176
506.056856	2588.640062
506.422270	2585.764083
506.787625	2584.443301
507.152924	2587.609146
507.518164	2585.449011
507.883347	2584.004721
508.248472	2586.812643
508.613540	2586.706779
508.978550	2586.858014
509.343503	2586.159814
509.708398	2587.326841
510.073236	2583.891295
510.438016	2585.590164
510.802738	2585.930442
511.167403	2586.666450
511.532010	2584.702921
511.896561	2584.042529
512.261053	2588.645103
512.625488	2582.086562
512.989866	2584.186202
513.354186	2582.099165
513.718449	2582.510019
514.082655	2582.212591
514.446803	2584.934814
514.810894	2584.798702
515.174927	2587.868765
515.538904	2586.245514
515.902822	2584.912128
516.266684	2583.404823
516.630488	2585.837180
516.994235	2584.972622
517.357925	2585.096131
517.721558	2584.977663
518.085133	2584.682756
518.448651	2587.745257
518.812112	2586.852973
519.175516	2587.707448
519.538863	2588.940010
519.902152	2588.902202
520.265385	2584.420616
520.628560	2586.923549
520.991678	2588.151070
521.354739	2587.324321
521.717743	2587.311718
522.080690	2587.611666
522.443580	2586.215267
522.806413	2585.461614
523.169189	2588.279619
523.531908	2587.750298
523.894569	2584.385328
524.257174	2586.472366
524.619722	2585.123857
524.982213	2587.105030
525.344647	2585.791810
525.707025	2586.447160
526.069345	2585.227201
526.431608	2587.888930
526.793815	2586.303487
527.155964	2587.377253
527.518057	2589.071080
527.880093	2587.152921
528.242072	2584.377766
528.603995	2589.282809
528.965860	2588.057808
529.327669	2587.316759
529.689421	2586.550503
530.051117	2589.766760
530.412755	2588.445977
530.774337	2584.448342
531.135862	2587.223498
531.497331	2584.970102
531.858743	2583.024216
532.220098	2584.874320
532.581396	2584.781058
532.942638	2585.322982
533.303824	2588.390525
533.664953	2585.035637
534.026025	2587.178127
534.387040	2587.301635
534.747999	2588.756008
535.108902	2587.450349
535.469748	2588.433374
535.830537	2587.304156
536.191270	2588.319948
536.551947	2588.345154
536.912567	2586.744588
537.273131	2588.612335
537.633638	2588.340113
537.994089	2590.709455
538.354483	2583.384659
538.714821	2588.128385
539.075103	2586.442119
539.435328	2590.217943
539.795497	2587.672160
540.155609	2587.962027
540.515665	2585.338106
540.875665	2587.901533
541.235609	2586.084197
541.595496	2589.255082
541.955328	2587.563775
542.315102	2588.803899
542.674821	2586.389187
543.034483	2588.950093
543.394090	2586.915987
543.753640	2591.460587
544.113134	2589.179465
544.472571	2588.120823
544.831953	2586.994125
545.191278	2586.469845
545.550548	2588.496389
545.909761	2587.752819
546.268918	2586.101841
546.628019	2587.699887
546.987064	2584.501274
547.346053	2589.466811
547.704986	2586.694176
548.063863	2589.093766
548.422684	2589.398755
548.781449	2587.077304
549.140158	2586.532859
549.498811	2589.902871
549.857408	2588.945052
550.215949	2586.704259
550.574434	2587.087386
550.932864	2585.128898
551.291237	2583.392221
551.649555	2588.350195
552.007817	2587.299115
552.366022	2586.822726
552.724173	2588.093097
553.082267	2587.646954
553.440305	2590.197778
553.798288	2588.352716
554.156215	2587.841039
554.514086	2588.451018
554.871902	2587.543611
555.229661	2589.870103
555.587365	2587.218456
555.945014	2588.168714
556.302606	2588.977819
556.660143	2589.696183
557.017625	2587.442788
557.375050	2587.352047
557.732421	2586.739547
558.089735	2585.885071
558.446994	2589.865062
558.804197	2587.624269
559.161345	2585.063363
559.518437	2589.577716
559.875474	2587.969588
560.232455	2588.952613
560.589381	2587.956985
560.946251	2589.454208
561.303065	2589.935638
561.659825	2587.339444
562.016528	2587.682242
562.373177	2586.472366
562.729770	2589.209712
563.086307	2586.245514
563.442789	2589.401276
563.799216	2589.343303
564.155587	2587.231059
564.511904	2588.554362
564.868164	2588.637541
565.224370	2588.569486
565.580520	2587.606625
565.936615	2587.715010
566.292654	2587.329362
566.648638	2588.146029
567.004567	2585.607808
567.360441	2586.348857
567.716260	2588.892119
568.072023	2589.108889
568.427732	2584.581933
568.783385	2584.944896
569.138982	2584.836511
569.494525	2583.780389
569.850013	2585.897674
570.205445	2588.904722
570.560823	2588.556883
570.916145	2586.666450
571.271412	2587.382294
571.626625	2589.865062
571.981782	2589.199630
572.336884	2593.023345
572.691931	2588.168714
573.046923	2589.365988
573.401860	2588.083014
573.756743	2588.209043
574.111570	2588.970257
574.466342	2590.391863
574.821059	2588.375401
575.175722	2587.994794
575.530330	2588.451018
575.884882	2590.056626
576.239380	2586.689135
576.593823	2588.466142
576.948211	2586.553024
577.302544	2587.604105
577.656823	2588.849270
578.011047	2588.692994
578.365216	2585.998497
578.719330	2589.250041
579.073389	2588.506471
579.427394	2587.899012
579.781344	2588.730802
580.135239	2587.689804
580.489080	2588.201481
580.842866	2586.505133
581.196597	2590.870772
581.550273	2586.409351
581.903895	2585.358271
582.257463	2589.429002
582.610975	2587.145360
582.964434	2589.058477
583.317837	2590.568303
583.671186	2590.137284
584.024481	2588.748447
584.377721	2588.335072
584.730906	2587.387335
585.084037	2589.623087
585.437113	2590.049064
585.790135	2587.697366
586.143103	2589.759198
586.496016	2585.363312
586.848874	2587.291553
587.201679	2585.587643
587.554428	2583.248548
587.907124	2586.212746
588.259765	2583.954309
588.612352	2586.769794
588.964884	2589.060998
589.317362	2588.332551
589.669786	2590.328848
590.022155	2589.267685
590.374470	2586.852973
590.726731	2589.151739
591.078937	2588.062850
591.431090	2588.902202
591.783188	2588.680391
592.135232	2588.536718
592.487222	2589.209712
592.839157	2590.580906
593.191038	2588.753488
593.542866	2587.692325
593.894639	2588.960175
594.246358	2588.367839
594.598022	2587.541090
594.949633	2590.192737
595.301190	2588.327510
595.652692	2587.341965
596.004141	2589.620566
596.355535	2590.369177
596.706876	2586.863055
597.058162	2587.173086
597.409395	2587.331882
597.760573	2588.894640
598.111698	2588.549321
598.462768	2589.915474
598.813785	2587.528487
599.164748	2588.030082
599.515657	2587.021851
599.866511	2589.887747
600.217312	2589.907912
600.568060	2588.753488
600.918753	2589.882706
601.269392	2588.824064
601.619978	2589.804568
601.970510	2589.502099
602.320988	2588.995463
602.671412	2588.186358
603.021783	2586.500092
603.372100	2588.307346
603.722363	2589.290371
604.072572	2590.159970
604.422728	2591.500917
604.772830	2583.684607
605.122878	2584.627303
605.472872	2584.942375
605.822813	2584.201326
606.172701	2585.554876
606.522534	2586.051429
606.872314	2585.688466
607.222041	2588.123343
607.571714	2587.004207
607.921333	2589.058477
608.270899	2586.689135
608.620411	2587.725092
608.969870	2590.492686
609.319276	2590.081832
609.668627	2592.955289
610.017926	2586.873137
610.367171	2587.195771
610.716362	2589.885227
611.065500	2589.335741
611.414585	2588.113261
611.763616	2587.588981
612.112594	2590.318766
612.461518	2587.800710
612.810389	2587.500761
613.159207	2587.614187
613.507971	2588.997984
613.856682	2588.577047
614.205340	2587.200812
614.553945	2589.580237
614.902496	2590.147367
615.250994	2589.272727
615.599439	2590.827923
615.947830	2588.987901
616.296169	2587.034454
616.644454	2589.481934
616.992686	2587.412541
617.340864	2589.305494
617.688990	2591.037130
618.037063	2586.255596
618.385082	2590.543097
618.733048	2590.611153
619.080961	2587.120154
619.428821	2589.345823
619.776628	2588.758529
620.124382	2590.654003
620.472083	2588.816502
620.819731	2589.103848
621.167326	2587.112592
621.514868	2589.653334
621.862357	2586.369022
622.209793	2586.452201
622.557176	2589.149218
622.904506	2585.098651
623.251783	2582.666294
623.599007	2585.017993
623.946179	2583.782910
624.293297	2584.680235
624.640363	2588.176276
624.987376	2589.597881
625.334336	2588.226687
625.681243	2588.841708
626.028097	2591.372367
626.374899	2585.464135
626.721647	2588.216605
627.068343	2588.635021
627.414987	2587.278950
627.761577	2589.101327
628.108115	2587.518405
628.454600	2587.203333
628.801032	2586.674012
629.147412	2586.036306
629.493739	2588.075452
629.840014	2585.784248
630.186236	2587.785586
630.532405	2588.577047
630.878521	2588.183837
631.224585	2590.424630
631.570597	2588.052767
631.916556	2588.423292
632.262462	2585.847262
632.608316	2591.190886
632.954117	2587.974629
633.299866	2589.882706
633.645562	2588.188878
633.991206	2588.627459
634.336797	2588.929928
634.682336	2589.696183
635.027823	2589.983529
635.373257	2585.393559
635.718639	2585.580081
636.063968	2589.812130
636.409245	2587.747777
636.754470	2586.817685
637.099642	2586.046388
637.444762	2590.212902
637.789829	2586.716862
638.134845	2585.983374
638.479808	2588.607294
638.824719	2588.080494
639.169577	2588.627459
639.514383	2587.379773
639.859137	2587.709969
640.203839	2587.495720
640.548489	2586.908425
640.893086	2585.317941
641.237632	2586.941193
641.582125	2584.788620
641.926566	2583.304000
642.270955	2588.768611
642.615292	2588.360278
642.959576	2588.201481
643.303809	2588.851790
643.647990	2592.236925
643.992118	2589.570155
644.336195	2588.080494
