Dividing Wavelength (nm)	Counts (n)	Blue Motor Position (mm): 13.500000	Red Motor Position (mm): 0.000000	
326.493990	2157.013949
326.888308	2157.013949
327.282561	2157.013949
327.676750	2134.326236
328.070874	2131.979579
328.464933	2141.857720
328.858929	2146.856024
329.252859	2161.394712
329.646726	2175.164623
330.040528	2188.803465
330.434265	2207.977494
330.827938	2227.958107
331.221547	2244.737588
331.615091	2263.893972
332.008571	2285.775100
332.401986	2307.252936
332.795338	2327.498210
333.188625	2347.677949
333.581847	2367.585466
333.975006	2386.736809
334.368100	2403.670045
334.761129	2424.008580
335.154095	2441.425767
335.546996	2462.510392
335.939833	2482.352374
336.332606	2497.869046
336.725315	2508.354646
337.117960	2516.549041
337.510540	2526.099507
337.903056	2535.871784
338.295508	2538.931764
338.687896	2550.269319
339.080220	2557.485731
339.472480	2562.234498
339.864676	2565.133161
340.256807	2566.900086
340.648875	2570.867474
341.040879	2573.065417
341.432818	2574.492063
341.824694	2574.963411
342.216506	2575.429718
342.608253	2573.751014
342.999937	2572.430232
343.391557	2574.025757
343.783113	2571.444686
344.174605	2570.630540
344.566033	2568.243553
344.957397	2567.331104
345.348697	2565.775908
345.739934	2564.850857
346.131106	2562.287430
346.522215	2562.325239
346.913260	2556.525391
347.304241	2556.543035
347.695159	2555.686039
348.086012	2551.975750
348.476802	2552.051367
348.867528	2552.736964
349.258191	2550.191181
349.648789	2548.714123
350.039324	2547.320244
350.429796	2548.240255
350.820203	2545.913762
351.210548	2547.169010
351.600828	2543.405788
351.991045	2543.219266
352.381198	2543.501570
352.771288	2541.921168
353.161314	2543.922507
353.551276	2539.899666
353.941175	2541.366642
354.331010	2541.240613
354.720782	2542.453010
355.110490	2542.856302
355.500135	2542.185829
355.889717	2543.405788
356.279235	2541.220448
356.668689	2544.459389
357.058080	2543.962836
357.447408	2540.398740
357.836672	2541.467465
358.225873	2540.933102
358.615010	2543.819163
359.004084	2546.443083
359.393095	2547.398382
359.782043	2547.269833
360.170927	2551.469114
360.559748	2550.957437
360.948505	2550.710420
361.337199	2548.457024
361.725830	2549.838301
362.114398	2550.377704
362.502903	2548.293187
362.891344	2553.525905
363.279722	2552.328631
363.668037	2549.782848
364.056289	2552.288301
364.444478	2555.048333
364.832603	2553.004145
365.220665	2554.398024
365.608665	2551.950544
365.996601	2552.991542
366.384474	2555.333158
366.772284	2556.222922
367.160031	2553.704866
367.547715	2552.719320
367.935336	2555.796944
368.322893	2554.713096
368.710388	2555.088662
369.097820	2556.006152
369.485189	2555.212171
369.872495	2556.376677
370.259738	2553.616645
370.646918	2555.018086
371.034035	2556.744681
371.421090	2555.529763
371.808081	2556.601008
372.195010	2553.891388
372.581875	2557.707542
372.968678	2561.725341
373.355418	2557.578992
373.742096	2561.140567
374.128710	2560.722152
374.515262	2561.987481
374.901751	2559.729044
375.288177	2562.778942
375.674540	2558.806513
376.060841	2559.088818
376.447079	2562.415979
376.833254	2564.576114
377.219367	2560.326421
377.605417	2556.820299
377.991404	2558.083108
378.377329	2558.090669
378.763191	2556.298539
379.148991	2560.535629
379.534727	2564.424879
379.920402	2563.519992
380.306013	2562.751216
380.691563	2562.680640
381.077049	2561.536298
381.462474	2563.232646
381.847835	2559.996226
382.233134	2564.989488
382.618371	2564.591237
383.003545	2565.914540
383.388657	2568.442679
383.773706	2564.389591
384.158693	2565.816238
384.543618	2564.606361
384.928480	2565.498645
385.313280	2565.284396
385.698017	2567.038717
386.082692	2564.157698
386.467305	2568.498132
386.851856	2564.810528
387.236344	2566.832030
387.620770	2566.801783
388.005133	2565.460836
388.389435	2568.203224
388.773674	2567.774726
389.157851	2565.831361
389.541965	2569.211455
389.926018	2567.794891
390.310008	2570.335632
390.693936	2569.692885
391.077802	2565.763306
391.461606	2569.879408
391.845348	2568.155333
392.229027	2566.627863
392.612645	2568.213306
392.996200	2572.016857
393.379694	2571.114490
393.763125	2566.418656
394.146494	2569.448389
394.529801	2572.475602
394.913047	2572.382341
395.296230	2572.344532
395.679351	2569.297154
396.062410	2571.732032
396.445408	2569.914696
396.828343	2571.462330
397.211217	2567.404201
397.594028	2568.591393
397.976778	2568.916547
398.359466	2571.936198
398.742092	2568.001578
399.124656	2572.412587
399.507158	2574.295458
399.889598	2572.795715
400.271977	2574.512228
400.654294	2574.252609
401.036549	2572.462999
401.418742	2571.694223
401.800874	2574.466858
402.182944	2576.972311
402.564952	2575.538103
402.946898	2574.794533
403.328783	2575.293607
403.710606	2574.025757
404.092367	2577.438618
404.474067	2576.034657
404.855705	2575.475088
405.237282	2574.509707
405.618797	2573.859399
406.000250	2574.580284
406.381642	2574.744121
406.762972	2577.506673
407.144240	2576.221179
407.525447	2579.681931
407.906593	2578.993814
408.287677	2575.026426
408.668700	2576.798391
409.049661	2580.191088
409.430560	2575.727146
409.811399	2578.464493
410.192176	2575.240675
410.572891	2577.816704
410.953545	2579.344174
411.334138	2578.333423
411.714669	2578.812332
412.095139	2578.030953
412.475547	2579.752507
412.855894	2576.301838
413.236180	2579.248392
413.616405	2577.360480
413.996568	2579.974318
414.376670	2577.700758
414.756711	2580.438104
415.136691	2580.901891
415.516609	2581.133784
415.896466	2581.637899
416.276262	2582.028588
416.655997	2575.631364
417.035670	2574.638257
417.415283	2575.724626
417.794834	2576.503484
418.174324	2577.201684
418.553753	2580.606983
418.933121	2579.772672
419.312428	2581.995821
419.691674	2583.336768
420.070859	2580.826273
420.449983	2577.559606
420.829045	2583.392221
421.208047	2582.512539
421.586988	2578.708989
421.965867	2584.264340
422.344686	2580.317117
422.723444	2584.902046
423.102141	2582.958681
423.480777	2584.181161
423.859352	2581.640420
424.237866	2585.280133
424.616319	2582.772159
424.994712	2585.489341
425.373044	2583.331727
425.751314	2581.557241
426.129524	2583.137642
426.507673	2584.581933
426.885762	2584.168558
427.263789	2581.244689
427.641756	2584.927252
428.019662	2583.089751
428.397508	2583.656881
428.775292	2585.824577
429.153016	2582.613362
429.530679	2586.285843
429.908282	2586.101841
430.285824	2586.515215
430.663305	2585.685946
431.040726	2584.985225
431.418086	2582.613362
431.795385	2583.790472
432.172624	2582.441963
432.549802	2585.554876
432.926920	2583.619072
433.303977	2584.833991
433.680974	2585.887592
434.057910	2584.498754
434.434786	2583.387179
434.811601	2584.912128
435.188355	2586.116964
435.565050	2582.515060
435.941683	2586.875658
436.318257	2584.413054
436.694770	2586.260637
437.071222	2580.990111
437.447614	2582.615883
437.823946	2581.194278
438.200218	2586.716862
438.576429	2585.229721
438.952580	2587.533528
439.328670	2586.482448
439.704700	2585.391038
440.080670	2587.906574
440.456580	2589.416399
440.832429	2590.565782
441.208218	2585.103692
441.583947	2588.246852
441.959616	2589.146698
442.335224	2585.373394
442.710773	2587.649475
443.086261	2589.925556
443.461689	2585.310380
443.837057	2586.363981
444.212365	2588.660226
444.587612	2589.187027
444.962800	2588.440936
445.337927	2589.814651
445.712995	2590.580906
446.088002	2590.220463
446.462949	2588.909763
446.837837	2587.137798
447.212664	2590.459918
447.587431	2587.979671
447.962139	2587.185689
448.336786	2590.538056
448.711374	2588.234249
449.085901	2592.148705
449.460369	2588.632500
449.834776	2588.617377
450.209124	2587.314238
450.583412	2591.397573
450.957640	2589.930597
451.331808	2590.404466
451.705917	2586.038826
452.079965	2587.412541
452.453954	2591.238777
452.827883	2589.575196
453.201752	2589.665937
453.575562	2590.936307
453.949311	2589.648293
454.323001	2590.260793
454.696632	2590.923704
455.070202	2590.089393
455.443713	2590.429671
455.817164	2587.712489
456.190556	2588.806420
456.563888	2588.025041
456.937160	2584.849114
457.310373	2590.313725
457.683526	2589.776842
458.056619	2593.255238
458.429653	2591.067377
458.802628	2592.920001
459.175542	2591.780701
459.548398	2592.826740
459.921194	2590.875813
460.293930	2589.239959
460.666607	2592.713314
461.039224	2594.462594
461.411782	2590.694332
461.784280	2592.544435
462.156719	2590.994281
462.529099	2593.547625
462.901419	2594.765064
463.273680	2593.257759
463.645882	2591.952100
464.018024	2592.776328
464.390106	2595.541401
464.762130	2594.853284
465.134094	2595.760692
465.505999	2596.804210
465.877845	2595.763212
466.249631	2593.187182
466.621358	2594.029055
466.993026	2597.966196
467.364634	2596.771443
467.736184	2595.201123
468.107674	2594.271031
468.479105	2594.823037
468.850477	2593.807244
469.221790	2592.773808
469.593043	2596.468974
469.964238	2593.605598
470.335373	2593.416555
470.706449	2594.782708
471.077467	2594.654158
471.448425	2596.108531
471.819324	2596.847060
472.190164	2598.903851
472.560945	2595.579210
472.931667	2597.194900
473.302330	2595.085177
473.672934	2594.568459
474.043479	2596.640373
474.413965	2594.840681
474.784393	2592.264651
475.154761	2592.231884
475.525070	2590.870772
475.895321	2593.040989
476.265513	2591.596698
476.635645	2595.193562
477.005719	2596.262286
477.375734	2595.155753
477.745691	2598.535847
478.115588	2597.787235
478.485427	2598.208172
478.855207	2598.384612
479.224928	2595.548963
479.594591	2596.597523
479.964194	2596.398397
480.333739	2597.338573
480.703226	2597.383943
481.072653	2599.410487
481.442022	2599.932246
481.811333	2599.786053
482.180584	2599.198758
482.549777	2599.009715
482.918912	2599.118100
483.287988	2599.781012
483.657005	2598.636670
484.025964	2600.761516
484.394864	2597.726742
484.763706	2597.431834
485.132489	2599.743203
485.501213	2599.546598
485.869879	2597.928388
486.238487	2598.319077
486.607036	2599.009715
486.975527	2598.074581
487.343959	2601.043821
487.712333	2601.242946
488.080648	2601.714294
488.448905	2599.249170
488.817104	2600.040631
489.185244	2599.402925
489.553326	2600.234716
489.921350	2601.605909
490.289315	2602.757813
490.657222	2602.299068
491.025070	2603.859305
491.392861	2604.373503
491.760593	2606.039604
492.128267	2601.552977
492.495883	2603.108173
492.863440	2602.611620
493.230939	2604.527258
493.598380	2605.485077
493.965763	2600.890066
494.333088	2599.912082
494.700354	2599.145826
495.067563	2603.302258
495.434713	2598.107349
495.801805	2604.134048
496.168839	2604.502052
496.535815	2605.308637
496.902733	2604.948194
497.269593	2606.289141
497.636395	2605.043976
498.003139	2604.136569
498.369825	2601.958790
498.736453	2606.823504
499.103023	2606.715119
499.469535	2606.309306
499.835989	2607.345263
500.202385	2609.651591
500.568723	2605.086826
500.935003	2609.250819
501.301226	2608.514811
501.667390	2607.272166
502.033497	2611.179061
502.399546	2607.176384
502.765537	2609.192846
503.131470	2611.935234
503.497345	2606.624378
503.863163	2609.868361
504.228923	2609.644029
504.594625	2610.266612
504.960269	2609.858278
505.325856	2609.822990
505.691385	2611.668052
506.056856	2610.677466
506.422270	2611.988166
506.787625	2611.332816
507.152924	2612.444390
507.518164	2612.275512
507.883347	2614.324741
508.248472	2614.077724
508.613540	2613.669391
508.978550	2612.764503
509.343503	2614.279370
509.708398	2619.789351
510.073236	2615.922786
510.438016	2617.409927
510.802738	2615.794237
511.167403	2617.871192
511.532010	2616.598301
511.896561	2616.192488
512.261053	2620.122067
512.625488	2616.300873
512.989866	2617.276336
513.354186	2615.065790
513.718449	2614.317179
514.082655	2618.085441
514.446803	2620.903446
514.810894	2621.402521
515.174927	2623.010649
515.538904	2622.161214
515.902822	2621.831019
516.266684	2620.699280
516.630488	2623.091307
516.994235	2626.252111
517.357925	2622.272120
517.721558	2627.111627
518.085133	2625.627007
518.448651	2625.795886
518.812112	2625.909312
519.175516	2625.359826
519.538863	2626.032820
519.902152	2625.069960
520.265385	2628.071967
520.628560	2627.328397
520.991678	2628.724797
521.354739	2627.136833
521.717743	2629.543984
522.080690	2628.974334
522.443580	2629.924591
522.806413	2630.859725
523.169189	2628.860908
523.531908	2631.449540
523.894569	2630.463995
524.257174	2631.081536
524.619722	2633.355096
524.982213	2631.487349
525.344647	2631.608337
525.707025	2635.840385
526.069345	2633.660086
526.431608	2634.249901
526.793815	2634.575056
527.155964	2633.967597
527.518057	2633.095477
527.880093	2636.631846
528.242072	2634.627988
528.603995	2639.275932
528.965860	2638.358442
529.327669	2636.364665
529.689421	2634.902731
530.051117	2637.337608
530.412755	2637.743421
530.774337	2637.340128
531.135862	2638.739049
531.497331	2637.524131
531.858743	2636.263842
532.220098	2635.961373
532.581396	2634.834675
532.942638	2635.590848
533.303824	2639.999337
533.664953	2640.541261
534.026025	2640.102681
534.387040	2639.422125
534.747999	2641.670480
535.108902	2639.598565
535.469748	2638.590335
535.830537	2640.823566
536.191270	2640.818525
536.551947	2643.197949
536.912567	2641.007568
537.273131	2644.818680
537.633638	2641.279790
537.994089	2640.533699
538.354483	2643.371869
538.714821	2643.780202
539.075103	2644.821201
539.435328	2646.900677
539.795497	2644.415388
540.155609	2646.167189
540.515665	2646.850265
540.875665	2647.540903
541.235609	2648.723054
541.595496	2645.829432
541.955328	2648.591984
542.315102	2649.597694
542.674821	2650.250523
543.034483	2650.598363
543.394090	2650.477375
543.753640	2651.142808
544.113134	2653.789413
544.472571	2653.648261
544.831953	2653.040802
545.191278	2655.082469
545.550548	2656.695639
545.909761	2657.393838
546.268918	2658.936432
546.628019	2659.193530
546.987064	2661.746875
547.346053	2661.406597
547.704986	2660.907523
548.063863	2662.233346
548.422684	2664.239725
548.781449	2663.695281
549.140158	2667.148471
549.498811	2669.600992
549.857408	2670.089984
550.215949	2669.258194
550.574434	2668.721311
550.932864	2673.172650
551.291237	2672.514779
551.649555	2675.789009
552.007817	2678.344874
552.366022	2682.841583
552.724173	2680.903259
553.082267	2686.267047
553.440305	2687.108920
553.798288	2689.291739
554.156215	2691.681246
554.514086	2693.123016
554.871902	2693.889272
555.229661	2698.917823
555.587365	2700.248687
555.945014	2702.066023
556.302606	2704.639532
556.660143	2705.814121
557.017625	2709.473999
557.375050	2713.665718
557.732421	2714.240410
558.089735	2719.599156
558.446994	2722.674260
558.804197	2726.369426
559.161345	2727.758264
559.518437	2728.494272
559.875474	2732.239850
560.232455	2738.422825
560.589381	2740.172105
560.946251	2744.754514
561.303065	2749.205853
561.659825	2753.306832
562.016528	2753.604260
562.373177	2758.569796
562.729770	2764.840992
563.086307	2766.315529
563.442789	2771.765016
563.799216	2777.080913
564.155587	2778.396654
564.511904	2787.324538
564.868164	2792.116154
565.224370	2795.065229
565.580520	2801.618729
565.936615	2804.719039
566.292654	2810.952426
566.648638	2817.989877
567.004567	2821.153201
567.360441	2828.155363
567.716260	2834.295489
568.072023	2841.332939
568.427732	2846.958867
568.783385	2852.015144
569.138982	2858.803058
569.494525	2865.590972
569.850013	2872.593134
570.205445	2882.826677
570.560823	2891.096690
570.916145	2896.684809
571.271412	2906.318454
571.626625	2915.868920
571.981782	2923.735640
572.336884	2930.682350
572.691931	2940.880604
573.046923	2945.160544
573.401860	2955.721761
573.756743	2963.901033
574.111570	2972.362610
574.466342	2981.592963
574.821059	2993.709376
575.175722	2995.869511
575.530330	3007.867457
575.884882	3015.779548
576.239380	3025.140970
576.593823	3036.402908
576.948211	3048.720968
577.302544	3052.700958
577.656823	3063.796538
578.011047	3080.061821
578.365216	3090.330651
578.719330	3095.938935
579.073389	3110.240688
579.427394	3120.665795
579.781344	3133.288844
580.135239	3143.078765
580.489080	3158.108965
580.842866	3164.952331
581.196597	3188.358408
581.550273	3196.507434
581.903895	3210.680638
582.257463	3232.433217
582.610975	3240.065523
582.964434	3260.411620
583.317837	3272.520472
583.671186	3282.759055
584.024481	3302.795121
584.377721	3315.549241
584.730906	3336.333918
585.084037	3354.852597
585.437113	3365.277703
585.790135	3383.002400
586.143103	3392.043709
586.496016	3413.244282
586.848874	3427.513268
587.201679	3447.506484
587.554428	3456.663740
587.907124	3478.023108
588.259765	3493.204543
588.612352	3524.154707
588.964884	3531.308105
589.317362	3555.450190
589.669786	3575.554312
590.022155	3592.346395
590.374470	3623.452835
590.726731	3628.728403
591.078937	3640.877583
591.431090	3661.773166
591.783188	3674.499559
592.135232	3687.334337
592.487222	3712.313254
592.839157	3734.116244
593.191038	3750.187443
593.542866	3765.860390
593.894639	3767.070267
594.246358	3801.297181
594.598022	3823.238803
594.949633	3832.345648
595.301190	3851.451621
595.652692	3867.197665
596.004141	3903.461205
596.355535	3894.981984
596.706876	3914.501332
597.058162	3933.100669
597.409395	3967.917398
597.760573	3997.377901
598.111698	4003.026514
598.462768	4030.543652
598.813785	4056.873599
599.164748	4061.307294
599.515657	4097.417079
599.866511	4101.570989
600.217312	4147.258967
600.568060	4132.354795
600.918753	4187.010985
601.269392	4211.395047
601.619978	4218.009040
601.970510	4254.207046
602.320988	4289.487561
602.671412	4329.673119
603.021783	4341.355993
603.372100	4358.077500
603.722363	4387.593456
604.072572	4410.122372
604.422728	4443.310809
604.772830	4458.686328
605.122878	4488.053570
605.472872	4509.049975
605.822813	4549.313671
606.172701	4569.442998
606.522534	4612.403712
606.872314	4653.035412
607.222041	4670.445036
607.571714	4715.870874
607.921333	4711.124627
608.270899	4755.620372
608.620411	4801.630983
608.969870	4815.852078
609.319276	4846.000698
609.668627	4881.492942
610.017926	4930.308955
610.367171	4972.556345
610.716362	5005.893496
611.065500	5022.042832
611.414585	5063.332403
611.763616	5113.691009
612.112594	5138.541377
612.461518	5175.810627
612.810389	5225.014809
613.159207	5243.609105
613.507971	5270.579278
613.856682	5337.271223
614.205340	5354.995920
614.553945	5431.429895
614.902496	5426.542496
615.250994	5479.646011
615.599439	5514.553480
615.947830	5557.332712
616.296169	5580.713583
616.644454	5625.259739
616.992686	5664.409340
617.340864	5728.207663
617.688990	5728.316047
618.037063	5803.903108
618.385082	5832.453683
618.733048	5880.158122
619.080961	5915.063071
619.428821	5945.025169
619.776628	5983.211909
620.124382	5994.052911
620.472083	6043.516712
620.819731	6083.498103
621.167326	6082.318473
621.514868	6115.126303
621.862357	6110.077587
622.209793	6133.897039
622.557176	6137.269571
622.904506	6140.143029
623.251783	6141.420961
623.599007	6152.715666
623.946179	6157.908055
624.293297	6186.567014
624.640363	6162.813097
624.987376	6185.445358
625.334336	6190.552047
625.681243	6191.252767
626.028097	6203.563265
626.374899	6220.231840
626.721647	6241.157669
627.068343	6252.908599
627.414987	6258.736173
627.761577	6258.602582
628.108115	6314.365306
628.454600	6284.864473
628.801032	6321.541388
629.147412	6344.559297
629.493739	6360.587645
629.840014	6354.200503
630.186236	6403.583646
630.532405	6387.736779
630.878521	6439.567402
631.224585	6443.774245
631.570597	6436.701507
631.916556	6468.261650
632.262462	6488.605227
632.608316	6505.278843
632.954117	6515.502303
633.299866	6539.407454
633.645562	6554.256173
633.991206	6533.413522
634.336797	6504.089131
634.682336	6533.973091
635.027823	6526.817173
635.373257	6533.705909
635.718639	6528.248860
636.063968	6537.338061
636.409245	6498.077555
636.754470	6519.263004
637.099642	6512.954000
637.444762	6485.552808
637.789829	6515.114134
638.134845	6501.407237
638.479808	6508.452249
638.824719	6515.905595
639.169577	6491.876935
639.514383	6513.891654
639.859137	6499.378172
640.203839	6545.809720
640.548489	6525.239292
640.893086	6547.367436
641.237632	6527.701895
641.582125	6558.722635
641.926566	6580.197951
642.270955	6586.743889
642.615292	6607.281550
642.959576	6615.541480
643.303809	6637.619214
643.647990	6668.801271
643.992118	6666.797412
644.336195	6680.267375
