Dividing Wavelength (nm)	Counts (n)	Blue Motor Position (mm): 0.000000	Red Motor Position (mm): 16.600000	
326.493990	2130.174846
326.888308	2130.174846
327.282561	2130.174846
327.676750	2097.223344
328.070874	2096.021028
328.464933	2098.871801
328.858929	2103.718870
329.252859	2115.235386
329.646726	2126.540174
330.040528	2138.459982
330.434265	2156.840029
330.827938	2174.710919
331.221547	2190.046109
331.615091	2209.958667
332.008571	2229.717470
332.401986	2249.448546
332.795338	2269.494694
333.188625	2288.532612
333.581847	2307.235292
333.975006	2324.455874
334.368100	2345.490088
334.761129	2359.496934
335.154095	2378.827239
335.546996	2393.043293
335.939833	2407.234141
336.332606	2424.484969
336.725315	2438.569953
337.117960	2448.611931
337.510540	2455.745164
337.903056	2466.412246
338.295508	2473.243009
338.687896	2481.833135
339.080220	2488.464773
339.472480	2502.017915
339.864676	2500.155209
340.256807	2506.794408
340.648875	2509.846827
341.040879	2513.375635
341.432818	2511.316323
341.824694	2513.811695
342.216506	2515.792868
342.608253	2515.876047
342.999937	2515.593743
343.391557	2513.453773
343.783113	2513.975532
344.174605	2512.954698
344.566033	2509.201559
344.957397	2508.291631
345.348697	2504.898935
345.739934	2504.929182
346.131106	2502.050683
346.522215	2505.297186
346.913260	2500.316526
347.304241	2498.143788
347.695159	2497.395177
348.086012	2497.054899
348.476802	2492.883344
348.867528	2492.890906
349.258191	2490.062819
349.648789	2491.280258
350.039324	2486.992756
350.429796	2488.724393
350.820203	2486.062663
351.210548	2486.173569
351.600828	2484.071407
351.991045	2485.263640
352.381198	2481.840697
352.771288	2484.943527
353.161314	2482.569144
353.551276	2482.236428
353.941175	2484.189875
354.331010	2483.889926
354.720782	2482.218783
355.110490	2483.781541
355.500135	2480.852631
355.889717	2483.216932
356.279235	2482.362456
356.668689	2484.890595
357.058080	2482.115440
357.447408	2482.301963
357.836672	2482.450677
358.225873	2484.673825
358.615010	2481.921355
359.004084	2487.741368
359.393095	2487.375884
359.782043	2488.845380
360.170927	2486.700369
360.559748	2486.808754
360.948505	2488.734475
361.337199	2489.296563
361.725830	2492.636328
362.114398	2493.649600
362.502903	2489.964516
362.891344	2493.263952
363.279722	2493.931904
363.668037	2492.759836
364.056289	2492.802686
364.444478	2494.161277
364.832603	2496.391988
365.220665	2497.448109
365.608665	2496.402070
365.996601	2498.743686
366.384474	2497.518685
366.772284	2500.596310
367.160031	2501.705364
367.547715	2503.636126
367.935336	2504.984634
368.322893	2509.882115
368.710388	2511.253309
369.097820	2518.391583
369.485189	2520.249248
369.872495	2527.442975
370.259738	2532.952956
370.646918	2541.825387
371.034035	2548.159596
371.421090	2559.487069
371.808081	2568.724983
372.195010	2579.394586
372.581875	2591.755495
372.968678	2603.234202
373.355418	2614.254164
373.742096	2632.311577
374.128710	2644.526293
374.515262	2660.607574
374.901751	2676.504853
375.288177	2691.446833
375.674540	2712.062631
376.060841	2729.494941
376.447079	2752.200298
376.833254	2770.320726
377.219367	2784.224228
377.605417	2819.111533
377.991404	2828.498162
378.377329	2852.443643
378.763191	2868.903010
379.148991	2906.250398
379.534727	2932.562701
379.920402	2957.980198
380.306013	2974.018629
380.691563	3020.704755
381.077049	3042.376675
381.462474	3061.444840
381.847835	3100.632249
382.233134	3118.609004
382.618371	3120.610342
383.003545	3186.972091
383.388657	3196.099100
383.773706	3226.961044
384.158693	3243.735483
384.543618	3272.709515
384.928480	3308.264773
385.313280	3351.492668
385.698017	3352.405116
386.082692	3404.674320
386.467305	3410.927871
386.851856	3438.966769
387.236344	3464.900985
387.620770	3493.139008
388.005133	3519.481558
388.389435	3545.811504
388.773674	3559.916653
389.157851	3601.675051
389.541965	3614.015795
389.926018	3580.361052
390.310008	3650.420488
390.693936	3671.205165
391.077802	3710.468192
391.461606	3699.571738
391.845348	3761.444339
392.229027	3760.889813
392.612645	3775.178963
392.996200	3853.165613
393.379694	3892.663053
393.763125	3955.432981
394.146494	3923.716561
394.529801	3985.044718
394.913047	4033.946431
395.296230	3997.231708
395.679351	4054.877302
396.062410	4076.302206
396.445408	4060.057087
396.828343	4089.031119
397.211217	4111.607927
397.594028	4030.077346
397.976778	4093.232921
398.359466	4118.005151
398.742092	4142.046414
399.124656	4058.075914
399.507158	4138.636073
399.889598	4156.335564
400.271977	4210.308678
400.654294	4176.530427
401.036549	4172.144623
401.418742	4135.860918
401.800874	4222.321748
402.182944	4230.231318
402.564952	4276.526754
402.946898	4253.345008
403.328783	4236.578131
403.710606	4136.019714
404.092367	4294.022079
404.474067	4246.516765
404.855705	4229.586050
405.237282	4147.251405
405.618797	4218.540882
406.000250	4219.138259
406.381642	4261.920011
406.762972	4207.427658
407.144240	4187.237837
407.525447	4161.603570
407.906593	4175.418852
408.287677	4182.214328
408.668700	4095.720730
409.049661	4101.003860
409.430560	4092.544803
409.811399	4005.756299
410.192176	4081.426539
410.572891	4006.247811
410.953545	4033.953993
411.334138	3916.835386
411.714669	3918.730860
412.095139	3813.925272
412.475547	3860.873537
412.855894	3806.855053
413.236180	3768.985906
413.616405	3702.175494
413.996568	3707.539281
414.376670	3635.491111
414.756711	3575.037594
415.136691	3552.574212
415.516609	3539.036193
415.896466	3515.884694
416.276262	3489.373266
416.655997	3435.251439
417.035670	3464.119606
417.415283	3453.954119
417.794834	3388.635889
418.174324	3338.670493
418.553753	3267.839761
418.933121	3283.522790
419.312428	3259.547062
419.691674	3200.132023
420.070859	3191.274716
420.449983	3134.249184
420.829045	3124.325672
421.208047	3070.685275
421.586988	3046.780123
421.965867	3016.533200
422.344686	3000.434275
422.723444	2952.099692
423.102141	2897.801424
423.480777	2912.219124
423.859352	2852.040350
424.237866	2858.384642
424.616319	2834.373627
424.994712	2823.804847
425.373044	2788.884775
425.751314	2776.622168
426.129524	2738.632033
426.507673	2737.059193
426.885762	2723.977398
427.263789	2703.888400
427.641756	2683.973322
428.019662	2671.902279
428.397508	2659.576658
428.775292	2647.125008
429.153016	2634.111269
429.530679	2624.535598
429.908282	2616.414299
430.285824	2607.524224
430.663305	2604.141610
431.040726	2590.046544
431.418086	2583.442632
431.795385	2580.511201
432.172624	2574.550037
432.549802	2570.494428
432.926920	2563.351113
433.303977	2565.962431
433.680974	2562.375650
434.057910	2560.089487
434.434786	2553.871224
434.811601	2555.640669
435.188355	2555.028168
435.565050	2549.261088
435.941683	2549.389638
436.318257	2547.426108
436.694770	2544.582898
437.071222	2543.461241
437.447614	2539.876981
437.823946	2541.941333
438.200218	2544.890408
438.576429	2544.900490
438.952580	2544.378731
439.328670	2542.659698
439.704700	2543.504091
440.080670	2540.804553
440.456580	2542.979811
440.832429	2542.049718
441.208218	2539.803884
441.583947	2541.011240
441.959616	2541.233051
442.335224	2537.827752
442.710773	2538.510828
443.086261	2541.452341
443.461689	2540.746580
443.837057	2541.913607
444.212365	2541.195242
444.587612	2538.432690
444.962800	2539.239275
445.337927	2542.566436
445.712995	2537.709284
446.088002	2541.331353
446.462949	2540.683565
446.837837	2542.589121
447.212664	2539.635005
447.587431	2542.130376
447.962139	2544.482075
448.336786	2547.940306
448.711374	2544.792106
449.085901	2544.494677
449.460369	2542.841179
449.834776	2543.758669
450.209124	2544.194729
450.583412	2545.122301
450.957640	2543.146169
451.331808	2545.311344
451.705917	2542.384955
452.079965	2539.314892
452.453954	2542.884029
452.827883	2542.687424
453.201752	2543.259595
453.575562	2542.516025
453.949311	2540.688606
454.323001	2544.396375
454.696632	2541.117104
455.070202	2544.648433
455.443713	2541.248174
455.817164	2544.935778
456.190556	2542.841179
456.563888	2546.092723
456.937160	2541.598535
457.310373	2545.714637
457.683526	2545.810419
458.056619	2544.119112
458.429653	2544.847558
458.802628	2547.005172
459.175542	2545.986859
459.548398	2543.864533
459.921194	2545.591128
460.293930	2544.567774
460.666607	2551.874927
461.039224	2551.726213
461.411782	2551.804351
461.784280	2552.346275
462.156719	2549.949206
462.529099	2550.871737
462.901419	2548.578012
463.273680	2550.438198
463.645882	2549.404761
464.018024	2549.233362
464.390106	2548.794782
464.762130	2550.944834
465.134094	2553.541028
465.505999	2555.900288
465.877845	2562.973027
466.249631	2565.831361
466.621358	2564.147616
466.993026	2564.071998
467.364634	2563.656103
467.736184	2559.716442
468.107674	2558.746019
468.479105	2558.821637
468.850477	2558.567058
469.221790	2559.343396
469.593043	2555.494475
469.964238	2557.127809
470.335373	2555.751574
470.706449	2557.841132
471.077467	2557.667213
471.448425	2561.450598
471.819324	2564.601320
472.190164	2563.734241
472.560945	2562.559652
472.931667	2559.608057
473.302330	2557.611760
473.672934	2553.714948
474.043479	2555.330638
474.413965	2558.914898
474.784393	2556.530432
475.154761	2557.644527
475.525070	2555.620504
475.895321	2556.837943
476.265513	2556.739640
476.635645	2558.924980
477.005719	2561.974878
477.375734	2560.308777
477.745691	2561.682492
478.115588	2563.615774
478.485427	2566.665672
478.855207	2568.924109
479.224928	2569.914696
479.594591	2570.391085
479.964194	2572.137845
480.333739	2572.039542
480.703226	2573.211610
481.072653	2571.888307
481.442022	2569.680282
481.811333	2570.749007
482.180584	2571.757237
482.549777	2569.524006
482.918912	2567.346228
483.287988	2568.603996
483.657005	2570.441496
484.025964	2567.031156
484.394864	2568.228430
484.763706	2568.248594
485.132489	2568.402350
485.501213	2568.089798
485.869879	2566.511917
486.238487	2563.630898
486.607036	2565.685168
486.975527	2566.090981
487.343959	2565.455795
487.712333	2568.346897
488.080648	2565.647359
488.448905	2566.448902
488.817104	2563.696433
489.185244	2565.289437
489.553326	2566.990827
489.921350	2568.460323
490.289315	2571.800087
490.657222	2572.198338
491.025070	2572.233627
491.392861	2573.546847
491.760593	2570.131465
492.128267	2569.045097
492.495883	2567.870508
492.863440	2568.422514
493.230939	2562.791545
493.598380	2568.107442
493.965763	2559.098900
494.333088	2561.196020
494.700354	2560.870866
495.067563	2560.893551
495.434713	2559.444219
495.801805	2564.515620
496.168839	2561.223747
496.535815	2564.949159
496.902733	2564.760116
497.269593	2564.253480
497.636395	2565.334808
498.003139	2564.082081
498.369825	2562.567214
498.736453	2563.139385
499.103023	2563.923284
499.469535	2566.731207
499.835989	2565.276834
500.202385	2564.926474
500.568723	2565.130641
500.935003	2564.641649
501.301226	2564.896227
501.667390	2568.760272
502.033497	2564.775239
502.399546	2565.980075
502.765537	2565.112997
503.131470	2565.281875
503.497345	2563.928326
503.863163	2568.397308
504.228923	2564.649211
504.594625	2564.858418
504.960269	2565.118038
505.325856	2567.444530
505.691385	2567.658779
506.056856	2566.852195
506.422270	2565.354972
506.787625	2564.104766
507.152924	2568.319171
507.518164	2569.027453
507.883347	2568.921588
508.248472	2566.945456
508.613540	2566.227092
508.978550	2563.557801
509.343503	2567.736917
509.708398	2569.748338
510.073236	2566.700960
510.438016	2569.476115
510.802738	2564.820610
511.167403	2565.919581
511.532010	2566.027966
511.896561	2567.321022
512.261053	2569.297154
512.625488	2562.496638
512.989866	2563.388922
513.354186	2565.773388
513.718449	2563.721638
514.082655	2568.745148
514.446803	2566.706001
514.810894	2567.293296
515.174927	2566.113666
515.538904	2568.596434
515.902822	2567.058882
516.266684	2567.653738
516.630488	2569.801270
516.994235	2568.603996
517.357925	2567.615930
517.721558	2569.710529
518.085133	2569.720611
518.448651	2570.227247
518.812112	2567.653738
519.175516	2568.634243
519.538863	2568.079716
519.902152	2568.094839
520.265385	2567.711712
520.628560	2568.868656
520.991678	2568.115004
521.354739	2568.014181
521.717743	2569.808832
522.080690	2569.977710
522.443580	2568.765313
522.806413	2570.461661
523.169189	2570.282700
523.531908	2570.479305
523.894569	2568.651887
524.257174	2570.386044
524.619722	2570.857392
524.982213	2568.339335
525.344647	2568.031825
525.707025	2566.733728
526.069345	2569.811352
526.431608	2569.027453
526.793815	2570.716239
527.155964	2569.655076
527.518057	2568.488049
527.880093	2568.409911
528.242072	2568.709860
528.603995	2570.597772
528.965860	2567.091650
529.327669	2568.750189
529.689421	2570.754048
530.051117	2570.517114
530.412755	2570.106260
530.774337	2564.170301
531.135862	2568.339335
531.497331	2566.794222
531.858743	2562.852039
532.220098	2564.624005
532.581396	2563.996381
532.942638	2566.274983
533.303824	2567.494942
533.664953	2567.837740
534.026025	2568.810683
534.387040	2567.381516
534.747999	2566.239695
535.108902	2568.558625
535.469748	2566.950497
535.830537	2568.288924
536.191270	2569.922257
536.551947	2567.255487
536.912567	2565.909499
537.273131	2567.237843
537.633638	2563.482183
537.994089	2569.690364
538.354483	2565.942267
538.714821	2567.510065
539.075103	2565.256670
539.435328	2567.051320
539.795497	2568.873697
540.155609	2567.948646
540.515665	2568.921588
540.875665	2566.794222
541.235609	2565.496124
541.595496	2568.321691
541.955328	2566.607699
542.315102	2567.215158
542.674821	2567.983934
543.034483	2569.385375
543.394090	2566.035528
543.753640	2567.038718
544.113134	2569.236661
544.472571	2567.315981
544.831953	2567.021073
545.191278	2567.270611
545.550548	2564.538305
545.909761	2567.399160
546.268918	2566.340518
546.628019	2567.958728
546.987064	2568.419994
547.346053	2567.247925
547.704986	2564.291289
548.063863	2565.806155
548.422684	2568.835889
548.781449	2567.815055
549.140158	2566.832030
549.498811	2565.599468
549.857408	2566.607699
550.215949	2565.866649
550.574434	2560.276010
550.932864	2564.848336
551.291237	2561.269117
551.649555	2568.167936
552.007817	2567.825137
552.366022	2569.037535
552.724173	2568.591393
553.082267	2568.392267
553.440305	2569.304716
553.798288	2566.456464
554.156215	2566.927812
554.514086	2565.319684
554.871902	2568.213306
555.229661	2568.316650
555.587365	2567.245405
555.945014	2565.314643
556.302606	2565.579303
556.660143	2565.871690
557.017625	2564.906309
557.375050	2566.975703
557.732421	2566.131310
558.089735	2568.989644
558.446994	2565.992678
558.804197	2565.856567
559.161345	2566.874880
559.518437	2569.105591
559.875474	2567.210117
560.232455	2567.338666
560.589381	2565.811197
560.946251	2568.515776
561.303065	2567.933522
561.659825	2567.613409
562.016528	2568.591393
562.373177	2564.901268
562.729770	2566.368244
563.086307	2565.607030
563.442789	2566.990827
563.799216	2568.115004
564.155587	2566.864798
564.511904	2567.804973
564.868164	2568.235992
565.224370	2564.475291
565.580520	2565.864129
565.936615	2566.098542
566.292654	2564.515620
566.648638	2564.543346
567.004567	2565.370096
567.360441	2568.304047
567.716260	2562.431103
568.072023	2562.055537
568.427732	2563.963614
568.783385	2559.151832
569.138982	2562.418500
569.494525	2564.170301
569.850013	2561.274158
570.205445	2564.503017
570.560823	2563.734241
570.916145	2563.638459
571.271412	2564.407235
571.626625	2565.556618
571.981782	2563.550239
572.336884	2565.934705
572.691931	2564.329097
573.046923	2564.258521
573.401860	2565.891855
573.756743	2563.880435
574.111570	2564.273645
574.466342	2564.797925
574.821059	2564.079560
575.175722	2563.872873
575.530330	2565.125600
575.884882	2566.343038
576.239380	2562.957903
576.593823	2564.881104
576.948211	2563.709035
577.302544	2564.500497
577.656823	2563.971175
578.011047	2565.768347
578.365216	2562.773901
578.719330	2563.487225
579.073389	2564.349262
579.427394	2561.982440
579.781344	2563.509910
580.135239	2564.591237
580.489080	2564.760116
580.842866	2563.116700
581.196597	2564.508058
581.550273	2562.685681
581.903895	2564.974365
582.257463	2565.559139
582.610975	2561.780794
582.964434	2562.431103
583.317837	2562.559652
583.671186	2564.918912
584.024481	2562.849519
584.377721	2563.111659
584.730906	2562.521844
585.084037	2561.506051
585.437113	2564.820610
585.790135	2564.911351
586.143103	2561.327090
586.496016	2563.013356
586.848874	2558.362892
587.201679	2560.664178
587.554428	2554.934907
587.907124	2560.482697
588.259765	2559.413972
588.612352	2560.603685
588.964884	2563.938408
589.317362	2558.781307
589.669786	2561.347255
590.022155	2562.340362
590.374470	2562.456309
590.726731	2561.498489
591.078937	2560.644014
591.431090	2560.747357
591.783188	2559.968499
592.135232	2559.925649
592.487222	2560.908674
592.839157	2561.407749
593.191038	2561.027142
593.542866	2562.615105
593.894639	2557.757953
594.246358	2563.716597
594.598022	2559.126627
594.949633	2557.057233
595.301190	2561.246432
595.652692	2558.231822
596.004141	2561.934549
596.355535	2560.575958
596.706876	2560.414641
597.058162	2559.421534
597.409395	2561.851370
597.760573	2559.202244
598.111698	2560.139898
598.462768	2560.432285
598.813785	2555.383570
599.164748	2555.542366
599.515657	2557.808365
599.866511	2559.275341
600.217312	2560.099569
600.568060	2561.226267
600.918753	2558.549414
601.269392	2557.354661
601.619978	2559.282902
601.970510	2558.917419
602.320988	2559.696277
602.671412	2557.110165
603.021783	2559.156873
603.372100	2560.666699
603.722363	2559.703839
604.072572	2559.696277
604.422728	2562.967986
604.772830	2555.655792
605.122878	2553.460370
605.472872	2555.817109
605.822813	2553.417520
606.172701	2557.077398
606.522534	2556.507747
606.872314	2559.787018
607.222041	2559.971020
607.571714	2558.017573
607.921333	2558.904816
608.270899	2556.727037
608.620411	2559.429096
608.969870	2557.999929
609.319276	2561.730382
609.668627	2563.139385
610.017926	2565.622153
610.367171	2563.804817
610.716362	2566.469067
611.065500	2565.410425
611.414585	2563.353634
611.763616	2564.813048
612.112594	2561.125444
612.461518	2559.706359
612.810389	2558.078067
613.159207	2561.145609
613.507971	2561.289282
613.856682	2561.382543
614.205340	2558.466235
614.553945	2560.772563
614.902496	2560.654096
615.250994	2559.718962
615.599439	2560.225598
615.947830	2558.877089
616.296169	2560.054199
616.644454	2560.964127
616.992686	2559.829868
617.340864	2560.044117
617.688990	2556.414486
618.037063	2560.868345
618.385082	2557.223591
618.733048	2560.094528
619.080961	2556.235525
619.428821	2559.557645
619.776628	2557.891544
620.124382	2558.196534
620.472083	2556.727037
620.819731	2559.252655
621.167326	2555.965823
621.514868	2559.184600
621.862357	2557.132850
622.209793	2558.428427
622.557176	2559.386246
622.904506	2555.882644
623.251783	2554.788714
623.599007	2554.647561
623.946179	2553.906512
624.293297	2553.538508
624.640363	2553.909032
624.987376	2557.936914
625.334336	2555.862479
625.681243	2556.036399
626.028097	2555.141594
626.374899	2556.066646
626.721647	2555.517160
627.068343	2554.640000
627.414987	2555.073539
627.761577	2556.323745
628.108115	2555.958261
628.454600	2555.376008
628.801032	2553.230997
629.147412	2556.830381
629.493739	2554.592109
629.840014	2554.496327
630.186236	2554.660164
630.532405	2553.843497
630.878521	2556.137222
631.224585	2555.249979
631.570597	2555.068498
631.916556	2555.139074
632.262462	2555.998591
632.608316	2556.492624
632.954117	2555.799465
633.299866	2552.159752
633.645562	2554.788714
633.991206	2554.970195
634.336797	2553.752757
634.682336	2554.995401
635.027823	2551.590102
635.373257	2552.467262
635.718639	2552.298384
636.063968	2551.448949
636.409245	2553.357026
636.754470	2551.302756
637.099642	2552.661347
637.444762	2553.031872
637.789829	2551.713610
638.134845	2551.108671
638.479808	2553.190668
638.824719	2551.196892
639.169577	2551.685883
639.514383	2551.529608
639.859137	2551.784186
640.203839	2551.234700
640.548489	2552.210163
640.893086	2548.598177
641.237632	2544.300593
641.582125	2551.673281
641.926566	2546.846376
642.270955	2553.077242
642.615292	2552.202602
642.959576	2550.823846
643.303809	2548.177240
643.647990	2548.746891
643.992118	2550.231511
644.336195	2547.242106
