Dividing Wavelength (nm)	Counts (n)	Blue Motor Position (mm): 0.000000	Red Motor Position (mm): 12.400000	
326.493990	2129.101080
326.888308	2129.101080
327.282561	2129.101080
327.676750	2096.038673
328.070874	2092.736717
328.464933	2098.448344
328.858929	2102.826586
329.252859	2110.060642
329.646726	2125.690739
330.040528	2139.339663
330.434265	2155.667961
330.827938	2171.134221
331.221547	2190.008301
331.615091	2209.628472
332.008571	2227.262428
332.401986	2247.258164
332.795338	2268.090733
333.188625	2286.866510
333.581847	2304.361835
333.975006	2324.123158
334.368100	2340.645539
334.761129	2361.009280
335.154095	2376.047042
335.546996	2390.487428
335.939833	2409.991652
336.332606	2422.191244
336.725315	2435.446958
337.117960	2447.265943
337.510540	2454.252983
337.903056	2464.637759
338.295508	2467.967442
338.687896	2480.514873
339.080220	2488.137098
339.472480	2495.908037
339.864676	2501.627226
340.256807	2504.147803
340.648875	2505.760972
341.040879	2509.488905
341.432818	2510.902949
341.824694	2513.325223
342.216506	2513.330264
342.608253	2513.741118
342.999937	2511.820439
343.391557	2512.566530
343.783113	2514.688855
344.174605	2509.274656
344.566033	2509.897239
344.957397	2509.257012
345.348697	2504.755262
345.739934	2503.648728
346.131106	2503.144613
346.522215	2501.271824
346.913260	2495.756802
347.304241	2498.857112
347.695159	2495.282934
348.086012	2494.834271
348.476802	2493.233705
348.867528	2491.086173
349.258191	2488.734475
349.648789	2489.404948
350.039324	2486.191213
350.429796	2486.067704
350.820203	2483.907570
351.210548	2484.058805
351.600828	2485.487972
351.991045	2480.189719
352.381198	2480.101499
352.771288	2481.008907
353.161314	2481.802888
353.551276	2483.794144
353.941175	2479.942703
354.331010	2480.744246
354.720782	2481.651654
355.110490	2482.662405
355.500135	2480.164513
355.889717	2480.114102
356.279235	2483.277426
356.668689	2481.845738
357.058080	2481.243320
357.447408	2480.315748
357.836672	2479.390696
358.225873	2479.831797
358.615010	2479.829277
359.004084	2484.467138
359.393095	2484.772128
359.782043	2485.515698
360.170927	2485.490492
360.559748	2487.075935
360.948505	2486.675163
361.337199	2488.366471
361.725830	2489.241111
362.114398	2488.230359
362.502903	2488.613487
362.891344	2491.338231
363.279722	2491.872593
363.668037	2491.285299
364.056289	2494.282265
364.444478	2490.980309
364.832603	2495.255207
365.220665	2492.268324
365.608665	2495.209837
365.996601	2494.395691
366.384474	2496.460043
366.772284	2495.860146
367.160031	2493.543736
367.547715	2501.803666
367.935336	2503.578152
368.322893	2505.992865
368.710388	2508.210973
369.097820	2517.264885
369.485189	2515.051818
369.872495	2523.921729
370.259738	2526.185207
370.646918	2535.748276
371.034035	2546.337219
371.421090	2554.095555
371.808081	2565.586865
372.195010	2573.332598
372.581875	2585.315421
372.968678	2598.629108
373.355418	2608.839965
373.742096	2627.693881
374.128710	2643.147538
374.515262	2658.964158
374.901751	2669.807680
375.288177	2686.178827
375.674540	2708.430480
376.060841	2723.740464
376.447079	2745.427508
376.833254	2766.365941
377.219367	2776.269287
377.605417	2814.571974
377.991404	2823.399035
378.377329	2844.811336
378.763191	2863.771115
379.148991	2900.485839
379.534727	2923.770928
379.920402	2954.456432
380.306013	2964.359778
380.691563	3015.411543
381.077049	3036.806200
381.462474	3053.590722
381.847835	3093.965323
382.233134	3114.553396
382.618371	3114.797892
383.003545	3184.380938
383.388657	3187.587112
383.773706	3221.791341
384.158693	3236.503948
384.543618	3262.168462
384.928480	3296.718010
385.313280	3339.630833
385.698017	3335.030780
386.082692	3389.404665
386.467305	3391.156466
386.851856	3416.281577
387.236344	3429.645676
387.620770	3456.424285
388.005133	3473.370123
388.389435	3489.527022
388.773674	3494.328721
389.157851	3520.305786
389.541965	3519.418543
389.926018	3474.789208
390.310008	3527.055891
390.693936	3527.600336
391.077802	3546.731515
391.461606	3519.494161
391.845348	3555.286353
392.229027	3537.473436
392.612645	3527.212167
392.996200	3563.316911
393.379694	3570.654310
393.763125	3595.829833
394.146494	3542.769168
394.529801	3558.767270
394.913047	3562.331365
395.296230	3510.757841
395.679351	3516.570291
396.062410	3496.665295
396.445408	3451.771300
396.828343	3440.615226
397.211217	3417.685538
397.594028	3339.721573
397.976778	3340.094619
398.359466	3320.678615
398.742092	3295.770273
399.124656	3226.772001
399.507158	3232.438258
399.889598	3211.401523
400.271977	3197.992053
400.654294	3149.942296
401.036549	3118.513222
401.418742	3075.975966
401.800874	3073.929257
402.182944	3049.018396
402.564952	3030.837474
402.946898	2999.395798
403.328783	2965.499079
403.710606	2914.028898
404.092367	2927.123296
404.474067	2887.683828
404.855705	2862.553677
405.237282	2827.331135
405.618797	2819.280412
406.000250	2804.187197
406.381642	2791.034827
406.762972	2763.101793
407.144240	2740.328381
407.525447	2725.688870
407.906593	2709.045501
408.287677	2696.891279
408.668700	2670.465550
409.049661	2661.227636
409.430560	2649.322951
409.811399	2632.374592
410.192176	2624.795217
410.572891	2611.854575
410.953545	2604.391147
411.334138	2589.993612
411.714669	2582.817529
412.095139	2575.359142
412.475547	2571.222875
412.855894	2565.735579
413.236180	2558.677964
413.616405	2552.903322
413.996568	2549.760163
414.376670	2546.034750
414.756711	2542.027033
415.136691	2540.711292
415.516609	2539.201466
415.896466	2538.178112
416.276262	2538.271373
416.655997	2533.217616
417.035670	2530.071936
417.415283	2530.707122
417.794834	2527.402645
418.174324	2527.599250
418.553753	2530.976823
418.933121	2527.939528
419.312428	2530.946577
419.691674	2528.247039
420.070859	2527.029600
420.449983	2526.646472
420.829045	2531.196114
421.208047	2528.136133
421.586988	2527.901720
421.965867	2527.473222
422.344686	2526.742254
422.723444	2527.100176
423.102141	2528.857018
423.480777	2528.123530
423.859352	2524.909795
424.237866	2526.714528
424.616319	2528.224353
424.994712	2526.994312
425.373044	2527.095135
425.751314	2529.013294
426.129524	2528.312574
426.507673	2525.474404
426.885762	2527.904240
427.263789	2529.386339
427.641756	2529.272913
428.019662	2526.880886
428.397508	2530.918850
428.775292	2529.333407
429.153016	2529.857687
429.530679	2527.954652
429.908282	2529.061185
430.285824	2528.983047
430.663305	2527.687471
431.040726	2528.693181
431.418086	2528.216792
431.795385	2529.338448
432.172624	2528.201668
432.549802	2528.007584
432.926920	2527.417769
433.303977	2531.276772
433.680974	2528.241998
434.057910	2529.340969
434.434786	2528.307533
434.811601	2531.569159
435.188355	2529.363654
435.565050	2530.220650
435.941683	2528.357944
436.318257	2530.457585
436.694770	2525.572707
437.071222	2525.607995
437.447614	2526.361647
437.823946	2528.733510
438.200218	2531.657379
438.576429	2529.819879
438.952580	2530.049251
439.328670	2532.620240
439.704700	2531.092770
440.080670	2530.621422
440.456580	2532.239633
440.832429	2530.016484
441.208218	2530.795342
441.583947	2535.670138
441.959616	2528.972965
442.335224	2532.416073
442.710773	2531.682585
443.086261	2529.338448
443.461689	2530.868439
443.837057	2533.026052
444.212365	2529.666123
444.587612	2532.443799
444.962800	2532.277441
445.337927	2533.152081
445.712995	2532.234591
446.088002	2534.460261
446.462949	2533.119314
446.837837	2532.045548
447.212664	2532.136289
447.587431	2533.003367
447.962139	2533.172246
448.336786	2537.109387
448.711374	2536.726259
449.085901	2534.906403
449.460369	2535.314736
449.834776	2539.473688
450.209124	2534.374561
450.583412	2536.610313
450.957640	2536.960673
451.331808	2537.462268
451.705917	2535.886907
452.079965	2534.210724
452.453954	2534.414890
452.827883	2539.090561
453.201752	2538.571322
453.575562	2535.410518
453.949311	2535.163502
454.323001	2535.216434
454.696632	2535.082843
455.070202	2534.684592
455.443713	2534.606454
455.817164	2535.760878
456.190556	2530.616381
456.563888	2533.802390
456.937160	2536.711136
457.310373	2534.934129
457.683526	2536.345652
458.056619	2536.401105
458.429653	2536.943029
458.802628	2540.302958
459.175542	2538.445293
459.548398	2540.239944
459.921194	2539.100643
460.293930	2539.181301
460.666607	2540.582742
461.039224	2541.454862
461.411782	2542.712630
461.784280	2544.585418
462.156719	2539.965201
462.529099	2540.597866
462.901419	2540.766744
463.273680	2541.709440
463.645882	2541.044008
464.018024	2543.829245
464.390106	2541.981662
464.762130	2540.960829
465.134094	2541.500232
465.505999	2546.435522
465.877845	2551.370811
466.249631	2548.653629
466.621358	2549.545914
466.993026	2551.297715
467.364634	2553.644372
467.736184	2546.826211
468.107674	2547.403423
468.479105	2545.092054
468.850477	2546.896787
469.221790	2545.601211
469.593043	2546.203629
469.964238	2543.221786
470.335373	2543.597352
470.706449	2544.086344
471.077467	2546.133053
471.448425	2549.513146
471.819324	2551.305276
472.190164	2553.972047
472.560945	2546.196067
472.931667	2547.736139
473.302330	2548.121788
473.672934	2548.542724
474.043479	2544.169523
474.413965	2543.448638
474.784393	2541.553164
475.154761	2544.081303
475.525070	2540.549975
475.895321	2541.540561
476.265513	2540.769265
476.635645	2545.175233
477.005719	2543.877136
477.375734	2546.022147
477.745691	2545.497867
478.115588	2549.251006
478.485427	2548.709082
478.855207	2550.728064
479.224928	2550.539021
479.594591	2550.997766
479.964194	2548.817467
480.333739	2548.641027
480.703226	2551.363250
481.072653	2552.613456
481.442022	2550.856614
481.811333	2554.052705
482.180584	2550.730585
482.549777	2549.689587
482.918912	2549.107333
483.287988	2551.708569
483.657005	2547.839483
484.025964	2547.710934
484.394864	2549.407282
484.763706	2551.335523
485.132489	2551.441388
485.501213	2550.118085
485.869879	2549.462735
486.238487	2546.377548
486.607036	2549.956768
486.975527	2548.905687
487.343959	2550.453321
487.712333	2551.338044
488.080648	2549.467776
488.448905	2551.542211
488.817104	2551.209494
489.185244	2549.069525
489.553326	2552.116902
489.921350	2550.700338
490.289315	2554.259393
490.657222	2553.805689
491.025070	2555.411296
491.392861	2553.273847
491.760593	2553.888868
492.128267	2553.858621
492.495883	2553.624207
492.863440	2550.700338
493.230939	2549.210677
493.598380	2550.476007
493.965763	2545.160110
494.333088	2548.981304
494.700354	2548.020965
495.067563	2548.578012
495.434713	2546.072559
495.801805	2551.519525
496.168839	2551.995914
496.535815	2550.571788
496.902733	2549.555996
497.269593	2551.600184
497.636395	2550.360060
498.003139	2549.634134
498.369825	2548.532642
498.736453	2552.225287
499.103023	2549.813095
499.469535	2549.253527
499.835989	2550.271840
500.202385	2551.287632
500.568723	2552.474824
500.935003	2552.479865
501.301226	2547.249668
501.667390	2552.091696
502.033497	2551.751418
502.399546	2550.871737
502.765537	2552.028682
503.131470	2548.187323
503.497345	2551.030533
503.863163	2552.341233
504.228923	2551.287632
504.594625	2550.070194
504.960269	2550.206305
505.325856	2551.900132
505.691385	2551.680842
506.056856	2553.165462
506.422270	2549.011551
506.787625	2550.062632
507.152924	2551.022972
507.518164	2549.714792
507.883347	2552.242931
508.248472	2550.428116
508.613540	2550.501212
508.978550	2552.603373
509.343503	2552.926007
509.708398	2553.420040
510.073236	2551.905174
510.438016	2552.384083
510.802738	2549.893753
511.167403	2549.155224
511.532010	2551.113713
511.896561	2551.665719
512.261053	2553.157900
512.625488	2549.535831
512.989866	2549.006510
513.354186	2550.423074
513.718449	2548.290666
514.082655	2550.405430
514.446803	2551.035575
514.810894	2554.992880
515.174927	2551.887530
515.538904	2553.790565
515.902822	2553.236038
516.266684	2552.018600
516.630488	2551.942982
516.994235	2553.362067
517.357925	2551.713610
517.721558	2550.798640
518.085133	2552.822664
518.448651	2553.493137
518.812112	2554.859290
519.175516	2552.081614
519.538863	2551.045657
519.902152	2552.802499
520.265385	2553.334341
520.628560	2553.188147
520.991678	2552.605894
521.354739	2550.750749
521.717743	2553.777962
522.080690	2552.792417
522.443580	2553.024310
522.806413	2554.556821
523.169189	2553.162942
523.531908	2552.389124
523.894569	2555.106306
524.257174	2552.043805
524.619722	2551.048177
524.982213	2554.040102
525.344647	2552.908363
525.707025	2552.668908
526.069345	2553.606563
526.431608	2552.245452
526.793815	2553.357026
527.155964	2555.174362
527.518057	2552.832746
527.880093	2553.304094
528.242072	2555.393652
528.603995	2555.265103
528.965860	2552.467262
529.327669	2553.619166
529.689421	2554.443395
530.051117	2553.662016
530.412755	2552.255534
530.774337	2553.432643
531.135862	2552.041285
531.497331	2551.060780
531.858743	2549.911397
532.220098	2551.958106
532.581396	2547.784030
532.942638	2550.786038
533.303824	2551.547252
533.664953	2550.826367
534.026025	2553.288970
534.387040	2553.029351
534.747999	2554.501368
535.108902	2556.792572
535.469748	2553.004145
535.830537	2551.905174
536.191270	2551.078424
536.551947	2553.261244
536.912567	2554.241748
537.273131	2554.181255
537.633638	2553.717468
537.994089	2550.743188
538.354483	2550.952396
538.714821	2555.106306
539.075103	2551.345606
539.435328	2553.626728
539.795497	2551.375852
540.155609	2553.044474
540.515665	2555.471790
540.875665	2555.171841
541.235609	2551.905174
541.595496	2552.636141
541.955328	2554.077911
542.315102	2554.045143
542.674821	2551.418702
543.034483	2555.184444
543.394090	2550.203784
543.753640	2554.458518
544.113134	2554.435833
544.472571	2552.684032
544.831953	2553.432643
545.191278	2551.970709
545.550548	2553.069680
545.909761	2553.294012
546.268918	2554.093034
546.628019	2552.505071
546.987064	2552.126984
547.346053	2554.491286
547.704986	2554.035061
548.063863	2552.588250
548.422684	2550.717982
548.781449	2552.694114
549.140158	2552.013558
549.498811	2553.921635
549.857408	2555.451625
550.215949	2551.108671
550.574434	2548.048691
550.932864	2549.480379
551.291237	2547.143804
551.649555	2552.260575
552.007817	2554.677808
552.366022	2553.606563
552.724173	2554.093034
553.082267	2551.181768
553.440305	2552.676470
553.798288	2550.826367
554.156215	2554.287119
554.514086	2555.224773
554.871902	2552.081614
555.229661	2550.415513
555.587365	2552.973898
555.945014	2554.587067
556.302606	2556.492624
556.660143	2553.248641
557.017625	2553.026830
557.375050	2551.895091
557.732421	2554.009855
558.089735	2553.982129
558.446994	2552.648744
558.804197	2553.160421
559.161345	2552.636141
559.518437	2553.941800
559.875474	2554.831563
560.232455	2553.818292
560.589381	2553.523384
560.946251	2555.665874
561.303065	2551.925338
561.659825	2554.085473
562.016528	2553.591440
562.373177	2556.785011
562.729770	2554.171172
563.086307	2554.423230
563.442789	2551.547252
563.799216	2554.186296
564.155587	2554.783673
564.511904	2554.970195
564.868164	2553.578837
565.224370	2553.420040
565.580520	2552.628579
565.936615	2554.304763
566.292654	2554.677808
566.648638	2553.110009
567.004567	2552.714279
567.360441	2554.824002
567.716260	2551.547252
568.072023	2552.817623
568.427732	2549.276212
568.783385	2549.994576
569.138982	2549.868548
569.494525	2550.357539
569.850013	2547.413506
570.205445	2552.366439
570.560823	2553.268806
570.916145	2554.675288
571.271412	2552.941131
571.626625	2554.206460
571.981782	2552.394166
572.336884	2554.428271
572.691931	2553.755277
573.046923	2553.956923
573.401860	2549.732436
573.756743	2551.625390
574.111570	2552.298384
574.466342	2552.162272
574.821059	2552.832746
575.175722	2553.394835
575.530330	2551.726213
575.884882	2554.062787
576.239380	2552.293343
576.593823	2552.069011
576.948211	2553.339382
577.302544	2554.632438
577.656823	2555.002963
578.011047	2553.820812
578.365216	2553.422561
578.719330	2547.700851
579.073389	2551.171686
579.427394	2552.265616
579.781344	2550.014741
580.135239	2552.653785
580.489080	2553.785524
580.842866	2552.265616
581.196597	2552.162272
581.550273	2551.819474
581.903895	2551.902653
582.257463	2550.259237
582.610975	2551.360729
582.964434	2552.500030
583.317837	2553.306614
583.671186	2550.591953
584.024481	2555.166800
584.377721	2551.111192
584.730906	2551.501881
585.084037	2555.249979
585.437113	2551.942982
585.790135	2549.949206
586.143103	2551.635472
586.496016	2551.547252
586.848874	2548.830070
587.201679	2547.922662
587.554428	2547.189174
587.907124	2549.049360
588.259765	2546.012065
588.612352	2552.772252
588.964884	2551.138918
589.317362	2554.216543
589.669786	2548.872920
590.022155	2554.203940
590.374470	2550.173537
590.726731	2553.931717
591.078937	2550.861655
591.431090	2550.423074
591.783188	2550.208825
592.135232	2550.539021
592.487222	2551.244782
592.839157	2551.829556
593.191038	2550.576830
593.542866	2550.566747
593.894639	2550.178578
594.246358	2549.929041
594.598022	2550.012220
594.949633	2549.253527
595.301190	2549.374514
595.652692	2551.733774
596.004141	2548.363763
596.355535	2552.958775
596.706876	2549.525749
597.058162	2549.157745
597.409395	2550.095399
597.760573	2549.185471
598.111698	2551.509443
598.462768	2549.843342
598.813785	2550.959957
599.164748	2549.626572
599.515657	2549.193033
599.866511	2547.839483
600.217312	2547.768907
600.568060	2547.892415
600.918753	2552.565565
601.269392	2552.691594
601.619978	2550.866696
601.970510	2552.520194
602.320988	2549.815615
602.671412	2547.937786
603.021783	2549.533311
603.372100	2549.182951
603.722363	2549.863506
604.072572	2550.183620
604.422728	2550.158414
604.772830	2546.944678
605.122878	2546.957281
605.472872	2545.029040
605.822813	2544.681200
606.172701	2547.310162
606.522534	2550.042467
606.872314	2550.372663
607.222041	2549.966850
607.571714	2550.798640
607.921333	2549.223280
608.270899	2551.131357
608.620411	2551.058260
608.969870	2550.055070
609.319276	2553.490617
609.668627	2553.656975
610.017926	2555.686039
610.367171	2557.800803
610.716362	2558.720814
611.065500	2558.166287
611.414585	2553.682180
611.763616	2551.670760
612.112594	2550.695297
612.461518	2551.126315
612.810389	2549.528270
613.159207	2550.665050
613.507971	2549.619010
613.856682	2550.158414
614.205340	2550.619679
614.553945	2550.859134
614.902496	2548.484751
615.250994	2549.956768
615.599439	2550.632282
615.947830	2550.783517
616.296169	2549.697148
616.644454	2551.322920
616.992686	2545.817980
617.340864	2550.498692
617.688990	2547.869730
618.037063	2551.297715
618.385082	2549.994576
618.733048	2551.015410
619.080961	2550.375183
619.428821	2549.646737
619.776628	2547.259750
620.124382	2552.532797
620.472083	2549.916438
620.819731	2550.052550
621.167326	2550.748229
621.514868	2550.566747
621.862357	2547.950388
622.209793	2549.271171
622.557176	2547.486602
622.904506	2546.208670
623.251783	2545.182795
623.599007	2546.059956
623.946179	2545.210521
624.293297	2547.002652
624.640363	2548.555327
624.987376	2547.295038
625.334336	2547.718495
625.681243	2547.073228
626.028097	2544.683721
626.374899	2546.700182
626.721647	2548.353681
627.068343	2548.257899
627.414987	2547.118598
627.761577	2550.612118
628.108115	2548.089020
628.454600	2547.930224
628.801032	2548.283105
629.147412	2548.227652
629.493739	2546.387631
629.840014	2549.412323
630.186236	2550.264278
630.532405	2549.792930
630.878521	2546.816129
631.224585	2549.195553
631.570597	2545.142466
631.916556	2546.569112
632.262462	2545.944009
632.608316	2546.112888
632.954117	2546.196067
633.299866	2548.071376
633.645562	2545.823022
633.991206	2546.397713
634.336797	2547.642878
634.682336	2547.063145
635.027823	2549.034237
635.373257	2545.414688
635.718639	2546.082641
636.063968	2546.322096
636.409245	2547.053063
636.754470	2546.485933
637.099642	2546.367466
637.444762	2546.206149
637.789829	2544.033412
638.134845	2547.368135
638.479808	2547.577343
638.824719	2543.932589
639.169577	2546.440563
639.514383	2546.685059
639.859137	2545.812939
640.203839	2546.939637
640.548489	2546.548948
640.893086	2540.791950
641.237632	2541.222969
641.582125	2544.119112
641.926566	2538.397402
642.270955	2546.347302
642.615292	2545.505429
642.959576	2544.058618
643.303809	2547.771428
643.647990	2545.026519
643.992118	2547.778989
644.336195	2547.869730
