Dividing Wavelength (nm)	Counts (n)	Blue Motor Position (mm): 0.000000	Red Motor Position (mm): 43.500000	
326.493990	2126.759464
326.888308	2126.759464
327.282561	2126.759464
327.676750	2094.012129
328.070874	2094.312077
328.464933	2096.968765
328.858929	2101.329363
329.252859	2111.336054
329.646726	2124.715276
330.040528	2138.349077
330.434265	2155.415903
330.827938	2169.122800
331.221547	2186.701304
331.615091	2208.020343
332.008571	2226.216388
332.401986	2245.541652
332.795338	2265.575197
333.188625	2286.720317
333.581847	2305.985086
333.975006	2324.387818
334.368100	2339.970025
334.761129	2356.288240
335.154095	2376.183153
335.546996	2397.280382
335.939833	2418.359967
336.332606	2436.303954
336.725315	2446.648402
337.117960	2456.471090
337.510540	2463.432924
337.903056	2474.798205
338.295508	2484.467138
338.687896	2492.182624
339.080220	2501.269304
339.472480	2506.582680
339.864676	2509.806498
340.256807	2514.890502
340.648875	2516.995183
341.040879	2521.323014
341.432818	2524.246883
341.824694	2523.576410
342.216506	2523.445340
342.608253	2528.000022
342.999937	2523.914167
343.391557	2522.520288
343.783113	2521.360822
344.174605	2520.529032
344.566033	2518.313445
344.957397	2518.847807
345.348697	2518.545338
345.739934	2517.249762
346.131106	2514.162055
346.522215	2514.981242
346.913260	2513.012672
347.304241	2509.451097
347.695159	2508.039573
348.086012	2504.505725
348.476802	2501.259222
348.867528	2503.638646
349.258191	2500.601351
349.648789	2500.621516
350.039324	2499.333501
350.429796	2499.416680
350.820203	2496.943994
351.210548	2494.985506
351.600828	2494.569610
351.991045	2495.247646
352.381198	2494.625063
352.771288	2494.128509
353.161314	2494.506596
353.551276	2492.505258
353.941175	2491.118941
354.331010	2492.613643
354.720782	2490.186327
355.110490	2491.590288
355.500135	2494.163797
355.889717	2494.405773
356.279235	2491.988540
356.668689	2493.629435
357.058080	2493.752943
357.447408	2492.855618
357.836672	2491.073570
358.225873	2491.174393
358.615010	2488.857983
359.004084	2495.421565
359.393095	2496.936432
359.782043	2497.924498
360.170927	2497.254025
360.559748	2499.089005
360.948505	2501.291989
361.337199	2500.767709
361.725830	2500.992040
362.114398	2499.930878
362.502903	2503.487412
362.891344	2499.759478
363.279722	2502.242247
363.668037	2506.186949
364.056289	2504.654439
364.444478	2504.273832
364.832603	2503.643687
365.220665	2507.001096
365.608665	2505.632422
365.996601	2509.819101
366.384474	2509.370438
366.772284	2508.727691
367.160031	2512.828670
367.547715	2513.284894
367.935336	2517.032992
368.322893	2519.258661
368.710388	2525.615556
369.097820	2527.518592
369.485189	2532.897503
369.872495	2537.424459
370.259738	2542.589121
370.646918	2551.403579
371.034035	2558.846842
371.421090	2567.114335
371.808081	2581.970615
372.195010	2590.701894
372.581875	2604.199583
372.968678	2614.044957
373.355418	2626.589868
373.742096	2643.079482
374.128710	2659.130516
374.515262	2673.288597
374.901751	2691.411545
375.288177	2702.234902
375.674540	2725.378839
376.060841	2741.639081
376.447079	2762.287647
376.833254	2780.138373
377.219367	2792.774025
377.605417	2831.394305
377.991404	2842.875532
378.377329	2863.146012
378.763191	2881.228631
379.148991	2917.587953
379.534727	2941.863629
379.920402	2973.580049
380.306013	2987.546566
380.691563	3033.569780
381.077049	3057.290929
381.462474	3072.580749
381.847835	3110.805298
382.233134	3133.956797
382.618371	3133.674492
383.003545	3203.121427
383.388657	3208.056717
383.773706	3244.741194
384.158693	3257.825508
384.543618	3284.021864
384.928480	3318.377328
385.313280	3367.281561
385.698017	3366.278372
386.082692	3419.659150
386.467305	3422.227618
386.851856	3455.743729
387.236344	3478.812049
387.620770	3506.982017
388.005133	3537.886810
388.389435	3565.091397
388.773674	3577.094384
389.157851	3620.226497
389.541965	3632.995739
389.926018	3595.194647
390.310008	3667.313394
390.693936	3685.517001
391.077802	3726.294894
391.461606	3715.453893
391.845348	3779.448820
392.229027	3779.670631
392.612645	3793.445584
392.996200	3867.180021
393.379694	3909.661824
393.763125	3970.611895
394.146494	3942.600723
394.529801	4002.923170
394.913047	4053.029719
395.296230	4021.020913
395.679351	4071.503027
396.062410	4090.556068
396.445408	4075.009150
396.828343	4109.634315
397.211217	4134.749343
397.594028	4051.073751
397.976778	4121.435656
398.359466	4147.939523
398.742092	4178.246939
399.124656	4099.967903
399.507158	4180.875901
399.889598	4204.208882
400.271977	4267.230867
400.654294	4238.143409
401.036549	4246.163885
401.418742	4218.094740
401.800874	4320.425122
402.182944	4336.929860
402.564952	4403.352103
402.946898	4390.209815
403.328783	4390.466913
403.710606	4301.273778
404.092367	4493.371987
404.474067	4455.689362
404.855705	4469.449191
405.237282	4394.096544
405.618797	4502.504037
406.000250	4538.702042
406.381642	4621.351760
406.762972	4578.610337
407.144240	4594.547945
407.525447	4586.988734
407.906593	4650.466944
408.287677	4692.961350
408.668700	4620.618272
409.049661	4674.011653
409.430560	4718.033529
409.811399	4638.199296
410.192176	4797.817350
410.572891	4739.929780
410.953545	4844.442982
411.334138	4724.660125
411.714669	4791.097492
412.095139	4684.310730
412.475547	4832.046785
412.855894	4813.081964
413.236180	4817.505576
413.616405	4770.988329
413.996568	4858.147359
414.376670	4801.580571
414.756711	4751.287500
415.136691	4785.552223
415.516609	4868.857290
415.896466	4902.015479
416.276262	4936.338175
416.655997	4915.745062
417.035670	5097.650057
417.415283	5192.547258
417.794834	5135.844359
418.174324	5092.661836
418.553753	5000.491899
418.933121	5179.677192
419.312428	5245.744034
419.691674	5189.998955
420.070859	5315.715249
420.449983	5222.448862
420.829045	5338.254248
421.208047	5246.752265
421.586988	5316.816741
421.965867	5328.363504
422.344686	5463.736129
422.723444	5320.549716
423.102141	5137.071880
423.480777	5435.540956
423.859352	5202.831212
424.237866	5461.744873
424.616319	5451.110559
424.994712	5564.072735
425.373044	5436.261841
425.751314	5582.283903
426.129524	5385.119335
426.507673	5581.815076
426.885762	5667.015617
427.263789	5592.822435
427.641756	5473.894054
428.019662	5597.218321
428.397508	5601.576399
428.775292	5552.215941
429.153016	5649.479963
429.530679	5577.189817
429.908282	5661.183002
430.285824	5531.582498
430.663305	5803.590557
431.040726	5543.149426
431.418086	5541.417789
431.795385	5650.296630
432.172624	5662.201315
432.549802	5653.167567
432.926920	5667.998642
433.303977	5672.021482
433.680974	5714.616712
434.057910	5733.947016
434.434786	5735.413992
434.811601	5707.019693
435.188355	5945.274706
435.565050	5814.454243
435.941683	5798.239372
436.318257	6011.331466
436.694770	5995.209856
437.071222	6029.630854
437.447614	5964.814218
437.823946	5874.030599
438.200218	6029.726636
438.576429	5894.495163
438.952580	5991.050904
439.328670	6031.937182
439.704700	5940.989725
440.080670	5928.812818
440.456580	6200.205856
440.832429	6081.136323
441.208218	5929.614362
441.583947	6086.910965
441.959616	6087.150419
442.335224	6017.932857
442.710773	6155.425287
443.086261	6175.489079
443.461689	5977.449871
443.837057	6125.374968
444.212365	6281.781808
444.587612	6170.788203
444.962800	6324.717315
445.337927	6307.070756
445.712995	5914.400159
446.088002	6494.977245
446.462949	6321.657335
446.837837	6252.613692
447.212664	6426.664569
447.587431	6570.909625
447.962139	7110.774352
448.336786	8036.042852
448.711374	7785.104296
449.085901	6851.691812
449.460369	6772.316324
449.834776	6710.375667
450.209124	7096.412105
450.583412	7248.541525
450.957640	7394.853453
451.331808	7163.361148
451.705917	6712.238373
452.079965	6641.886550
452.453954	6848.684763
452.827883	6725.322688
453.201752	6816.975906
453.575562	6618.180524
453.949311	6818.009342
454.323001	6709.075049
454.696632	6783.984074
455.070202	6925.700991
455.443713	7079.403252
455.817164	7177.804054
456.190556	7259.382526
456.563888	7335.019998
456.937160	7378.497430
457.310373	7036.283742
457.683526	7057.590179
458.056619	6949.069260
458.429653	6938.611386
458.802628	6871.347271
459.175542	6980.551266
459.548398	7343.894950
459.921194	7499.104515
460.293930	7503.177767
460.666607	8031.352059
461.039224	8337.692896
461.411782	8465.781053
461.784280	8489.895413
462.156719	8377.071869
462.529099	8253.840863
462.901419	7842.487750
463.273680	7739.292811
463.645882	7750.244717
464.018024	7616.094572
464.390106	7783.357536
464.762130	8167.455651
465.134094	8636.509810
465.505999	9660.889916
465.877845	10880.337470
466.249631	11534.344002
466.621358	11149.141875
466.993026	10512.653352
467.364634	10265.054560
467.736184	9901.678109
468.107674	9568.228467
468.479105	9603.846740
468.850477	9362.965285
469.221790	9134.608578
469.593043	8813.938261
469.964238	8667.986775
470.335373	8676.624792
470.706449	8740.886901
471.077467	8715.678611
471.448425	10034.595692
471.819324	11101.583630
472.190164	11129.466252
472.560945	9881.175736
472.931667	9089.160055
473.302330	8954.767935
473.672934	8598.585210
474.043479	8960.771949
474.413965	8900.300788
474.784393	8785.473386
475.154761	8933.380840
475.525070	9027.181589
475.895321	8853.602060
476.265513	9021.674129
476.635645	9195.745171
477.005719	9201.638280
477.375734	9312.780599
477.745691	9544.754334
478.115588	9678.531434
478.485427	9930.447974
478.855207	10463.343306
479.224928	11275.218612
479.594591	11902.239848
479.964194	11718.535161
480.333739	11660.735811
480.703226	11576.200702
481.072653	11665.648416
481.442022	11904.533573
481.811333	12089.417890
482.180584	11893.231306
482.549777	11607.128181
482.918912	11433.697366
483.287988	11454.265273
483.657005	11468.604835
484.025964	11152.007771
484.394864	11282.785384
484.763706	11244.316339
485.132489	11007.596357
485.501213	10967.433485
485.869879	11044.033817
486.238487	10885.529858
486.607036	10997.141004
486.975527	10776.368713
487.343959	10966.306787
487.712333	11017.981134
488.080648	10944.869280
488.448905	10982.506535
488.817104	10926.814387
489.185244	11190.202073
489.553326	11343.309477
489.921350	11882.465922
490.289315	12944.281636
490.657222	13293.580666
491.025070	13201.055328
491.392861	13082.709200
491.760593	12698.008668
492.128267	12346.350378
492.495883	12016.815193
492.863440	11680.875221
493.230939	11349.011022
493.598380	11279.317070
493.965763	11144.057871
494.333088	11038.317149
494.700354	10961.938627
495.067563	11024.070848
495.434713	10856.293686
495.801805	10987.023408
496.168839	10904.887889
496.535815	10840.913126
496.902733	10840.978661
497.269593	10776.837540
497.636395	10872.415296
498.003139	10866.423885
498.369825	10731.814995
498.736453	10887.183357
499.103023	10809.952880
499.469535	10842.385143
499.835989	10832.562455
500.202385	10790.153748
500.568723	10643.073043
500.935003	10870.371108
501.301226	10672.105048
501.667390	10927.217680
502.033497	11026.445232
502.399546	10888.446166
502.765537	10794.796651
503.131470	10868.594102
503.497345	11048.971627
503.863163	10653.016719
504.228923	10968.194699
504.594625	11026.919100
504.960269	10778.594382
505.325856	11006.109217
505.691385	10793.306990
506.056856	10944.680237
506.422270	10970.639658
506.787625	10862.368277
507.152924	10977.420010
507.518164	10962.662032
507.883347	10874.550225
508.248472	10798.290170
508.613540	11028.290294
508.978550	10922.179047
509.343503	10891.483461
509.708398	11010.172387
510.073236	11122.660694
510.438016	11119.630960
510.802738	11075.178066
511.167403	11127.391817
511.532010	11023.864161
511.896561	11260.145562
512.261053	11323.386837
512.625488	11204.687829
512.989866	11183.247801
513.354186	11169.558548
513.718449	11062.721375
514.082655	11259.039029
514.446803	11156.839717
514.810894	11282.124993
515.174927	11146.770012
515.538904	11171.254896
515.902822	11331.437560
516.266684	11209.885258
516.630488	11156.731332
516.994235	11211.848788
517.357925	11274.931266
517.721558	11353.631240
518.085133	11377.969930
518.448651	11387.245653
518.812112	11265.768969
519.175516	11283.627257
519.538863	11399.798127
519.902152	11320.815849
520.265385	11482.639408
520.628560	11391.926365
520.991678	11371.734023
521.354739	11439.933273
521.717743	11365.001562
522.080690	11344.358037
522.443580	11484.590334
522.806413	11436.202819
523.169189	11464.705503
523.531908	11515.762309
523.894569	11339.556338
524.257174	11343.680002
524.619722	11462.494957
524.982213	11409.978737
525.344647	11464.697941
525.707025	11413.810014
526.069345	11504.951555
526.431608	11428.908269
526.793815	11534.245700
527.155964	11321.980355
527.518057	11378.116124
527.880093	11325.983031
528.242072	11394.693958
528.603995	11299.143928
528.965860	11220.249871
529.327669	11271.094948
529.689421	11222.485622
530.051117	11187.729387
530.412755	11295.736108
530.774337	11180.301247
531.135862	11160.010603
531.497331	11188.183091
531.858743	11044.031297
532.220098	11204.163549
532.581396	11079.974724
532.942638	11064.936962
533.303824	11020.083295
533.664953	11034.180882
534.026025	10950.170053
534.387040	11054.456403
534.747999	11052.318954
535.108902	11108.295926
535.469748	10861.375169
535.830537	10972.487241
536.191270	10949.038314
536.551947	10974.523868
536.912567	10965.578340
537.273131	10901.490151
537.633638	10874.144412
537.994089	10862.436332
538.354483	10814.610906
538.714821	10957.991403
539.075103	10965.459873
539.435328	10930.370922
539.795497	10756.776268
540.155609	10912.174877
540.515665	11005.554690
540.875665	10733.957485
541.235609	10804.087497
541.595496	10799.663885
541.955328	10958.888729
542.315102	10835.040182
542.674821	10795.086517
543.034483	10792.137442
543.394090	10797.108020
543.753640	10719.262522
544.113134	10947.059661
544.472571	10795.651126
544.831953	10942.815010
545.191278	10753.512121
545.550548	10777.583631
545.909761	10911.990875
546.268918	10890.772658
546.628019	10974.695267
546.987064	10838.856335
547.346053	10750.537840
547.704986	10860.553461
548.063863	10840.204844
548.422684	10828.373256
548.781449	10748.700340
549.140158	10847.867398
549.498811	10726.582277
549.857408	10582.112890
550.215949	10811.515637
550.574434	10664.828143
550.932864	10766.966961
551.291237	10820.854375
551.649555	10768.428895
552.007817	10779.879876
552.366022	10747.205638
552.724173	10738.310522
553.082267	10726.720909
553.440305	10859.512463
553.798288	10657.531072
554.156215	10816.612244
554.514086	10790.980497
554.871902	10635.864193
555.229661	10681.534527
555.587365	10656.792543
555.945014	10543.101921
556.302606	10680.319608
556.660143	10569.525129
557.017625	10726.804088
557.375050	10622.447162
557.732421	10754.074210
558.089735	10669.576910
558.446994	10667.222691
558.804197	10707.617457
559.161345	10711.032838
559.518437	10561.595394
559.875474	10642.906685
560.232455	10674.736531
560.589381	10621.149065
560.946251	10615.273600
561.303065	10732.576209
561.659825	10668.336786
562.016528	10597.773235
562.373177	10471.986364
562.729770	10588.384086
563.086307	10498.530560
563.442789	10598.393297
563.799216	10472.543412
564.155587	10527.159272
564.511904	10475.764709
564.868164	10469.173400
565.224370	10483.432304
565.580520	10402.332741
565.936615	10411.656355
566.292654	10275.842630
566.648638	10415.827910
567.004567	10372.584892
567.360441	10351.742242
567.716260	10264.033727
568.072023	10357.448828
568.427732	10307.816148
568.783385	10215.114370
569.138982	10289.567171
569.494525	10306.817999
569.850013	10182.891314
570.205445	10257.868396
570.560823	10157.062963
570.916145	10080.616385
571.271412	10149.410491
571.626625	10095.918808
571.981782	10062.395135
572.336884	10044.698164
572.691931	10045.782012
573.046923	9995.907357
573.401860	9951.169637
573.756743	9890.418692
574.111570	9926.727602
574.466342	9916.332743
574.821059	9946.335170
575.175722	9836.979940
575.530330	9840.488583
575.884882	9838.706536
576.239380	9764.072253
576.593823	9743.204397
576.948211	9756.470193
577.302544	9637.335125
577.656823	9651.057145
578.011047	9657.953444
578.365216	9626.312642
578.719330	9551.252382
579.073389	9559.693794
579.427394	9514.840127
579.781344	9488.099327
580.135239	9435.610833
580.489080	9440.213406
580.842866	9345.381741
581.196597	9346.284107
581.550273	9388.171055
581.903895	9363.691212
582.257463	9421.843442
582.610975	9305.450761
582.964434	9333.126696
583.317837	9252.175847
583.671186	9233.705060
584.024481	9222.768276
584.377721	9152.018203
584.730906	9128.223957
585.084037	9160.419286
585.437113	9099.812013
585.790135	9114.842214
586.143103	9009.789609
586.496016	8985.372780
586.848874	9040.928816
587.201679	9027.983133
587.554428	8917.218901
587.907124	8964.825037
588.259765	8935.039379
588.612352	8937.610368
588.964884	8818.946647
589.317362	8830.793359
589.669786	8829.530550
590.022155	8874.197694
590.374470	8893.129747
590.726731	8824.620466
591.078937	8684.337757
591.431090	8793.430847
591.783188	8671.250922
592.135232	8661.508892
592.487222	8660.268768
592.839157	8711.829690
593.191038	8648.906008
593.542866	8591.046164
593.894639	8487.987336
594.246358	8538.212352
594.598022	8560.655568
594.949633	8453.273950
595.301190	8430.797966
595.652692	8458.156308
596.004141	8566.286537
596.355535	8346.996345
596.706876	8330.413469
597.058162	8264.780167
597.409395	8336.331784
597.760573	8399.923419
598.111698	8308.489491
598.462768	8292.264538
598.813785	8258.922346
599.164748	8223.901450
599.515657	8216.145635
599.866511	8126.861759
600.217312	8253.876151
600.568060	8111.082948
600.918753	8213.637661
601.269392	8184.693876
601.619978	8098.643901
601.970510	8153.506778
602.320988	8157.441399
602.671412	8211.863175
603.021783	8146.567630
603.372100	8121.533260
603.722363	8123.693394
604.072572	8102.810414
604.422728	8107.622196
604.772830	8039.450672
605.122878	8050.266468
605.472872	8042.568626
605.822813	8073.062566
606.172701	8015.537959
606.522534	8094.837830
606.872314	8091.145184
607.222041	8056.840132
607.571714	8115.196529
607.921333	8069.576608
608.270899	8078.938030
608.620411	8172.887494
608.969870	8077.090447
609.319276	8064.416987
609.668627	8080.450377
610.017926	8119.736088
610.367171	8162.893407
610.716362	8146.401272
611.065500	8126.652552
611.414585	8155.800503
611.763616	8144.256261
612.112594	8122.647355
612.461518	8139.482288
612.810389	8197.989920
613.159207	8138.663101
613.507971	8084.868948
613.856682	8209.085499
614.205340	8156.846543
614.553945	8237.578101
614.902496	8135.081361
615.250994	8188.867952
615.599439	8167.095208
615.947830	8186.044906
616.296169	8160.725710
616.644454	8174.344388
616.992686	8165.003129
617.340864	8227.780618
617.688990	8123.559804
618.037063	8218.938434
618.385082	8165.476998
618.733048	8246.279132
619.080961	8184.076335
619.428821	8201.667441
619.776628	8207.061476
620.124382	8161.754106
620.472083	8144.014285
620.819731	8171.614603
621.167326	8064.991678
621.514868	8071.351094
621.862357	7961.201882
622.209793	7977.346178
622.557176	7908.143738
622.904506	7882.398565
623.251783	7812.293759
623.599007	7769.010413
623.946179	7767.261132
624.293297	7727.105821
624.640363	7642.621124
624.987376	7631.028991
625.334336	7573.764003
625.681243	7521.668720
626.028097	7507.639188
626.374899	7487.023390
626.721647	7475.973181
627.068343	7408.736791
627.414987	7376.879219
627.761577	7329.605799
628.108115	7368.047118
628.454600	7256.314984
628.801032	7305.914897
629.147412	7268.965760
629.493739	7257.734069
629.840014	7193.303082
630.186236	7248.070177
630.532405	7136.015409
630.878521	7178.043509
631.224585	7131.732949
631.570597	7052.531381
631.916556	7084.850218
632.262462	7082.455670
632.608316	7040.223404
632.954117	7019.171545
633.299866	6997.550037
633.645562	6994.316136
633.991206	6917.125989
634.336797	6858.189859
634.682336	6812.196892
635.027823	6778.985770
635.373257	6766.955057
635.718639	6699.368307
636.063968	6712.472787
636.409245	6607.851200
636.754470	6602.663853
637.099642	6559.027625
637.444762	6505.107444
637.789829	6509.047105
638.134845	6449.914371
638.479808	6436.298214
638.824719	6435.216887
639.169577	6365.028902
639.514383	6380.979112
639.859137	6313.228525
640.203839	6316.084339
640.548489	6302.528676
