Dividing Wavelength (nm)	Counts (n)	Blue Motor Position (mm): 0.000000	Red Motor Position (mm): 48.800000	
326.493990	2125.317694
326.888308	2125.317694
327.282561	2125.317694
327.676750	2094.027252
328.070874	2093.225709
328.464933	2097.619074
328.858929	2102.503952
329.252859	2111.139449
329.646726	2124.604371
330.040528	2136.110804
330.434265	2153.379277
330.827938	2170.241937
331.221547	2190.149453
331.615091	2211.642413
332.008571	2230.206462
332.401986	2249.761097
332.795338	2264.919847
333.188625	2286.145625
333.581847	2304.387040
333.975006	2324.942345
334.368100	2340.605210
334.761129	2360.800073
335.154095	2374.562422
335.546996	2396.098232
335.939833	2424.200144
336.332606	2440.629264
336.725315	2451.636624
337.117960	2461.028293
337.510540	2466.770168
337.903056	2481.313896
338.295508	2485.853455
338.687896	2494.884683
339.080220	2504.944305
339.472480	2510.671056
339.864676	2515.316479
340.256807	2517.862262
340.648875	2519.845956
341.040879	2523.964578
341.432818	2526.154960
341.824694	2529.487163
342.216506	2527.327028
342.608253	2527.919364
342.999937	2527.614374
343.391557	2525.902902
343.783113	2526.802748
344.174605	2524.660258
344.566033	2525.817203
344.957397	2522.767304
345.348697	2519.533404
345.739934	2518.169772
346.131106	2518.073990
346.522215	2514.739267
346.913260	2514.504853
347.304241	2513.337826
347.695159	2510.653412
348.086012	2508.538648
348.476802	2507.389265
348.867528	2505.904645
349.258191	2504.167967
349.648789	2504.684686
350.039324	2502.252329
350.429796	2501.387771
350.820203	2500.770230
351.210548	2497.377533
351.600828	2498.292503
351.991045	2496.578510
352.381198	2494.995588
352.771288	2495.083808
353.161314	2496.671772
353.551276	2500.061947
353.941175	2496.737307
354.331010	2497.947183
354.720782	2496.928870
355.110490	2496.288644
355.500135	2495.774446
355.889717	2496.553304
356.279235	2498.811741
356.668689	2498.826865
357.058080	2494.720845
357.447408	2495.350989
357.836672	2493.299240
358.225873	2496.649086
358.615010	2493.145484
359.004084	2498.383243
359.393095	2500.883656
359.782043	2500.906341
360.170927	2501.743172
360.559748	2500.722339
360.948505	2503.247957
361.337199	2507.961436
361.725830	2504.891373
362.114398	2507.232989
362.502903	2503.583193
362.891344	2506.174347
363.279722	2504.987155
363.668037	2508.216014
364.056289	2509.390603
364.444478	2510.008144
364.832603	2507.149810
365.220665	2510.361025
365.608665	2510.406395
365.996601	2511.278515
366.384474	2513.854544
366.772284	2516.904443
367.160031	2515.321520
367.547715	2518.079031
367.935336	2517.612725
368.322893	2522.101872
368.710388	2525.015659
369.097820	2534.056968
369.485189	2535.294572
369.872495	2541.485109
370.259738	2550.788558
370.646918	2556.689229
371.034035	2565.062585
371.421090	2571.651373
371.808081	2584.773497
372.195010	2589.232397
372.581875	2606.775613
372.968678	2619.312962
373.355418	2630.335445
373.742096	2647.581233
374.128710	2661.149498
374.515262	2675.980573
374.901751	2692.409693
375.288177	2705.360417
375.674540	2727.188613
376.060841	2744.701582
376.447079	2766.144130
376.833254	2786.633900
377.219367	2799.927422
377.605417	2832.952021
377.991404	2844.229082
378.377329	2867.630118
378.763191	2883.842469
379.148991	2919.251534
379.534727	2948.676749
379.920402	2974.757158
380.306013	2988.849704
380.691563	3037.942981
381.077049	3059.171279
381.462474	3077.440421
381.847835	3114.709671
382.233134	3135.786736
382.618371	3134.110552
383.003545	3204.931202
383.388657	3213.864126
383.773706	3245.635998
384.158693	3258.879110
384.543618	3284.094961
384.928480	3324.038544
385.313280	3369.779453
385.698017	3369.587889
386.082692	3421.927669
386.467305	3426.260541
386.851856	3456.124336
387.236344	3482.086278
387.620770	3511.869415
388.005133	3538.910165
388.389435	3566.835636
388.773674	3577.086823
389.157851	3618.240282
389.541965	3635.886841
389.926018	3599.361161
390.310008	3671.371523
390.693936	3687.296528
391.077802	3728.979309
391.461606	3720.099316
391.845348	3779.221968
392.229027	3781.011578
392.612645	3793.243938
392.996200	3872.107749
393.379694	3909.109818
393.763125	3978.100529
394.146494	3942.575518
394.529801	4004.874097
394.913047	4055.094072
395.296230	4019.528731
395.679351	4074.510076
396.062410	4096.602932
396.445408	4079.866302
396.828343	4114.738483
397.211217	4133.393273
397.594028	4056.976942
397.976778	4123.676449
398.359466	4148.907424
398.742092	4180.555788
399.124656	4095.095627
399.507158	4180.255839
399.889598	4205.627967
400.271977	4269.156587
400.654294	4240.273296
401.036549	4246.816714
401.418742	4218.324113
401.800874	4323.260771
402.182944	4341.076209
402.564952	4404.866969
402.946898	4390.756780
403.328783	4386.509608
403.710606	4303.118841
404.092367	4492.467100
404.474067	4461.214467
404.855705	4465.317966
405.237282	4397.826998
405.618797	4505.314480
406.000250	4537.943349
406.381642	4619.466368
406.762972	4582.285338
407.144240	4591.840845
407.525447	4592.569292
407.906593	4648.445441
408.287677	4693.730126
408.668700	4622.213797
409.049661	4674.054502
409.430560	4712.105132
409.811399	4639.678874
410.192176	4805.147188
410.572891	4742.026900
410.953545	4846.812324
411.334138	4723.873705
411.714669	4792.929951
412.095139	4690.644940
412.475547	4829.818595
412.855894	4812.527437
413.236180	4820.416843
413.616405	4771.076549
413.996568	4857.620558
414.376670	4799.680056
414.756711	4756.086678
415.136691	4789.864930
415.516609	4867.700345
415.896466	4905.922374
416.276262	4936.212147
416.655997	4917.582562
417.035670	5100.883958
417.415283	5187.337225
417.794834	5131.945027
418.174324	5088.074386
418.553753	5000.111292
418.933121	5184.269683
419.312428	5247.894086
419.691674	5187.836300
420.070859	5312.012522
420.449983	5225.390375
420.829045	5344.863201
421.208047	5248.685547
421.586988	5321.842772
421.965867	5329.419626
422.344686	5465.094720
422.723444	5318.243388
423.102141	5134.982322
423.480777	5432.601963
423.859352	5204.250297
424.237866	5460.908042
424.616319	5454.117607
424.994712	5563.543413
425.373044	5441.572696
425.751314	5579.428089
426.129524	5386.319129
426.507673	5578.797945
426.885762	5666.577036
427.263789	5596.167241
427.641756	5476.961596
428.019662	5599.479279
428.397508	5601.825936
428.775292	5552.881373
429.153016	5655.846940
429.530679	5577.986319
429.908282	5664.119474
430.285824	5533.172982
430.663305	5810.607843
431.040726	5539.602974
431.418086	5543.020876
431.795385	5646.679602
432.172624	5660.053783
432.549802	5651.476260
432.926920	5667.088713
433.303977	5678.718655
433.680974	5716.786929
434.057910	5732.444752
434.434786	5737.586729
434.811601	5708.169076
435.188355	5940.533501
435.565050	5813.130940
435.941683	5795.774248
436.318257	6011.979254
436.694770	5994.836810
437.071222	6031.261667
437.447614	5962.165092
437.823946	5869.622110
438.200218	6024.965266
438.576429	5893.121449
438.952580	5985.913968
439.328670	6037.185023
439.704700	5946.396363
440.080670	5927.131593
440.456580	6200.556216
440.832429	6083.235963
441.208218	5927.839876
441.583947	6087.548671
441.959616	6088.098156
442.335224	6015.954204
442.710773	6156.330174
443.086261	6175.743657
443.461689	5977.568338
443.837057	6125.019567
444.212365	6278.868021
444.587612	6170.147976
444.962800	6327.845351
445.337927	6304.572864
445.712995	5914.218678
446.088002	6494.697461
446.462949	6327.187480
446.837837	6251.923053
447.212664	6427.791267
447.587431	6570.332413
447.962139	7109.458611
448.336786	8035.153089
448.711374	7782.016589
449.085901	6856.062492
449.460369	6772.999400
449.834776	6705.974739
450.209124	7099.197342
450.583412	7248.765856
450.957640	7399.425780
451.331808	7158.544326
451.705917	6713.362550
452.079965	6637.117619
452.453954	6846.963209
452.827883	6722.245063
453.201752	6815.317366
453.575562	6616.559793
453.949311	6820.897923
454.323001	6711.025975
454.696632	6782.943076
455.070202	6919.465084
455.443713	7075.173723
455.817164	7173.491347
456.190556	7261.827486
456.563888	7333.462282
456.937160	7372.947119
457.310373	7033.692589
457.683526	7058.280817
458.056619	6949.570855
458.429653	6942.848476
458.802628	6876.751388
459.175542	6984.987481
459.548398	7335.193918
459.921194	7495.910944
460.293930	7500.349680
460.666607	8033.469343
461.039224	8339.041404
461.411782	8463.986402
461.784280	8483.578847
462.156719	8375.582208
462.529099	8250.579237
462.901419	7841.776948
463.273680	7729.734783
463.645882	7750.411075
464.018024	7612.696835
464.390106	7773.653315
464.762130	8165.247625
465.134094	8633.079305
465.505999	9656.685594
465.877845	10876.833868
466.249631	11534.815350
466.621358	11142.923612
466.993026	10518.627119
467.364634	10256.421584
467.736184	9893.861800
468.107674	9561.611953
468.479105	9592.604967
468.850477	9355.040592
469.221790	9133.010532
469.593043	8799.117269
469.964238	8664.674737
470.335373	8672.879215
470.706449	8734.807269
471.077467	8717.140546
471.448425	10024.016830
471.819324	11096.960892
472.190164	11127.510284
472.560945	9880.172547
472.931667	9085.893388
473.302330	8953.999159
473.672934	8595.086649
474.043479	8954.904046
474.413965	8892.577741
474.784393	8770.372610
475.154761	8934.414276
475.525070	9020.764201
475.895321	8845.511008
476.265513	9026.329634
476.635645	9190.726703
477.005719	9189.395838
477.375734	9297.659658
477.745691	9543.100836
478.115588	9669.497686
478.485427	9923.723075
478.855207	10453.392068
479.224928	11266.855338
479.594591	11895.961091
479.964194	11716.246477
480.333739	11653.431179
480.703226	11566.609907
481.072653	11659.523414
481.442022	11895.784651
481.811333	12082.496386
482.180584	11893.876574
482.549777	11599.997469
482.918912	11425.654205
483.287988	11445.070209
483.657005	11456.677465
484.025964	11146.586010
484.394864	11276.521750
484.763706	11243.446740
485.132489	10996.553710
485.501213	10955.269180
485.869879	11036.358661
486.238487	10875.697087
486.607036	10992.747639
486.975527	10774.584144
487.343959	10957.716661
487.712333	11007.019145
488.080648	10934.575244
488.448905	10986.932668
488.817104	10922.549571
489.185244	11180.991885
489.553326	11333.174237
489.921350	11874.175745
490.289315	12940.783075
490.657222	13282.364098
491.025070	13190.421014
491.392861	13068.064648
491.760593	12686.703880
492.128267	12340.784945
492.495883	12006.750529
492.863440	11670.548417
493.230939	11337.557521
493.598380	11273.426482
493.965763	11138.714248
494.333088	11039.179186
494.700354	10958.452669
495.067563	11024.310303
495.434713	10851.960815
495.801805	10974.778446
496.168839	10902.392518
496.535815	10839.723414
496.902733	10838.193423
497.269593	10767.743298
497.636395	10870.930677
498.003139	10859.247803
498.369825	10724.883408
498.736453	10887.236289
499.103023	10805.935080
499.469535	10836.103865
499.835989	10826.364356
500.202385	10794.330344
500.568723	10644.986161
500.935003	10859.991373
501.301226	10673.113279
501.667390	10928.180540
502.033497	11026.583863
502.399546	10879.916533
502.765537	10786.947574
503.131470	10861.665036
503.497345	11043.534743
503.863163	10650.327264
504.228923	10963.554317
504.594625	11023.735611
504.960269	10776.277972
505.325856	10996.258802
505.691385	10785.430187
506.056856	10942.411718
506.422270	10962.941817
506.787625	10859.283091
507.152924	10974.836419
507.518164	10952.856988
507.883347	10873.778928
508.248472	10797.874275
508.613540	11025.086641
508.978550	10910.274362
509.343503	10882.452234
509.708398	11007.104845
510.073236	11119.109201
510.438016	11121.460899
510.802738	11065.811602
511.167403	11126.524738
511.532010	11021.139417
511.896561	11250.937895
512.261053	11317.297123
512.625488	11181.075064
512.989866	11176.129692
513.354186	11160.895325
513.718449	11062.948227
514.082655	11265.035481
514.446803	11155.302165
514.810894	11274.893458
515.174927	11145.194652
515.538904	11171.350678
515.902822	11312.472739
516.266684	11211.271576
516.630488	11148.597430
516.994235	11202.051305
517.357925	11268.816347
517.721558	11354.689882
518.085133	11367.640606
518.448651	11389.042825
518.812112	11260.579101
519.175516	11280.836978
519.538863	11404.241904
519.902152	11309.742954
520.265385	11483.229223
520.628560	11385.456044
520.991678	11369.271419
521.354739	11429.651840
521.717743	11363.428722
522.080690	11340.206647
522.443580	11475.448202
522.806413	11426.112950
523.169189	11463.198198
523.531908	11516.145437
523.894569	11336.009886
524.257174	11340.002480
524.619722	11460.682662
524.982213	11410.334138
525.344647	11455.255860
525.707025	11401.996070
526.069345	11507.474652
526.431608	11421.364183
526.793815	11538.412213
527.155964	11324.014461
527.518057	11378.383305
527.880093	11323.321302
528.242072	11387.447300
528.603995	11306.267079
528.965860	11219.206352
529.327669	11271.001687
529.689421	11217.487318
530.051117	11192.498319
530.412755	11296.179730
530.774337	11184.613954
531.135862	11159.035139
531.497331	11191.759790
531.858743	11042.826461
532.220098	11206.802593
532.581396	11080.738458
532.942638	11062.199615
533.303824	11030.405058
533.664953	11033.772549
534.026025	10958.886208
534.387040	11052.623943
534.747999	11053.599407
535.108902	11112.878335
535.469748	10870.522343
535.830537	10974.234001
536.191270	10952.461258
536.551947	10976.086625
536.912567	10976.734413
537.273131	10895.692824
537.633638	10880.201358
537.994089	10870.940759
538.354483	10815.788015
538.714821	10957.719181
539.075103	10964.575150
539.435328	10933.166241
539.795497	10766.321693
540.155609	10918.683006
540.515665	11006.542756
540.875665	10743.213044
541.235609	10805.332662
541.595496	10804.410131
541.955328	10961.525252
542.315102	10845.460247
542.674821	10791.557709
543.034483	10785.972111
543.394090	10799.981477
543.753640	10728.439942
544.113134	10956.471496
544.472571	10812.773405
544.831953	10948.655187
545.191278	10752.640002
545.550548	10786.786257
545.909761	10922.421022
546.268918	10892.378266
546.628019	10970.059926
546.987064	10840.577889
547.346053	10754.283418
547.704986	10863.227793
548.063863	10850.052738
548.422684	10838.155615
548.781449	10755.135373
549.140158	10861.987670
549.498811	10743.533157
549.857408	10594.993038
550.215949	10821.129118
550.574434	10668.132619
550.932864	10773.827971
551.291237	10832.827115
551.649555	10776.618250
552.007817	10790.209201
552.366022	10754.563202
552.724173	10748.544064
553.082267	10728.878523
553.440305	10878.164732
553.798288	10668.235963
554.156215	10822.376803
554.514086	10803.099431
554.871902	10647.295010
555.229661	10682.177274
555.587365	10659.792030
555.945014	10561.865096
556.302606	10687.112563
556.660143	10569.363812
557.017625	10731.938503
557.375050	10629.887905
557.732421	10765.464697
558.089735	10679.371872
558.446994	10684.735659
558.804197	10720.164888
559.161345	10715.297654
559.518437	10558.989118
559.875474	10658.740949
560.232455	10689.126504
560.589381	10631.743050
560.946251	10624.604776
561.303065	10739.399411
561.659825	10665.748153
562.016528	10603.668864
562.373177	10482.315688
562.729770	10593.037071
563.086307	10514.122848
563.442789	10610.285379
563.799216	10477.793773
564.155587	10533.702690
564.511904	10485.156378
564.868164	10474.433844
565.224370	10490.497481
565.580520	10414.670965
565.936615	10419.936451
566.292654	10288.763107
566.648638	10419.465103
567.004567	10378.281396
567.360441	10356.470844
567.716260	10267.260065
568.072023	10361.771618
568.427732	10317.074227
568.783385	10223.255833
569.138982	10299.896495
569.494525	10315.962653
569.850013	10187.466162
570.205445	10268.890878
570.560823	10167.480507
570.916145	10087.111912
571.271412	10156.689917
571.626625	10100.135733
571.981782	10074.932484
572.336884	10044.234378
572.691931	10059.025123
573.046923	9999.221915
573.401860	9957.811357
573.756743	9892.374659
574.111570	9939.519530
574.466342	9925.351367
574.821059	9951.646026
575.175722	9836.596813
575.530330	9854.404689
575.884882	9840.468419
576.239380	9764.281461
576.593823	9749.268905
576.948211	9766.091235
577.302544	9644.889294
577.656823	9652.158637
578.011047	9663.803703
578.365216	9632.157860
578.719330	9553.304131
579.073389	9568.851050
579.427394	9511.533130
579.781344	9488.671498
580.135239	9437.218961
580.489080	9447.616341
580.842866	9349.018933
581.196597	9354.145787
581.550273	9388.922187
581.903895	9368.313950
582.257463	9424.618597
582.610975	9306.748858
582.964434	9340.242284
583.317837	9251.462524
583.671186	9238.761337
584.024481	9228.986540
584.377721	9157.525663
584.730906	9128.118092
585.084037	9161.608998
585.437113	9097.374616
585.790135	9113.869271
586.143103	9018.762863
586.496016	8990.048450
586.848874	9044.407212
587.201679	9033.530923
587.554428	8921.365250
587.907124	8969.167991
588.259765	8940.561963
588.612352	8938.729504
588.964884	8817.426740
589.317362	8829.535591
589.669786	8829.170107
590.022155	8879.944609
590.374470	8900.310871
590.726731	8840.255605
591.078937	8686.424795
591.431090	8801.499214
591.783188	8665.075509
592.135232	8670.028442
592.487222	8663.177514
592.839157	8714.866985
593.191038	8650.796440
593.542866	8596.924150
593.894639	8489.600505
594.246358	8547.326758
594.598022	8558.291267
594.949633	8462.017832
595.301190	8437.094367
595.652692	8459.368705
596.004141	8579.111233
596.355535	8352.594546
596.706876	8327.998757
597.058162	8265.233871
597.409395	8339.676590
597.760573	8403.701764
598.111698	8310.858834
598.462768	8290.742109
598.813785	8258.640042
599.164748	8227.037048
599.515657	8214.353505
599.866511	8131.539950
600.217312	8254.085359
600.568060	8114.115202
600.918753	8219.722334
601.269392	8189.104886
601.619978	8101.398891
601.970510	8164.425917
602.320988	8162.306112
602.671412	8216.070018
603.021783	8156.110534
603.372100	8129.576421
603.722363	8133.672358
604.072572	8107.183615
604.422728	8114.566385
604.772830	8045.696662
605.122878	8050.034575
605.472872	8047.587095
605.822813	8073.092812
606.172701	8023.172787
606.522534	8100.219261
606.872314	8095.989733
607.222041	8063.159219
607.571714	8115.216694
607.921333	8074.695899
608.270899	8086.393897
608.620411	8178.891508
608.969870	8081.307373
609.319276	8072.195487
609.668627	8086.560255
610.017926	8125.750185
610.367171	8169.688882
610.716362	8147.560737
611.065500	8138.879870
611.414585	8163.957090
611.763616	8150.146849
612.112594	8138.179150
612.461518	8149.804051
612.810389	8213.972898
613.159207	8156.120616
613.507971	8100.370496
613.856682	8216.513639
614.205340	8172.690889
614.553945	8252.383970
614.902496	8148.546283
615.250994	8203.520065
615.599439	8184.025923
615.947830	8199.214920
616.296169	8170.041763
616.644454	8181.906118
616.992686	8178.755397
617.340864	8242.823421
617.688990	8143.570664
618.037063	8237.812514
618.385082	8180.842435
618.733048	8265.669931
619.080961	8207.270684
619.428821	8223.936738
619.776628	8228.539312
620.124382	8180.141714
620.472083	8172.501846
620.819731	8191.315432
621.167326	8086.656037
621.514868	8091.097293
621.862357	7980.811971
622.209793	7998.755958
622.557176	7932.515196
622.904506	7905.262719
623.251783	7842.346598
623.599007	7791.103269
623.946179	7802.516442
624.293297	7759.568331
624.640363	7673.253695
624.987376	7655.569328
625.334336	7604.426822
625.681243	7549.334572
626.028097	7538.284363
626.374899	7513.786876
626.721647	7510.147163
627.068343	7438.835000
627.414987	7409.021616
627.761577	7367.754731
628.108115	7404.275370
628.454600	7295.472147
628.801032	7346.748243
629.147412	7302.156717
629.493739	7298.632950
629.840014	7232.273721
630.186236	7289.556353
630.532405	7174.527304
630.878521	7225.508493
631.224585	7183.646751
631.570597	7102.625327
631.916556	7139.602190
632.262462	7134.903835
632.608316	7096.641477
632.954117	7068.050573
633.299866	7059.422638
633.645562	7050.454426
633.991206	6972.016592
634.336797	6915.422079
634.682336	6868.988011
635.027823	6839.101530
635.373257	6829.931671
635.718639	6759.146309
636.063968	6774.748681
636.409245	6668.438308
636.754470	6661.773902
637.099642	6626.879035
637.444762	6573.573875
637.789829	6577.609318
638.134845	6523.366503
638.479808	6503.204408
638.824719	6511.764287
639.169577	6438.717968
639.514383	6459.961390
639.859137	6388.659310
640.203839	6395.908490
640.548489	6381.074894
