Dividing Wavelength (nm)	Counts (n)	Blue Motor Position (mm): 0.000000	Red Motor Position (mm): 38.100000	
326.493990	2129.431276
326.888308	2129.431276
327.282561	2129.431276
327.676750	2097.684609
328.070874	2094.246542
328.464933	2096.948601
328.858929	2101.858685
329.252859	2112.613986
329.646726	2126.565380
330.040528	2136.443521
330.434265	2154.543783
330.827938	2170.763696
331.221547	2188.473269
331.615091	2207.680066
332.008571	2228.374002
332.401986	2246.927969
332.795338	2267.395053
333.188625	2285.187806
333.581847	2304.656742
333.975006	2322.522591
334.368100	2343.652588
334.761129	2357.722448
335.154095	2375.031250
335.546996	2393.696122
335.939833	2417.215625
336.332606	2430.846905
336.725315	2443.296035
337.117960	2452.143260
337.510540	2462.598613
337.903056	2472.653194
338.295508	2481.139977
338.687896	2488.003507
339.080220	2495.192193
339.472480	2502.905158
339.864676	2507.399347
340.256807	2510.592918
340.648875	2517.446367
341.040879	2518.376459
341.432818	2516.818743
341.824694	2521.580113
342.216506	2523.039527
342.608253	2522.333765
342.999937	2519.525842
343.391557	2522.328724
343.783113	2520.491223
344.174605	2517.088445
344.566033	2517.020389
344.957397	2516.170955
345.348697	2514.527538
345.739934	2512.962260
346.131106	2510.900428
346.522215	2511.097033
346.913260	2507.863133
347.304241	2504.477998
347.695159	2503.300889
348.086012	2502.975734
348.476802	2498.620178
348.867528	2500.256032
349.258191	2498.796618
349.648789	2497.778305
350.039324	2496.258397
350.429796	2497.488438
350.820203	2493.697491
351.210548	2492.432161
351.600828	2491.890237
351.991045	2493.747902
352.381198	2489.329331
352.771288	2493.090032
353.161314	2489.220946
353.551276	2490.753457
353.941175	2494.856956
354.331010	2489.271358
354.720782	2489.425113
355.110490	2491.512151
355.500135	2489.697335
355.889717	2491.353354
356.279235	2490.352685
356.668689	2491.612974
357.058080	2489.961996
357.447408	2489.543580
357.836672	2486.387818
358.225873	2490.526605
358.615010	2486.055102
359.004084	2491.759167
359.393095	2494.425938
359.782043	2494.211688
360.170927	2496.200424
360.559748	2496.702018
360.948505	2496.497852
361.337199	2500.266114
361.725830	2496.480208
362.114398	2499.577997
362.502903	2497.616988
362.891344	2499.651093
363.279722	2499.315857
363.668037	2502.315343
364.056289	2499.915754
364.444478	2501.433141
364.832603	2501.823831
365.220665	2503.164778
365.608665	2505.322392
365.996601	2502.093533
366.384474	2506.943123
366.772284	2506.895232
367.160031	2505.660149
367.547715	2508.762979
367.935336	2511.344050
368.322893	2519.059536
368.710388	2518.772190
369.097820	2528.857018
369.485189	2529.295599
369.872495	2535.158461
370.259738	2540.197094
370.646918	2551.968188
371.034035	2555.257541
371.421090	2564.671896
371.808081	2577.027764
372.195010	2586.046388
372.581875	2599.382761
372.968678	2612.840121
373.355418	2621.957047
373.742096	2640.846251
374.128710	2656.856956
374.515262	2670.463030
374.901751	2687.033302
375.288177	2698.781712
375.674540	2720.904815
376.060841	2737.563308
376.447079	2761.072729
376.833254	2778.870523
377.219367	2791.395269
377.605417	2829.992864
377.991404	2837.834379
378.377329	2859.818851
378.763191	2879.509597
379.148991	2915.326996
379.534727	2940.142075
379.920402	2967.349183
380.306013	2981.923158
380.691563	3031.903678
381.077049	3053.550393
381.462474	3068.298288
381.847835	3109.078703
382.233134	3130.874131
382.618371	3129.137454
383.003545	3201.500697
383.388657	3204.464895
383.773706	3238.873291
384.158693	3253.419540
384.543618	3279.878036
384.928480	3318.372287
385.313280	3365.028166
385.698017	3362.023638
386.082692	3417.269643
386.467305	3421.146290
386.851856	3457.021662
387.236344	3474.466574
387.620770	3505.835154
388.005133	3536.926471
388.389435	3559.798186
388.773674	3568.685740
389.157851	3613.970425
389.541965	3625.227321
389.926018	3594.151128
390.310008	3663.371212
390.693936	3681.380734
391.077802	3723.650809
391.461606	3717.908935
391.845348	3776.242647
392.229027	3775.451185
392.612645	3792.152528
392.996200	3868.412583
393.379694	3906.470774
393.763125	3969.326401
394.146494	3935.795166
394.529801	4000.135412
394.913047	4050.310017
395.296230	4015.594111
395.679351	4068.584199
396.062410	4093.580761
396.445408	4073.330446
396.828343	4105.243470
397.211217	4129.751039
397.594028	4052.321437
397.976778	4118.380717
398.359466	4146.951456
398.742092	4175.086136
399.124656	4095.342644
399.507158	4175.146630
399.889598	4200.155794
400.271977	4263.714662
400.654294	4234.854056
401.036549	4239.940580
401.418742	4211.100139
401.800874	4316.064524
402.182944	4337.436496
402.564952	4400.002256
402.946898	4385.955081
403.328783	4384.485584
403.710606	4297.077018
404.092367	4487.746059
404.474067	4455.833035
404.855705	4460.130618
405.237282	4392.402717
405.618797	4501.775590
406.000250	4532.614849
406.381642	4615.196511
406.762972	4578.239812
407.144240	4585.330195
407.525447	4586.154423
407.906593	4646.214730
408.287677	4690.476061
408.668700	4620.033498
409.049661	4672.232125
409.430560	4712.813414
409.811399	4638.617712
410.192176	4801.509995
410.572891	4740.075974
410.953545	4840.934339
411.334138	4720.596955
411.714669	4790.497595
412.095139	4683.166388
412.475547	4826.062935
412.855894	4806.533505
413.236180	4817.979445
413.616405	4769.032362
413.996568	4856.614848
414.376670	4799.836332
414.756711	4752.809928
415.136691	4785.542140
415.516609	4864.577350
415.896466	4900.162855
416.276262	4936.191982
416.655997	4913.912602
417.035670	5096.987146
417.415283	5190.140107
417.794834	5132.529801
418.174324	5088.598666
418.553753	4995.443184
418.933121	5177.270041
419.312428	5247.347121
419.691674	5188.479047
420.070859	5309.146626
420.449983	5223.179829
420.829045	5340.104352
421.208047	5248.960290
421.586988	5320.315302
421.965867	5330.284184
422.344686	5460.136745
422.723444	5318.387061
423.102141	5136.759329
423.480777	5433.952992
423.859352	5205.442529
424.237866	5463.713444
424.616319	5452.098625
424.994712	5561.852106
425.373044	5442.159991
425.751314	5587.514100
426.129524	5383.854005
426.507673	5582.684675
426.885762	5667.020658
427.263789	5593.916365
427.641756	5475.663499
428.019662	5595.353094
428.397508	5607.996308
428.775292	5552.785591
429.153016	5650.117669
429.530679	5575.899282
429.908282	5657.160161
430.285824	5534.309762
430.663305	5810.920394
431.040726	5541.984919
431.418086	5541.785793
431.795385	5648.996012
432.172624	5661.803064
432.549802	5657.671838
432.926920	5666.965205
433.303977	5672.220608
433.680974	5715.602258
434.057910	5729.770420
434.434786	5739.993880
434.811601	5707.425506
435.188355	5942.887720
435.565050	5818.255273
435.941683	5798.927489
436.318257	6012.979923
436.694770	5997.969887
437.071222	6030.160175
437.447614	5963.984949
437.823946	5874.401124
438.200218	6029.086409
438.576429	5896.105812
438.952580	5993.979814
439.328670	6036.731319
439.704700	5946.328307
440.080670	5931.202325
440.456580	6204.153080
440.832429	6082.504996
441.208218	5929.437921
441.583947	6087.891469
441.959616	6094.545792
442.335224	6019.583834
442.710773	6157.582900
443.086261	6179.753895
443.461689	5976.446681
443.837057	6123.698785
444.212365	6280.566890
444.587612	6174.657288
444.962800	6327.623540
445.337927	6301.427184
445.712995	5918.566673
446.088002	6493.101936
446.462949	6326.012892
446.837837	6255.850112
447.212664	6429.767399
447.587431	6572.946251
447.962139	7114.023376
448.336786	8037.595528
448.711374	7781.388966
449.085901	6856.740527
449.460369	6776.364370
449.834776	6708.714606
450.209124	7098.612568
450.583412	7252.516475
450.957640	7395.445789
451.331808	7164.273597
451.705917	6718.713735
452.079965	6640.079297
452.453954	6852.919333
452.827883	6724.448048
453.201752	6817.298540
453.575562	6614.820595
453.949311	6823.015208
454.323001	6710.897426
454.696632	6784.001718
455.070202	6928.536640
455.443713	7080.913077
455.817164	7187.316711
456.190556	7258.190293
456.563888	7339.282294
456.937160	7378.835187
457.310373	7040.205760
457.683526	7060.811476
458.056619	6952.560259
458.429653	6936.317661
458.802628	6878.175513
459.175542	6985.652913
459.548398	7339.350350
459.921194	7499.739700
460.293930	7509.504415
460.666607	8029.300309
461.039224	8339.250612
461.411782	8467.109397
461.784280	8493.396494
462.156719	8376.993731
462.529099	8259.267665
462.901419	7850.946807
463.273680	7743.711382
463.645882	7749.402845
464.018024	7618.219419
464.390106	7788.116386
464.762130	8168.201742
465.134094	8637.598700
465.505999	9657.005707
465.877845	10881.580114
466.249631	11540.753829
466.621358	11151.823769
466.993026	10524.946206
467.364634	10270.032700
467.736184	9906.540302
468.107674	9580.571732
468.479105	9601.679043
468.850477	9373.685299
469.221790	9145.557964
469.593043	8814.787696
469.964238	8677.411212
470.335373	8684.481430
470.706449	8741.617868
471.077467	8724.740085
471.448425	10039.984685
471.819324	11111.083684
472.190164	11129.972887
472.560945	9887.393999
472.931667	9091.206764
473.302330	8958.687432
473.672934	8605.947815
474.043479	8962.362433
474.413965	8905.228516
474.784393	8790.537225
475.154761	8938.331253
475.525070	9028.255355
475.895321	8854.582564
476.265513	9030.667547
476.635645	9207.014671
477.005719	9198.064102
477.375734	9318.489706
477.745691	9552.484944
478.115588	9687.192136
478.485427	9931.660371
478.855207	10468.013935
479.224928	11283.133224
479.594591	11906.834860
479.964194	11721.794267
480.333739	11666.759990
480.703226	11582.640777
481.072653	11671.987667
481.442022	11906.005590
481.811333	12098.900301
482.180584	11903.311093
482.549777	11611.982813
482.918912	11437.967223
483.287988	11457.559667
483.657005	11466.268261
484.025964	11155.279480
484.394864	11283.828903
484.763706	11258.398802
485.132489	11007.654331
485.501213	10975.668209
485.869879	11052.528162
486.238487	10889.451876
486.607036	11004.974957
486.975527	10781.692171
487.343959	10971.564710
487.712333	11016.020125
488.080648	10946.588313
488.448905	10989.170940
488.817104	10931.351426
489.185244	11196.564009
489.553326	11347.992709
489.921350	11888.301058
490.289315	12948.501082
490.657222	13294.593938
491.025070	13204.594218
491.392861	13077.370618
491.760593	12698.414481
492.128267	12347.242663
492.495883	12019.303002
492.863440	11682.574090
493.230939	11353.449758
493.598380	11281.910744
493.965763	11148.879735
494.333088	11043.355782
494.700354	10967.869544
495.067563	11030.589060
495.434713	10855.910559
495.801805	10985.934519
496.168839	10906.853939
496.535815	10846.891934
496.902733	10842.269196
497.269593	10775.108424
497.636395	10879.649352
498.003139	10862.227124
498.369825	10732.949255
498.736453	10893.762062
499.103023	10812.939763
499.469535	10842.864053
499.835989	10829.878040
500.202385	10801.158587
500.568723	10645.248301
500.935003	10866.144101
501.301226	10672.722590
501.667390	10929.632393
502.033497	11027.360201
502.399546	10888.748635
502.765537	10798.844697
503.131470	10862.874913
503.497345	11044.764785
503.863163	10651.819445
504.228923	10964.600356
504.594625	11031.798937
504.960269	10783.711153
505.325856	10998.265182
505.691385	10794.143821
506.056856	10945.988416
506.422270	10976.028652
506.787625	10864.485561
507.152924	10978.211472
507.518164	10952.231885
507.883347	10879.820751
508.248472	10800.556169
508.613540	11029.810202
508.978550	10914.667727
509.343503	10884.483819
509.708398	11009.937973
510.073236	11121.874274
510.438016	11124.503236
510.802738	11071.099772
511.167403	11125.677824
511.532010	11022.530776
511.896561	11254.688513
512.261053	11322.597897
512.625488	11194.996210
512.989866	11174.549290
513.354186	11169.014103
513.718449	11060.851107
514.082655	11254.756569
514.446803	11150.780250
514.810894	11277.098962
515.174927	11147.952163
515.538904	11168.300780
515.902822	11316.185549
516.266684	11202.255472
516.630488	11147.206072
516.994235	11205.872500
517.357925	11264.657395
517.721558	11354.210972
518.085133	11367.161697
518.448651	11377.738037
518.812112	11262.494740
519.175516	11274.780032
519.538863	11400.085472
519.902152	11314.002729
520.265385	11478.825775
520.628560	11378.809283
520.991678	11356.519821
521.354739	11433.357088
521.717743	11355.435973
522.080690	11335.697335
522.443580	11468.872017
522.806413	11424.245202
523.169189	11446.068357
523.531908	11510.741320
523.894569	11330.696510
524.257174	11331.329175
524.619722	11448.704881
524.982213	11393.045501
525.344647	11450.131527
525.707025	11399.193188
526.069345	11490.183494
526.431608	11406.989333
526.793815	11514.260045
527.155964	11310.118520
527.518057	11358.148113
527.880093	11311.096504
528.242072	11381.599561
528.603995	11281.540219
528.965860	11200.082735
529.327669	11259.812846
529.689421	11207.495751
530.051117	11174.022490
530.412755	11278.507965
530.774337	11165.124853
531.135862	11146.091977
531.497331	11169.273723
531.858743	11019.211176
532.220098	11190.411281
532.581396	11055.668800
532.942638	11029.716940
533.303824	10997.420788
533.664953	11010.779846
534.026025	10922.718450
534.387040	11023.097905
534.747999	11024.612772
535.108902	11083.188459
535.469748	10834.626807
535.830537	10936.778228
536.191270	10915.663355
536.551947	10940.768301
536.912567	10931.905953
537.273131	10851.060969
537.633638	10828.222021
537.994089	10825.305714
538.354483	10764.186764
538.714821	10909.288816
539.075103	10916.883314
539.435328	10879.931657
539.795497	10707.907323
540.155609	10859.610766
540.515665	10942.295771
540.875665	10675.172590
541.235609	10742.981151
541.595496	10734.529656
541.955328	10887.894159
542.315102	10768.491910
542.674821	10716.257994
543.034483	10709.638959
543.394090	10714.501152
543.753640	10644.338373
544.113134	10853.662204
544.472571	10713.661800
544.831953	10848.298416
545.191278	10653.717440
545.550548	10678.966059
545.909761	10808.576645
546.268918	10772.839905
546.628019	10857.042298
546.987064	10713.772705
547.346053	10633.482248
547.704986	10719.754034
548.063863	10711.015194
548.422684	10688.249343
548.781449	10607.941242
549.140158	10702.765346
549.498811	10568.103524
549.857408	10424.642368
550.215949	10636.927877
550.574434	10490.855403
550.932864	10577.031407
551.291237	10624.443459
551.649555	10560.892153
552.007817	10571.397918
552.366022	10531.224963
552.724173	10513.396922
553.082267	10489.398509
553.440305	10609.559453
553.798288	10415.843034
554.156215	10553.579960
554.514086	10514.861377
554.871902	10360.861689
555.229661	10389.621472
555.587365	10357.748777
555.945014	10242.555891
556.302606	10354.409012
556.660143	10245.152085
557.017625	10373.951045
557.375050	10270.367937
557.732421	10378.271314
558.089735	10286.439135
558.446994	10278.204410
558.804197	10302.137288
559.161345	10284.057190
559.518437	10135.174273
559.875474	10200.651299
560.232455	10213.707888
560.589381	10155.351491
560.946251	10123.670360
561.303065	10220.268950
561.659825	10135.096135
562.016528	10058.536131
562.373177	9934.642214
562.729770	10016.311427
563.086307	9925.759701
563.442789	9995.998097
563.799216	9858.349392
564.155587	9886.509277
564.511904	9823.784720
564.868164	9799.340165
565.224370	9806.375095
565.580520	9696.752684
565.936615	9700.629332
566.292654	9549.228358
566.648638	9652.274584
567.004567	9586.457279
567.360441	9556.341426
567.716260	9450.139438
568.072023	9527.231283
568.427732	9445.249519
568.783385	9358.082928
569.138982	9387.608966
569.494525	9374.519610
569.850013	9244.853571
570.205445	9290.665057
570.560823	9186.318213
570.916145	9084.998583
571.271412	9120.067370
571.626625	9045.359990
571.981782	9006.943877
572.336884	8955.400600
572.691931	8947.818704
573.046923	8863.104635
573.401860	8804.158423
573.756743	8724.538439
574.111570	8734.714008
574.466342	8702.377527
574.821059	8692.738840
575.175722	8579.998476
575.530330	8557.545177
575.884882	8523.928242
576.239380	8429.056247
576.593823	8399.252946
576.948211	8380.255358
577.302544	8263.845033
577.656823	8236.171619
578.011047	8217.950368
578.365216	8156.874269
578.719330	8072.127432
579.073389	8045.056435
579.427394	7988.164494
579.781344	7937.899149
580.135239	7873.019499
580.489080	7856.340841
580.842866	7744.144921
581.196597	7715.775828
581.550273	7721.991571
581.903895	7657.001015
582.257463	7689.604678
582.610975	7553.937145
582.964434	7551.565283
583.317837	7454.394522
583.671186	7426.721107
584.024481	7378.731843
584.377721	7296.218237
584.730906	7246.583037
585.084037	7243.848211
585.437113	7178.955958
585.790135	7159.018194
586.143103	7057.728811
586.496016	7014.846235
586.848874	7022.022318
587.201679	6992.168605
587.554428	6880.023096
587.907124	6882.891513
588.259765	6840.192940
588.612352	6798.502598
588.964884	6700.147165
589.317362	6675.291756
589.669786	6645.382591
590.022155	6661.776423
590.374470	6630.092771
590.726731	6570.639923
591.078937	6437.684532
591.431090	6476.493854
591.783188	6381.059771
592.135232	6327.847872
592.487222	6320.142468
592.839157	6308.658719
593.191038	6246.186220
593.542866	6183.791859
593.894639	6093.298107
594.246358	6101.605928
594.598022	6074.381177
594.949633	5989.062168
595.301190	5949.809224
595.652692	5934.078303
596.004141	5961.910514
596.355535	5822.129400
596.706876	5778.591475
597.058162	5713.356423
597.409395	5727.209514
597.760573	5736.679322
598.111698	5661.664432
598.462768	5621.594821
598.813785	5585.086784
599.164748	5532.752046
599.515657	5514.883676
599.866511	5428.682466
600.217312	5478.373119
600.568060	5378.361668
600.918753	5402.014762
601.269392	5361.607393
601.619978	5286.942864
601.970510	5293.498884
602.320988	5267.771356
602.671412	5261.341364
603.021783	5215.202203
603.372100	5172.241490
603.722363	5145.167973
604.072572	5118.996823
604.422728	5094.073359
604.772830	5039.308784
605.122878	5004.308053
605.472872	4988.766175
605.822813	4970.980985
606.172701	4926.787709
606.522534	4930.223256
606.872314	4907.356582
607.222041	4871.766036
607.571714	4865.623390
607.921333	4827.494623
608.270899	4799.755674
608.620411	4816.404084
608.969870	4758.322430
609.319276	4734.155139
609.668627	4712.737797
610.017926	4709.597158
610.367171	4701.120457
610.716362	4673.948638
611.065500	4645.937467
611.414585	4630.289725
611.763616	4609.898258
612.112594	4570.431065
612.461518	4554.506060
612.810389	4556.711564
613.159207	4508.563504
613.507971	4469.567658
613.856682	4481.426973
614.205340	4446.942960
614.553945	4459.515598
614.902496	4400.587030
615.250994	4393.398344
615.599439	4365.871124
615.947830	4347.735573
616.296169	4318.033094
616.644454	4304.951300
616.992686	4279.798463
617.340864	4277.474491
617.688990	4229.636462
618.037063	4241.601640
618.385082	4210.071744
618.733048	4211.541240
619.080961	4179.497146
619.428821	4164.908046
619.776628	4141.635560
620.124382	4114.468782
620.472083	4081.300510
620.819731	4074.479829
621.167326	4024.756408
621.514868	4004.858973
621.862357	3959.612097
622.209793	3942.872946
622.557176	3908.840116
622.904506	3879.936661
623.251783	3844.439376
623.599007	3815.624140
623.946179	3797.435657
624.293297	3767.503806
624.640363	3735.880648
624.987376	3710.745455
625.334336	3687.362063
625.681243	3655.663288
626.028097	3640.078561
626.374899	3621.854789
626.721647	3597.672374
627.068343	3574.167995
627.414987	3551.553378
627.761577	3527.338196
628.108115	3522.148328
628.454600	3486.585508
628.801032	3480.150475
629.147412	3465.866366
629.493739	3447.685445
629.840014	3425.035540
630.186236	3421.652926
630.532405	3390.528842
630.878521	3388.890467
631.224585	3368.836757
631.570597	3342.635360
631.916556	3340.170236
632.262462	3332.411900
632.608316	3310.281235
632.954117	3296.523926
633.299866	3288.165693
633.645562	3268.880759
633.991206	3244.902511
634.336797	3227.293760
634.682336	3210.017726
635.027823	3191.541897
635.373257	3179.773323
635.718639	3157.657782
636.063968	3149.891884
636.409245	3126.258955
636.754470	3110.273456
637.099642	3098.028493
637.444762	3082.287490
637.789829	3070.821386
638.134845	3060.797052
638.479808	3045.466903
638.824719	3043.208466
639.169577	3023.868079
639.514383	3013.669825
639.859137	2997.074346
640.203839	2995.438492
640.548489	2982.734784
640.893086	2975.324288
