Dividing Wavelength (nm)	Counts (n)	Blue Motor Position (mm): 0.000000	Red Motor Position (mm): 41.300000	
326.493990	2127.692078
326.888308	2127.692078
327.282561	2127.692078
327.676750	2095.269897
328.070874	2093.197982
328.464933	2097.361975
328.858929	2101.430187
329.252859	2113.407968
329.646726	2122.562703
330.040528	2134.968983
330.434265	2152.827271
330.827938	2167.943170
331.221547	2188.261541
331.615091	2206.749973
332.008571	2225.810575
332.401986	2247.217835
332.795338	2267.460588
333.188625	2285.873403
333.581847	2302.249591
333.975006	2323.714824
334.368100	2340.549758
334.761129	2357.639269
335.154095	2376.520911
335.546996	2394.926163
335.939833	2417.928948
336.332606	2433.004519
336.725315	2445.665377
337.117960	2454.406738
337.510540	2463.092646
337.903056	2473.235447
338.295508	2480.494709
338.687896	2488.973930
339.080220	2498.156391
339.472480	2503.825169
339.864676	2508.510921
340.256807	2512.674914
340.648875	2515.616428
341.040879	2519.064577
341.432818	2520.511388
341.824694	2519.924094
342.216506	2522.122037
342.608253	2521.701100
342.999937	2521.963240
343.391557	2521.436440
343.783113	2519.125071
344.174605	2518.784793
344.566033	2517.736233
344.957397	2519.596419
345.348697	2513.791530
345.739934	2515.495440
346.131106	2513.854544
346.522215	2511.099554
346.913260	2507.222907
347.304241	2504.727535
347.695159	2505.546723
348.086012	2503.487412
348.476802	2501.196207
348.867528	2500.462719
349.258191	2499.338542
349.648789	2498.705877
350.039324	2492.379229
350.429796	2498.554642
350.820203	2491.875114
351.210548	2494.670433
351.600828	2492.364106
351.991045	2491.302943
352.381198	2491.353354
352.771288	2490.433344
353.161314	2490.536687
353.551276	2493.367295
353.941175	2485.699700
354.331010	2491.078611
354.720782	2487.693477
355.110490	2490.546770
355.500135	2489.160452
355.889717	2491.159270
356.279235	2488.749598
356.668689	2494.352841
357.058080	2492.243118
357.447408	2490.488796
357.836672	2488.842860
358.225873	2491.933087
358.615010	2488.724392
359.004084	2495.086329
359.393095	2493.465598
359.782043	2496.018942
360.170927	2494.922491
360.559748	2498.700836
360.948505	2497.125475
361.337199	2498.784015
361.725830	2499.726711
362.114398	2498.151350
362.502903	2501.561691
362.891344	2504.588904
363.279722	2500.666886
363.668037	2503.283245
364.056289	2503.258039
364.444478	2503.938595
364.832603	2502.597648
365.220665	2503.855416
365.608665	2503.275683
365.996601	2504.712412
366.384474	2505.856754
366.772284	2508.026971
367.160031	2508.468072
367.547715	2511.344050
367.935336	2513.166427
368.322893	2515.934020
368.710388	2521.461646
369.097820	2526.926256
369.485189	2529.078829
369.872495	2533.784746
370.259738	2541.157434
370.646918	2547.927703
371.034035	2557.180741
371.421090	2567.840261
371.808081	2579.003896
372.195010	2586.426995
372.581875	2599.491145
372.968678	2612.280553
373.355418	2625.140536
373.742096	2641.088226
374.128710	2656.120947
374.515262	2669.716939
374.901751	2684.424505
375.288177	2700.064685
375.674540	2724.446226
376.060841	2739.834348
376.447079	2757.896802
376.833254	2782.157355
377.219367	2792.511885
377.605417	2832.435303
377.991404	2840.465861
378.377329	2861.265662
378.763191	2876.411808
379.148991	2917.693817
379.534727	2939.174174
379.920402	2969.274903
380.306013	2983.579178
380.691563	3032.790921
381.077049	3053.988973
381.462474	3067.703432
381.847835	3110.066769
382.233134	3134.264307
382.618371	3131.259779
383.003545	3198.599512
383.388657	3207.285421
383.773706	3237.650811
384.158693	3253.457349
384.543618	3282.771658
384.928480	3318.006803
385.313280	3362.247969
385.698017	3360.465921
386.082692	3415.911052
386.467305	3422.250303
386.851856	3453.016465
387.236344	3477.723160
387.620770	3509.366482
388.005133	3533.468239
388.389435	3558.666447
388.773674	3571.513827
389.157851	3615.381948
389.541965	3627.828557
389.926018	3593.543669
390.310008	3665.145698
390.693936	3685.527083
391.077802	3727.396386
391.461606	3715.728636
391.845348	3778.082668
392.229027	3777.137451
392.612645	3791.431643
392.996200	3869.549363
393.379694	3908.159560
393.763125	3972.502327
394.146494	3941.673151
394.529801	4000.064836
394.913047	4050.030232
395.296230	4015.475643
395.679351	4070.139395
396.062410	4094.183178
396.445408	4075.092329
396.828343	4109.475519
397.211217	4132.475783
397.594028	4053.425450
397.976778	4118.514308
398.359466	4149.035973
398.742092	4171.643028
399.124656	4097.245679
399.507158	4177.871373
399.889598	4206.086712
400.271977	4265.990743
400.654294	4234.579313
401.036549	4243.275303
401.418742	4214.162640
401.800874	4314.257270
402.182944	4340.239377
402.564952	4397.201895
402.946898	4384.856109
403.328783	4384.110018
403.710606	4299.867297
404.092367	4492.608252
404.474067	4454.194660
404.855705	4462.197492
405.237282	4388.158065
405.618797	4500.661495
406.000250	4532.440929
406.381642	4616.159371
406.762972	4578.844750
407.144240	4588.264146
407.525447	4587.243313
407.906593	4649.370493
408.287677	4689.147717
408.668700	4616.726501
409.049661	4672.751364
409.430560	4711.301068
409.811399	4634.080673
410.192176	4797.552689
410.572891	4734.770159
410.953545	4839.996684
411.334138	4717.352973
411.714669	4788.730670
412.095139	4686.433056
412.475547	4824.018747
412.855894	4806.510820
413.236180	4819.338036
413.616405	4771.484883
413.996568	4854.578222
414.376670	4799.647289
414.756711	4750.813632
415.136691	4790.129590
415.516609	4865.522567
415.896466	4903.283330
416.276262	4932.673257
416.655997	4913.602572
417.035670	5099.956385
417.415283	5191.581877
417.794834	5136.978619
418.174324	5086.733439
418.553753	4998.810674
418.933121	5177.791801
419.312428	5245.648252
419.691674	5187.982493
420.070859	5315.856402
420.449983	5217.639601
420.829045	5341.878838
421.208047	5245.456688
421.586988	5315.805990
421.965867	5326.452907
422.344686	5458.369821
422.723444	5314.999405
423.102141	5135.098269
423.480777	5430.852682
423.859352	5200.618145
424.237866	5462.191015
424.616319	5453.293379
424.994712	5561.529472
425.373044	5436.866779
425.751314	5580.648048
426.129524	5381.237646
426.507673	5581.878090
426.885762	5658.516231
427.263789	5593.528197
427.641756	5475.688705
428.019662	5596.041212
428.397508	5605.327017
428.775292	5550.053286
429.153016	5651.360313
429.530679	5575.001956
429.908282	5660.439432
430.285824	5531.335482
430.663305	5804.878572
431.040726	5541.316966
431.418086	5535.577612
431.795385	5647.365199
432.172624	5660.678886
432.549802	5652.860057
432.926920	5665.402448
433.303977	5674.978119
433.680974	5710.046906
434.057910	5731.262602
434.434786	5732.442232
434.811601	5706.039189
435.188355	5941.541732
435.565050	5815.386857
435.941683	5794.995389
436.318257	6011.490262
436.694770	5992.235575
437.071222	6027.261512
437.447614	5959.427746
437.823946	5868.243355
438.200218	6026.462489
438.576429	5894.061624
438.952580	5988.633670
439.328670	6034.795516
439.704700	5945.584737
440.080670	5933.107881
440.456580	6197.259302
440.832429	6084.637404
441.208218	5929.117808
441.583947	6086.883238
441.959616	6092.259629
442.335224	6016.715418
442.710773	6150.369009
443.086261	6177.475293
443.461689	5972.418799
443.837057	6122.559484
444.212365	6275.893740
444.587612	6171.120919
444.962800	6325.730587
445.337927	6300.837369
445.712995	5913.023924
446.088002	6491.781153
446.462949	6322.224464
446.837837	6250.735862
447.212664	6426.324291
447.587431	6570.816363
447.962139	7109.249403
448.336786	8039.947226
448.711374	7777.106506
449.085901	6854.151895
449.460369	6771.320696
449.834776	6709.604370
450.209124	7097.556447
450.583412	7248.672595
450.957640	7396.857312
451.331808	7159.355952
451.705917	6712.261058
452.079965	6635.315406
452.453954	6847.621080
452.827883	6725.872173
453.201752	6819.655279
453.575562	6619.186235
453.949311	6823.352965
454.323001	6711.454473
454.696632	6783.485000
455.070202	6920.949704
455.443713	7072.322951
455.817164	7175.656522
456.190556	7258.465036
456.563888	7334.505801
456.937160	7380.912143
457.310373	7034.002620
457.683526	7058.699233
458.056619	6951.224353
458.429653	6931.210972
458.802628	6871.803495
459.175542	6981.824157
459.548398	7334.485636
459.921194	7495.774833
460.293930	7501.660380
460.666607	8031.510855
461.039224	8337.730704
461.411782	8464.152760
461.784280	8484.166141
462.156719	8375.861992
462.529099	8254.700380
462.901419	7848.942948
463.273680	7736.134528
463.645882	7746.476455
464.018024	7616.976774
464.390106	7785.300901
464.762130	8173.431939
465.134094	8634.306826
465.505999	9663.145832
465.877845	10881.990968
466.249631	11531.896522
466.621358	11146.548201
466.993026	10526.090548
467.364634	10261.722358
467.736184	9898.131657
468.107674	9570.265093
468.479105	9597.946069
468.850477	9368.747489
469.221790	9138.465061
469.593043	8802.661200
469.964238	8671.545830
470.335373	8681.098816
470.706449	8736.538906
471.077467	8714.987973
471.448425	10029.451194
471.819324	11108.026224
472.190164	11123.777309
472.560945	9885.183453
472.931667	9087.834232
473.302330	8953.028737
473.672934	8598.620498
474.043479	8957.805230
474.413965	8901.316581
474.784393	8781.843755
475.154761	8939.876367
475.525070	9018.528449
475.895321	8850.063170
476.265513	9026.652268
476.635645	9194.109317
477.005719	9192.168473
477.375734	9308.616606
477.745691	9541.959014
478.115588	9678.188635
478.485427	9918.926417
478.855207	10458.521442
479.224928	11273.842377
479.594591	11909.428533
479.964194	11723.956922
480.333739	11655.097281
480.703226	11575.179869
481.072653	11665.935762
481.442022	11903.341340
481.811333	12092.971904
482.180584	11896.858416
482.549777	11609.323604
482.918912	11430.486151
483.287988	11449.456012
483.657005	11466.951337
484.025964	11141.759105
484.394864	11276.236925
484.763706	11240.601009
485.132489	11001.932621
485.501213	10960.146497
485.869879	11044.810155
486.238487	10886.364169
486.607036	10994.970787
486.975527	10773.167580
487.343959	10960.267484
487.712333	11007.049392
488.080648	10940.478435
488.448905	10984.586011
488.817104	10925.722978
489.185244	11189.035046
489.553326	11345.940959
489.921350	11875.410827
490.289315	12948.453191
490.657222	13287.501034
491.025070	13196.402343
491.392861	13067.734453
491.760593	12695.445241
492.128267	12341.934328
492.495883	12011.552228
492.863440	11677.467401
493.230939	11336.602222
493.598380	11282.147678
493.965763	11146.442337
494.333088	11044.416945
494.700354	10956.005189
495.067563	11025.058914
495.434713	10850.251863
495.801805	10986.000054
496.168839	10909.369475
496.535815	10842.478404
496.902733	10833.104379
497.269593	10780.177304
497.636395	10872.826150
498.003139	10862.542197
498.369825	10724.752338
498.736453	10881.340659
499.103023	10813.428755
499.469535	10843.584938
499.835989	10828.174130
500.202385	10797.629779
500.568723	10641.467436
500.935003	10869.067970
501.301226	10674.179483
501.667390	10928.929152
502.033497	11029.631241
502.399546	10882.127079
502.765537	10797.123143
503.131470	10868.110151
503.497345	11046.665300
503.863163	10650.163426
504.228923	10958.334202
504.594625	11027.398010
504.960269	10777.228229
505.325856	10987.519962
505.691385	10790.650302
506.056856	10943.455236
506.422270	10968.419030
506.787625	10860.561023
507.152924	10976.494959
507.518164	10958.306476
507.883347	10876.619619
508.248472	10792.051742
508.613540	11029.331292
508.978550	10915.156719
509.343503	10882.527851
509.708398	11006.179793
510.073236	11116.825558
510.438016	11120.513162
510.802738	11074.003477
511.167403	11121.034922
511.532010	11026.470437
511.896561	11250.126269
512.261053	11328.296921
512.625488	11195.056704
512.989866	11172.162304
513.354186	11172.121975
513.718449	11066.577857
514.082655	11258.610531
514.446803	11161.961529
514.810894	11275.120310
515.174927	11150.442493
515.538904	11172.426965
515.902822	11322.766775
516.266684	11206.487521
516.630488	11152.549695
516.994235	11206.568179
517.357925	11269.023034
517.721558	11356.154337
518.085133	11367.527180
518.448651	11380.971937
518.812112	11256.876374
519.175516	11282.127513
519.538863	11397.423743
519.902152	11312.661782
520.265385	11468.171296
520.628560	11390.144317
520.991678	11367.552386
521.354739	11429.656881
521.717743	11357.820438
522.080690	11337.789414
522.443580	11462.008486
522.806413	11427.176633
523.169189	11459.006478
523.531908	11512.518327
523.894569	11331.407313
524.257174	11337.718838
524.619722	11449.231681
524.982213	11401.996070
525.344647	11451.081785
525.707025	11409.071329
526.069345	11498.796306
526.431608	11417.321177
526.793815	11530.028774
527.155964	11313.697739
527.518057	11368.696728
527.880093	11320.404995
528.242072	11382.955632
528.603995	11287.793770
528.965860	11211.831144
529.327669	11257.955181
529.689421	11209.998684
530.051117	11181.496000
530.412755	11284.554829
530.774337	11171.695997
531.135862	11153.545323
531.497331	11180.959117
531.858743	11032.028309
532.220098	11191.842969
532.581396	11073.922818
532.942638	11050.791484
533.303824	11008.314722
533.664953	11030.137877
534.026025	10934.701273
534.387040	11036.996367
534.747999	11044.860567
535.108902	11106.733168
535.469748	10857.911897
535.830537	10961.089193
536.191270	10941.302664
536.551947	10963.735798
536.912567	10959.405447
537.273131	10884.798891
537.633638	10866.428926
537.994089	10848.323622
538.354483	10799.752105
538.714821	10946.613519
539.075103	10951.778181
539.435328	10913.220916
539.795497	10742.978630
540.155609	10900.290357
540.515665	10989.223872
540.875665	10730.751312
541.235609	10790.282297
541.595496	10791.782041
541.955328	10947.467995
542.315102	10831.823926
542.674821	10778.483477
543.034483	10785.808273
543.394090	10789.347163
543.753640	10712.666172
544.113134	10937.025245
544.472571	10790.700713
544.831953	10934.136663
545.191278	10737.352703
545.550548	10770.064750
545.909761	10906.349823
546.268918	10879.845957
546.628019	10964.232352
546.987064	10825.822432
547.346053	10750.968859
547.704986	10848.711791
548.063863	10835.156128
548.422684	10826.208080
548.781449	10742.066181
549.140158	10846.405463
549.498811	10724.817873
549.857408	10576.539895
550.215949	10803.069184
550.574434	10654.302213
550.932864	10750.462223
551.291237	10815.104939
551.649555	10760.544531
552.007817	10772.086253
552.366022	10738.592826
552.724173	10725.521114
553.082267	10720.605989
553.440305	10847.895124
553.798288	10648.278035
554.156215	10807.548249
554.514086	10780.242839
554.871902	10632.186672
555.229661	10663.804788
555.587365	10649.722325
555.945014	10537.445747
556.302606	10664.535756
556.660143	10557.088603
557.017625	10711.340349
557.375050	10611.409556
557.732421	10744.261604
558.089735	10660.389407
558.446994	10663.668677
558.804197	10697.593122
559.161345	10699.171003
559.518437	10545.710718
559.875474	10633.202464
560.232455	10668.767804
560.589381	10616.445669
560.946251	10613.322674
561.303065	10717.125073
561.659825	10654.718109
562.016528	10586.672614
562.373177	10460.888264
562.729770	10580.983672
563.086307	10494.169962
563.442789	10587.854765
563.799216	10463.668460
564.155587	10514.379947
564.511904	10467.575354
564.868164	10455.443818
565.224370	10469.783380
565.580520	10390.659950
565.936615	10389.984435
566.292654	10268.737123
566.648638	10403.814841
567.004567	10352.311892
567.360441	10338.801600
567.716260	10250.662066
568.072023	10349.297282
568.427732	10293.000197
568.783385	10205.193379
569.138982	10268.994222
569.494525	10289.937696
569.850013	10166.603346
570.205445	10246.044369
570.560823	10145.823710
570.916145	10069.934180
571.271412	10137.931784
571.626625	10076.996837
571.981782	10056.093692
572.336884	10023.979022
572.691931	10035.215754
573.046923	9975.841044
573.401860	9936.081463
573.756743	9871.189210
574.111570	9911.689840
574.466342	9895.963961
574.821059	9925.406820
575.175722	9811.408687
575.530330	9821.324637
575.884882	9819.436725
576.239380	9740.373789
576.593823	9720.355367
576.948211	9730.725020
577.302544	9616.053894
577.656823	9633.372778
578.011047	9629.281881
578.365216	9599.927242
578.719330	9524.625007
579.073389	9538.079847
579.427394	9475.372934
579.781344	9465.288106
580.135239	9410.334488
580.489080	9425.359647
580.842866	9314.481988
581.196597	9319.097165
581.550273	9363.834884
581.903895	9326.409358
582.257463	9395.823526
582.610975	9259.959389
582.964434	9295.617991
583.317837	9215.148572
583.671186	9196.909678
584.024481	9192.090335
584.377721	9113.206359
584.730906	9084.469262
585.084037	9114.910269
585.437113	9049.569354
585.790135	9068.622395
586.143103	8974.120925
586.496016	8941.645812
586.848874	8992.921908
587.201679	8982.138880
587.554428	8870.633598
587.907124	8911.204804
588.259765	8883.778407
588.612352	8885.240341
588.964884	8763.927494
589.317362	8775.673383
589.669786	8772.278166
590.022155	8818.596287
590.374470	8830.833688
590.726731	8768.840099
591.078937	8620.136143
591.431090	8729.241835
591.783188	8596.959438
592.135232	8593.105476
592.487222	8592.089683
592.839157	8639.862178
593.191038	8573.578566
593.542866	8511.683279
593.894639	8415.762725
594.246358	8463.192421
594.598022	8471.701888
594.949633	8372.068524
595.301190	8340.052156
595.652692	8364.852112
596.004141	8474.121642
596.355535	8254.690297
596.706876	8222.741985
597.058162	8155.934094
597.409395	8234.634067
597.760573	8288.541646
598.111698	8201.972431
598.462768	8182.836211
598.813785	8149.730954
599.164748	8109.550437
599.515657	8096.035104
599.866511	7995.300247
600.217312	8130.269579
600.568060	7987.176427
600.918753	8081.985408
601.269392	8054.574134
601.619978	7960.869166
601.970510	8015.197681
602.320988	8011.754573
602.671412	8057.661841
603.021783	7991.443764
603.372100	7960.236501
603.722363	7961.166594
604.072572	7931.111235
604.422728	7939.126670
604.772830	7867.290227
605.122878	7866.385340
605.472872	7860.023404
605.822813	7880.747587
606.172701	7824.228691
606.522534	7887.180100
606.872314	7884.548617
607.222041	7843.957247
607.571714	7895.939105
607.921333	7850.094852
608.270899	7846.031682
608.620411	7930.357582
608.969870	7830.628436
609.319276	7814.406003
609.668627	7825.738517
610.017926	7850.190633
610.367171	7882.073411
610.716362	7855.272117
611.065500	7842.092020
611.414585	7856.545008
611.763616	7836.014909
612.112594	7814.103534
612.461518	7810.113460
612.810389	7866.546657
613.159207	7795.370606
613.507971	7738.627378
613.856682	7837.444076
614.205340	7790.019421
614.553945	7848.582505
614.902496	7745.805981
615.250994	7788.081097
615.599439	7763.550843
615.947830	7766.136955
616.296169	7725.086839
616.644454	7718.140129
616.992686	7707.921710
617.340864	7747.920745
617.688990	7648.864593
618.037063	7718.848411
618.385082	7657.379102
618.733048	7718.472845
619.080961	7652.809296
619.428821	7661.384298
619.776628	7646.013820
620.124382	7597.717046
620.472083	7568.090185
620.819731	7581.779438
621.167326	7477.667008
621.514868	7476.343705
621.862357	7364.563681
622.209793	7373.093313
622.557176	7294.801673
622.904506	7258.855726
623.251783	7197.802311
623.599007	7142.442880
623.946179	7141.989177
624.293297	7088.996567
624.640363	7013.066708
624.987376	6984.233829
625.334336	6933.033350
625.681243	6871.438011
626.028097	6851.908581
626.374899	6825.061917
626.721647	6802.104502
627.068343	6731.737556
627.414987	6696.348656
627.761577	6645.533825
628.108115	6662.588049
628.454600	6558.238685
628.801032	6583.953610
629.147412	6545.295522
629.493739	6515.779566
629.840014	6461.680424
630.186236	6488.065823
630.532405	6381.591613
630.878521	6404.770838
631.224585	6351.914340
631.570597	6284.062930
631.916556	6290.490401
632.262462	6278.399193
632.608316	6232.063428
632.954117	6199.217790
633.299866	6184.661458
633.645562	6155.722715
633.991206	6087.273928
634.336797	6026.429721
634.682336	5986.778526
635.027823	5939.736999
635.373257	5929.367345
635.718639	5856.837744
636.063968	5859.915369
636.409245	5770.147542
636.754470	5754.028453
637.099642	5707.188572
637.444762	5654.480788
637.789829	5648.761599
638.134845	5590.773206
638.479808	5576.594961
638.824719	5563.624072
639.169577	5494.199822
639.514383	5498.555379
639.859137	5434.545328
640.203839	5428.284215
640.548489	5408.555659
