Dividing Wavelength (nm)	Counts (n)	Blue Motor Position (mm): 0.000000	Red Motor Position (mm): 7.800000	
326.493990	2129.128806
326.888308	2129.128806
327.282561	2129.128806
327.676750	2096.648652
328.070874	2091.894844
328.464933	2097.046903
328.858929	2103.267687
329.252859	2113.289501
329.646726	2124.594288
330.040528	2136.534261
330.434265	2155.756181
330.827938	2170.325116
331.221547	2188.604339
331.615091	2208.620241
332.008571	2226.292006
332.401986	2246.123905
332.795338	2265.607964
333.188625	2286.339710
333.581847	2305.682617
333.975006	2323.460246
334.368100	2340.849706
334.761129	2360.437109
335.154095	2376.687269
335.546996	2393.708725
335.939833	2405.250447
336.332606	2420.499937
336.725315	2436.999633
337.117960	2445.551951
337.510540	2455.803137
337.903056	2464.978037
338.295508	2471.413070
338.687896	2478.921869
339.080220	2490.380412
339.472480	2494.108345
339.864676	2496.863335
340.256807	2504.377175
340.648875	2507.152330
341.040879	2506.335663
341.432818	2509.347753
341.824694	2511.918741
342.216506	2512.977384
342.608253	2511.825480
342.999937	2511.366735
343.391557	2510.245078
343.783113	2509.796416
344.174605	2508.576456
344.566033	2505.793739
344.957397	2504.793070
345.348697	2504.059583
345.739934	2504.840961
346.131106	2504.551095
346.522215	2498.657986
346.913260	2497.785867
347.304241	2495.966010
347.695159	2495.088849
348.086012	2491.282778
348.476802	2492.250680
348.867528	2491.048364
349.258191	2488.845380
349.648789	2486.261789
350.039324	2486.286995
350.429796	2485.457725
350.820203	2481.102168
351.210548	2483.980667
351.600828	2480.199801
351.991045	2481.442446
352.381198	2478.773155
352.771288	2479.332723
353.161314	2479.612507
353.551276	2480.250213
353.941175	2477.449852
354.331010	2479.340285
354.720782	2477.238123
355.110490	2479.070583
355.500135	2478.339616
355.889717	2478.906745
356.279235	2477.984214
356.668689	2481.412199
357.058080	2479.118474
357.447408	2476.862558
357.836672	2477.326344
358.225873	2481.936479
358.615010	2477.956488
359.004084	2481.487816
359.393095	2479.166365
359.782043	2485.276243
360.170927	2482.622076
360.559748	2483.027889
360.948505	2483.630307
361.337199	2485.505616
361.725830	2483.670636
362.114398	2486.176089
362.502903	2484.333548
362.891344	2490.677840
363.279722	2488.820174
363.668037	2488.074084
364.056289	2485.009062
364.444478	2490.299753
364.832603	2489.606594
365.220665	2488.623569
365.608665	2492.780001
365.996601	2490.584578
366.384474	2493.906699
366.772284	2493.626915
367.160031	2495.658500
367.547715	2495.731596
367.935336	2498.297544
368.322893	2502.459016
368.710388	2501.899448
369.097820	2509.375479
369.485189	2513.103413
369.872495	2518.928466
370.259738	2526.528005
370.646918	2535.337422
371.034035	2540.224820
371.421090	2550.108002
371.808081	2564.351782
372.195010	2568.946794
372.581875	2581.597570
372.968678	2592.965372
373.355418	2603.050200
373.742096	2622.589712
374.128710	2634.754017
374.515262	2646.746922
374.901751	2662.636638
375.288177	2670.147958
375.674540	2688.631348
376.060841	2702.068544
376.447079	2715.455328
376.833254	2729.623491
377.219367	2734.193297
377.605417	2758.834457
377.991404	2759.026021
378.377329	2774.676283
378.763191	2778.494957
379.148991	2799.813996
379.534727	2812.366469
379.920402	2820.835608
380.306013	2819.298056
380.691563	2844.271932
381.077049	2846.928620
381.462474	2843.351922
381.847835	2854.765094
382.233134	2857.792307
382.618371	2843.147755
383.003545	2865.195241
383.388657	2853.736698
383.773706	2852.118488
384.158693	2846.061542
384.543618	2842.973835
384.928480	2837.723473
385.313280	2841.705985
385.698017	2825.034889
386.082692	2825.047492
386.467305	2806.856488
386.851856	2799.052782
387.236344	2788.010135
387.620770	2777.847168
388.005133	2764.934253
388.389435	2754.587285
388.773674	2740.129255
389.157851	2728.343038
389.541965	2717.968343
389.926018	2694.065712
390.310008	2693.329704
390.693936	2676.590552
391.077802	2666.903975
391.461606	2653.265133
391.845348	2645.660553
392.229027	2633.586989
392.612645	2621.130298
392.996200	2614.922117
393.379694	2608.164451
393.763125	2603.529110
394.146494	2588.201481
394.529801	2583.588826
394.913047	2573.740932
395.296230	2565.977555
395.679351	2558.239383
396.062410	2551.859803
396.445408	2542.420243
396.828343	2542.737835
397.211217	2532.494211
397.594028	2529.270393
397.976778	2524.115813
398.359466	2524.395597
398.742092	2520.024917
399.124656	2525.996163
399.507158	2518.772190
399.889598	2520.070287
400.271977	2520.029958
400.654294	2516.554082
401.036549	2517.655574
401.418742	2519.959382
401.800874	2516.241531
402.182944	2516.405368
402.564952	2515.205574
402.946898	2517.960564
403.328783	2514.830008
403.710606	2517.191788
404.092367	2513.289935
404.474067	2514.162055
404.855705	2513.423526
405.237282	2515.878568
405.618797	2511.959071
406.000250	2516.304545
406.381642	2516.261695
406.762972	2517.650533
407.144240	2515.263547
407.525447	2516.332272
407.906593	2517.096006
408.287677	2517.411078
408.668700	2516.344874
409.049661	2515.777745
409.430560	2516.503671
409.811399	2519.840915
410.192176	2515.666839
410.572891	2518.409227
410.953545	2515.137518
411.334138	2516.423012
411.714669	2516.652385
412.095139	2519.997190
412.475547	2516.284381
412.855894	2517.111130
413.236180	2514.731705
413.616405	2521.320493
413.996568	2514.915707
414.376670	2517.902591
414.756711	2519.125071
415.136691	2520.803775
415.516609	2517.600122
415.896466	2519.407375
416.276262	2520.299660
416.655997	2517.607683
417.035670	2514.449401
417.415283	2517.232118
417.794834	2514.270440
418.174324	2519.440143
418.553753	2519.543487
418.933121	2519.286388
419.312428	2520.471059
419.691674	2519.009124
420.070859	2521.340658
420.449983	2517.774042
420.829045	2521.350740
421.208047	2519.588857
421.586988	2522.626152
421.965867	2520.874351
422.344686	2521.375946
422.723444	2522.411903
423.102141	2520.276974
423.480777	2521.302849
423.859352	2519.861079
424.237866	2522.114475
424.616319	2523.510875
424.994712	2524.566996
425.373044	2520.886954
425.751314	2522.066584
426.129524	2519.987108
426.507673	2523.450381
426.885762	2523.044568
427.263789	2522.497603
427.641756	2523.347037
428.019662	2522.502644
428.397508	2523.710000
428.775292	2524.524147
429.153016	2522.338806
429.530679	2522.853004
429.908282	2521.633045
430.285824	2521.491893
430.663305	2522.283354
431.040726	2523.357119
431.418086	2521.270082
431.795385	2525.479445
432.172624	2524.135978
432.549802	2523.105062
432.926920	2523.122706
433.303977	2524.955165
433.680974	2524.642614
434.057910	2522.142201
434.434786	2526.275948
434.811601	2525.252593
435.188355	2523.843591
435.565050	2526.812830
435.941683	2526.386853
436.318257	2522.474918
436.694770	2518.532735
437.071222	2521.839732
437.447614	2521.123888
437.823946	2522.734537
438.200218	2524.677902
438.576429	2523.778056
438.952580	2524.922398
439.328670	2525.416431
439.704700	2525.260155
440.080670	2528.264683
440.456580	2524.259486
440.832429	2525.814682
441.208218	2528.741072
441.583947	2529.593027
441.959616	2523.858714
442.335224	2528.670496
442.710773	2525.113962
443.086261	2527.518592
443.461689	2527.490866
443.837057	2525.887779
444.212365	2525.597912
444.587612	2527.233767
444.962800	2528.015146
445.337927	2527.684950
445.712995	2526.964065
446.088002	2527.838705
446.462949	2526.545649
446.837837	2527.485824
447.212664	2529.580424
447.587431	2528.105886
447.962139	2528.083201
448.336786	2533.835158
448.711374	2528.841895
449.085901	2530.114786
449.460369	2529.300640
449.834776	2528.451205
450.209124	2528.743592
450.583412	2528.768798
450.957640	2532.017822
451.331808	2528.063037
451.705917	2529.066226
452.079965	2528.463808
452.453954	2529.338448
452.827883	2530.477749
453.201752	2529.711494
453.575562	2530.376926
453.949311	2529.063706
454.323001	2528.889786
454.696632	2529.086391
455.070202	2530.581093
455.443713	2530.908768
455.817164	2528.519261
456.190556	2523.533560
456.563888	2526.918695
456.937160	2526.827954
457.310373	2530.492873
457.683526	2530.329035
458.056619	2530.999509
458.429653	2532.005219
458.802628	2529.129241
459.175542	2532.380785
459.548398	2531.344828
459.921194	2529.706453
460.293930	2530.724766
460.666607	2533.477236
461.039224	2533.305837
461.411782	2531.690147
461.784280	2532.887421
462.156719	2534.548481
462.529099	2534.359438
462.901419	2531.596885
463.273680	2530.709642
463.645882	2531.538912
464.018024	2531.518748
464.390106	2531.546474
464.762130	2533.283151
465.134094	2531.080167
465.505999	2534.185518
465.877845	2534.009078
466.249631	2535.153419
466.621358	2534.929088
466.993026	2540.439069
467.364634	2536.627957
467.736184	2532.625281
468.107674	2534.145189
468.479105	2533.061341
468.850477	2533.744417
469.221790	2535.256763
469.593043	2533.923378
469.964238	2535.125693
470.335373	2535.143337
470.706449	2534.498069
471.077467	2531.990095
471.448425	2535.788605
471.819324	2535.103008
472.190164	2533.368851
472.560945	2534.203162
472.931667	2534.137627
473.302330	2534.298944
473.672934	2533.273069
474.043479	2534.520755
474.413965	2532.514375
474.784393	2532.390867
475.154761	2531.548994
475.525070	2531.115455
475.895321	2532.912627
476.265513	2527.879034
476.635645	2535.158461
477.005719	2534.828265
477.375734	2535.203831
477.745691	2536.380940
478.115588	2535.307175
478.485427	2534.886238
478.855207	2537.802546
479.224928	2538.311702
479.594591	2538.664583
479.964194	2537.958822
480.333739	2536.811959
480.703226	2535.919675
481.072653	2538.203317
481.442022	2536.801877
481.811333	2538.722556
482.180584	2539.047711
482.549777	2535.881866
482.918912	2539.602238
483.287988	2536.272556
483.657005	2536.448996
484.025964	2537.240457
484.394864	2534.929088
484.763706	2538.594007
485.132489	2537.162319
485.501213	2539.793802
485.869879	2536.448996
486.238487	2535.493697
486.607036	2536.103677
486.975527	2538.019315
487.343959	2535.256763
487.712333	2538.162988
488.080648	2535.377751
488.448905	2536.454037
488.817104	2536.131403
489.185244	2538.697351
489.553326	2538.170550
489.921350	2538.644418
490.289315	2538.445293
490.657222	2538.984696
491.025070	2539.549306
491.392861	2540.527289
491.760593	2538.601569
492.128267	2537.008564
492.495883	2537.764737
492.863440	2538.349511
493.230939	2538.011754
493.598380	2538.281455
493.965763	2533.746938
494.333088	2536.058307
494.700354	2533.230219
495.067563	2536.569984
495.434713	2534.641742
495.801805	2539.307330
496.168839	2538.155427
496.535815	2535.929757
496.902733	2538.155427
497.269593	2540.527289
497.636395	2535.546629
498.003139	2537.386651
498.369825	2538.941847
498.736453	2536.776671
499.103023	2539.282124
499.469535	2538.699871
499.835989	2537.782381
500.202385	2539.072917
500.568723	2537.187525
500.935003	2537.469830
501.301226	2537.328677
501.667390	2540.325643
502.033497	2538.074768
502.399546	2539.090561
502.765537	2537.232895
503.131470	2538.825900
503.497345	2537.616023
503.863163	2538.636857
504.228923	2537.300951
504.594625	2536.111239
504.960269	2539.564429
505.325856	2539.927392
505.691385	2537.540406
506.056856	2540.890253
506.422270	2537.784902
506.787625	2537.731970
507.152924	2538.886394
507.518164	2537.061496
507.883347	2539.498894
508.248472	2537.719367
508.613540	2538.669624
508.978550	2539.788760
509.343503	2539.788760
509.708398	2538.168029
510.073236	2537.540406
510.438016	2541.283463
510.802738	2539.060314
511.167403	2537.797505
511.532010	2539.640046
511.896561	2541.414533
512.261053	2543.078113
512.625488	2538.299099
512.989866	2535.483615
513.354186	2535.483615
513.718449	2534.916485
514.082655	2537.394212
514.446803	2539.405633
514.810894	2541.875798
515.174927	2541.772454
515.538904	2539.312371
515.902822	2535.642411
516.266684	2541.117104
516.630488	2539.854295
516.994235	2541.994265
517.357925	2539.105684
517.721558	2541.782537
518.085133	2539.385468
518.448651	2539.892104
518.812112	2540.307999
519.175516	2539.335057
519.538863	2539.582073
519.902152	2541.346477
520.265385	2538.611651
520.628560	2542.339584
520.991678	2540.819676
521.354739	2538.712474
521.717743	2541.306148
522.080690	2539.239275
522.443580	2538.987217
522.806413	2542.513504
523.169189	2540.698689
523.531908	2539.670293
523.894569	2542.478216
524.257174	2540.771785
524.619722	2538.914120
524.982213	2542.984852
525.344647	2539.813966
525.707025	2540.733977
526.069345	2539.055272
526.431608	2542.899152
526.793815	2540.335726
527.155964	2541.149872
527.518057	2541.464944
527.880093	2540.686086
528.242072	2538.883873
528.603995	2540.348328
528.965860	2539.680376
529.327669	2542.072403
529.689421	2541.079296
530.051117	2544.908052
530.412755	2540.769265
530.774337	2539.977804
531.135862	2540.925541
531.497331	2540.653318
531.858743	2536.547298
532.220098	2538.838503
532.581396	2537.147196
532.942638	2538.566281
533.303824	2539.057793
533.664953	2543.761190
534.026025	2541.495191
534.387040	2540.388658
534.747999	2543.241951
535.108902	2542.745397
535.469748	2543.667928
535.830537	2541.343956
536.191270	2542.377393
536.551947	2541.873277
536.912567	2540.507125
537.273131	2542.629451
537.633638	2539.889583
537.994089	2543.171375
538.354483	2539.524100
538.714821	2540.582742
539.075103	2542.117773
539.435328	2540.570139
539.795497	2540.376055
540.155609	2543.055428
540.515665	2541.273380
540.875665	2543.602393
541.235609	2543.980480
541.595496	2543.856972
541.955328	2542.954605
542.315102	2540.262629
542.674821	2541.694317
543.034483	2542.425284
543.394090	2544.020809
543.753640	2540.577701
544.113134	2541.870757
544.472571	2543.136087
544.831953	2540.660880
545.191278	2544.477033
545.550548	2540.537372
545.909761	2543.773793
546.268918	2537.358924
546.628019	2543.289842
546.987064	2542.884029
547.346053	2543.178936
547.704986	2541.986703
548.063863	2539.990407
548.422684	2540.925541
548.781449	2542.516025
549.140158	2545.074410
549.498811	2543.551982
549.857408	2542.175747
550.215949	2541.374203
550.574434	2538.457896
550.932864	2539.889583
551.291237	2538.672145
551.649555	2541.535520
552.007817	2542.697506
552.366022	2544.676159
552.724173	2543.027702
553.082267	2541.114584
553.440305	2542.856303
553.798288	2543.824204
554.156215	2543.872095
554.514086	2544.608103
554.871902	2542.352187
555.229661	2543.965356
555.587365	2543.007537
555.945014	2540.897814
556.302606	2542.964687
556.660143	2542.248843
557.017625	2541.222969
557.375050	2541.008720
557.732421	2542.140459
558.089735	2543.660367
558.446994	2539.740869
558.804197	2542.821014
559.161345	2539.970242
559.518437	2541.061652
559.875474	2541.341436
560.232455	2542.349667
560.589381	2543.942671
560.946251	2544.240099
561.303065	2542.480737
561.659825	2542.778165
562.016528	2542.102650
562.373177	2543.819163
562.729770	2541.301107
563.086307	2543.793957
563.442789	2542.160623
563.799216	2543.627599
564.155587	2543.607434
564.511904	2541.369162
564.868164	2540.431507
565.224370	2543.433515
565.580520	2540.945705
565.936615	2543.143648
566.292654	2541.293545
566.648638	2540.923020
567.004567	2542.737835
567.360441	2540.887732
567.716260	2542.352187
568.072023	2541.069213
568.427732	2538.601569
568.783385	2540.176929
569.138982	2537.984027
569.494525	2541.064172
569.850013	2540.555016
570.205445	2541.419574
570.560823	2542.848741
570.916145	2543.385624
571.271412	2541.361600
571.626625	2545.029040
571.981782	2543.957795
572.336884	2542.112732
572.691931	2542.334543
573.046923	2540.592824
573.401860	2543.594832
573.756743	2542.863864
574.111570	2541.858154
574.466342	2543.224307
574.821059	2538.848585
575.175722	2542.074924
575.530330	2542.266488
575.884882	2543.065510
576.239380	2543.894780
576.593823	2543.234389
576.948211	2540.776827
577.302544	2540.960829
577.656823	2543.448638
578.011047	2543.234389
578.365216	2539.733308
578.719330	2539.201466
579.073389	2540.960829
579.427394	2540.854964
579.781344	2542.614327
580.135239	2543.867054
580.489080	2541.999306
580.842866	2542.105171
581.196597	2542.742877
581.550273	2543.231868
581.903895	2541.840510
582.257463	2542.604245
582.610975	2540.658359
582.964434	2543.776313
583.317837	2541.422094
583.671186	2543.304965
584.024481	2540.993596
584.377721	2543.635161
584.730906	2541.361600
585.084037	2543.413350
585.437113	2541.596014
585.790135	2542.740356
586.143103	2543.708257
586.496016	2546.788403
586.848874	2537.605941
587.201679	2540.577701
587.554428	2537.021167
587.907124	2541.283463
588.259765	2538.684748
588.612352	2541.502753
588.964884	2542.455531
589.317362	2543.960315
589.669786	2541.727084
590.022155	2544.056097
590.374470	2542.931920
590.726731	2542.480737
591.078937	2543.788916
591.431090	2541.079296
591.783188	2542.788247
592.135232	2543.559543
592.487222	2541.661549
592.839157	2544.219935
593.191038	2544.061138
593.542866	2540.749100
593.894639	2542.115253
594.246358	2542.405119
594.598022	2538.445293
594.949633	2542.672300
595.301190	2543.128525
595.652692	2542.831097
596.004141	2540.522248
596.355535	2542.011909
596.706876	2541.717002
597.058162	2542.352187
597.409395	2540.244985
597.760573	2541.016281
598.111698	2542.516025
598.462768	2543.506611
598.813785	2541.376724
599.164748	2541.117104
599.515657	2542.682383
599.866511	2541.197763
600.217312	2540.804553
600.568060	2540.827238
600.918753	2540.376055
601.269392	2539.289686
601.619978	2542.392516
601.970510	2545.765048
602.320988	2540.151723
602.671412	2540.411343
603.021783	2540.688606
603.372100	2542.969728
603.722363	2539.176260
604.072572	2542.800850
604.422728	2541.008720
604.772830	2539.123328
605.122878	2538.087371
605.472872	2540.192053
605.822813	2538.319264
606.172701	2541.371683
606.522534	2542.609286
606.872314	2542.180788
607.222041	2542.125335
607.571714	2540.013092
607.921333	2540.857485
608.270899	2542.153062
608.620411	2542.561395
608.969870	2543.713299
609.319276	2542.856302
609.668627	2546.523742
610.017926	2547.375697
610.367171	2547.748742
610.716362	2548.681356
611.065500	2548.071376
611.414585	2544.305634
611.763616	2546.095244
612.112594	2542.637012
612.461518	2546.102806
612.810389	2544.663556
613.159207	2541.956457
613.507971	2543.723381
613.856682	2542.982331
614.205340	2540.940664
614.553945	2543.867054
614.902496	2537.522762
615.250994	2542.894111
615.599439	2541.928730
615.947830	2540.189532
616.296169	2544.328319
616.644454	2544.897970
616.992686	2541.076775
617.340864	2540.368493
617.688990	2540.754141
618.037063	2543.375541
618.385082	2541.185160
618.733048	2542.379913
619.080961	2541.719522
619.428821	2542.909235
619.776628	2543.307486
620.124382	2539.826569
620.472083	2541.825387
620.819731	2542.576518
621.167326	2542.889070
621.514868	2542.866385
621.862357	2541.848072
622.209793	2541.545603
622.557176	2541.452341
622.904506	2539.745911
623.251783	2536.060827
623.599007	2537.832793
623.946179	2535.244160
624.293297	2538.896476
624.640363	2539.980324
624.987376	2541.051569
625.334336	2539.435880
625.681243	2542.233720
626.028097	2540.630633
626.374899	2540.744059
626.721647	2541.303627
627.068343	2541.235572
627.414987	2538.876312
627.761577	2541.333874
628.108115	2537.167360
628.454600	2538.649460
628.801032	2540.749100
629.147412	2540.063503
629.493739	2538.520910
629.840014	2540.144162
630.186236	2540.048380
630.532405	2539.098122
630.878521	2539.516538
631.224585	2541.487629
631.570597	2540.817156
631.916556	2543.612476
632.262462	2542.072403
632.608316	2540.439069
632.954117	2539.788760
633.299866	2537.399253
633.645562	2540.996117
633.991206	2539.256919
634.336797	2539.438400
634.682336	2539.793802
635.027823	2537.275745
635.373257	2538.452855
635.718639	2539.017464
636.063968	2537.989068
636.409245	2538.226003
636.754470	2539.135931
637.099642	2535.899510
637.444762	2539.667773
637.789829	2537.747093
638.134845	2540.224820
638.479808	2536.912782
638.824719	2539.771116
639.169577	2539.269522
639.514383	2539.801363
639.859137	2538.780530
640.203839	2541.795140
640.548489	2540.063503
640.893086	2537.873122
641.237632	2534.881197
641.582125	2538.505787
641.926566	2534.810621
642.270955	2537.895807
642.615292	2540.917979
642.959576	2536.716177
643.303809	2537.968904
643.647990	2539.140972
643.992118	2538.861188
644.336195	2537.815149
