Dividing Wavelength (nm)	Counts (n)	Blue Motor Position (mm): 0.000000	Red Motor Position (mm): 34.400000	
326.493990	2129.602675
326.888308	2129.602675
327.282561	2129.602675
327.676750	2096.295771
328.070874	2095.012798
328.464933	2096.557911
328.858929	2102.950094
329.252859	2111.565426
329.646726	2124.826182
330.040528	2136.869498
330.434265	2151.080511
330.827938	2171.144303
331.221547	2189.415965
331.615091	2208.116125
332.008571	2230.198900
332.401986	2245.284553
332.795338	2266.356576
333.188625	2287.269803
333.581847	2305.881743
333.975006	2321.451346
334.368100	2341.305931
334.761129	2360.714373
335.154095	2375.875643
335.546996	2395.694939
335.939833	2413.918711
336.332606	2425.389856
336.725315	2444.992383
337.117960	2452.095369
337.510540	2458.540484
337.903056	2470.586321
338.295508	2478.173258
338.687896	2487.217087
339.080220	2494.410814
339.472480	2503.618482
339.864676	2505.380365
340.256807	2511.472599
340.648875	2512.906807
341.040879	2514.242713
341.432818	2516.221366
341.824694	2518.610873
342.216506	2518.351254
342.608253	2519.261182
342.999937	2517.441325
343.391557	2518.469721
343.783113	2516.362518
344.174605	2518.252951
344.566033	2513.403361
344.957397	2514.532580
345.348697	2512.561488
345.739934	2511.618793
346.131106	2507.716940
346.522215	2508.997393
346.913260	2505.090498
347.304241	2503.747031
347.695159	2503.316012
348.086012	2502.280055
348.476802	2497.800990
348.867528	2497.541371
349.258191	2497.682523
349.648789	2495.955928
350.039324	2493.697491
350.429796	2494.098263
350.820203	2491.449136
351.210548	2489.720020
351.600828	2489.987202
351.991045	2490.589619
352.381198	2488.888230
352.771288	2488.137098
353.161314	2486.649958
353.551276	2486.246665
353.941175	2485.782879
354.331010	2489.513333
354.720782	2488.580720
355.110490	2488.716831
355.500135	2486.392859
355.889717	2488.028713
356.279235	2486.423106
356.668689	2491.471821
357.058080	2486.350009
357.447408	2488.200113
357.836672	2485.102323
358.225873	2490.657675
358.615010	2485.694659
359.004084	2493.868890
359.393095	2489.951913
359.782043	2494.473828
360.170927	2490.972747
360.559748	2495.671103
360.948505	2494.927532
361.337199	2495.708911
361.725830	2496.215547
362.114398	2494.927532
362.502903	2497.160763
362.891344	2500.054386
363.279722	2499.787205
363.668037	2499.635970
364.056289	2499.414159
364.444478	2499.154540
364.832603	2497.503562
365.220665	2501.780981
365.608665	2502.403563
365.996601	2500.813079
366.384474	2503.021105
366.772284	2503.837772
367.160031	2505.619820
367.547715	2509.940088
367.935336	2511.558299
368.322893	2515.951664
368.710388	2516.591891
369.097820	2523.553724
369.485189	2524.418282
369.872495	2532.935312
370.259738	2541.719522
370.646918	2547.552137
371.034035	2555.224773
371.421090	2566.937894
371.808081	2574.103895
372.195010	2579.739905
372.581875	2594.384457
372.968678	2609.278546
373.355418	2619.413785
373.742096	2638.446662
374.128710	2651.856131
374.515262	2668.597803
374.901751	2681.989628
375.288177	2694.700897
375.674540	2719.478169
376.060841	2737.137331
376.447079	2755.114085
376.833254	2774.487239
377.219367	2788.909981
377.605417	2827.106803
377.991404	2839.709688
378.377329	2858.253572
378.763191	2876.242930
379.148991	2914.694331
379.534727	2936.182249
379.920402	2967.195428
380.306013	2977.108857
380.691563	3028.316897
381.077049	3048.181564
381.462474	3064.403997
381.847835	3103.929164
382.233134	3128.895478
382.618371	3127.279788
383.003545	3198.443237
383.388657	3202.546736
383.773706	3236.108218
384.158693	3251.624889
384.543618	3276.656739
384.928480	3314.256185
385.313280	3358.961137
385.698017	3357.852083
386.082692	3409.458375
386.467305	3415.820311
386.851856	3450.400106
387.236344	3471.888024
387.620770	3500.378105
388.005133	3528.059081
388.389435	3552.395251
388.773674	3565.724062
389.157851	3606.791822
389.541965	3627.528608
389.926018	3588.941096
390.310008	3661.445491
390.693936	3680.254036
391.077802	3719.310376
391.461606	3708.497101
391.845348	3771.549332
392.229027	3775.940177
392.612645	3785.566261
392.996200	3860.127447
393.379694	3902.584044
393.763125	3965.427068
394.146494	3934.900361
394.529801	3990.658043
394.913047	4043.731311
395.296230	4008.284437
395.679351	4065.075556
396.062410	4088.534566
396.445408	4070.474632
396.828343	4104.542750
397.211217	4127.729537
397.594028	4040.787277
397.976778	4113.475674
398.359466	4138.094149
398.742092	4169.329138
399.124656	4089.928445
399.507158	4171.514478
399.889598	4194.580278
400.271977	4255.711830
400.654294	4229.167634
401.036549	4236.908326
401.418742	4205.154098
401.800874	4307.766785
402.182944	4330.686391
402.564952	4389.829207
402.946898	4379.068865
403.328783	4375.650962
403.710606	4293.696924
404.092367	4482.901510
404.474067	4447.928506
404.855705	4456.478303
405.237282	4386.207138
405.618797	4495.262420
406.000250	4529.133932
406.381642	4607.942290
406.762972	4571.903082
407.144240	4577.264349
407.525447	4582.993620
407.906593	4642.753978
408.287677	4683.579763
408.668700	4609.757106
409.049661	4663.740302
409.430560	4704.840829
409.811399	4629.210918
410.192176	4788.438283
410.572891	4730.621290
410.953545	4835.426878
411.334138	4716.342222
411.714669	4780.301861
412.095139	4678.031973
412.475547	4815.773940
412.855894	4799.937155
413.236180	4804.670799
413.616405	4760.079272
413.996568	4848.549002
414.376670	4792.143531
414.756711	4749.089557
415.136691	4776.432775
415.516609	4856.569477
415.896466	4892.379314
416.276262	4922.648922
416.655997	4905.070419
417.035670	5092.860961
417.415283	5181.146688
417.794834	5125.157113
418.174324	5081.296554
418.553753	4986.487574
418.933121	5168.715203
419.312428	5240.513837
419.691674	5178.734496
420.070859	5301.196726
420.449983	5216.172625
420.829045	5328.721426
421.208047	5238.746912
421.586988	5310.936235
421.965867	5321.189942
422.344686	5455.335046
422.723444	5307.331810
423.102141	5124.680724
423.480777	5423.270787
423.859352	5191.980128
424.237866	5451.226506
424.616319	5445.114107
424.994712	5555.013781
425.373044	5426.993679
425.751314	5569.514660
426.129524	5371.072160
426.507673	5567.248662
426.885762	5653.114635
427.263789	5584.991002
427.641756	5465.883661
428.019662	5583.599644
428.397508	5594.939720
428.775292	5542.342841
429.153016	5639.067460
429.530679	5566.472324
429.908282	5647.206403
430.285824	5521.908524
430.663305	5796.202746
431.040726	5531.789185
431.418086	5530.302045
431.795385	5636.647706
432.172624	5649.762268
432.549802	5639.932018
432.926920	5656.512373
433.303977	5664.739536
433.680974	5699.689855
434.057910	5723.892435
434.434786	5726.730605
434.811601	5695.667015
435.188355	5929.730308
435.565050	5804.336648
435.941683	5785.886024
436.318257	5999.121791
436.694770	5982.758206
437.071222	6017.675758
437.447614	5949.685716
437.823946	5862.070462
438.200218	6014.779615
438.576429	5880.246342
438.952580	5976.857535
439.328670	6022.444689
439.704700	5929.712664
440.080670	5915.514254
440.456580	6185.042065
440.832429	6069.367749
441.208218	5917.087094
441.583947	6072.120219
441.959616	6078.149439
442.335224	6005.950034
442.710773	6137.075487
443.086261	6160.330329
443.461689	5965.406554
443.837057	6111.877279
444.212365	6266.877636
444.587612	6161.348642
444.962800	6315.950748
445.337927	6293.172295
445.712995	5903.077728
446.088002	6476.750953
446.462949	6308.820036
446.837837	6241.167752
447.212664	6415.004380
447.587431	6556.456637
447.962139	7099.721622
448.336786	8022.968620
448.711374	7763.921368
449.085901	6836.288566
449.460369	6760.237719
449.834776	6697.767741
450.209124	7084.091525
450.583412	7239.497695
450.957640	7383.989767
451.331808	7146.495968
451.705917	6700.326126
452.079965	6623.635053
452.453954	6837.571540
452.827883	6715.056378
453.201752	6804.672970
453.575562	6601.401044
453.949311	6807.526263
454.323001	6698.067689
454.696632	6768.248113
455.070202	6906.688280
455.443713	7061.897845
455.817164	7167.336098
456.190556	7240.795792
456.563888	7317.408728
456.937160	7365.481171
457.310373	7016.663571
457.683526	7042.116357
458.056619	6936.657939
458.429653	6921.675630
458.802628	6857.821855
459.175542	6971.235213
459.548398	7327.170922
459.921194	7480.855538
460.293930	7485.047258
460.666607	8016.304214
461.039224	8326.579672
461.411782	8448.615924
461.784280	8467.905899
462.156719	8361.787090
462.529099	8241.404337
462.901419	7833.459044
463.273680	7720.086014
463.645882	7738.347594
464.018024	7598.067406
464.390106	7766.043693
464.762130	8150.759349
465.134094	8625.053788
465.505999	9641.597420
465.877845	10869.826664
466.249631	11514.043276
466.621358	11135.377004
466.993026	10493.554941
467.364634	10240.821734
467.736184	9873.704746
468.107674	9539.952635
468.479105	9582.883101
468.850477	9341.860495
469.221790	9114.819528
469.593043	8785.564127
469.964238	8643.426273
470.335373	8653.654775
470.706449	8719.058705
471.077467	8695.826547
471.448425	10008.865643
471.819324	11076.161091
472.190164	11111.464291
472.560945	9861.356440
472.931667	9067.936798
473.302330	8934.489894
473.672934	8579.098630
474.043479	8942.245709
474.413965	8876.201552
474.784393	8755.758305
475.154761	8916.676977
475.525070	9005.676027
475.895321	8833.364347
476.265513	9006.911110
476.635645	9176.510649
477.005719	9164.442126
477.375734	9292.336199
477.745691	9526.001242
478.115588	9656.247013
478.485427	9903.709694
478.855207	10438.593761
479.224928	11255.815211
479.594591	11878.422917
479.964194	11702.998325
480.333739	11628.119546
480.703226	11539.417923
481.072653	11639.953655
481.442022	11881.805531
481.811333	12062.508211
482.180584	11865.343643
482.549777	11581.448544
482.918912	11398.686552
483.287988	11428.739391
483.657005	11436.646441
484.025964	11114.183994
484.394864	11246.761299
484.763706	11219.113090
485.132489	10972.575462
485.501213	10938.608167
485.869879	11014.338901
486.238487	10856.981804
486.607036	10964.537342
486.975527	10744.410318
487.343959	10938.366192
487.712333	10985.926958
488.080648	10912.673951
488.448905	10953.640888
488.817104	10900.514688
489.185244	11154.747638
489.553326	11318.620426
489.921350	11849.927795
490.289315	12908.983477
490.657222	13247.204571
491.025070	13164.290193
491.392861	13027.909337
491.760593	12653.225578
492.128267	12298.771968
492.495883	11978.388998
492.863440	11640.435085
493.230939	11303.307921
493.598380	11236.250493
493.965763	11105.185534
494.333088	11006.351192
494.700354	10926.900087
495.067563	10981.573921
495.434713	10810.451954
495.801805	10934.887795
496.168839	10859.991373
496.535815	10803.076746
496.902733	10789.702565
497.269593	10719.406195
497.636395	10813.053189
498.003139	10807.207971
498.369825	10671.568165
498.736453	10818.719446
499.103023	10747.172870
499.469535	10767.884451
499.835989	10760.620148
500.202385	10714.395288
500.568723	10563.992463
500.935003	10776.275451
501.301226	10584.192366
501.667390	10834.901550
502.033497	10921.896742
502.399546	10783.474219
502.765537	10683.712305
503.131470	10751.346946
503.497345	10924.815570
503.863163	10536.629080
504.228923	10828.181692
504.594625	10887.516073
504.960269	10635.846549
505.325856	10847.103663
505.691385	10633.436878
506.056856	10776.900554
506.422270	10786.796339
506.787625	10674.572693
507.152924	10777.523137
507.518164	10745.889897
507.883347	10656.424539
508.248472	10570.649307
508.613540	10783.272573
508.978550	10663.212453
509.343503	10622.900866
509.708398	10722.622451
510.073236	10819.125259
510.438016	10818.638788
510.802738	10755.775599
511.167403	10786.130907
511.532010	10665.954841
511.896561	10882.986596
512.261053	10935.601119
512.625488	10787.338263
512.989866	10753.781823
513.354186	10727.603111
513.718449	10607.419483
514.082655	10781.472881
514.446803	10655.527214
514.810894	10747.981975
515.174927	10602.138874
515.538904	10607.472415
515.902822	10722.947605
516.266684	10596.152504
516.630488	10510.243681
516.994235	10549.715915
517.357925	10565.053626
517.721558	10625.426484
518.085133	10610.161870
518.448651	10592.714437
518.812112	10460.008583
519.175516	10446.238671
519.538863	10511.619916
519.902152	10416.483260
520.265385	10517.772644
520.628560	10411.769781
520.991678	10354.232572
521.354739	10377.779802
521.717743	10289.816708
522.080690	10231.309077
522.443580	10311.591972
522.806413	10227.029137
523.169189	10226.298170
523.531908	10231.387214
523.894569	10038.248008
524.257174	10002.977575
524.619722	10059.935052
524.982213	9990.203291
525.344647	9973.660745
525.707025	9896.084949
526.069345	9929.422099
526.431608	9808.094129
526.793815	9853.809832
527.155964	9646.121856
527.518057	9648.120673
527.880093	9554.594667
528.242072	9572.279034
528.603995	9441.713150
528.965860	9327.659564
529.327669	9323.472886
529.689421	9235.890400
530.051117	9171.472015
530.412755	9188.674953
530.774337	9070.780008
531.135862	8994.542639
531.497331	8967.935429
531.858743	8806.265625
532.220098	8874.721974
532.581396	8730.696208
532.942638	8660.472935
533.303824	8590.859642
533.664953	8538.910551
534.026025	8428.032893
534.387040	8443.448742
534.747999	8393.536277
535.108902	8371.745890
535.469748	8160.985330
535.830537	8182.153135
536.191270	8107.289480
536.551947	8064.961431
536.912567	8012.160386
537.273131	7918.397445
537.633638	7845.625869
537.994089	7778.911239
538.354483	7690.116355
538.714821	7735.804332
539.075103	7683.736775
539.435328	7599.748631
539.795497	7455.508617
540.155609	7487.230077
540.515665	7490.562280
540.875665	7279.957996
541.235609	7253.978409
541.595496	7204.958229
541.955328	7231.114256
542.315102	7116.901874
542.674821	7037.659977
543.034483	6983.911195
543.394090	6927.394819
543.753640	6837.203536
544.113134	6887.196658
544.472571	6761.356855
544.831953	6774.867148
545.191278	6631.204345
545.550548	6588.294044
545.909761	6603.084789
546.268918	6533.312699
546.628019	6522.527151
546.987064	6399.555764
547.346053	6321.077602
547.704986	6300.350898
548.063863	6241.419809
548.422684	6199.681576
548.781449	6095.483447
549.140158	6091.899186
549.498811	5986.150902
549.857408	5885.204317
550.215949	5908.693573
550.574434	5805.682636
550.932864	5789.598834
551.291237	5769.519918
551.649555	5683.669068
552.007817	5649.419469
552.366022	5594.302014
552.724173	5533.525863
553.082267	5486.139017
553.440305	5470.942458
553.798288	5372.972675
554.156215	5363.865830
554.514086	5309.852387
554.871902	5218.282348
555.229661	5185.756824
555.587365	5133.555676
555.945014	5064.872475
556.302606	5038.920615
556.660143	4981.476667
557.017625	4968.586437
557.375050	4902.232249
557.732421	4893.470724
558.089735	4828.381866
558.446994	4789.696051
558.804197	4752.472171
559.161345	4711.268300
559.518437	4645.209020
559.875474	4614.974700
560.232455	4580.329370
560.589381	4540.574831
560.946251	4489.649095
561.303065	4486.755473
561.659825	4420.459258
562.016528	4375.751785
562.373177	4317.839010
562.729770	4292.121564
563.086307	4247.409050
563.442789	4234.980085
563.799216	4160.809588
564.155587	4141.315446
564.511904	4094.861214
564.868164	4060.508271
565.224370	4034.810989
565.580520	3981.384841
565.936615	3964.277685
566.292654	3897.933580
566.648638	3894.722365
567.004567	3856.303731
567.360441	3825.416582
567.716260	3778.475878
568.072023	3771.997995
568.427732	3725.185840
568.783385	3695.203578
569.138982	3672.581400
569.494525	3649.734891
569.850013	3604.326697
570.205445	3589.843462
570.560823	3560.173752
570.916145	3521.276208
571.271412	3506.119979
571.626625	3474.700988
571.981782	3454.548976
572.336884	3426.114347
572.691931	3407.474681
573.046923	3380.754045
573.401860	3356.914428
573.756743	3329.178000
574.111570	3312.895073
574.466342	3293.577372
574.821059	3277.039866
575.175722	3250.697317
575.530330	3231.089749
575.884882	3213.102912
576.239380	3188.718851
576.593823	3169.507014
576.948211	3151.961278
577.302544	3133.692136
577.656823	3114.974332
578.011047	3104.420676
578.365216	3085.624734
578.719330	3067.973134
579.073389	3049.852707
579.427394	3034.310829
579.781344	3021.917153
580.135239	3005.719925
580.489080	2995.506548
580.842866	2975.271356
581.196597	2967.797845
581.550273	2960.082359
581.903895	2942.692899
582.257463	2942.375307
582.610975	2924.864859
582.964434	2916.035278
583.317837	2902.456930
583.671186	2895.472411
584.024481	2885.231307
584.377721	2870.095243
584.730906	2862.339428
585.084037	2853.310721
585.437113	2843.596417
585.790135	2837.899914
586.143103	2822.209322
586.496016	2818.390648
586.848874	2807.078299
587.201679	2804.106539
587.554428	2790.374436
587.907124	2784.877057
588.259765	2776.609565
588.612352	2775.513114
588.964884	2768.014398
589.317362	2761.528953
589.669786	2755.915629
590.022155	2754.874630
590.374470	2748.689135
590.726731	2745.256109
591.078937	2731.793707
591.431090	2732.907802
591.783188	2723.707697
592.135232	2719.584033
592.487222	2716.186295
592.839157	2712.917107
593.191038	2705.715819
593.542866	2703.464943
593.894639	2697.720549
594.246358	2694.426155
594.598022	2691.870290
594.949633	2684.469876
595.301190	2682.667663
595.652692	2680.462158
596.004141	2679.900070
596.355535	2672.950839
596.706876	2670.818431
597.058162	2666.188131
597.409395	2662.674447
597.760573	2663.707884
598.111698	2660.746206
598.462768	2656.877120
598.813785	2656.680515
599.164748	2654.064156
599.515657	2650.999135
599.866511	2644.846407
600.217312	2648.718013
600.568060	2645.615182
600.918753	2645.985707
601.269392	2643.024029
601.619978	2641.385654
601.970510	2640.528658
602.320988	2637.209058
602.671412	2635.986579
603.021783	2635.432052
603.372100	2635.580766
603.722363	2632.341824
604.072572	2633.788636
604.422728	2633.564304
604.772830	2626.602471
605.122878	2624.845629
605.472872	2625.803448
605.822813	2624.003756
606.172701	2624.928808
606.522534	2624.817902
606.872314	2626.302522
607.222041	2621.647017
607.571714	2622.047788
607.921333	2623.802110
608.270899	2619.948148
608.620411	2624.767491
608.969870	2623.807151
609.319276	2624.404528
609.668627	2623.469394
610.017926	2625.233797
610.367171	2625.770680
610.716362	2624.071812
611.065500	2625.861421
611.414585	2622.236832
611.763616	2621.425206
612.112594	2618.783641
612.461518	2617.914042
612.810389	2620.114506
613.159207	2618.710544
613.507971	2615.953033
613.856682	2617.016717
614.205340	2616.452107
614.553945	2617.175513
614.902496	2615.511932
615.250994	2613.321551
615.599439	2615.537138
615.947830	2614.846500
616.296169	2613.659308
616.644454	2613.127467
616.992686	2612.759462
617.340864	2613.326592
617.688990	2610.223762
618.037063	2612.739298
618.385082	2610.664863
618.733048	2614.259206
619.080961	2609.336519
619.428821	2613.268619
619.776628	2610.158227
620.124382	2612.177209
620.472083	2608.519852
620.819731	2608.214862
621.167326	2609.170161
621.514868	2605.638832
621.862357	2603.539192
622.209793	2608.809718
622.557176	2604.071034
622.904506	2603.055241
623.251783	2598.492997
623.599007	2597.767071
623.946179	2600.025508
624.293297	2601.058944
624.640363	2600.761516
624.987376	2602.742690
625.334336	2600.695981
625.681243	2600.091043
626.028097	2598.114910
626.374899	2598.893769
626.721647	2596.718511
627.068343	2599.453337
627.414987	2600.128851
627.761577	2596.232039
628.108115	2597.338573
628.454600	2596.655496
628.801032	2595.243973
629.147412	2596.534509
629.493739	2594.442430
629.840014	2596.947883
630.186236	2596.073243
630.532405	2594.132399
630.878521	2595.455702
631.224585	2595.072574
631.570597	2589.292891
631.916556	2592.640217
632.262462	2593.577872
632.608316	2589.439085
632.954117	2589.575196
633.299866	2593.109045
633.645562	2591.369847
633.991206	2589.371029
634.336797	2591.697522
634.682336	2591.115268
635.027823	2587.558734
635.373257	2587.662078
635.718639	2587.636872
636.063968	2588.143508
636.409245	2587.044537
636.754470	2588.060329
637.099642	2582.406675
637.444762	2586.283322
637.789829	2584.264340
638.134845	2586.815164
638.479808	2586.636203
638.824719	2584.471027
639.169577	2584.231573
639.514383	2583.795513
639.859137	2581.219483
640.203839	2582.633527
640.548489	2581.947930
640.893086	2578.847620
641.237632	2576.574060
641.582125	2579.369380
641.926566	2574.229923
642.270955	2582.913311
642.615292	2582.510019
