Dividing Wavelength (nm)	Counts (n)	Blue Motor Position (mm): 0.000000	Red Motor Position (mm): 8.900000	
326.493990	2129.839609
326.888308	2129.839609
327.282561	2129.839609
327.676750	2096.230236
328.070874	2095.458940
328.464933	2098.861719
328.858929	2103.872626
329.252859	2112.924017
329.646726	2125.279885
330.040528	2139.354787
330.434265	2155.022693
330.827938	2173.443069
331.221547	2191.369412
331.615091	2210.513194
332.008571	2229.629249
332.401986	2249.970305
332.795338	2268.151227
333.188625	2288.275513
333.581847	2306.448872
333.975006	2323.583754
334.368100	2341.487412
334.761129	2361.883921
335.154095	2375.973946
335.546996	2395.422717
335.939833	2409.568195
336.332606	2422.985226
336.725315	2434.925199
337.117960	2446.194698
337.510540	2453.015379
337.903056	2465.010805
338.295508	2475.239306
338.687896	2483.411016
339.080220	2491.323107
339.472480	2493.798314
339.864676	2498.819303
340.256807	2503.580673
340.648875	2509.766169
341.040879	2508.072341
341.432818	2515.205574
341.824694	2511.661643
342.216506	2512.397651
342.608253	2516.725482
342.999937	2512.316993
343.391557	2516.077693
343.783113	2510.209790
344.174605	2513.645337
344.566033	2506.749038
344.957397	2509.917403
345.348697	2503.381547
345.739934	2505.531599
346.131106	2503.825169
346.522215	2502.761485
346.913260	2497.455671
347.304241	2498.327791
347.695159	2494.461226
348.086012	2495.575321
348.476802	2493.009373
348.867528	2492.429641
349.258191	2489.566265
349.648789	2488.205154
350.039324	2487.108703
350.429796	2486.261789
350.820203	2486.332365
351.210548	2483.945379
351.600828	2485.016624
351.991045	2481.749956
352.381198	2482.579226
352.771288	2482.685090
353.161314	2479.312558
353.551276	2482.864051
353.941175	2480.560244
354.331010	2481.389514
354.720782	2478.853813
355.110490	2481.376911
355.500135	2479.451190
355.889717	2480.719040
356.279235	2481.444966
356.668689	2484.436891
357.058080	2480.046046
357.447408	2482.213742
357.836672	2480.121663
358.225873	2480.550162
358.615010	2479.841879
359.004084	2482.004534
359.393095	2483.910091
359.782043	2482.201139
360.170927	2483.489154
360.559748	2486.922180
360.948505	2490.193889
361.337199	2488.578199
361.725830	2489.752788
362.114398	2490.876965
362.502903	2487.474186
362.891344	2491.701194
363.279722	2488.416882
363.668037	2490.385453
364.056289	2490.176245
364.444478	2492.099445
364.832603	2492.217912
365.220665	2493.016935
365.608665	2492.162459
365.996601	2493.705053
366.384474	2494.650269
366.772284	2496.656648
367.160031	2496.064313
367.547715	2500.208141
367.935336	2500.641680
368.322893	2502.257370
368.710388	2506.665859
369.097820	2513.355470
369.485189	2516.188599
369.872495	2524.859383
370.259738	2527.863911
370.646918	2538.047042
371.034035	2543.529297
371.421090	2553.442726
371.808081	2565.070147
372.195010	2570.900241
372.581875	2585.111254
372.968678	2598.193048
373.355418	2607.004985
373.742096	2626.917543
374.128710	2638.663431
374.515262	2654.792603
374.901751	2671.312464
375.288177	2682.718075
375.674540	2702.063503
376.060841	2722.916236
376.447079	2737.268401
376.833254	2758.295053
377.219367	2763.081629
377.605417	2797.089253
377.991404	2803.100829
378.377329	2821.372491
378.763191	2834.081240
379.148991	2860.325487
379.534727	2879.479351
379.920402	2895.094325
380.306013	2901.650345
380.691563	2934.347269
381.077049	2944.522838
381.462474	2950.216821
381.847835	2969.486632
382.233134	2975.974597
382.618371	2962.519757
383.003545	2999.952845
383.388657	2993.646362
383.773706	2997.878410
384.158693	2997.283554
384.543618	2998.863956
384.928480	3004.568022
385.313280	3014.209228
385.698017	2994.856239
386.082692	3004.862929
386.467305	2988.895074
386.851856	2985.512460
387.236344	2974.794967
387.620770	2967.104687
388.005133	2957.168573
388.389435	2946.761110
388.773674	2928.650765
389.157851	2920.723551
389.541965	2904.067578
389.926018	2873.114894
390.310008	2873.046838
390.693936	2855.037316
391.077802	2844.155986
391.461606	2816.822849
391.845348	2811.832107
392.229027	2790.233283
392.612645	2775.288783
392.996200	2771.344080
393.379694	2758.453850
393.763125	2748.016141
394.146494	2721.870196
394.529801	2713.096068
394.913047	2698.743903
395.296230	2680.036181
395.679351	2668.638132
396.062410	2653.010555
396.445408	2636.314254
396.828343	2628.976854
397.211217	2611.317692
397.594028	2593.696339
397.976778	2587.110072
398.359466	2578.461972
398.742092	2569.090467
399.124656	2563.114179
399.507158	2560.414641
399.889598	2555.295350
400.271977	2549.122457
400.654294	2545.810419
401.036549	2541.754810
401.418742	2536.680889
401.800874	2533.814993
402.182944	2534.515713
402.564952	2530.245856
402.946898	2528.241997
403.328783	2525.421472
403.710606	2524.672861
404.092367	2523.445340
404.474067	2522.774866
404.855705	2521.938035
405.237282	2520.675226
405.618797	2520.488703
406.000250	2522.608508
406.381642	2522.714372
406.762972	2519.288908
407.144240	2521.111285
407.525447	2521.655730
407.906593	2518.464680
408.287677	2519.697242
408.668700	2519.425019
409.049661	2518.389062
409.430560	2518.625997
409.811399	2520.834022
410.192176	2521.159176
410.572891	2520.163548
410.953545	2518.996521
411.334138	2519.853517
411.714669	2519.427540
412.095139	2521.688497
412.475547	2519.929135
412.855894	2518.862931
413.236180	2519.298991
413.616405	2518.436953
413.996568	2519.137674
414.376670	2520.304701
414.756711	2520.881913
415.136691	2517.965605
415.516609	2517.557272
415.896466	2521.922911
416.276262	2522.767304
416.655997	2519.450225
417.035670	2518.230266
417.415283	2523.294105
417.794834	2516.163393
418.174324	2519.727489
418.553753	2518.956192
418.933121	2524.539270
419.312428	2520.095493
419.691674	2523.601615
420.070859	2521.191944
420.449983	2522.467356
420.829045	2523.808303
421.208047	2523.238652
421.586988	2522.855525
421.965867	2523.737727
422.344686	2523.079856
422.723444	2524.390556
423.102141	2523.863755
423.480777	2526.543129
423.859352	2525.391225
424.237866	2525.771832
424.616319	2523.881399
424.994712	2524.647655
425.373044	2523.720083
425.751314	2526.079342
426.129524	2524.201513
426.507673	2524.735875
426.885762	2525.534898
427.263789	2526.502799
427.641756	2522.618590
428.019662	2526.149919
428.397508	2523.783097
428.775292	2527.616894
429.153016	2524.942562
429.530679	2525.915505
429.908282	2527.100176
430.285824	2528.305012
430.663305	2527.505989
431.040726	2526.376771
431.418086	2526.081863
431.795385	2526.192768
432.172624	2527.596730
432.549802	2528.262162
432.926920	2526.580937
433.303977	2527.027079
433.680974	2527.327028
434.057910	2526.182686
434.434786	2527.324507
434.811601	2525.797038
435.188355	2528.088242
435.565050	2526.220495
435.941683	2525.713859
436.318257	2526.812830
436.694770	2524.526667
437.071222	2524.577079
437.447614	2521.436440
437.823946	2525.466842
438.200218	2526.013807
438.576429	2529.086391
438.952580	2525.565145
439.328670	2527.526154
439.704700	2526.696884
440.080670	2529.567821
440.456580	2524.987933
440.832429	2530.681916
441.208218	2526.722090
441.583947	2531.395239
441.959616	2528.640249
442.335224	2527.745444
442.710773	2527.352234
443.086261	2531.241484
443.461689	2529.454395
443.837057	2528.607481
444.212365	2530.429858
444.587612	2531.798532
444.962800	2530.129910
445.337927	2529.875331
445.712995	2531.483459
446.088002	2530.344159
446.462949	2527.715197
446.837837	2531.680064
447.212664	2532.063192
447.587431	2529.802235
447.962139	2530.946577
448.336786	2536.396064
448.711374	2533.479756
449.085901	2532.612678
449.460369	2531.034797
449.834776	2529.409025
450.209124	2531.848943
450.583412	2533.094108
450.957640	2531.294416
451.331808	2533.532688
451.705917	2533.749458
452.079965	2532.196783
452.453954	2531.969931
452.827883	2533.436907
453.201752	2532.690816
453.575562	2530.755013
453.949311	2531.987575
454.323001	2532.461443
454.696632	2533.812473
455.070202	2533.865405
455.443713	2533.033614
455.817164	2530.865918
456.190556	2530.883562
456.563888	2530.737369
456.937160	2529.618232
457.310373	2532.239632
457.683526	2534.543440
458.056619	2531.100332
458.429653	2531.523789
458.802628	2532.673172
459.175542	2531.985054
459.548398	2535.181146
459.921194	2534.969417
460.293930	2533.371372
460.666607	2532.902544
461.039224	2537.464788
461.411782	2535.614685
461.784280	2537.283307
462.156719	2539.226672
462.529099	2538.162988
462.901419	2534.447658
463.273680	2536.353214
463.645882	2533.883049
464.018024	2536.383461
464.390106	2533.474715
464.762130	2537.603420
465.134094	2534.543440
465.505999	2536.930426
465.877845	2538.266332
466.249631	2539.950077
466.621358	2540.323123
466.993026	2542.415202
467.364634	2542.594162
467.736184	2540.411343
468.107674	2540.401261
468.479105	2536.688451
468.850477	2537.424459
469.221790	2538.185673
469.593043	2536.627957
469.964238	2537.676517
470.335373	2538.273894
470.706449	2534.740045
471.077467	2534.059489
471.448425	2537.495035
471.819324	2539.819007
472.190164	2538.896476
472.560945	2538.180632
472.931667	2537.696682
473.302330	2536.179294
473.672934	2535.017308
474.043479	2534.094777
474.413965	2536.428831
474.784393	2533.799870
475.154761	2536.496887
475.525070	2535.788605
475.895321	2534.770292
476.265513	2530.626463
476.635645	2540.043339
477.005719	2536.454037
477.375734	2538.470499
477.745691	2538.462937
478.115588	2539.788760
478.485427	2538.798174
478.855207	2538.712474
479.224928	2541.243133
479.594591	2540.204656
479.964194	2543.098278
480.333739	2542.241282
480.703226	2543.766231
481.072653	2542.127856
481.442022	2541.396888
481.811333	2541.293545
482.180584	2540.744059
482.549777	2542.478216
482.918912	2539.428318
483.287988	2542.619368
483.657005	2540.388658
484.025964	2542.165664
484.394864	2539.947557
484.763706	2540.570139
485.132489	2542.037115
485.501213	2539.939995
485.869879	2542.135418
486.238487	2539.009902
486.607036	2542.929399
486.975527	2539.272042
487.343959	2542.261446
487.712333	2540.005530
488.080648	2538.704912
488.448905	2543.267157
488.817104	2538.485622
489.185244	2541.222969
489.553326	2541.848072
489.921350	2543.637681
490.289315	2545.558361
490.657222	2545.679349
491.025070	2542.591642
491.392861	2544.850079
491.760593	2542.861344
492.128267	2544.008206
492.495883	2543.393185
492.863440	2542.193391
493.230939	2542.624409
493.598380	2543.133566
493.965763	2537.179963
494.333088	2539.488812
494.700354	2537.903369
495.067563	2541.669111
495.434713	2537.888245
495.801805	2538.750283
496.168839	2544.580377
496.535815	2545.064328
496.902733	2541.530479
497.269593	2542.321940
497.636395	2541.389327
498.003139	2544.623227
498.369825	2542.853782
498.736453	2543.065510
499.103023	2539.977804
499.469535	2540.920499
499.835989	2542.324461
500.202385	2542.011909
500.568723	2541.744728
500.935003	2545.155069
501.301226	2542.064841
501.667390	2541.858154
502.033497	2542.579039
502.399546	2545.021478
502.765537	2542.558874
503.131470	2540.865047
503.497345	2542.795809
503.863163	2544.673638
504.228923	2542.427804
504.594625	2541.843031
504.960269	2541.500232
505.325856	2545.717157
505.691385	2541.291024
506.056856	2543.940151
506.422270	2541.858154
506.787625	2543.405788
507.152924	2541.832948
507.518164	2542.815973
507.883347	2538.800694
508.248472	2542.145500
508.613540	2543.814122
508.978550	2543.017619
509.343503	2544.277908
509.708398	2543.168854
510.073236	2543.458720
510.438016	2546.823691
510.802738	2540.877650
511.167403	2545.772610
511.532010	2542.251364
511.896561	2546.914431
512.261053	2544.567774
512.625488	2538.795653
512.989866	2541.233051
513.354186	2541.258257
513.718449	2539.902186
514.082655	2543.862013
514.446803	2545.200439
514.810894	2544.701365
515.174927	2547.093392
515.538904	2542.107691
515.902822	2543.607434
516.266684	2542.873947
516.630488	2543.746066
516.994235	2544.086344
517.357925	2544.613145
517.721558	2543.095757
518.085133	2544.635830
518.448651	2545.157589
518.812112	2544.232537
519.175516	2544.850079
519.538863	2546.463248
519.902152	2543.970397
520.265385	2545.137425
520.628560	2544.610624
520.991678	2542.304296
521.354739	2546.037271
521.717743	2542.624409
522.080690	2545.296221
522.443580	2542.551313
522.806413	2545.162630
523.169189	2546.216232
523.531908	2544.368649
523.894569	2544.114070
524.257174	2546.564071
524.619722	2544.542568
524.982213	2545.989380
525.344647	2545.570964
525.707025	2546.024668
526.069345	2545.026519
526.431608	2546.569112
526.793815	2544.555171
527.155964	2544.282949
527.518057	2547.637837
527.880093	2543.942671
528.242072	2546.715306
528.603995	2547.206818
528.965860	2546.677497
529.327669	2544.136756
529.689421	2545.293700
530.051117	2545.306303
530.412755	2542.821014
530.774337	2546.576674
531.135862	2547.726057
531.497331	2545.291180
531.858743	2539.430838
532.220098	2542.626930
532.581396	2540.184491
532.942638	2542.536189
533.303824	2543.887218
533.664953	2545.873433
534.026025	2545.797816
534.387040	2547.274874
534.747999	2546.254040
535.108902	2547.816798
535.469748	2543.650284
535.830537	2545.996941
536.191270	2546.465769
536.551947	2546.702703
536.912567	2543.889739
537.273131	2546.712785
537.633638	2546.359904
537.994089	2546.795964
538.354483	2545.213042
538.714821	2544.172044
539.075103	2544.320758
539.435328	2547.446273
539.795497	2545.281098
540.155609	2546.299411
540.515665	2545.283618
540.875665	2546.417878
541.235609	2544.189688
541.595496	2547.141283
541.955328	2547.133722
542.315102	2542.929399
542.674821	2545.351674
543.034483	2547.080789
543.394090	2542.999975
543.753640	2546.080120
544.113134	2545.364277
544.472571	2547.796633
544.831953	2544.905532
545.191278	2546.760676
545.550548	2545.344112
545.909761	2544.161961
546.268918	2545.291180
546.628019	2545.565923
546.987064	2547.017775
547.346053	2545.369318
547.704986	2543.730943
548.063863	2546.949719
548.422684	2545.384441
548.781449	2546.778320
549.140158	2544.217414
549.498811	2545.457538
549.857408	2544.315717
550.215949	2544.451828
550.574434	2542.994934
550.932864	2544.252702
551.291237	2542.516025
551.649555	2547.705892
552.007817	2544.277908
552.366022	2546.052394
552.724173	2540.872608
553.082267	2546.160779
553.440305	2546.979966
553.798288	2546.233876
554.156215	2544.988711
554.514086	2545.253371
554.871902	2546.203629
555.229661	2545.442414
555.587365	2549.326623
555.945014	2548.724206
556.302606	2547.274874
556.660143	2545.674307
557.017625	2547.461397
557.375050	2545.865871
557.732421	2546.405275
558.089735	2546.858979
558.446994	2548.078938
558.804197	2549.540873
559.161345	2543.983000
559.518437	2545.664225
559.875474	2545.328988
560.232455	2546.828732
560.589381	2545.109698
560.946251	2549.621531
561.303065	2549.266130
561.659825	2546.667415
562.016528	2545.099616
562.373177	2545.422250
562.729770	2545.384441
563.086307	2546.090203
563.442789	2544.824873
563.799216	2546.538865
564.155587	2547.685728
564.511904	2545.780172
564.868164	2547.095913
565.224370	2547.267312
565.580520	2548.242775
565.936615	2546.884184
566.292654	2546.422919
566.648638	2544.204811
567.004567	2547.025337
567.360441	2546.155738
567.716260	2545.477702
568.072023	2546.813608
568.427732	2540.227341
568.783385	2541.475026
569.138982	2541.147351
569.494525	2543.685572
569.850013	2543.055428
570.205445	2546.223793
570.560823	2545.633978
570.916145	2544.313196
571.271412	2544.782023
571.626625	2547.542055
571.981782	2545.951571
572.336884	2547.786551
572.691931	2546.309493
573.046923	2544.512322
573.401860	2546.798485
573.756743	2545.339071
574.111570	2545.392003
574.466342	2546.700182
574.821059	2547.259750
575.175722	2547.622713
575.530330	2547.922662
575.884882	2547.295038
576.239380	2549.140101
576.593823	2549.054401
576.948211	2544.053577
577.302544	2550.108002
577.656823	2547.307641
578.011047	2545.031560
578.365216	2544.414019
578.719330	2547.625234
579.073389	2545.056766
579.427394	2544.983669
579.781344	2547.597508
580.135239	2546.433001
580.489080	2546.652291
580.842866	2544.817311
581.196597	2549.840821
581.550273	2545.170192
581.903895	2545.976777
582.257463	2543.340253
582.610975	2544.754297
582.964434	2544.242620
583.317837	2545.397044
583.671186	2549.619010
584.024481	2541.603576
584.377721	2546.632127
584.730906	2546.921993
585.084037	2547.340409
585.437113	2547.252189
585.790135	2546.145655
586.143103	2550.065152
586.496016	2546.856458
586.848874	2540.998637
587.201679	2544.391334
587.554428	2544.570295
587.907124	2547.385779
588.259765	2542.319420
588.612352	2546.490974
588.964884	2547.743701
589.317362	2546.317055
589.669786	2546.982487
590.022155	2546.490974
590.374470	2545.351674
590.726731	2548.661191
591.078937	2547.224462
591.431090	2547.370656
591.783188	2547.176571
592.135232	2545.117260
592.487222	2546.090203
592.839157	2546.513660
593.191038	2544.865202
593.542866	2544.411498
593.894639	2544.797147
594.246358	2545.709596
594.598022	2545.535676
594.949633	2544.857641
595.301190	2544.187167
595.652692	2545.828063
596.004141	2542.979811
596.355535	2550.032385
596.706876	2546.483413
597.058162	2546.443083
597.409395	2544.363608
597.760573	2547.816798
598.111698	2542.261446
598.462768	2544.512322
598.813785	2545.860830
599.164748	2545.734801
599.515657	2544.444266
599.866511	2543.998124
600.217312	2547.053063
600.568060	2543.773792
600.918753	2545.591128
601.269392	2545.767569
601.619978	2543.420912
601.970510	2546.606921
602.320988	2545.303783
602.671412	2544.986190
603.021783	2545.933927
603.372100	2545.762528
603.722363	2545.397044
604.072572	2548.154555
604.422728	2547.098433
604.772830	2537.535365
605.122878	2542.180788
605.472872	2542.337064
605.822813	2540.345808
606.172701	2542.125335
606.522534	2545.399565
606.872314	2544.542568
607.222041	2544.812270
607.571714	2543.723381
607.921333	2542.987372
608.270899	2541.618699
608.620411	2543.438556
608.969870	2546.372507
609.319276	2545.344112
609.668627	2548.683876
610.017926	2552.815102
610.367171	2553.493137
610.716362	2552.182437
611.065500	2547.829401
611.414585	2550.841490
611.763616	2547.403423
612.112594	2545.334030
612.461518	2548.330996
612.810389	2548.711603
613.159207	2547.216901
613.507971	2545.835624
613.856682	2547.264792
614.205340	2545.548279
614.553945	2546.042312
614.902496	2547.607590
615.250994	2545.820501
615.599439	2546.803526
615.947830	2546.107847
616.296169	2545.064328
616.644454	2545.931406
616.992686	2543.337733
617.340864	2548.638506
617.688990	2542.647095
618.037063	2546.995090
618.385082	2546.695141
618.733048	2545.747404
619.080961	2546.664894
619.428821	2546.488454
619.776628	2545.555840
620.124382	2545.112219
620.472083	2544.504760
620.819731	2544.681200
621.167326	2541.638864
621.514868	2544.719009
621.862357	2545.263453
622.209793	2545.424770
622.557176	2545.838145
622.904506	2542.763041
623.251783	2540.580222
623.599007	2544.091385
623.946179	2538.886394
624.293297	2539.566950
624.640363	2543.582229
624.987376	2542.934440
625.334336	2542.321940
625.681243	2543.526776
626.028097	2543.269677
626.374899	2543.695655
626.721647	2544.182126
627.068343	2542.899152
627.414987	2542.657177
627.761577	2543.887218
628.108115	2543.229348
628.454600	2545.583567
628.801032	2542.006868
629.147412	2542.357228
629.493739	2543.441076
629.840014	2544.754297
630.186236	2544.003165
630.532405	2544.598021
630.878521	2542.087527
631.224585	2541.480067
631.570597	2543.594832
631.916556	2543.806560
632.262462	2543.998124
632.608316	2544.981149
632.954117	2540.381096
633.299866	2545.470141
633.645562	2542.795809
633.991206	2541.369162
634.336797	2540.549975
634.682336	2541.510314
635.027823	2543.786395
635.373257	2542.553833
635.718639	2541.202804
636.063968	2540.870088
636.409245	2541.714481
636.754470	2541.679193
637.099642	2543.670449
637.444762	2542.425284
637.789829	2540.890253
638.134845	2540.980993
638.479808	2541.240613
638.824719	2540.708771
639.169577	2541.003678
639.514383	2541.462423
639.859137	2540.607948
640.203839	2542.843700
640.548489	2544.857641
640.893086	2538.210879
641.237632	2537.890766
641.582125	2539.289686
641.926566	2536.204500
642.270955	2543.357897
642.615292	2543.950233
642.959576	2539.599717
643.303809	2544.305634
643.647990	2542.039636
643.992118	2540.058462
644.336195	2539.645087
