Dividing Wavelength (nm)	Counts (n)	Blue Motor Position (mm): 0.000000	Red Motor Position (mm): 36.800000	
326.493990	2127.994547
326.888308	2127.994547
327.282561	2127.994547
327.676750	2093.850812
328.070874	2093.465163
328.464933	2096.983889
328.858929	2105.251381
329.252859	2114.101127
329.646726	2124.019597
330.040528	2139.319499
330.434265	2154.984884
330.827938	2172.182781
331.221547	2190.237673
331.615091	2210.863554
332.008571	2227.965669
332.401986	2248.044584
332.795338	2266.643922
333.188625	2285.943979
333.581847	2308.268729
333.975006	2320.969916
334.368100	2340.771568
334.761129	2360.477439
335.154095	2377.088041
335.546996	2396.897255
335.939833	2415.761252
336.332606	2430.279775
336.725315	2443.462393
337.117960	2451.830708
337.510540	2460.125927
337.903056	2471.009778
338.295508	2479.209215
338.687896	2490.350165
339.080220	2498.168994
339.472480	2502.766527
339.864676	2508.369769
340.256807	2509.892197
340.648875	2515.034174
341.040879	2517.365708
341.432818	2517.829494
341.824694	2522.704290
342.216506	2523.649506
342.608253	2522.056502
342.999937	2520.728158
343.391557	2523.538601
343.783113	2519.775380
344.174605	2518.099196
344.566033	2516.813702
344.957397	2514.409071
345.348697	2515.641633
345.739934	2512.022085
346.131106	2510.925634
346.522215	2509.110819
346.913260	2508.231137
347.304241	2508.142917
347.695159	2502.406084
348.086012	2504.132679
348.476802	2499.855260
348.867528	2501.972545
349.258191	2498.166474
349.648789	2496.669251
350.039324	2494.239415
350.429796	2494.597337
350.820203	2493.377378
351.210548	2490.766060
351.600828	2492.583396
351.991045	2491.953252
352.381198	2491.628097
352.771288	2489.697335
353.161314	2488.989053
353.551276	2486.965030
353.941175	2491.209681
354.331010	2491.068529
354.720782	2490.546770
355.110490	2489.394866
355.500135	2489.367140
355.889717	2489.956955
356.279235	2492.749754
356.668689	2491.953252
357.058080	2488.469814
357.447408	2488.646255
357.836672	2488.023672
358.225873	2488.394197
358.615010	2489.770432
359.004084	2492.890906
359.393095	2491.323107
359.782043	2493.490803
360.170927	2496.180259
360.559748	2495.086329
360.948505	2495.567759
361.337199	2496.059271
361.725830	2498.158912
362.114398	2502.101094
362.502903	2499.252842
362.891344	2497.697646
363.279722	2500.828203
363.668037	2501.753255
364.056289	2501.513800
364.444478	2502.267452
364.832603	2501.755775
365.220665	2502.953049
365.608665	2501.526403
365.996601	2506.804491
366.384474	2506.343225
366.772284	2507.343894
367.160031	2509.950171
367.547715	2507.900942
367.935336	2514.930831
368.322893	2515.283712
368.710388	2516.914525
369.097820	2527.798376
369.485189	2528.955321
369.872495	2535.896990
370.259738	2541.555685
370.646918	2549.240924
371.034035	2554.753426
371.421090	2567.426886
371.808081	2579.893660
372.195010	2584.508836
372.581875	2599.163470
372.968678	2612.343567
373.355418	2623.918056
373.742096	2640.079996
374.128710	2656.022645
374.515262	2667.196362
374.901751	2687.698735
375.288177	2697.551670
375.674540	2724.794065
376.060841	2738.132958
376.447079	2759.668768
376.833254	2781.668363
377.219367	2792.557255
377.605417	2832.052175
377.991404	2841.290090
378.377329	2863.352699
378.763191	2877.480533
379.148991	2916.080648
379.534727	2940.910851
379.920402	2970.726756
380.306013	2982.152531
380.691563	3031.944007
381.077049	3053.953685
381.462474	3069.155285
381.847835	3109.643312
382.233134	3134.234060
382.618371	3132.741879
383.003545	3201.672096
383.388657	3210.126111
383.773706	3242.087026
384.158693	3257.863317
384.543618	3283.099333
384.928480	3321.908656
385.313280	3362.187475
385.698017	3363.815768
386.082692	3417.889705
386.467305	3425.852207
386.851856	3454.019654
387.236344	3477.153509
387.620770	3504.751306
388.005133	3535.381357
388.389435	3562.613670
388.773674	3574.578849
389.157851	3614.083851
389.541965	3632.935246
389.926018	3596.356633
390.310008	3669.234074
390.693936	3688.511446
391.077802	3723.676015
391.461606	3711.909962
391.845348	3777.465126
392.229027	3777.717184
392.612645	3793.506078
392.996200	3869.904764
393.379694	3909.596289
393.763125	3975.713542
394.146494	3941.862194
394.529801	4006.288141
394.913047	4052.276067
395.296230	4016.400695
395.679351	4073.141402
396.062410	4095.987912
396.445408	4079.208431
396.828343	4113.826034
397.211217	4132.564003
397.594028	4055.089030
397.976778	4123.590749
398.359466	4151.198628
398.742092	4176.268287
399.124656	4098.006894
399.507158	4180.825490
399.889598	4207.289027
400.271977	4264.264148
400.654294	4236.530240
401.036549	4244.454933
401.418742	4213.774471
401.800874	4314.252229
402.182944	4335.377184
402.564952	4404.289757
402.946898	4391.265936
403.328783	4389.204104
403.710606	4304.152277
404.092367	4492.089013
404.474067	4459.278663
404.855705	4461.280002
405.237282	4394.572933
405.618797	4504.878421
406.000250	4535.911764
406.381642	4618.604331
406.762972	4581.942539
407.144240	4589.940330
407.525447	4591.649281
407.906593	4651.528107
408.287677	4694.632492
408.668700	4620.051142
409.049661	4676.451571
409.430560	4713.945153
409.811399	4644.180625
410.192176	4805.245490
410.572891	4740.060850
410.953545	4844.987427
411.334138	4724.917224
411.714669	4795.379952
412.095139	4688.938509
412.475547	4831.144418
412.855894	4806.616684
413.236180	4820.673942
413.616405	4771.452115
413.996568	4860.436043
414.376670	4807.755985
414.756711	4760.550620
415.136691	4790.346360
415.516609	4865.648596
415.896466	4902.350716
416.276262	4938.442857
416.655997	4921.978449
417.035670	5100.725161
417.415283	5192.695972
417.794834	5136.920646
418.174324	5089.047328
418.553753	5001.603474
418.933121	5187.606927
419.312428	5247.591617
419.691674	5189.109191
420.070859	5316.559642
420.449983	5230.202157
420.829045	5345.654662
421.208047	5249.066154
421.586988	5319.969983
421.965867	5334.780893
422.344686	5465.039267
422.723444	5318.550898
423.102141	5135.990553
423.480777	5433.423671
423.859352	5206.942273
424.237866	5466.201253
424.616319	5458.054749
424.994712	5563.225821
425.373044	5445.288027
425.751314	5589.507876
426.129524	5389.621085
426.507673	5584.547381
426.885762	5668.245658
427.263789	5601.949444
427.641756	5475.837419
428.019662	5600.858034
428.397508	5611.807420
428.775292	5555.500252
429.153016	5657.145037
429.530679	5578.810548
429.908282	5668.464948
430.285824	5534.944948
430.663305	5808.745137
431.040726	5546.022883
431.418086	5546.320311
431.795385	5652.507176
432.172624	5667.766749
432.549802	5659.022867
432.926920	5667.028220
433.303977	5682.640673
433.680974	5720.698864
434.057910	5738.990691
434.434786	5744.311629
434.811601	5712.970775
435.188355	5946.091373
435.565050	5811.900899
435.941683	5806.645496
436.318257	6016.473443
436.694770	5997.730433
437.071222	6035.891967
437.447614	5966.636596
437.823946	5876.727617
438.200218	6030.346698
438.576429	5893.353342
438.952580	5993.758003
439.328670	6038.941865
439.704700	5948.276713
440.080670	5935.961174
440.456580	6210.262958
440.832429	6088.284679
441.208218	5932.059321
441.583947	6089.197128
441.959616	6091.415236
442.335224	6017.504358
442.710773	6158.215565
443.086261	6188.333939
443.461689	5977.386856
443.837057	6132.072141
444.212365	6283.284072
444.587612	6173.333986
444.962800	6327.442059
445.337927	6310.556714
445.712995	5919.448875
446.088002	6500.411609
446.462949	6330.151679
446.837837	6260.669455
447.212664	6432.356032
447.587431	6574.435912
447.962139	7115.553366
448.336786	8047.627424
448.711374	7786.215871
449.085901	6855.147523
449.460369	6776.843280
449.834776	6710.781479
450.209124	7105.219000
450.583412	7261.154492
450.957640	7405.515494
451.331808	7164.903741
451.705917	6714.060750
452.079965	6644.351675
452.453954	6852.349682
452.827883	6732.518935
453.201752	6828.822617
453.575562	6621.091791
453.949311	6824.666186
454.323001	6716.483024
454.696632	6790.983717
455.070202	6924.574293
455.443713	7083.612615
455.817164	7187.057092
456.190556	7259.926971
456.563888	7344.184816
456.937160	7381.864921
457.310373	7039.205091
457.683526	7067.304482
458.056619	6953.213088
458.429653	6944.522139
458.802628	6880.522171
459.175542	6986.341031
459.548398	7345.019127
459.921194	7503.623909
460.293930	7513.481886
460.666607	8037.678707
461.039224	8347.321499
461.411782	8476.720357
461.784280	8498.614088
462.156719	8391.812203
462.529099	8264.933922
462.901419	7853.064091
463.273680	7745.190961
463.645882	7752.243535
464.018024	7623.242928
464.390106	7791.985471
464.762130	8177.316148
465.134094	8650.118405
465.505999	9667.642542
465.877845	10888.473892
466.249631	11542.041844
466.621358	11161.447332
466.993026	10531.361074
467.364634	10276.480336
467.736184	9907.835878
468.107674	9581.388399
468.479105	9614.476013
468.850477	9374.030618
469.221790	9147.481164
469.593043	8816.211822
469.964238	8674.986417
470.335373	8694.339407
470.706449	8749.403930
471.077467	8725.365188
471.448425	10038.754644
471.819324	11112.709456
472.190164	11147.044755
472.560945	9891.603363
472.931667	9099.048279
473.302330	8967.070871
473.672934	8609.474102
474.043479	8962.894275
474.413965	8904.810100
474.784393	8785.390207
475.154761	8944.562119
475.525070	9032.497486
475.895321	8861.282257
476.265513	9034.849184
476.635645	9197.973361
477.005719	9207.725473
477.375734	9316.586670
477.745691	9559.724041
478.115588	9694.025420
478.485427	9935.042986
478.855207	10477.077929
479.224928	11284.726228
479.594591	11921.048393
479.964194	11728.085627
480.333739	11670.553458
480.703226	11583.361662
481.072653	11677.114520
481.442022	11907.066753
481.811333	12105.194181
482.180584	11909.965416
482.549777	11622.498659
482.918912	11435.151738
483.287988	11466.333796
483.657005	11473.071298
484.025964	11156.963225
484.394864	11288.731425
484.763706	11255.822773
485.132489	11011.654486
485.501213	10974.443209
485.869879	11052.989427
486.238487	10889.456917
486.607036	11003.959165
486.975527	10785.568818
487.343959	10972.978754
487.712333	11022.117401
488.080648	10944.203848
488.448905	10997.274595
488.817104	10932.936869
489.185244	11200.813702
489.553326	11357.147444
489.921350	11890.047817
490.289315	12957.993575
490.657222	13297.016212
491.025070	13210.205022
491.392861	13077.519332
491.760593	12709.930997
492.128267	12349.700225
492.495883	12023.240143
492.863440	11689.493073
493.230939	11346.828202
493.598380	11283.990220
493.965763	11149.824951
494.333088	11052.346680
494.700354	10969.888527
495.067563	11033.742302
495.434713	10859.961126
495.801805	10990.753862
496.168839	10917.989848
496.535815	10841.961686
496.902733	10847.244815
497.269593	10777.205544
497.636395	10879.218333
498.003139	10871.336489
498.369825	10730.499254
498.736453	10890.765096
499.103023	10816.798767
499.469535	10846.531492
499.835989	10833.472383
500.202385	10797.496188
500.568723	10650.170988
500.935003	10873.116017
501.301226	10674.396253
501.667390	10938.219998
502.033497	11032.497137
502.399546	10892.373224
502.765537	10795.693976
503.131470	10871.137364
503.497345	11048.217975
503.863163	10654.508901
504.228923	10973.167797
504.594625	11034.972343
504.960269	10786.443459
505.325856	11002.807261
505.691385	10798.905191
506.056856	10945.403642
506.422270	10972.777108
506.787625	10863.331137
507.152924	10988.245888
507.518164	10959.402927
507.883347	10878.547860
508.248472	10797.642382
508.613540	11028.585201
508.978550	10911.406101
509.343503	10887.137986
509.708398	11005.708445
510.073236	11115.764395
510.438016	11120.379572
510.802738	11065.930069
511.167403	11123.842844
511.532010	11021.698985
511.896561	11251.636094
512.261053	11326.376241
512.625488	11190.068483
512.989866	11168.774649
513.354186	11162.120326
513.718449	11063.059132
514.082655	11256.712536
514.446803	11154.929120
514.810894	11282.848398
515.174927	11139.883796
515.538904	11163.478917
515.902822	11316.520786
516.266684	11196.193484
516.630488	11140.725669
516.994235	11198.832528
517.357925	11253.881928
517.721558	11343.553973
518.085133	11364.111798
518.448651	11373.601771
518.812112	11252.092319
519.175516	11268.554207
519.538863	11385.299768
519.902152	11298.430605
520.265385	11459.561005
520.628560	11368.628672
520.991678	11344.915085
521.354739	11404.199054
521.717743	11336.408137
522.080690	11317.002216
522.443580	11450.847371
522.806413	11399.803168
523.169189	11428.376428
523.531908	11482.745272
523.894569	11304.003601
524.257174	11296.651078
524.619722	11417.802608
524.982213	11362.118022
525.344647	11405.633262
525.707025	11357.596107
526.069345	11449.720673
526.431608	11361.916376
526.793815	11474.689508
527.155964	11256.122721
527.518057	11299.713579
527.880093	11250.272462
528.242072	11317.927267
528.603995	11216.602596
528.965860	11120.855961
529.327669	11176.364106
529.689421	11115.852616
530.051117	11089.016033
530.412755	11187.174860
530.774337	11066.782024
531.135862	11036.582992
531.497331	11062.350850
531.858743	10903.756150
532.220098	11062.318082
532.581396	10928.079717
532.942638	10901.631303
533.303824	10859.585560
533.664953	10862.567402
534.026025	10774.143043
534.387040	10858.962977
534.747999	10858.869716
535.108902	10906.357385
535.469748	10655.829683
535.830537	10744.876625
536.191270	10715.879908
536.551947	10726.736032
536.912567	10718.541637
537.273131	10636.136416
537.633638	10603.772208
537.994089	10575.161139
538.354483	10516.474547
538.714821	10649.674434
539.075103	10638.014245
539.435328	10594.115878
539.795497	10413.239278
540.155609	10554.678931
540.515665	10624.201484
540.875665	10356.307007
541.235609	10404.031610
541.595496	10382.551254
541.955328	10514.392550
542.315102	10392.003417
542.674821	10326.927162
543.034483	10315.108177
543.394090	10302.323811
543.753640	10221.430936
544.113134	10398.708152
544.472571	10243.758206
544.831953	10364.234221
545.191278	10154.585236
545.550548	10169.333131
545.909761	10286.398806
546.268918	10231.540970
546.628019	10283.482498
546.987064	10138.864397
547.346053	10050.591273
547.704986	10115.589390
548.063863	10076.137320
548.422684	10050.442559
548.781449	9947.983628
549.140158	10019.936016
549.498811	9882.383093
549.857408	9731.060257
550.215949	9902.545187
550.574434	9744.651208
550.932864	9802.763109
551.291237	9833.171349
551.649555	9753.947095
552.007817	9742.854036
552.366022	9689.760604
552.724173	9644.818717
553.082267	9609.553326
553.440305	9680.943626
553.798288	9497.357406
554.156215	9584.108102
554.514086	9532.779073
554.871902	9374.701092
555.229661	9381.746104
555.587365	9322.164707
555.945014	9210.914003
556.302606	9273.683930
556.660143	9162.939863
557.017625	9237.352334
557.375050	9130.963824
557.732421	9201.444196
558.089735	9096.008463
558.446994	9064.380264
558.804197	9063.155263
559.161345	9018.929221
559.518437	8879.397644
559.875474	8897.797855
560.232455	8878.873364
560.589381	8814.873395
560.946251	8760.958255
561.303065	8825.991660
561.659825	8724.989622
562.016528	8638.438052
562.373177	8519.670988
562.729770	8548.370277
563.086307	8455.487017
563.442789	8491.501020
563.799216	8341.420829
564.155587	8350.999021
564.511904	8276.188298
564.868164	8227.876400
565.224370	8213.068011
565.580520	8095.503262
565.936615	8089.705935
566.292654	7943.220087
566.648638	8000.452306
567.004567	7922.783249
567.360441	7878.468986
567.716260	7769.716174
568.072023	7809.102709
568.427732	7715.130560
568.783385	7633.937736
569.138982	7624.977085
569.494525	7598.667303
569.850013	7476.172306
570.205445	7481.193295
570.560823	7390.001343
570.916145	7287.050899
571.271412	7291.787063
571.626625	7216.961217
571.981782	7165.783423
572.336884	7110.759228
572.691931	7085.117399
573.046923	6999.294276
573.401860	6930.422032
573.756743	6853.042841
574.111570	6836.565830
574.466342	6799.538555
574.821059	6776.278671
575.175722	6674.757394
575.530330	6631.937833
575.884882	6594.164468
576.239380	6508.512743
576.593823	6466.126722
576.948211	6432.121618
577.302544	6342.318504
577.656823	6292.758920
578.011047	6267.061638
578.365216	6210.295726
578.719330	6138.948275
579.073389	6099.791113
579.427394	6044.532505
579.781344	5996.248333
580.135239	5932.208035
580.489080	5909.661475
580.842866	5817.078164
581.196597	5789.850892
581.550273	5771.208705
581.903895	5716.139140
582.257463	5717.192742
582.610975	5614.567452
582.964434	5606.113437
583.317837	5529.215676
583.671186	5496.054966
584.024481	5452.892607
584.377721	5384.620261
584.730906	5343.003015
585.084037	5318.681968
585.437113	5272.273106
585.790135	5237.645420
586.143103	5168.836191
586.496016	5132.701200
586.848874	5114.376606
587.201679	5090.375672
587.554428	5005.936345
587.907124	4990.661649
588.259765	4950.760917
588.612352	4920.395526
588.964884	4853.481771
589.317362	4823.993541
589.669786	4790.870640
590.022155	4789.469199
590.374470	4757.858644
590.726731	4714.600503
591.078937	4625.664467
591.431090	4626.942399
591.783188	4565.682298
592.135232	4529.023027
592.487222	4511.134492
592.839157	4493.770238
593.191038	4446.645532
593.542866	4403.243718
593.894639	4346.591231
594.246358	4338.061599
594.598022	4312.724759
594.949633	4260.238786
595.301190	4225.621183
595.652692	4213.472002
596.004141	4206.343810
596.355535	4128.732726
596.706876	4098.427830
597.058162	4059.144639
597.409395	4052.969225
597.760573	4048.575860
598.111698	4001.320083
598.462768	3973.137513
598.813785	3945.653142
599.164748	3910.833892
599.515657	3897.484917
599.866511	3841.654138
600.217312	3858.768856
600.568060	3803.263231
600.918753	3802.310453
601.269392	3775.859519
601.619978	3733.269331
601.970510	3728.288671
602.320988	3712.149417
602.671412	3696.862118
603.021783	3665.768281
603.372100	3644.287924
603.722363	3617.431177
604.072572	3602.915174
604.422728	3584.386413
604.772830	3548.783264
605.122878	3533.304402
605.472872	3517.313862
605.822813	3504.093436
606.172701	3478.774240
606.522534	3473.730566
606.872314	3462.060295
607.222041	3434.079370
607.571714	3430.358999
607.921333	3407.250350
608.270899	3390.969943
608.620411	3391.761404
608.969870	3362.542877
609.319276	3347.520238
609.668627	3336.434741
610.017926	3330.191272
610.367171	3325.629028
610.716362	3310.490443
611.065500	3292.158287
611.414585	3277.528858
611.763616	3265.558638
612.112594	3250.765372
612.461518	3237.371027
612.810389	3232.496231
613.159207	3214.234651
613.507971	3197.326621
613.856682	3198.677650
614.205340	3179.236441
614.553945	3176.481450
614.902496	3152.440187
615.250994	3152.155362
615.599439	3138.871922
615.947830	3125.996815
616.296169	3117.058849
616.644454	3109.330760
616.992686	3098.010849
617.340864	3093.105807
617.688990	3075.771799
618.037063	3074.637539
618.385082	3063.688153
618.733048	3057.684139
619.080961	3049.053684
619.428821	3040.970193
619.776628	3033.332845
620.124382	3019.015968
620.472083	3003.668176
620.819731	3000.598113
621.167326	2979.894094
621.514868	2971.006540
621.862357	2953.639765
622.209793	2946.998045
622.557176	2930.815941
622.904506	2920.552152
623.251783	2903.757548
623.599007	2896.155488
623.946179	2885.168293
624.293297	2877.924155
624.640363	2867.738503
624.987376	2859.380270
625.334336	2849.970957
625.681243	2839.296313
626.028097	2832.702484
626.374899	2827.507575
626.721647	2821.569096
627.068343	2811.126346
627.414987	2807.214410
627.761577	2799.254428
628.108115	2795.347534
628.454600	2785.461831
628.801032	2784.498971
629.147412	2777.716098
629.493739	2775.321550
629.840014	2767.006167
630.186236	2768.634460
630.532405	2756.041657
630.878521	2755.855135
631.224585	2750.874475
631.570597	2745.649319
631.916556	2741.739904
632.262462	2740.184708
632.608316	2732.534757
632.954117	2731.524006
633.299866	2729.215157
633.645562	2724.037892
633.991206	2715.563713
634.336797	2709.234544
634.682336	2705.027701
635.027823	2701.032587
635.373257	2696.127544
635.718639	2687.232428
636.063968	2688.956503
636.409245	2680.885615
636.754470	2676.618279
637.099642	2676.406550
637.444762	2668.968328
637.789829	2668.542350
638.134845	2663.773419
638.479808	2662.762667
638.824719	2661.618325
639.169577	2658.732265
639.514383	2656.804023
639.859137	2651.180616
640.203839	2650.328661
640.548489	2648.619710
640.893086	2643.439925
641.237632	2638.764254
641.582125	2641.604945
