Dividing Wavelength (nm)	Counts (n)	Blue Motor Position (mm): 0.000000	Red Motor Position (mm): 9.500000	
326.493990	2130.109311
326.888308	2130.109311
327.282561	2130.109311
327.676750	2095.975658
328.070874	2097.883735
328.464933	2097.283838
328.858929	2105.369848
329.252859	2115.754625
329.646726	2126.666203
330.040528	2140.431073
330.434265	2157.011428
330.827938	2172.449962
331.221547	2193.995853
331.615091	2209.467155
332.008571	2230.216544
332.401986	2251.344020
332.795338	2269.915630
333.188625	2288.530091
333.581847	2306.426187
333.975006	2325.406131
334.368100	2343.463544
334.761129	2361.462984
335.154095	2377.957640
335.546996	2395.344579
335.939833	2409.479975
336.332606	2425.339445
336.725315	2437.314706
337.117960	2446.035902
337.510540	2455.301542
337.903056	2465.915692
338.295508	2470.021712
338.687896	2480.741725
339.080220	2489.125164
339.472480	2499.298213
339.864676	2501.105466
340.256807	2506.786847
340.648875	2506.098729
341.040879	2511.074348
341.432818	2510.303052
341.824694	2515.961747
342.216506	2514.479648
342.608253	2512.574091
342.999937	2515.490399
343.391557	2513.647857
343.783113	2512.690038
344.174605	2512.664832
344.566033	2511.492764
344.957397	2509.188957
345.348697	2509.065448
345.739934	2505.153513
346.131106	2505.702999
346.522215	2506.131497
346.913260	2498.612616
347.304241	2499.411639
347.695159	2497.543891
348.086012	2497.299395
348.476802	2497.173366
348.867528	2491.391163
349.258191	2488.590802
349.648789	2488.542911
350.039324	2486.995277
350.429796	2488.396718
350.820203	2485.230873
351.210548	2485.548466
351.600828	2485.997128
351.991045	2482.828763
352.381198	2483.877323
352.771288	2486.092910
353.161314	2481.515543
353.551276	2481.586119
353.941175	2480.862713
354.331010	2482.594349
354.720782	2481.681901
355.110490	2481.911273
355.500135	2482.427991
355.889717	2481.639051
356.279235	2479.700727
356.668689	2485.780359
357.058080	2484.487303
357.447408	2480.154431
357.836672	2479.947744
358.225873	2481.785244
358.615010	2480.277939
359.004084	2482.826243
359.393095	2483.484113
359.782043	2484.991418
360.170927	2487.975781
360.559748	2486.854124
360.948505	2487.776656
361.337199	2486.443270
361.725830	2487.973261
362.114398	2491.451657
362.502903	2491.204640
362.891344	2490.496358
363.279722	2491.872593
363.668037	2490.103148
364.056289	2491.338231
364.444478	2493.090032
364.832603	2492.757316
365.220665	2494.574652
365.608665	2493.798314
365.996601	2496.303767
366.384474	2494.579693
366.772284	2496.243273
367.160031	2499.850219
367.547715	2502.408605
367.935336	2503.477329
368.322893	2504.636795
368.710388	2508.631909
369.097820	2516.173475
369.485189	2517.791686
369.872495	2523.883920
370.259738	2528.753675
370.646918	2536.743903
371.034035	2543.189019
371.421090	2554.269475
371.808081	2562.642831
372.195010	2570.743966
372.581875	2584.488672
372.968678	2598.440065
373.355418	2610.891715
373.742096	2625.644652
374.128710	2645.534524
374.515262	2656.272182
374.901751	2671.781292
375.288177	2682.534073
375.674540	2705.942671
376.060841	2725.686350
376.447079	2746.108064
376.833254	2763.704211
377.219367	2772.042280
377.605417	2808.096612
377.991404	2816.873261
378.377329	2836.861436
378.763191	2851.884074
379.148991	2886.179044
379.534727	2905.849626
379.920402	2926.861156
380.306013	2930.934408
380.691563	2975.268835
381.077049	2984.461379
381.462474	2992.640652
381.847835	3018.143849
382.233134	3029.632638
382.618371	3017.090248
383.003545	3063.902402
383.388657	3058.518450
383.773706	3069.026735
384.158693	3069.921540
384.543618	3072.553022
384.928480	3085.009713
385.313280	3102.709205
385.698017	3080.828076
386.082692	3100.165942
386.467305	3085.846545
386.851856	3086.481730
387.236344	3081.460741
387.620770	3076.439752
388.005133	3068.676375
388.389435	3060.842422
388.773674	3041.297868
389.157851	3040.917261
389.541965	3024.778007
389.926018	2983.977429
390.310008	2985.608242
390.693936	2971.848413
391.077802	2959.958851
391.461606	2933.155036
391.845348	2927.559355
392.229027	2904.725449
392.612645	2881.846172
392.996200	2883.696276
393.379694	2867.204141
393.763125	2857.139477
394.146494	2827.419355
394.529801	2816.308652
394.913047	2800.355920
395.296230	2773.116046
395.679351	2761.874272
396.062410	2739.791498
396.445408	2719.359702
396.828343	2703.535520
397.211217	2686.425843
397.594028	2662.331649
397.976778	2652.700524
398.359466	2639.585962
398.742092	2625.627007
399.124656	2611.138731
399.507158	2603.077926
399.889598	2595.770774
400.271977	2588.025041
400.654294	2581.597570
401.036549	2571.053997
401.418742	2562.655434
401.800874	2558.254507
402.182944	2555.572613
402.564952	2547.645399
402.946898	2541.301107
403.328783	2539.299768
403.710606	2534.671989
404.092367	2537.293389
404.474067	2533.053779
404.855705	2532.995806
405.237282	2527.853829
405.618797	2528.395753
406.000250	2528.025228
406.381642	2522.396780
406.762972	2524.758560
407.144240	2521.776718
407.525447	2523.614218
407.906593	2523.137829
408.287677	2520.791172
408.668700	2519.362005
409.049661	2523.183200
409.430560	2522.104393
409.811399	2521.920391
410.192176	2522.535411
410.572891	2523.334434
410.953545	2522.802593
411.334138	2521.549866
411.714669	2520.521470
412.095139	2525.207223
412.475547	2520.642458
412.855894	2523.843591
413.236180	2523.634383
413.616405	2522.444671
413.996568	2520.738240
414.376670	2522.316121
414.756711	2519.893847
415.136691	2521.925432
415.516609	2522.918539
415.896466	2523.447860
416.276262	2524.057840
416.655997	2520.211439
417.035670	2519.959382
417.415283	2521.932993
417.794834	2518.714217
418.174324	2521.980884
418.553753	2523.271420
418.933121	2522.764784
419.312428	2524.418282
419.691674	2526.356606
420.070859	2524.776204
420.449983	2522.764784
420.829045	2522.512726
421.208047	2523.284023
421.586988	2524.161183
421.965867	2524.768642
422.344686	2524.604805
422.723444	2527.566483
423.102141	2523.853673
423.480777	2526.890968
423.859352	2524.309898
424.237866	2524.337624
424.616319	2525.376102
424.994712	2525.673530
425.373044	2527.195958
425.751314	2525.111441
426.129524	2524.115813
426.507673	2529.066226
426.885762	2526.669158
427.263789	2526.790145
427.641756	2525.025741
428.019662	2527.352234
428.397508	2528.526823
428.775292	2528.673016
429.153016	2528.887265
429.530679	2524.912315
429.908282	2527.765608
430.285824	2526.175124
430.663305	2529.106555
431.040726	2526.432223
431.418086	2527.692512
431.795385	2526.573376
432.172624	2527.972296
432.549802	2529.046062
432.926920	2527.480783
433.303977	2526.205371
433.680974	2528.546987
434.057910	2529.850126
434.434786	2525.986081
434.811601	2528.279806
435.188355	2527.105217
435.565050	2530.021525
435.941683	2529.154446
436.318257	2524.768643
436.694770	2524.496420
437.071222	2525.812161
437.447614	2525.418951
437.823946	2524.982892
438.200218	2526.419620
438.576429	2529.010773
438.952580	2529.439272
439.328670	2529.209899
439.704700	2528.390712
440.080670	2527.853829
440.456580	2531.770805
440.832429	2530.601258
441.208218	2528.315094
441.583947	2531.710311
441.959616	2531.763243
442.335224	2529.862728
442.710773	2531.175949
443.086261	2528.834333
443.461689	2532.814324
443.837057	2530.908768
444.212365	2532.375744
444.587612	2528.867101
444.962800	2531.198634
445.337927	2534.162833
445.712995	2530.180321
446.088002	2531.080167
446.462949	2530.288706
446.837837	2532.703419
447.212664	2531.864067
447.587431	2530.369364
447.962139	2531.727955
448.336786	2537.119469
448.711374	2531.299457
449.085901	2534.704757
449.460369	2532.627801
449.834776	2533.608306
450.209124	2529.764426
450.583412	2536.567463
450.957640	2533.935981
451.331808	2531.385157
451.705917	2534.669469
452.079965	2532.227030
452.453954	2535.758358
452.827883	2533.089067
453.201752	2534.220806
453.575562	2533.993954
453.949311	2534.462781
454.323001	2531.816176
454.696632	2533.056299
455.070202	2533.928419
455.443713	2534.130065
455.817164	2533.018491
456.190556	2533.636032
456.563888	2535.163502
456.937160	2530.419776
457.310373	2535.425642
457.683526	2533.134437
458.056619	2535.342463
458.429653	2534.369520
458.802628	2537.951260
459.175542	2534.581248
459.548398	2537.936136
459.921194	2535.990251
460.293930	2538.241126
460.666607	2535.642411
461.039224	2536.746424
461.411782	2535.758358
461.784280	2538.044521
462.156719	2539.655170
462.529099	2536.436393
462.901419	2539.259439
463.273680	2533.467153
463.645882	2537.091743
464.018024	2536.993441
464.390106	2537.399253
464.762130	2537.338760
465.134094	2540.144162
465.505999	2540.000489
465.877845	2543.657846
466.249631	2543.264636
466.621358	2541.263298
466.993026	2545.341591
467.364634	2545.107178
467.736184	2542.281611
468.107674	2539.561908
468.479105	2540.812115
468.850477	2538.341949
469.221790	2541.306148
469.593043	2537.956301
469.964238	2538.747762
470.335373	2539.289686
470.706449	2540.229861
471.077467	2539.844213
471.448425	2541.464944
471.819324	2545.167672
472.190164	2541.888401
472.560945	2544.048535
472.931667	2540.252547
473.302330	2540.116435
473.672934	2539.405633
474.043479	2539.060314
474.413965	2541.104502
474.784393	2538.067206
475.154761	2538.508307
475.525070	2537.673996
475.895321	2537.600900
476.265513	2533.525127
476.635645	2541.059131
477.005719	2540.078627
477.375734	2540.484440
477.745691	2540.492001
478.115588	2542.105171
478.485427	2541.931251
478.855207	2542.889070
479.224928	2543.919986
479.594591	2547.221942
479.964194	2544.066179
480.333739	2542.195911
480.703226	2542.876467
481.072653	2542.561395
481.442022	2545.230686
481.811333	2545.873433
482.180584	2541.722043
482.549777	2543.327650
482.918912	2544.333361
483.287988	2543.476364
483.657005	2542.468134
484.025964	2543.068031
484.394864	2540.930582
484.763706	2544.323278
485.132489	2541.646426
485.501213	2544.212373
485.869879	2542.805891
486.238487	2541.820345
486.607036	2543.186498
486.975527	2544.711447
487.343959	2543.075593
487.712333	2542.291693
488.080648	2541.792619
488.448905	2546.180943
488.817104	2543.952753
489.185244	2545.306303
489.553326	2541.331353
489.921350	2543.798998
490.289315	2544.983669
490.657222	2547.307641
491.025070	2543.708257
491.392861	2549.130018
491.760593	2540.930582
492.128267	2542.505942
492.495883	2545.409647
492.863440	2545.192877
493.230939	2544.068700
493.598380	2544.628268
493.965763	2540.751621
494.333088	2543.123484
494.700354	2541.585932
495.067563	2540.101312
495.434713	2538.709953
495.801805	2544.398896
496.168839	2543.478885
496.535815	2545.656663
496.902733	2542.740356
497.269593	2545.429812
497.636395	2542.889070
498.003139	2546.864020
498.369825	2544.391334
498.736453	2544.535007
499.103023	2540.958308
499.469535	2546.193546
499.835989	2546.261602
500.202385	2544.560213
500.568723	2545.228165
500.935003	2545.744884
501.301226	2545.187836
501.667390	2544.098947
502.033497	2543.796478
502.399546	2543.425953
502.765537	2545.306303
503.131470	2543.821683
503.497345	2544.862682
503.863163	2544.315717
504.228923	2543.181457
504.594625	2545.223124
504.960269	2543.529297
505.325856	2545.157589
505.691385	2544.890408
506.056856	2545.258412
506.422270	2545.308824
506.787625	2546.324616
507.152924	2545.865871
507.518164	2545.875954
507.883347	2544.943340
508.248472	2544.247661
508.613540	2544.398896
508.978550	2545.860830
509.343503	2545.089534
509.708398	2545.923845
510.073236	2542.926879
510.438016	2545.916283
510.802738	2546.208670
511.167403	2546.639688
511.532010	2547.905018
511.896561	2547.973074
512.261053	2547.219421
512.625488	2543.441076
512.989866	2543.589790
513.354186	2544.260264
513.718449	2542.727753
514.082655	2546.014585
514.446803	2547.088351
514.810894	2544.978628
515.174927	2547.927703
515.538904	2545.064328
515.902822	2547.960471
516.266684	2547.889895
516.630488	2546.029709
516.994235	2544.335881
517.357925	2548.157076
517.721558	2548.366284
518.085133	2545.177754
518.448651	2548.101623
518.812112	2548.613300
519.175516	2548.714123
519.538863	2544.943340
519.902152	2548.540203
520.265385	2545.434853
520.628560	2545.986859
520.991678	2547.166489
521.354739	2547.960471
521.717743	2547.786551
522.080690	2550.617159
522.443580	2547.340409
522.806413	2547.655481
523.169189	2547.978115
523.531908	2548.900646
523.894569	2547.998279
524.257174	2547.710934
524.619722	2550.186140
524.982213	2548.167158
525.344647	2546.317055
525.707025	2547.368135
526.069345	2545.938968
526.431608	2548.232693
526.793815	2545.061807
527.155964	2546.269164
527.518057	2547.796633
527.880093	2548.951057
528.242072	2547.045501
528.603995	2548.278063
528.965860	2546.193546
529.327669	2549.422405
529.689421	2547.088351
530.051117	2549.223280
530.412755	2544.487116
530.774337	2547.738660
531.135862	2549.450132
531.497331	2548.336037
531.858743	2542.833617
532.220098	2543.614996
532.581396	2542.697506
532.942638	2545.825542
533.303824	2543.824204
533.664953	2545.404606
534.026025	2547.869730
534.387040	2548.646068
534.747999	2545.840666
535.108902	2548.280584
535.469748	2546.778320
535.830537	2548.235214
536.191270	2545.787733
536.551947	2547.287477
536.912567	2547.547096
537.273131	2548.336037
537.633638	2545.510470
537.994089	2548.479710
538.354483	2546.216232
538.714821	2547.048022
539.075103	2547.708413
539.435328	2549.515667
539.795497	2550.571788
540.155609	2550.624721
540.515665	2548.930893
540.875665	2547.221942
541.235609	2546.939637
541.595496	2547.688248
541.955328	2546.334699
542.315102	2547.065666
542.674821	2549.485420
543.034483	2546.985007
543.394090	2544.509801
543.753640	2549.377035
544.113134	2548.401572
544.472571	2549.644216
544.831953	2548.280584
545.191278	2547.055584
545.550548	2549.273691
545.909761	2549.049360
546.268918	2547.443752
546.628019	2548.767055
546.987064	2550.768393
547.346053	2548.814946
547.704986	2547.572302
548.063863	2550.221428
548.422684	2547.809236
548.781449	2548.678835
549.140158	2547.416026
549.498811	2552.227808
549.857408	2548.585574
550.215949	2544.582898
550.574434	2545.548279
550.932864	2546.458207
551.291237	2542.299255
551.649555	2550.317210
552.007817	2548.852755
552.366022	2550.256716
552.724173	2548.724206
553.082267	2549.745039
553.440305	2548.517518
553.798288	2548.235214
554.156215	2548.131870
554.514086	2547.403423
554.871902	2549.538352
555.229661	2548.746891
555.587365	2547.456355
555.945014	2548.119267
556.302606	2549.949206
556.660143	2551.350647
557.017625	2548.300749
557.375050	2549.046839
557.732421	2547.146324
558.089735	2547.940306
558.446994	2549.190512
558.804197	2547.456355
559.161345	2548.056253
559.518437	2546.508618
559.875474	2550.344937
560.232455	2549.671942
560.589381	2547.733619
560.946251	2549.770245
561.303065	2549.482899
561.659825	2547.718495
562.016528	2549.835780
562.373177	2547.617672
562.729770	2549.803012
563.086307	2549.165307
563.442789	2547.715975
563.799216	2546.894267
564.155587	2549.051881
564.511904	2548.467107
564.868164	2547.763866
565.224370	2548.267981
565.580520	2549.780327
565.936615	2549.964329
566.292654	2547.529452
566.648638	2548.996428
567.004567	2547.673125
567.360441	2548.807385
567.716260	2548.877961
568.072023	2550.498692
568.427732	2543.851930
568.783385	2544.361087
569.138982	2546.329658
569.494525	2546.785882
569.850013	2543.796478
570.205445	2549.992056
570.560823	2550.670091
570.916145	2549.069525
571.271412	2547.968033
571.626625	2548.888043
571.981782	2549.117416
572.336884	2548.661191
572.691931	2549.021634
573.046923	2551.093548
573.401860	2547.594987
573.756743	2549.162786
574.111570	2548.366284
574.466342	2548.396531
574.821059	2547.257230
575.175722	2552.368960
575.530330	2546.843855
575.884882	2548.255378
576.239380	2547.436191
576.593823	2549.326623
576.948211	2548.192364
577.302544	2549.679504
577.656823	2549.266130
578.011047	2548.411654
578.365216	2549.924000
578.719330	2549.866027
579.073389	2549.329144
579.427394	2546.133052
579.781344	2548.663712
580.135239	2546.556509
580.489080	2547.519370
580.842866	2549.084648
581.196597	2553.851059
581.550273	2548.368804
581.903895	2549.805533
582.257463	2550.360060
582.610975	2547.985677
582.964434	2547.007693
583.317837	2546.932075
583.671186	2548.046170
584.024481	2545.578526
584.377721	2548.451983
584.730906	2547.131201
585.084037	2549.467776
585.437113	2547.809236
585.790135	2549.949206
586.143103	2546.490974
586.496016	2548.484751
586.848874	2543.841848
587.201679	2545.208001
587.554428	2545.326468
587.907124	2545.802857
588.259765	2544.759338
588.612352	2547.731098
588.964884	2545.767569
589.317362	2548.527601
589.669786	2546.992569
590.022155	2549.041798
590.374470	2546.221273
590.726731	2550.042467
591.078937	2547.410985
591.431090	2548.298228
591.783188	2546.143135
592.135232	2547.721016
592.487222	2548.189843
592.839157	2547.847045
593.191038	2546.410316
593.542866	2550.657488
593.894639	2549.303938
594.246358	2547.668084
594.598022	2546.400234
594.949633	2544.691282
595.301190	2550.332334
595.652692	2547.784030
596.004141	2547.910059
596.355535	2546.145655
596.706876	2548.651109
597.058162	2544.484595
597.409395	2545.654143
597.760573	2548.048691
598.111698	2547.322765
598.462768	2548.106664
598.813785	2547.680687
599.164748	2546.387631
599.515657	2544.671118
599.866511	2547.423588
600.217312	2548.850234
600.568060	2546.387631
600.918753	2550.596994
601.269392	2547.509287
601.619978	2547.542055
601.970510	2548.537683
602.320988	2544.711447
602.671412	2548.358722
603.021783	2545.830583
603.372100	2548.381407
603.722363	2547.060625
604.072572	2546.627086
604.422728	2548.908208
604.772830	2544.822352
605.122878	2543.234389
605.472872	2544.897970
605.822813	2543.463762
606.172701	2543.990562
606.522534	2546.170861
606.872314	2550.473486
607.222041	2545.820501
607.571714	2545.949050
607.921333	2546.959802
608.270899	2546.526263
608.620411	2548.613300
608.969870	2549.301418
609.319276	2552.472303
609.668627	2551.219577
610.017926	2552.593291
610.367171	2555.184444
610.716362	2554.826522
611.065500	2551.181768
611.414585	2552.958775
611.763616	2552.552962
612.112594	2547.534493
612.461518	2549.538352
612.810389	2549.306459
613.159207	2548.346119
613.507971	2550.418033
613.856682	2549.608928
614.205340	2550.468445
614.553945	2547.216901
614.902496	2546.871582
615.250994	2548.807385
615.599439	2545.374359
615.947830	2549.034237
616.296169	2547.257230
616.644454	2547.816798
616.992686	2547.968032
617.340864	2544.285470
617.688990	2548.041129
618.037063	2544.855120
618.385082	2544.756817
618.733048	2548.540203
619.080961	2545.049204
619.428821	2548.555327
619.776628	2547.252189
620.124382	2551.360729
620.472083	2546.458207
620.819731	2548.671273
621.167326	2546.420398
621.514868	2545.812939
621.862357	2547.264792
622.209793	2547.224462
622.557176	2547.148845
622.904506	2545.427291
623.251783	2542.286652
623.599007	2544.875285
623.946179	2543.153731
624.293297	2541.913607
624.640363	2546.470810
624.987376	2546.299411
625.334336	2544.489636
625.681243	2545.180274
626.028097	2547.100954
626.374899	2548.217570
626.721647	2545.119781
627.068343	2545.563402
627.414987	2545.134904
627.761577	2548.146993
628.108115	2544.245140
628.454600	2544.691282
628.801032	2544.356046
629.147412	2546.569112
629.493739	2545.187836
629.840014	2543.093237
630.186236	2545.470141
630.532405	2547.887374
630.878521	2544.681200
631.224585	2544.169523
631.570597	2545.828063
631.916556	2542.707588
632.262462	2542.014430
632.608316	2545.268495
632.954117	2542.299255
633.299866	2546.412837
633.645562	2543.307486
633.991206	2545.462579
634.336797	2544.532486
634.682336	2544.134235
635.027823	2541.525438
635.373257	2544.454348
635.718639	2542.594162
636.063968	2543.988042
636.409245	2541.527958
636.754470	2544.497198
637.099642	2547.337888
637.444762	2544.192208
637.789829	2544.557692
638.134845	2545.190357
638.479808	2542.833617
638.824719	2544.335881
639.169577	2542.831097
639.514383	2545.497867
639.859137	2544.222455
640.203839	2543.529297
640.548489	2543.816642
640.893086	2541.202804
641.237632	2539.692978
641.582125	2543.350336
641.926566	2540.267670
642.270955	2539.632485
642.615292	2540.585263
642.959576	2541.369162
643.303809	2541.364121
643.647990	2543.919986
643.992118	2540.663401
644.336195	2542.195911
