Dividing Wavelength (nm)	Counts (n)	Blue Motor Position (mm): 0.000000	Red Motor Position (mm): 17.800000	
326.493990	2129.388426
326.888308	2129.388426
327.282561	2129.388426
327.676750	2095.776533
328.070874	2093.500452
328.464933	2096.696543
328.858929	2108.185333
329.252859	2114.086003
329.646726	2126.076388
330.040528	2135.838582
330.434265	2154.437919
330.827938	2171.580363
331.221547	2190.819927
331.615091	2209.147041
332.008571	2229.334342
332.401986	2249.861920
332.795338	2266.654004
333.188625	2285.787703
333.581847	2304.361835
333.975006	2323.893785
334.368100	2341.653770
334.761129	2360.709332
335.154095	2377.778679
335.546996	2392.670247
335.939833	2409.081723
336.332606	2425.115113
336.725315	2438.103646
337.117960	2446.154369
337.510540	2455.528394
337.903056	2465.272945
338.295508	2474.793164
338.687896	2478.526138
339.080220	2491.507109
339.472480	2496.437358
339.864676	2501.811228
340.256807	2503.615961
340.648875	2508.082423
341.040879	2509.410767
341.432818	2511.449914
341.824694	2515.518125
342.216506	2514.038547
342.608253	2516.223887
342.999937	2512.591735
343.391557	2515.134998
343.783113	2513.680625
344.174605	2511.643998
344.566033	2511.712054
344.957397	2509.577125
345.348697	2507.018740
345.739934	2504.803153
346.131106	2503.820128
346.522215	2503.298368
346.913260	2500.094715
347.304241	2498.587410
347.695159	2495.996257
348.086012	2496.165136
348.476802	2494.050372
348.867528	2490.546770
349.258191	2491.565083
349.648789	2488.573158
350.039324	2487.426295
350.429796	2487.698518
350.820203	2486.130719
351.210548	2486.201295
351.600828	2482.065028
351.991045	2485.447642
352.381198	2481.570995
352.771288	2481.034112
353.161314	2484.386480
353.551276	2484.477220
353.941175	2481.056797
354.331010	2481.959164
354.720782	2482.339771
355.110490	2482.738022
355.500135	2483.131232
355.889717	2483.035450
356.279235	2482.407827
356.668689	2484.293218
357.058080	2482.586788
357.447408	2482.319607
357.836672	2482.004534
358.225873	2483.103506
358.615010	2481.528145
359.004084	2485.016624
359.393095	2487.887561
359.782043	2488.842860
360.170927	2487.968219
360.559748	2487.005359
360.948505	2490.750936
361.337199	2488.290853
361.725830	2490.816471
362.114398	2492.152377
362.502903	2490.554331
362.891344	2491.925525
363.279722	2492.971565
363.668037	2493.820999
364.056289	2491.567603
364.444478	2495.713952
364.832603	2492.626246
365.220665	2498.136227
365.608665	2492.961482
365.996601	2498.468943
366.384474	2497.322080
366.772284	2500.092194
367.160031	2498.698315
367.547715	2503.862977
367.935336	2505.443379
368.322893	2506.713750
368.710388	2512.916890
369.097820	2521.983405
369.485189	2520.382839
369.872495	2524.977850
370.259738	2532.731145
370.646918	2540.726415
371.034035	2547.037940
371.421090	2558.471277
371.808081	2569.977710
372.195010	2577.743608
372.581875	2593.819847
372.968678	2602.621702
373.355418	2615.043105
373.742096	2631.351238
374.128710	2647.976963
374.515262	2661.366268
374.901751	2675.221879
375.288177	2688.308714
375.674540	2712.914586
376.060841	2730.987123
376.447079	2751.403796
376.833254	2770.965993
377.219367	2784.279681
377.605417	2820.384425
377.991404	2829.859273
378.377329	2851.899198
378.763191	2866.808410
379.148991	2905.345511
379.534727	2928.870055
379.920402	2959.222843
380.306013	2971.283803
380.691563	3022.005373
381.077049	3043.173178
381.462474	3059.705642
381.847835	3097.511775
382.233134	3123.352730
382.618371	3119.803757
383.003545	3192.270344
383.388657	3194.869059
383.773706	3225.534397
384.158693	3244.600041
384.543618	3268.543002
384.928480	3307.778302
385.313280	3352.425281
385.698017	3349.869416
386.082692	3404.273548
386.467305	3408.951739
386.851856	3441.568004
387.236344	3462.224132
387.620770	3495.520953
388.005133	3520.698996
388.389435	3548.538768
388.773674	3560.052764
389.157851	3603.109259
389.541965	3617.239613
389.926018	3578.115218
390.310008	3655.990963
390.693936	3670.126358
391.077802	3707.277141
391.461606	3700.973178
391.845348	3764.590019
392.229027	3760.849483
392.612645	3778.982514
392.996200	3850.874409
393.379694	3893.285636
393.763125	3955.561530
394.146494	3920.679266
394.529801	3983.905417
394.913047	4033.623797
395.296230	4002.403932
395.679351	4053.947209
396.062410	4075.598965
396.445408	4060.412489
396.828343	4091.788630
397.211217	4115.335860
397.594028	4033.248231
397.976778	4101.875979
398.359466	4128.044609
398.742092	4154.893794
399.124656	4076.846650
399.507158	4159.514012
399.889598	4183.194832
400.271977	4243.232454
400.654294	4213.945870
401.036549	4216.842013
401.418742	4190.479299
401.800874	4287.461017
402.182944	4308.757371
402.564952	4368.981516
402.946898	4352.426367
403.328783	4345.837578
403.710606	4251.358794
404.092367	4435.161783
404.474067	4396.049991
404.855705	4394.172162
405.237282	4316.818176
405.618797	4413.840223
406.000250	4436.122123
406.381642	4500.757277
406.762972	4452.493270
407.144240	4443.320891
407.525447	4432.994087
407.906593	4475.352383
408.287677	4492.404085
408.668700	4412.075819
409.049661	4435.260086
409.430560	4452.359680
409.811399	4363.766442
410.192176	4478.782888
410.572891	4406.255807
410.953545	4466.447184
411.334138	4341.945808
411.714669	4370.708111
412.095139	4261.582254
412.475547	4339.142926
412.855894	4293.376811
413.236180	4269.829581
413.616405	4203.603943
413.996568	4233.293819
414.376670	4155.012261
414.756711	4092.471707
415.136691	4074.837751
415.516609	4089.867951
415.896466	4083.435438
416.276262	4061.120771
416.655997	4011.777957
417.035670	4080.690530
417.415283	4092.000359
417.794834	4012.191332
418.174324	3947.515848
418.553753	3855.214842
418.933121	3905.283582
419.312428	3889.106519
419.691674	3812.110456
420.070859	3824.705779
420.449983	3738.330649
420.829045	3743.293665
421.208047	3658.652692
421.586988	3635.170997
421.965867	3597.868979
422.344686	3592.762291
422.723444	3501.429186
423.102141	3399.003022
423.480777	3452.315744
423.859352	3333.707477
424.237866	3369.066130
424.616319	3328.648679
424.994712	3315.826504
425.373044	3242.618868
425.751314	3232.153432
426.129524	3150.186792
426.507673	3151.333654
426.885762	3135.595172
427.263789	3086.496854
427.641756	3032.327135
428.019662	3022.537214
428.397508	2987.896926
428.775292	2949.266564
429.153016	2932.489604
429.530679	2894.653224
429.908282	2877.599000
430.285824	2842.633557
430.663305	2844.529031
431.040726	2795.662606
431.418086	2777.033022
431.795385	2764.896444
432.172624	2745.939185
432.549802	2729.883110
432.926920	2712.637323
433.303977	2697.919674
433.680974	2683.406192
434.057910	2672.358504
434.434786	2657.769404
434.811601	2646.721716
435.188355	2643.712147
435.565050	2631.038686
435.941683	2620.880761
436.318257	2614.206273
436.694770	2607.360387
437.071222	2599.276896
437.447614	2589.134095
437.823946	2582.988928
438.200218	2581.521952
438.576429	2578.119174
438.952580	2572.868812
439.328670	2571.827814
439.704700	2562.363047
440.080670	2561.962276
440.456580	2562.562173
440.832429	2558.526729
441.208218	2552.691594
441.583947	2556.507747
441.959616	2554.450956
442.335224	2551.670760
442.710773	2549.566078
443.086261	2548.343598
443.461689	2548.537683
443.837057	2548.441901
444.212365	2547.673125
444.587612	2549.371994
444.962800	2546.952240
445.337927	2545.875954
445.712995	2544.076262
446.088002	2548.275543
446.462949	2543.554502
446.837837	2545.228165
447.212664	2544.993752
447.587431	2546.962322
447.962139	2548.693959
448.336786	2551.123795
448.711374	2551.433826
449.085901	2546.987528
449.460369	2546.503577
449.834776	2546.377548
450.209124	2546.571633
450.583412	2546.737991
450.957640	2547.365615
451.331808	2546.798485
451.705917	2543.320089
452.079965	2544.935778
452.453954	2546.054915
452.827883	2546.390151
453.201752	2544.030891
453.575562	2542.901673
453.949311	2544.237579
454.323001	2541.853113
454.696632	2543.168854
455.070202	2545.593649
455.443713	2545.631458
455.817164	2541.507794
456.190556	2540.633154
456.563888	2546.992569
456.937160	2541.548123
457.310373	2545.361756
457.683526	2547.342929
458.056619	2546.180943
458.429653	2546.460728
458.802628	2544.938299
459.175542	2546.387631
459.548398	2548.948537
459.921194	2548.167158
460.293930	2551.474155
460.666607	2553.064639
461.039224	2554.080432
461.411782	2554.360216
461.784280	2553.215874
462.156719	2552.013558
462.529099	2556.701832
462.901419	2549.951727
463.273680	2551.181768
463.645882	2551.083466
464.018024	2547.559699
464.390106	2550.687735
464.762130	2554.977757
465.134094	2554.019938
465.505999	2557.014383
465.877845	2562.758778
466.249631	2567.142061
466.621358	2568.054510
466.993026	2565.423028
467.364634	2567.338666
467.736184	2563.378840
468.107674	2559.855073
468.479105	2561.551422
468.850477	2559.976061
469.221790	2560.170145
469.593043	2558.201575
469.964238	2558.345248
470.335373	2559.746688
470.706449	2563.131823
471.077467	2557.783159
471.448425	2565.302040
471.819324	2569.821434
472.190164	2571.888308
472.560945	2564.984447
472.931667	2560.313818
473.302330	2559.088818
473.672934	2560.276010
474.043479	2561.261555
474.413965	2563.971175
474.784393	2558.481359
475.154761	2558.524209
475.525070	2558.582182
475.895321	2556.225443
476.265513	2558.090669
476.635645	2563.905640
477.005719	2563.814900
477.375734	2560.066802
477.745691	2562.632749
478.115588	2566.509396
478.485427	2566.461505
478.855207	2570.680951
479.224928	2574.348391
479.594591	2574.406364
479.964194	2574.315623
480.333739	2574.497105
480.703226	2572.309244
481.072653	2575.878381
481.442022	2573.776220
481.811333	2577.128587
482.180584	2577.970460
482.549777	2575.543144
482.918912	2574.562640
483.287988	2572.389902
483.657005	2574.502146
484.025964	2572.256312
484.394864	2572.198338
484.763706	2574.189594
485.132489	2570.431414
485.501213	2570.605334
485.869879	2571.389233
486.238487	2570.204562
486.607036	2570.088616
486.975527	2569.211455
487.343959	2570.328070
487.712333	2571.502659
488.080648	2566.219530
488.448905	2570.199521
488.817104	2569.975190
489.185244	2570.444017
489.553326	2570.615416
489.921350	2572.415108
490.289315	2575.999368
490.657222	2579.429874
491.025070	2577.940213
491.392861	2579.155131
491.760593	2576.919379
492.128267	2575.457444
492.495883	2573.135993
492.863440	2572.158009
493.230939	2568.195662
493.598380	2572.203380
493.965763	2564.024107
494.333088	2565.110476
494.700354	2567.769685
495.067563	2566.456464
495.434713	2563.988819
495.801805	2568.687175
496.168839	2565.198696
496.535815	2565.798594
496.902733	2567.590724
497.269593	2568.714901
497.636395	2567.875549
498.003139	2568.583831
498.369825	2568.765313
498.736453	2571.167423
499.103023	2569.420663
499.469535	2569.168605
499.835989	2570.227247
500.202385	2571.046435
500.568723	2566.093501
500.935003	2568.656928
501.301226	2566.625343
501.667390	2567.862946
502.033497	2569.937381
502.399546	2570.519634
502.765537	2567.220199
503.131470	2567.386557
503.497345	2568.787998
503.863163	2569.672720
504.228923	2568.762792
504.594625	2570.948132
504.960269	2568.213306
505.325856	2569.962587
505.691385	2569.375292
506.056856	2568.115004
506.422270	2571.941240
506.787625	2568.346897
507.152924	2568.583831
507.518164	2569.249263
507.883347	2568.858574
508.248472	2571.041394
508.613540	2572.223544
508.978550	2569.095508
509.343503	2569.249263
509.708398	2569.960066
510.073236	2571.689182
510.438016	2569.009809
510.802738	2570.133986
511.167403	2571.517783
511.532010	2569.518965
511.896561	2572.034501
512.261053	2571.573235
512.625488	2570.053328
512.989866	2566.353121
513.354186	2568.069633
513.718449	2566.093501
514.082655	2568.712381
514.446803	2569.685323
514.810894	2573.388051
515.174927	2570.953173
515.538904	2570.378482
515.902822	2571.243040
516.266684	2572.896538
516.630488	2572.818400
516.994235	2570.595252
517.357925	2573.708164
517.721558	2572.954512
518.085133	2571.842937
518.448651	2572.563822
518.812112	2571.863102
519.175516	2570.534758
519.538863	2572.601631
519.902152	2572.591548
520.265385	2572.707495
520.628560	2572.999882
520.991678	2571.356466
521.354739	2575.187743
521.717743	2572.221024
522.080690	2575.152455
522.443580	2573.889646
522.806413	2572.515931
523.169189	2574.590366
523.531908	2572.387382
523.894569	2573.269584
524.257174	2574.630695
524.619722	2573.468709
524.982213	2572.488205
525.344647	2573.075499
525.707025	2574.885273
526.069345	2571.863102
526.431608	2573.529203
526.793815	2575.008782
527.155964	2574.756724
527.518057	2571.222875
527.880093	2571.999213
528.242072	2573.836713
528.603995	2571.623647
528.965860	2570.832186
529.327669	2574.597928
529.689421	2574.474419
530.051117	2573.105746
530.412755	2572.876374
530.774337	2570.869994
531.135862	2571.525344
531.497331	2570.106260
531.858743	2568.803121
532.220098	2573.957701
532.581396	2566.403532
532.942638	2571.512742
533.303824	2573.456106
533.664953	2571.669017
534.026025	2570.005437
534.387040	2571.487536
534.747999	2570.764130
535.108902	2572.047104
535.469748	2569.105591
535.830537	2575.767475
536.191270	2570.950653
536.551947	2572.281518
536.912567	2570.486867
537.273131	2575.308730
537.633638	2570.401167
537.994089	2574.179512
538.354483	2571.752196
538.714821	2569.370251
539.075103	2571.485015
539.435328	2568.934191
539.795497	2570.554922
540.155609	2572.009295
540.515665	2571.414439
540.875665	2572.286559
541.235609	2571.918554
541.595496	2570.456620
541.955328	2572.939388
542.315102	2573.299831
542.674821	2573.299831
543.034483	2571.527865
543.394090	2571.994172
543.753640	2570.078533
544.113134	2571.792526
544.472571	2573.498956
544.831953	2572.740262
545.191278	2571.404357
545.550548	2568.911506
545.909761	2571.278328
546.268918	2568.263718
546.628019	2572.150447
546.987064	2571.308575
547.346053	2570.933009
547.704986	2570.020560
548.063863	2571.487536
548.422684	2571.225396
548.781449	2571.207752
549.140158	2570.796898
549.498811	2569.249263
549.857408	2569.488718
550.215949	2566.184242
550.574434	2568.916547
550.932864	2568.372103
551.291237	2566.602658
551.649555	2570.126424
552.007817	2569.377813
552.366022	2571.701785
552.724173	2572.883935
553.082267	2571.285890
553.440305	2571.043914
553.798288	2570.645663
554.156215	2568.099880
554.514086	2572.765468
554.871902	2572.037022
555.229661	2568.414953
555.587365	2573.501477
555.945014	2569.478636
556.302606	2566.859757
556.660143	2572.457958
557.017625	2570.595252
557.375050	2571.941240
557.732421	2571.774882
558.089735	2572.011816
558.446994	2570.887638
558.804197	2571.086764
559.161345	2571.790005
559.518437	2572.752865
559.875474	2569.166084
560.232455	2572.210941
560.589381	2570.539799
560.946251	2572.599110
561.303065	2571.409398
561.659825	2570.383523
562.016528	2569.602144
562.373177	2571.827814
562.729770	2568.044428
563.086307	2572.130283
563.442789	2571.028791
563.799216	2569.846640
564.155587	2569.962587
564.511904	2570.580128
564.868164	2567.794891
565.224370	2571.341342
565.580520	2570.658266
565.936615	2571.371589
566.292654	2567.016032
566.648638	2569.322360
567.004567	2569.395457
567.360441	2572.127762
567.716260	2564.626525
568.072023	2569.927299
568.427732	2564.863460
568.783385	2566.547205
569.138982	2567.560477
569.494525	2565.659962
569.850013	2564.719787
570.205445	2568.780436
570.560823	2569.511403
570.916145	2569.977710
571.271412	2567.754561
571.626625	2570.456620
571.981782	2567.857905
572.336884	2568.735066
572.691931	2567.247925
573.046923	2567.905796
573.401860	2567.401681
573.756743	2567.058882
574.111570	2569.158523
574.466342	2566.884962
574.821059	2567.404201
575.175722	2567.474777
575.530330	2569.196331
575.884882	2569.423183
576.239380	2568.185580
576.593823	2569.032494
576.948211	2567.678944
577.302544	2567.494942
577.656823	2569.191290
578.011047	2568.029304
578.365216	2564.661813
578.719330	2567.545353
579.073389	2565.581824
579.427394	2564.649211
579.781344	2563.146947
580.135239	2568.152812
580.489080	2566.131310
580.842866	2567.366392
581.196597	2568.283883
581.550273	2564.492935
581.903895	2564.376988
582.257463	2567.376475
582.610975	2564.074519
582.964434	2563.739282
583.317837	2565.107956
583.671186	2564.805486
584.024481	2565.715415
584.377721	2565.465877
584.730906	2565.942267
585.084037	2565.982596
585.437113	2562.274827
585.790135	2565.728018
586.143103	2567.308419
586.496016	2564.291289
586.848874	2559.890361
587.201679	2563.489745
587.554428	2562.819272
587.907124	2565.523851
588.259765	2561.511092
588.612352	2562.519323
588.964884	2562.967986
589.317362	2564.308933
589.669786	2562.645352
590.022155	2567.000909
590.374470	2563.729200
590.726731	2565.481001
591.078937	2564.283727
591.431090	2562.816751
591.783188	2565.967472
592.135232	2564.717266
592.487222	2564.598799
592.839157	2563.477142
593.191038	2563.502348
593.542866	2563.857749
593.894639	2562.710887
594.246358	2562.887327
594.598022	2561.440516
594.949633	2562.128634
595.301190	2563.532595
595.652692	2561.987481
596.004141	2561.932029
596.355535	2562.713408
596.706876	2561.304405
597.058162	2562.554611
597.409395	2560.361709
597.760573	2561.692574
598.111698	2560.407080
598.462768	2561.135526
598.813785	2562.040413
599.164748	2562.781463
599.515657	2562.199210
599.866511	2560.780125
600.217312	2560.107131
600.568060	2562.368088
600.918753	2563.184755
601.269392	2562.947821
601.619978	2560.286092
601.970510	2562.438665
602.320988	2561.498489
602.671412	2560.112172
603.021783	2560.573438
603.372100	2561.846329
603.722363	2559.620660
604.072572	2560.036555
604.422728	2565.506207
604.772830	2556.003632
605.122878	2558.977912
605.472872	2558.103272
605.822813	2557.861297
606.172701	2557.919270
606.522534	2560.195351
606.872314	2561.248952
607.222041	2559.565207
607.571714	2561.460681
607.921333	2562.365568
608.270899	2558.060422
608.620411	2559.303067
608.969870	2561.518654
609.319276	2560.744837
609.668627	2564.545867
610.017926	2565.864129
610.367171	2568.193142
610.716362	2568.377144
611.065500	2567.908317
611.414585	2564.397153
611.763616	2563.550239
612.112594	2562.025290
612.461518	2561.916905
612.810389	2563.038562
613.159207	2562.789025
613.507971	2561.160732
613.856682	2559.595454
614.205340	2561.304405
614.553945	2565.332287
614.902496	2563.217523
615.250994	2559.756771
615.599439	2560.293654
615.947830	2562.834395
616.296169	2564.172822
616.644454	2561.914385
616.992686	2562.249621
617.340864	2562.897410
617.688990	2560.996895
618.037063	2561.271637
618.385082	2559.560166
618.733048	2564.145095
619.080961	2561.561504
619.428821	2563.444375
619.776628	2559.419013
620.124382	2563.603171
620.472083	2561.165773
620.819731	2560.848181
621.167326	2560.417162
621.514868	2561.248952
621.862357	2557.329455
622.209793	2560.591082
622.557176	2561.190979
622.904506	2556.474980
623.251783	2555.161759
623.599007	2555.365926
623.946179	2554.256872
624.293297	2556.376677
624.640363	2558.995557
624.987376	2558.672923
625.334336	2558.975392
625.681243	2555.668395
626.028097	2557.266441
626.374899	2558.529250
626.721647	2556.522871
627.068343	2557.465566
627.414987	2558.619991
627.761577	2559.182079
628.108115	2558.274672
628.454600	2557.717624
628.801032	2558.546894
629.147412	2556.653941
629.493739	2556.263251
629.840014	2556.537994
630.186236	2555.111347
630.532405	2554.869372
630.878521	2558.219219
631.224585	2556.245607
631.570597	2556.535473
631.916556	2555.456667
632.262462	2558.788869
632.608316	2556.248128
632.954117	2554.703014
633.299866	2555.945658
633.645562	2553.903991
633.991206	2556.038920
634.336797	2555.953220
634.682336	2554.476162
635.027823	2550.072714
635.373257	2554.632438
635.718639	2556.658982
636.063968	2557.881462
636.409245	2553.188147
636.754470	2553.508261
637.099642	2551.572457
637.444762	2556.306101
637.789829	2551.852242
638.134845	2556.956410
638.479808	2552.106820
638.824719	2554.372818
639.169577	2555.922973
639.514383	2554.120761
639.859137	2554.440874
640.203839	2554.166131
640.548489	2553.503219
640.893086	2551.317879
641.237632	2549.664381
641.582125	2550.702858
641.926566	2545.064328
642.270955	2552.283260
642.615292	2554.314845
642.959576	2552.028682
643.303809	2552.305945
643.647990	2553.122612
643.992118	2552.384083
644.336195	2549.613969
