Dividing Wavelength (nm)	Counts (n)	Blue Motor Position (mm): 0.000000	Red Motor Position (mm): 11.100000	
326.493990	2127.404732
326.888308	2127.404732
327.282561	2127.404732
327.676750	2092.522468
328.070874	2094.803590
328.464933	2096.908272
328.858929	2102.566967
329.252859	2113.602053
329.646726	2123.570934
330.040528	2135.407563
330.434265	2152.834832
330.827938	2171.146824
331.221547	2189.698270
331.615091	2207.170909
332.008571	2228.852912
332.401986	2245.750859
332.795338	2265.555032
333.188625	2286.448094
333.581847	2304.077009
333.975006	2323.707263
334.368100	2339.934737
334.761129	2358.987778
335.154095	2373.266846
335.546996	2390.701677
335.939833	2406.029305
336.332606	2423.270051
336.725315	2433.473346
337.117960	2442.209666
337.510540	2452.780966
337.903056	2464.151288
338.295508	2472.711167
338.687896	2478.349698
339.080220	2488.295894
339.472480	2494.441061
339.864676	2498.438696
340.256807	2501.125631
340.648875	2505.897083
341.040879	2509.960253
341.432818	2508.712567
341.824694	2514.220028
342.216506	2510.298010
342.608253	2511.212980
342.999937	2513.544513
343.391557	2511.757424
343.783113	2509.743483
344.174605	2509.569564
344.566033	2508.203411
344.957397	2509.481343
345.348697	2505.713081
345.739934	2504.500683
346.131106	2501.133193
346.522215	2502.869870
346.913260	2497.672441
347.304241	2496.812924
347.695159	2495.071205
348.086012	2496.497852
348.476802	2492.149857
348.867528	2492.321256
349.258191	2487.862355
349.648789	2488.794969
350.039324	2484.376397
350.429796	2486.917139
350.820203	2483.741212
351.210548	2485.263640
351.600828	2479.632672
351.991045	2484.091572
352.381198	2482.317086
352.771288	2477.412043
353.161314	2479.768783
353.551276	2482.657364
353.941175	2478.372383
354.331010	2479.781386
354.720782	2481.059318
355.110490	2478.967239
355.500135	2481.051756
355.889717	2479.395737
356.279235	2480.328351
356.668689	2482.380100
357.058080	2480.681232
357.447408	2480.572847
357.836672	2479.622589
358.225873	2477.447331
358.615010	2480.151910
359.004084	2484.535194
359.393095	2482.186016
359.782043	2484.265492
360.170927	2483.978146
360.559748	2485.165338
360.948505	2485.598877
361.337199	2486.818836
361.725830	2488.835298
362.114398	2491.174393
362.502903	2488.628611
362.891344	2488.926039
363.279722	2490.793786
363.668037	2487.985863
364.056289	2489.704897
364.444478	2492.074239
364.832603	2490.430823
365.220665	2490.917294
365.608665	2492.986688
365.996601	2493.740341
366.384474	2494.846874
366.772284	2494.103304
367.160031	2494.516678
367.547715	2497.964828
367.935336	2501.143275
368.322893	2504.914058
368.710388	2507.613596
369.097820	2513.660460
369.485189	2515.850841
369.872495	2519.309073
370.259738	2528.920033
370.646918	2537.469830
371.034035	2541.961498
371.421090	2555.441543
371.808081	2565.314643
372.195010	2570.300344
372.581875	2584.899526
372.968678	2598.629108
373.355418	2609.719647
373.742096	2628.671864
374.128710	2640.258957
374.515262	2656.670433
374.901751	2670.407577
375.288177	2681.719926
375.674540	2705.657845
376.060841	2724.080742
376.447079	2743.937847
376.833254	2766.668410
377.219367	2775.966818
377.605417	2814.335040
377.991404	2822.463901
378.377329	2845.055832
378.763191	2861.353882
379.148991	2897.183883
379.534727	2924.365784
379.920402	2950.007613
380.306013	2964.821044
380.691563	3015.035978
381.077049	3030.890406
381.462474	3049.421688
381.847835	3085.092892
382.233134	3107.609206
382.618371	3103.939246
383.003545	3165.826971
383.388657	3168.264369
383.773706	3195.983154
384.158693	3202.244267
384.543618	3219.774879
384.928480	3245.439393
385.313280	3280.326699
385.698017	3268.414452
386.082692	3304.357879
386.467305	3295.256076
386.851856	3312.925320
387.236344	3316.549910
387.620770	3328.951148
388.005133	3336.853157
388.389435	3341.322140
388.773674	3332.661437
389.157851	3343.484795
389.541965	3336.732169
389.926018	3289.519243
390.310008	3320.512257
390.693936	3309.545226
391.077802	3313.769713
391.461606	3282.365845
391.845348	3293.678195
392.229027	3268.293464
392.612645	3249.381576
392.996200	3261.470263
393.379694	3259.279881
393.763125	3262.226436
394.146494	3212.225751
394.529801	3212.699620
394.913047	3200.368957
395.296230	3152.639313
395.679351	3143.126656
396.062410	3115.836369
396.445408	3079.265319
396.828343	3059.380487
397.211217	3034.411652
397.594028	2977.771768
397.976778	2962.965899
398.359466	2943.585183
398.742092	2917.436718
399.124656	2873.064482
399.507158	2865.631301
399.889598	2846.532890
400.271977	2834.305571
400.654294	2803.647794
401.036549	2780.221552
401.418742	2753.826070
401.800874	2743.935327
402.182944	2727.586865
402.564952	2715.646892
402.946898	2696.886238
403.328783	2678.130625
403.710606	2656.027686
404.092367	2653.986018
404.474067	2638.638226
404.855705	2624.575927
405.237282	2610.795933
405.618797	2605.611106
406.000250	2595.196082
406.381642	2586.689135
406.762972	2579.926427
407.144240	2569.080385
407.525447	2567.210117
407.906593	2558.574620
408.287677	2554.947510
408.668700	2545.286139
409.049661	2544.761859
409.430560	2541.306148
409.811399	2538.626774
410.192176	2536.804397
410.572891	2533.613347
410.953545	2532.123686
411.334138	2530.462626
411.714669	2530.384488
412.095139	2526.144878
412.475547	2527.095135
412.855894	2526.172604
413.236180	2527.165711
413.616405	2525.217305
413.996568	2522.908457
414.376670	2523.455422
414.756711	2526.374250
415.136691	2525.174455
415.516609	2523.624301
415.896466	2522.921060
416.276262	2522.777387
416.655997	2519.787983
417.035670	2521.272602
417.415283	2522.840401
417.794834	2518.096675
418.174324	2521.393590
418.553753	2522.535411
418.933121	2523.531039
419.312428	2524.836698
419.691674	2524.942562
420.070859	2525.358457
420.449983	2523.258817
420.829045	2523.107582
421.208047	2524.602284
421.586988	2527.117820
421.965867	2523.387366
422.344686	2527.551359
422.723444	2526.979188
423.102141	2525.197141
423.480777	2524.763601
423.859352	2525.313087
424.237866	2525.618077
424.616319	2526.119672
424.994712	2528.441123
425.373044	2525.668488
425.751314	2524.572038
426.129524	2521.436440
426.507673	2524.806451
426.885762	2527.788294
427.263789	2524.579599
427.641756	2526.444826
428.019662	2523.906605
428.397508	2526.018849
428.775292	2526.157480
429.153016	2527.579086
429.530679	2526.384332
429.908282	2528.569672
430.285824	2528.509179
430.663305	2527.180835
431.040726	2527.390042
431.418086	2524.856863
431.795385	2526.994312
432.172624	2525.953314
432.549802	2528.584796
432.926920	2526.777542
433.303977	2527.430372
433.680974	2524.740916
434.057910	2527.674868
434.434786	2525.595392
434.811601	2529.030938
435.188355	2528.289888
435.565050	2527.677388
435.941683	2530.160157
436.318257	2528.496576
436.694770	2524.572037
437.071222	2529.363654
437.447614	2522.273271
437.823946	2522.565658
438.200218	2529.724097
438.576429	2526.956503
438.952580	2529.787111
439.328670	2527.241328
439.704700	2527.329549
440.080670	2529.822399
440.456580	2530.568490
440.832429	2529.351051
441.208218	2529.444313
441.583947	2527.347193
441.959616	2530.515558
442.335224	2530.286185
442.710773	2527.876514
443.086261	2531.485980
443.461689	2529.469518
443.837057	2531.601927
444.212365	2528.773839
444.587612	2531.334745
444.962800	2532.327853
445.337927	2532.040507
445.712995	2529.209899
446.088002	2531.919519
446.462949	2531.367513
446.837837	2532.151412
447.212664	2532.310209
447.587431	2531.034797
447.962139	2532.297606
448.336786	2535.957483
448.711374	2536.068389
449.085901	2531.914478
449.460369	2534.288862
449.834776	2531.581762
450.209124	2534.001516
450.583412	2534.969417
450.957640	2534.314067
451.331808	2535.481094
451.705917	2533.880528
452.079965	2533.149561
452.453954	2531.798532
452.827883	2536.073430
453.201752	2533.512524
453.575562	2534.944212
453.949311	2534.815662
454.323001	2533.452030
454.696632	2531.957328
455.070202	2534.750127
455.443713	2535.309695
455.817164	2533.643594
456.190556	2530.835671
456.563888	2534.906403
456.937160	2530.051772
457.310373	2534.545960
457.683526	2533.870446
458.056619	2536.174253
458.429653	2534.324150
458.802628	2538.226003
459.175542	2535.760878
459.548398	2537.779861
459.921194	2534.021680
460.293930	2537.868081
460.666607	2537.724408
461.039224	2538.654501
461.411782	2537.888245
461.784280	2539.536703
462.156719	2537.679037
462.529099	2539.345139
462.901419	2536.635519
463.273680	2539.622402
463.645882	2536.443955
464.018024	2537.381609
464.390106	2533.152081
464.762130	2534.571166
465.134094	2539.856816
465.505999	2542.828576
465.877845	2543.446118
466.249631	2545.432332
466.621358	2544.905532
466.993026	2544.663556
467.364634	2548.449463
467.736184	2544.161961
468.107674	2542.768082
468.479105	2541.139790
468.850477	2541.517876
469.221790	2543.080634
469.593043	2540.146682
469.964238	2542.453010
470.335373	2539.685417
470.706449	2541.936292
471.077467	2539.650129
471.448425	2543.773793
471.819324	2548.305790
472.190164	2546.775800
472.560945	2542.049718
472.931667	2539.196425
473.302330	2542.571477
473.672934	2539.529141
474.043479	2543.098278
474.413965	2542.011909
474.784393	2538.039480
475.154761	2538.410005
475.525070	2534.840868
475.895321	2541.701878
476.265513	2536.300282
476.635645	2543.246992
477.005719	2545.951571
477.375734	2544.572815
477.745691	2542.450490
478.115588	2543.178936
478.485427	2542.765562
478.855207	2544.724050
479.224928	2546.594318
479.594591	2546.806047
479.964194	2547.136242
480.333739	2546.309493
480.703226	2547.592467
481.072653	2545.258412
481.442022	2545.258412
481.811333	2547.905018
482.180584	2547.330327
482.549777	2547.179092
482.918912	2542.856303
483.287988	2547.143804
483.657005	2546.541386
484.025964	2544.408978
484.394864	2542.609286
484.763706	2543.577188
485.132489	2544.769420
485.501213	2546.553989
485.869879	2544.441745
486.238487	2543.816642
486.607036	2543.904863
486.975527	2544.391334
487.343959	2545.155069
487.712333	2543.451159
488.080648	2544.293031
488.448905	2543.204142
488.817104	2545.651622
489.185244	2544.691283
489.553326	2547.226983
489.921350	2547.108516
490.289315	2550.440718
490.657222	2548.167158
491.025070	2551.879968
491.392861	2548.595656
491.760593	2547.141283
492.128267	2546.765717
492.495883	2545.512991
492.863440	2546.806047
493.230939	2548.315872
493.598380	2546.541386
493.965763	2541.444779
494.333088	2544.184647
494.700354	2543.723381
495.067563	2542.793288
495.434713	2541.943854
495.801805	2544.724050
496.168839	2545.886036
496.535815	2545.833104
496.902733	2542.609286
497.269593	2548.262940
497.636395	2547.612631
498.003139	2545.515511
498.369825	2546.788403
498.736453	2546.168341
499.103023	2544.862682
499.469535	2543.110881
499.835989	2546.042312
500.202385	2545.664225
500.568723	2547.428629
500.935003	2545.971736
501.301226	2542.589121
501.667390	2546.579195
502.033497	2547.267312
502.399546	2549.092210
502.765537	2546.589277
503.131470	2546.158258
503.497345	2545.326468
503.863163	2546.858979
504.228923	2543.844369
504.594625	2549.692107
504.960269	2546.717826
505.325856	2547.615152
505.691385	2547.325285
506.056856	2547.010213
506.422270	2548.527601
506.787625	2545.593649
507.152924	2546.722868
507.518164	2545.724719
507.883347	2547.985677
508.248472	2546.826211
508.613540	2546.248999
508.978550	2548.152035
509.343503	2548.762014
509.708398	2549.182951
510.073236	2547.829401
510.438016	2550.188661
510.802738	2546.271684
511.167403	2546.095244
511.532010	2548.031047
511.896561	2549.092210
512.261053	2549.674463
512.625488	2542.778165
512.989866	2545.001313
513.354186	2547.174051
513.718449	2545.306303
514.082655	2546.533824
514.446803	2544.537527
514.810894	2551.743857
515.174927	2549.175389
515.538904	2547.436191
515.902822	2546.722867
516.266684	2547.544576
516.630488	2548.328475
516.994235	2547.436191
517.357925	2547.405944
517.721558	2548.777138
518.085133	2548.968702
518.448651	2549.503064
518.812112	2547.317724
519.175516	2547.990718
519.538863	2546.790923
519.902152	2549.218239
520.265385	2546.064997
520.628560	2549.886192
520.991678	2548.779658
521.354739	2550.299566
521.717743	2548.789741
522.080690	2546.775800
522.443580	2548.449463
522.806413	2546.906870
523.169189	2550.476007
523.531908	2545.490305
523.894569	2549.805533
524.257174	2546.687579
524.619722	2548.731767
524.982213	2549.399720
525.344647	2547.897456
525.707025	2550.334854
526.069345	2547.582384
526.431608	2547.531973
526.793815	2547.181613
527.155964	2547.537014
527.518057	2545.036602
527.880093	2551.902653
528.242072	2548.424257
528.603995	2550.087838
528.965860	2548.993907
529.327669	2550.773435
529.689421	2547.857127
530.051117	2549.061963
530.412755	2547.133722
530.774337	2546.622044
531.135862	2548.671273
531.497331	2544.910573
531.858743	2543.700696
532.220098	2547.211859
532.581396	2545.807898
532.942638	2545.281098
533.303824	2547.552137
533.664953	2549.145142
534.026025	2547.363094
534.387040	2552.066491
534.747999	2546.677497
535.108902	2550.415513
535.469748	2547.678166
535.830537	2549.747560
536.191270	2548.222611
536.551947	2549.276212
536.912567	2547.844524
537.273131	2551.857283
537.633638	2546.889226
537.994089	2548.865358
538.354483	2548.898125
538.714821	2547.965512
539.075103	2546.112888
539.435328	2546.634647
539.795497	2549.495502
540.155609	2550.478527
540.515665	2550.934752
540.875665	2548.996428
541.235609	2549.848383
541.595496	2550.556665
541.955328	2550.168496
542.315102	2548.724206
542.674821	2549.450132
543.034483	2548.744370
543.394090	2550.786037
543.753640	2551.126315
544.113134	2550.581871
544.472571	2548.429298
544.831953	2549.540872
545.191278	2548.756973
545.550548	2549.782848
545.909761	2550.322251
546.268918	2549.946685
546.628019	2549.853424
546.987064	2550.798640
547.346053	2550.486089
547.704986	2549.712272
548.063863	2548.177240
548.422684	2549.679504
548.781449	2548.777138
549.140158	2550.712941
549.498811	2552.169834
549.857408	2550.493651
550.215949	2546.453166
550.574434	2545.074410
550.932864	2546.238917
551.291237	2546.871582
551.649555	2548.976263
552.007817	2546.223793
552.366022	2552.353836
552.724173	2548.971222
553.082267	2552.926007
553.440305	2549.152704
553.798288	2552.421892
554.156215	2546.947199
554.514086	2550.128167
554.871902	2549.324103
555.229661	2548.812426
555.587365	2549.719833
555.945014	2551.262427
556.302606	2546.685059
556.660143	2549.026675
557.017625	2547.935265
557.375050	2550.234031
557.732421	2552.182437
558.089735	2550.445760
558.446994	2549.782848
558.804197	2551.141439
559.161345	2550.551624
559.518437	2549.351829
559.875474	2549.377035
560.232455	2549.127498
560.589381	2551.433826
560.946251	2550.927190
561.303065	2552.200081
561.659825	2552.610935
562.016528	2548.797302
562.373177	2550.014741
562.729770	2551.048177
563.086307	2551.580019
563.442789	2550.072714
563.799216	2551.890050
564.155587	2549.624052
564.511904	2549.646737
564.868164	2550.707900
565.224370	2551.731254
565.580520	2549.820657
565.936615	2552.084135
566.292654	2549.863506
566.648638	2550.851572
567.004567	2548.827549
567.360441	2552.046326
567.716260	2547.773948
568.072023	2549.112374
568.427732	2546.785882
568.783385	2551.204453
569.138982	2546.158258
569.494525	2547.489123
569.850013	2546.521221
570.205445	2550.352498
570.560823	2548.262940
570.916145	2549.765204
571.271412	2548.951057
571.626625	2548.762014
571.981782	2549.472817
572.336884	2550.937272
572.691931	2549.858465
573.046923	2550.833928
573.401860	2547.771427
573.756743	2548.464586
574.111570	2548.567930
574.466342	2549.621531
574.821059	2550.410472
575.175722	2549.407282
575.530330	2546.369987
575.884882	2550.322251
576.239380	2551.295194
576.593823	2550.654967
576.948211	2549.835780
577.302544	2546.813608
577.656823	2545.308824
578.011047	2551.156562
578.365216	2548.850234
578.719330	2546.707744
579.073389	2547.965512
579.427394	2549.588763
579.781344	2550.244113
580.135239	2550.138249
580.489080	2550.014741
580.842866	2546.881664
581.196597	2550.546583
581.550273	2548.330996
581.903895	2549.419885
582.257463	2550.854093
582.610975	2549.245965
582.964434	2548.023485
583.317837	2549.397200
583.671186	2547.746222
584.024481	2546.470810
584.377721	2550.395348
584.730906	2549.419885
585.084037	2549.613969
585.437113	2550.034906
585.790135	2546.806047
586.143103	2549.054401
586.496016	2551.093548
586.848874	2542.949564
587.201679	2547.857127
587.554428	2544.787064
587.907124	2547.219421
588.259765	2544.681200
588.612352	2547.673125
588.964884	2547.138763
589.317362	2546.659853
589.669786	2548.351160
590.022155	2549.266130
590.374470	2548.527601
590.726731	2550.556665
591.078937	2547.925183
591.431090	2547.640357
591.783188	2546.866540
592.135232	2551.136398
592.487222	2548.595656
592.839157	2548.078938
593.191038	2548.572971
593.542866	2549.445091
593.894639	2550.143290
594.246358	2549.987015
594.598022	2546.306972
594.949633	2547.816798
595.301190	2544.139276
595.652692	2550.889381
596.004141	2547.980635
596.355535	2545.850748
596.706876	2547.859648
597.058162	2549.480379
597.409395	2546.218752
597.760573	2548.711603
598.111698	2545.034081
598.462768	2548.946016
598.813785	2546.216232
599.164748	2549.508105
599.515657	2548.026006
599.866511	2548.343598
600.217312	2548.804864
600.568060	2549.833259
600.918753	2550.665050
601.269392	2547.610111
601.619978	2547.670604
601.970510	2547.988197
602.320988	2545.749925
602.671412	2547.645399
603.021783	2546.382590
603.372100	2546.342260
603.722363	2548.336037
604.072572	2547.690769
604.422728	2548.368804
604.772830	2546.778320
605.122878	2542.253885
605.472872	2543.897301
605.822813	2543.529297
606.172701	2546.488454
606.522534	2546.246478
606.872314	2545.457538
607.222041	2545.674308
607.571714	2546.821170
607.921333	2546.818649
608.270899	2545.760007
608.620411	2545.724719
608.969870	2546.680018
609.319276	2550.355019
609.668627	2552.850390
610.017926	2550.743188
610.367171	2556.248128
610.716362	2554.622356
611.065500	2551.643034
611.414585	2551.126315
611.763616	2550.589432
612.112594	2547.718495
612.461518	2549.316541
612.810389	2546.763197
613.159207	2547.658002
613.507971	2549.651778
613.856682	2546.584236
614.205340	2548.807385
614.553945	2548.164638
614.902496	2546.173382
615.250994	2550.349978
615.599439	2548.076417
615.947830	2544.361087
616.296169	2548.522559
616.644454	2548.845193
616.992686	2547.726057
617.340864	2547.065666
617.688990	2545.782692
618.037063	2547.768907
618.385082	2543.678011
618.733048	2543.405788
619.080961	2546.674977
619.428821	2548.086500
619.776628	2546.062476
620.124382	2550.596994
620.472083	2546.397713
620.819731	2549.336706
621.167326	2546.334699
621.514868	2546.178423
621.862357	2547.073228
622.209793	2547.395862
622.557176	2547.635316
622.904506	2542.964687
623.251783	2543.219266
623.599007	2541.817825
623.946179	2542.619368
624.293297	2542.780685
624.640363	2545.775131
624.987376	2544.996272
625.334336	2545.916283
625.681243	2546.909390
626.028097	2544.870243
626.374899	2545.548279
626.721647	2546.170861
627.068343	2546.601880
627.414987	2542.102650
627.761577	2543.246992
628.108115	2547.053063
628.454600	2547.484082
628.801032	2546.501057
629.147412	2547.191695
629.493739	2545.137425
629.840014	2547.282436
630.186236	2546.266643
630.532405	2544.386293
630.878521	2547.514329
631.224585	2545.782692
631.570597	2545.835624
631.916556	2546.523742
632.262462	2543.841848
632.608316	2547.378218
632.954117	2547.083310
633.299866	2543.131045
633.645562	2544.708927
633.991206	2546.337219
634.336797	2545.351674
634.682336	2542.604245
635.027823	2545.578526
635.373257	2543.937630
635.718639	2542.795809
636.063968	2543.143648
636.409245	2542.740356
636.754470	2544.252702
637.099642	2542.417722
637.444762	2544.139276
637.789829	2542.886549
638.134845	2546.745553
638.479808	2542.793288
638.824719	2541.669111
639.169577	2542.216076
639.514383	2544.000644
639.859137	2542.011909
640.203839	2544.895449
640.548489	2542.485778
640.893086	2538.609130
641.237632	2539.357742
641.582125	2541.911086
641.926566	2536.408667
642.270955	2544.056097
642.615292	2541.172557
642.959576	2544.308155
643.303809	2541.371683
643.647990	2542.117773
643.992118	2541.278421
644.336195	2542.102650
