Dividing Wavelength (nm)	Counts (n)	Blue Motor Position (mm): 0.000000	Red Motor Position (mm): 29.100000	
326.493990	2126.583024
326.888308	2126.583024
327.282561	2126.583024
327.676750	2096.225195
328.070874	2094.062540
328.464933	2097.331728
328.858929	2102.052769
329.252859	2112.944182
329.646726	2124.193517
330.040528	2136.251957
330.434265	2156.020842
330.827938	2173.256547
331.221547	2188.251459
331.615091	2211.468493
332.008571	2225.550956
332.401986	2248.480644
332.795338	2265.865063
333.188625	2286.763167
333.581847	2304.523152
333.975006	2322.361274
334.368100	2342.435149
334.761129	2356.351254
335.154095	2375.888246
335.546996	2394.144785
335.939833	2411.251940
336.332606	2424.679053
336.725315	2440.092381
337.117960	2448.785851
337.510540	2457.411265
337.903056	2467.163378
338.295508	2476.040849
338.687896	2482.586788
339.080220	2491.726400
339.472480	2497.304436
339.864676	2502.948008
340.256807	2508.715088
340.648875	2508.273987
341.040879	2512.196005
341.432818	2517.121212
341.824694	2517.005266
342.216506	2517.723630
342.608253	2517.592560
342.999937	2514.761952
343.391557	2518.111799
343.783113	2515.329082
344.174605	2512.795902
344.566033	2514.877899
344.957397	2512.891684
345.348697	2508.379851
345.739934	2509.589728
346.131106	2506.486898
346.522215	2502.847185
346.913260	2505.148472
347.304241	2500.931547
347.695159	2498.867194
348.086012	2498.673110
348.476802	2495.093890
348.867528	2493.294198
349.258191	2493.687408
349.648789	2491.244969
350.039324	2491.129023
350.429796	2489.639362
350.820203	2488.855463
351.210548	2487.287664
351.600828	2487.905205
351.991045	2484.820019
352.381198	2484.880513
352.771288	2485.949237
353.161314	2486.622231
353.551276	2486.319762
353.941175	2485.450163
354.331010	2487.436378
354.720782	2483.274905
355.110490	2485.815647
355.500135	2480.711478
355.889717	2488.207674
356.279235	2488.361429
356.668689	2490.393014
357.058080	2487.678353
357.447408	2485.785400
357.836672	2481.815491
358.225873	2484.721716
358.615010	2482.503609
359.004084	2488.318580
359.393095	2487.572489
359.782043	2488.363950
360.170927	2490.818992
360.559748	2491.678509
360.948505	2490.791266
361.337199	2493.389980
361.725830	2493.150526
362.114398	2495.051041
362.502903	2493.334528
362.891344	2493.916781
363.279722	2495.587923
363.668037	2494.667913
364.056289	2494.952738
364.444478	2497.052379
364.832603	2495.648417
365.220665	2499.013388
365.608665	2498.839468
365.996601	2502.131341
366.384474	2501.362565
366.772284	2502.678306
367.160031	2502.650580
367.547715	2503.915910
367.935336	2507.885818
368.322893	2512.674914
368.710388	2513.237003
369.097820	2524.042716
369.485189	2523.457943
369.872495	2530.250897
370.259738	2536.285158
370.646918	2544.885367
371.034035	2550.889381
371.421090	2563.330949
371.808081	2572.079871
372.195010	2582.474731
372.581875	2593.338417
372.968678	2606.112701
373.355418	2619.844804
373.742096	2635.971455
374.128710	2650.545431
374.515262	2664.290137
374.901751	2680.562982
375.288177	2693.586802
375.674540	2717.489433
376.060841	2732.741444
376.447079	2754.920001
376.833254	2773.710902
377.219367	2786.971657
377.605417	2824.553459
377.991404	2833.607371
378.377329	2857.618387
378.763191	2870.647249
379.148991	2913.371028
379.534727	2936.935902
379.920402	2963.477577
380.306013	2977.751604
380.691563	3027.472504
381.077049	3049.774569
381.462474	3066.372568
381.847835	3103.062085
382.233134	3126.382463
382.618371	3128.293060
383.003545	3196.371322
383.388657	3204.497662
383.773706	3235.220975
384.158693	3251.292173
384.543618	3276.490381
384.928480	3316.960764
385.313280	3358.005838
385.698017	3358.721682
386.082692	3412.760331
386.467305	3417.471289
386.851856	3447.246864
387.236344	3469.264104
387.620770	3503.206192
388.005133	3526.035058
388.389435	3555.341806
388.773674	3568.027869
389.157851	3609.897172
389.541965	3625.560037
389.926018	3585.306424
390.310008	3660.016324
390.693936	3678.431659
391.077802	3719.630489
391.461606	3711.325188
391.845348	3770.830968
392.229027	3771.524127
392.612645	3783.963174
392.996200	3859.804813
393.379694	3903.004981
393.763125	3968.771874
394.146494	3931.600926
394.529801	3995.792458
394.913047	4046.791291
395.296230	4011.813245
395.679351	4065.108324
396.062410	4085.391406
396.445408	4070.817430
396.828343	4105.132565
397.211217	4127.573261
397.594028	4046.375396
397.976778	4111.020632
398.359466	4141.617916
398.742092	4169.387112
399.124656	4089.046243
399.507158	4170.836443
399.889598	4195.833005
400.271977	4258.827263
400.654294	4227.788879
401.036549	4237.014190
401.418742	4206.139644
401.800874	4307.814676
402.182944	4332.100434
402.564952	4395.573602
402.946898	4381.770923
403.328783	4379.847723
403.710606	4291.269609
404.092367	4484.973425
404.474067	4448.858598
404.855705	4452.500832
405.237282	4386.108836
405.618797	4493.293849
406.000250	4529.287687
406.381642	4609.893217
406.762972	4571.988781
407.144240	4582.527313
407.525447	4579.318619
407.906593	4637.100324
408.287677	4682.344680
408.668700	4608.607723
409.049661	4666.583512
409.430560	4703.719172
409.811399	4632.323831
410.192176	4795.364829
410.572891	4730.371753
410.953545	4835.381508
411.334138	4716.178384
411.714669	4782.111635
412.095139	4678.349566
412.475547	4818.344928
412.855894	4801.691477
413.236180	4809.301098
413.616405	4763.761835
413.996568	4849.839537
414.376670	4792.055311
414.756711	4744.701232
415.136691	4775.618629
415.516609	4857.494529
415.896466	4895.277977
416.276262	4929.245272
416.655997	4906.930604
417.035670	5089.105302
417.415283	5183.931926
417.794834	5124.605107
418.174324	5079.776646
418.553753	4984.410618
418.933121	5173.348023
419.312428	5237.617694
419.691674	5179.261297
420.070859	5304.425585
420.449983	5212.749682
420.829045	5330.185881
421.208047	5235.853290
421.586988	5314.094518
421.965867	5320.280014
422.344686	5454.760355
422.723444	5305.295184
423.102141	5127.186178
423.480777	5425.441004
423.859352	5193.905849
424.237866	5454.551147
424.616319	5444.100835
424.994712	5554.849944
425.373044	5428.722795
425.751314	5575.216205
426.129524	5375.011821
426.507673	5573.512295
426.885762	5651.907279
427.263789	5585.220375
427.641756	5467.073373
428.019662	5587.493935
428.397508	5597.341829
428.775292	5541.125402
429.153016	5638.880937
429.530679	5567.583898
429.908282	5655.657897
430.285824	5523.935068
430.663305	5795.920441
431.040726	5532.991501
431.418086	5536.404362
431.795385	5636.720803
432.172624	5650.417618
432.549802	5642.056864
432.926920	5654.155633
433.303977	5662.009751
433.680974	5701.834866
434.057910	5723.710953
434.434786	5728.363938
434.811601	5693.693403
435.188355	5932.465134
435.565050	5804.608870
435.941683	5787.234533
436.318257	5999.071379
436.694770	5979.925077
437.071222	6019.987127
437.447614	5947.228153
437.823946	5861.500812
438.200218	6015.560994
438.576429	5881.128544
438.952580	5978.942052
439.328670	6028.912490
439.704700	5933.864054
440.080670	5915.521816
440.456580	6188.457447
440.832429	6074.555097
441.208218	5921.911479
441.583947	6073.040230
441.959616	6073.647689
442.335224	6001.632286
442.710773	6138.222349
443.086261	6166.097409
443.461689	5966.457635
443.837057	6110.158246
444.212365	6267.981649
444.587612	6158.139948
444.962800	6308.686446
445.337927	6293.147089
445.712995	5902.540845
446.088002	6478.848073
446.462949	6307.315252
446.837837	6240.721610
447.212664	6415.884062
447.587431	6554.495628
447.962139	7100.767662
448.336786	8025.479114
448.711374	7764.559074
449.085901	6839.703948
449.460369	6759.473984
449.834776	6691.698192
450.209124	7084.666216
450.583412	7231.812456
450.957640	7380.516412
451.331808	7144.540000
451.705917	6695.083326
452.079965	6619.221523
452.453954	6828.255488
452.827883	6710.347940
453.201752	6799.107536
453.575562	6594.232523
453.949311	6796.667618
454.323001	6686.044538
454.696632	6755.511638
455.070202	6897.659573
455.443713	7047.260855
455.817164	7146.226266
456.190556	7229.100315
456.563888	7302.282745
456.937160	7340.857655
457.310373	6995.788153
457.683526	7013.288519
458.056619	6905.853969
458.429653	6889.021556
458.802628	6819.443551
459.175542	6925.315343
459.548398	7269.757221
459.921194	7421.518637
460.293930	7420.341527
460.666607	7939.285466
461.039224	8226.709373
461.411782	8342.487033
461.784280	8354.681584
462.156719	8241.908452
462.529099	8118.299360
462.901419	7702.643622
463.273680	7585.184738
463.645882	7592.761592
464.018024	7445.945548
464.390106	7600.124197
464.762130	7971.732853
465.134094	8394.521823
465.505999	9349.931382
465.877845	10492.249282
466.249631	11103.038002
466.621358	10720.669004
466.993026	10105.867525
467.364634	9846.379172
467.736184	9475.007450
468.107674	9142.258529
468.479105	9144.718612
468.850477	8903.396057
469.221790	8668.367382
469.593043	8339.260694
469.964238	8188.850308
470.335373	8172.935385
470.706449	8195.965896
471.077467	8144.190726
471.448425	9291.827043
471.819324	10206.856960
472.190164	10215.139576
472.560945	9066.013598
472.931667	8320.956265
473.302330	8173.129469
473.672934	7814.532032
474.043479	8094.978982
474.413965	8004.959098
474.784393	7857.981737
475.154761	7951.943803
475.525070	7986.039647
475.895321	7793.117210
476.265513	7902.958911
476.635645	7997.843509
477.005719	7937.548788
477.375734	7990.866552
477.745691	8122.198692
478.115588	8174.631733
478.485427	8304.023029
478.855207	8659.376484
479.224928	9195.639307
479.594591	9593.308207
479.964194	9383.865909
480.333739	9287.950396
480.703226	9134.913568
481.072653	9124.518708
481.442022	9190.951034
481.811333	9252.286753
482.180584	9037.919247
482.549777	8744.272036
482.918912	8546.505050
483.287988	8471.641394
483.657005	8402.010457
484.025964	8104.859643
484.394864	8110.046991
484.763706	8002.143613
485.132489	7769.232223
485.501213	7654.518247
485.869879	7636.264229
486.238487	7426.847136
486.607036	7436.039680
486.975527	7210.813529
487.343959	7238.847386
487.712333	7173.874475
488.080648	7059.218472
488.448905	6989.950497
488.817104	6877.931018
489.185244	6934.006292
489.553326	6914.479383
489.921350	7095.706343
490.289315	7489.352403
490.657222	7566.058600
491.025070	7415.013028
491.392861	7265.094153
491.760593	7001.595563
492.128267	6748.970740
492.495883	6515.678743
492.863440	6282.570748
493.230939	6051.176746
493.598380	5940.591474
493.965763	5798.645185
494.333088	5700.940062
494.700354	5582.528399
495.067563	5536.671543
495.434713	5390.364655
495.801805	5364.332137
496.168839	5263.113329
496.535815	5164.682280
496.902733	5099.941262
497.269593	4996.998380
497.636395	4966.287670
498.003139	4885.959404
498.369825	4787.848468
498.736453	4754.286987
499.103023	4680.323177
499.469535	4623.244713
499.835989	4560.741967
500.202385	4484.549968
500.568723	4392.611924
500.935003	4392.493457
501.301226	4276.962814
501.667390	4287.917241
502.033497	4242.493925
502.399546	4162.150535
502.765537	4086.898711
503.131470	4045.722567
503.497345	4017.361035
503.863163	3910.549067
504.228923	3903.723345
504.594625	3871.500290
504.960269	3781.543420
505.325856	3767.614712
505.691385	3693.219884
506.056856	3670.706091
506.422270	3625.998618
506.787625	3580.469437
507.152924	3549.105898
507.518164	3510.871267
507.883347	3461.699852
508.248472	3418.608069
508.613540	3405.939650
508.978550	3356.501054
509.343503	3324.693894
509.708398	3303.014412
510.073236	3278.519445
510.438016	3245.464599
510.802738	3215.285732
511.167403	3191.781352
511.532010	3154.076042
511.896561	3149.365083
512.261053	3122.566310
512.625488	3086.350660
512.989866	3058.158008
513.354186	3035.941643
513.718449	3003.630367
514.082655	3000.038545
514.446803	2973.484267
514.810894	2963.296095
515.174927	2936.298196
515.538904	2921.245310
515.902822	2906.482291
516.266684	2887.399003
516.630488	2869.339070
516.994235	2860.738861
517.357925	2841.751355
517.721558	2835.346569
518.085133	2821.301915
518.448651	2809.195584
518.812112	2797.101856
519.175516	2784.209105
519.538863	2778.207611
519.902152	2766.562546
520.265385	2760.374529
520.628560	2751.429002
520.991678	2741.578587
521.354739	2737.091960
521.717743	2728.433778
522.080690	2719.339537
522.443580	2715.571274
522.806413	2709.615151
523.169189	2705.068030
523.531908	2700.911599
523.894569	2693.322142
524.257174	2692.384487
524.619722	2687.648323
524.982213	2683.970802
525.344647	2678.233968
525.707025	2672.779440
526.069345	2671.105777
526.431608	2667.405570
526.793815	2666.672082
527.155964	2661.749395
527.518057	2659.198572
527.880093	2656.612460
528.242072	2655.226142
528.603995	2650.870585
528.965860	2651.117602
529.327669	2647.843372
529.689421	2645.438742
530.051117	2644.274236
530.412755	2642.295583
530.774337	2642.008237
531.135862	2637.713174
531.497331	2636.997330
531.858743	2630.922740
532.220098	2632.772843
532.581396	2628.679426
532.942638	2629.153295
533.303824	2631.003398
533.664953	2629.745630
534.026025	2627.580455
534.387040	2625.296812
534.747999	2624.976699
535.108902	2626.602471
535.469748	2621.788169
535.830537	2622.390587
536.191270	2622.141050
536.551947	2623.648355
536.912567	2621.566358
537.273131	2618.781121
537.633638	2618.675256
537.994089	2616.779782
538.354483	2615.232148
538.714821	2620.122067
539.075103	2616.119391
539.435328	2616.222735
539.795497	2614.473455
540.155609	2618.748353
540.515665	2615.128805
540.875665	2614.554113
541.235609	2611.927672
541.595496	2615.459000
541.955328	2613.823146
542.315102	2615.033023
542.674821	2612.320882
543.034483	2613.939092
543.394090	2611.685697
543.753640	2611.650408
544.113134	2612.426746
544.472571	2612.265429
544.831953	2611.844493
545.191278	2612.731736
545.550548	2608.275356
545.909761	2610.296859
546.268918	2612.734257
546.628019	2611.317692
546.987064	2610.410285
547.346053	2609.651591
547.704986	2612.681324
548.063863	2612.298197
548.422684	2609.810387
548.781449	2607.486415
549.140158	2608.222424
549.498811	2611.441201
549.857408	2607.430963
550.215949	2607.965325
550.574434	2605.512804
550.932864	2607.390633
551.291237	2605.767382
551.649555	2608.192177
552.007817	2611.090840
552.366022	2609.417177
552.724173	2609.011364
553.082267	2609.671756
553.440305	2610.790892
553.798288	2606.563884
554.156215	2609.964143
554.514086	2609.202928
554.871902	2606.521034
555.229661	2609.122270
555.587365	2608.754266
555.945014	2608.265274
556.302606	2609.273504
556.660143	2609.908690
557.017625	2608.683689
557.375050	2606.647063
557.732421	2607.420880
558.089735	2605.853082
558.446994	2607.309975
558.804197	2611.731067
559.161345	2610.445573
559.518437	2608.673607
559.875474	2605.318719
560.232455	2606.614296
560.589381	2605.870726
560.946251	2608.779471
561.303065	2605.371651
561.659825	2607.740994
562.016528	2607.824173
562.373177	2604.204624
562.729770	2605.306116
563.086307	2605.439707
563.442789	2606.271497
563.799216	2604.900303
564.155587	2607.274687
564.511904	2605.101950
564.868164	2606.654625
565.224370	2607.370469
565.580520	2605.038935
565.936615	2605.779985
566.292654	2602.951897
566.648638	2608.030860
567.004567	2604.164295
567.360441	2606.263936
567.716260	2604.300406
568.072023	2604.824686
568.427732	2603.151023
568.783385	2604.217227
569.138982	2601.787391
569.494525	2603.982813
569.850013	2596.579879
570.205445	2603.667741
570.560823	2601.295878
570.916145	2602.964500
571.271412	2603.695468
571.626625	2602.543564
571.981782	2602.435179
572.336884	2602.646908
572.691931	2601.164808
573.046923	2601.381578
573.401860	2602.669593
573.756743	2601.676486
574.111570	2600.789242
574.466342	2601.857967
574.821059	2601.641197
575.175722	2600.015425
575.530330	2603.750920
575.884882	2599.728080
576.239380	2596.665579
576.593823	2602.906527
576.948211	2600.088522
577.302544	2600.927874
577.656823	2602.541043
578.011047	2601.638677
578.365216	2601.033738
578.719330	2599.463419
579.073389	2598.626587
579.427394	2596.690784
579.781344	2598.487956
580.135239	2597.520054
580.489080	2599.261773
580.842866	2597.091556
581.196597	2599.660024
581.550273	2598.303954
581.903895	2594.800352
582.257463	2598.825713
582.610975	2595.866556
582.964434	2595.576689
583.317837	2596.534509
583.671186	2597.401587
584.024481	2598.883686
584.377721	2595.178438
584.730906	2592.657861
585.084037	2595.677513
585.437113	2593.015783
585.790135	2596.776484
586.143103	2596.950404
586.496016	2596.544591
586.848874	2594.286154
587.201679	2590.923704
587.554428	2591.306832
587.907124	2593.656010
588.259765	2589.166862
588.612352	2593.461925
588.964884	2591.735330
589.317362	2596.169025
589.669786	2593.696339
590.022155	2597.416711
590.374470	2593.545104
590.726731	2596.688264
591.078937	2594.240784
591.431090	2593.252717
591.783188	2594.409662
592.135232	2590.487645
592.487222	2593.023345
592.839157	2591.621904
593.191038	2591.153077
593.542866	2591.354723
593.894639	2589.320618
594.246358	2593.456884
594.598022	2592.685588
594.949633	2588.957654
595.301190	2590.709455
595.652692	2590.396904
596.004141	2593.751792
596.355535	2591.977306
596.706876	2593.683736
597.058162	2589.645772
597.409395	2589.532346
597.760573	2590.225505
598.111698	2588.831626
598.462768	2589.794486
598.813785	2591.994950
599.164748	2590.759867
599.515657	2589.529825
599.866511	2590.606112
600.217312	2591.669795
600.568060	2586.822726
600.918753	2592.186513
601.269392	2587.412541
601.619978	2587.581419
601.970510	2588.163673
602.320988	2587.568817
602.671412	2589.655854
603.021783	2587.200812
603.372100	2588.521595
603.722363	2587.921697
604.072572	2590.152408
604.422728	2590.785073
604.772830	2586.679053
605.122878	2582.144535
605.472872	2586.041347
605.822813	2583.931624
606.172701	2586.913467
606.522534	2588.491348
606.872314	2591.594178
607.222041	2587.238621
607.571714	2589.421441
607.921333	2589.507140
608.270899	2584.211408
608.620411	2589.053436
608.969870	2589.532346
609.319276	2592.506627
609.668627	2593.955958
610.017926	2593.598037
610.367171	2597.875456
610.716362	2596.733634
611.065500	2596.108531
611.414585	2594.334045
611.763616	2593.116606
612.112594	2592.887234
612.461518	2592.244487
612.810389	2590.974116
613.159207	2591.415217
613.507971	2588.234249
613.856682	2591.253900
614.205340	2591.833633
614.553945	2590.981678
614.902496	2587.475555
615.250994	2591.463108
615.599439	2590.719538
615.947830	2589.643251
616.296169	2588.834146
616.644454	2588.929928
616.992686	2589.623087
617.340864	2591.458067
617.688990	2589.895309
618.037063	2591.269023
618.385082	2589.161821
618.733048	2591.586616
619.080961	2587.662078
619.428821	2589.996132
619.776628	2588.148549
620.124382	2590.701894
620.472083	2590.719538
620.819731	2590.054105
621.167326	2587.798189
621.514868	2586.321131
621.862357	2588.400607
622.209793	2586.394228
622.557176	2590.308684
622.904506	2583.402303
623.251783	2584.191243
623.599007	2579.210583
623.946179	2582.671336
624.293297	2581.342992
624.640363	2581.519432
624.987376	2585.786769
625.334336	2582.051274
625.681243	2585.580081
626.028097	2583.266192
626.374899	2587.152921
626.721647	2583.326686
627.068343	2584.460945
627.414987	2584.014803
627.761577	2582.976325
628.108115	2582.686459
628.454600	2582.230235
628.801032	2584.211408
629.147412	2583.901377
629.493739	2580.052456
629.840014	2581.310224
630.186236	2585.108733
630.532405	2579.344174
630.878521	2579.301324
631.224585	2581.194277
631.570597	2581.307703
631.916556	2581.650502
632.262462	2579.941551
632.608316	2579.901222
632.954117	2580.317117
633.299866	2580.881726
633.645562	2579.891139
633.991206	2580.042374
634.336797	2577.652867
634.682336	2579.296283
635.027823	2577.897363
635.373257	2577.418453
635.718639	2576.059862
636.063968	2574.885273
636.409245	2575.565829
636.754470	2575.172619
637.099642	2575.827969
637.444762	2575.689338
637.789829	2576.576581
638.134845	2576.223700
638.479808	2574.731518
638.824719	2572.266394
639.169577	2575.220510
639.514383	2573.156158
639.859137	2574.146744
640.203839	2574.174471
640.548489	2573.894687
640.893086	2571.459809
641.237632	2569.783626
641.582125	2571.575756
641.926566	2568.964438
642.270955	2574.214800
642.615292	2572.029460
642.959576	2573.425859
643.303809	2572.268915
643.647990	2572.815880
643.992118	2573.148596
644.336195	2572.223544
