Dividing Wavelength (nm)	Counts (n)	Blue Motor Position (mm): 0.000000	Red Motor Position (mm): 45.000000	
326.493990	2125.506737
326.888308	2125.506737
327.282561	2125.506737
327.676750	2096.898189
328.070874	2091.521799
328.464933	2095.877356
328.858929	2099.882552
329.252859	2112.669439
329.646726	2121.917436
330.040528	2136.791360
330.434265	2155.257107
330.827938	2171.431649
331.221547	2188.624504
331.615091	2210.392206
332.008571	2229.241081
332.401986	2249.675398
332.795338	2266.669127
333.188625	2286.521191
333.581847	2305.596917
333.975006	2322.499906
334.368100	2342.558657
334.761129	2358.289578
335.154095	2373.962525
335.546996	2398.265928
335.939833	2422.024886
336.332606	2435.623398
336.725315	2448.342230
337.117960	2458.827830
337.510540	2466.777729
337.903056	2477.152424
338.295508	2485.170379
338.687896	2493.165649
339.080220	2502.635457
339.472480	2509.446055
339.864676	2510.252640
340.256807	2517.547190
340.648875	2521.522139
341.040879	2520.670184
341.432818	2526.467511
341.824694	2524.849301
342.216506	2526.026410
342.608253	2528.612522
342.999937	2525.728982
343.391557	2524.128416
343.783113	2527.390043
344.174605	2524.723272
344.566033	2523.157994
344.957397	2523.301667
345.348697	2519.112468
345.739934	2518.189937
346.131106	2515.016530
346.522215	2514.900584
346.913260	2512.261540
347.304241	2510.935716
347.695159	2504.399860
348.086012	2506.706188
348.476802	2504.377175
348.867528	2505.161075
349.258191	2504.094871
349.648789	2500.596310
350.039324	2499.961124
350.429796	2499.767040
350.820203	2498.337873
351.210548	2497.238901
351.600828	2495.414004
351.991045	2493.483242
352.381198	2495.640856
352.771288	2496.286123
353.161314	2496.507934
353.551276	2493.914260
353.941175	2497.790908
354.331010	2493.962151
354.720782	2495.726555
355.110490	2495.338386
355.500135	2492.301091
355.889717	2495.277893
356.279235	2495.028355
356.668689	2493.667244
357.058080	2495.814775
357.447408	2495.471977
357.836672	2495.164467
358.225873	2497.236381
358.615010	2492.802686
359.004084	2496.699498
359.393095	2500.145127
359.782043	2501.107987
360.170927	2499.724190
360.559748	2500.200579
360.948505	2501.193687
361.337199	2502.978255
361.725830	2503.195025
362.114398	2503.439521
362.502903	2502.401043
362.891344	2505.529079
363.279722	2503.696619
363.668037	2506.938081
364.056289	2504.936743
364.444478	2506.935561
364.832603	2508.400016
365.220665	2507.646363
365.608665	2509.998062
365.996601	2510.171982
366.384474	2510.318175
366.772284	2511.069307
367.160031	2513.400841
367.547715	2516.198681
367.935336	2516.896881
368.322893	2520.095493
368.710388	2522.921060
369.097820	2531.662420
369.485189	2534.344314
369.872495	2540.108874
370.259738	2546.266643
370.646918	2555.227294
371.034035	2561.024621
371.421090	2570.842268
371.808081	2582.220152
372.195010	2592.741040
372.581875	2605.548092
372.968678	2618.912191
373.355418	2627.968623
373.742096	2643.361787
374.128710	2660.451298
374.515262	2670.619306
374.901751	2687.902902
375.288177	2705.126004
375.674540	2725.598129
376.060841	2742.269225
376.447079	2764.180600
376.833254	2786.785134
377.219367	2798.427679
377.605417	2833.768688
377.991404	2843.556088
378.377329	2867.410828
378.763191	2881.200905
379.148991	2922.122471
379.534727	2942.370265
379.920402	2970.888073
380.306013	2984.042964
380.691563	3033.763864
381.077049	3056.731361
381.462474	3074.471181
381.847835	3114.712192
382.233134	3134.876807
382.618371	3132.452012
383.003545	3205.652087
383.388657	3212.331616
383.773706	3244.279928
384.158693	3256.338368
384.543618	3282.847276
384.928480	3322.017041
385.313280	3365.043289
385.698017	3367.677292
386.082692	3419.192843
386.467305	3424.387752
386.851856	3457.878658
387.236344	3479.686689
387.620770	3514.637009
388.005133	3533.992519
388.389435	3558.137125
388.773674	3573.381575
389.157851	3618.809932
389.541965	3632.829381
389.926018	3597.569031
390.310008	3669.186183
390.693936	3688.524049
391.077802	3726.761201
391.461606	3717.248544
391.845348	3779.920168
392.229027	3779.448820
392.612645	3790.420892
392.996200	3868.929301
393.379694	3907.743665
393.763125	3973.692040
394.146494	3942.164664
394.529801	4002.719004
394.913047	4055.189853
395.296230	4022.175337
395.679351	4074.784818
396.062410	4096.176955
396.445408	4079.974686
396.828343	4109.417545
397.211217	4134.280516
397.594028	4052.835635
397.976778	4122.416161
398.359466	4147.004388
398.742092	4175.859953
399.124656	4100.131740
399.507158	4180.011343
399.889598	4207.326835
400.271977	4267.432513
400.654294	4237.006629
401.036549	4244.969131
401.418742	4218.248495
401.800874	4316.717353
402.182944	4341.744162
402.564952	4403.798245
402.946898	4390.713930
403.328783	4384.425091
403.710606	4302.103048
404.092367	4489.760000
404.474067	4455.207932
404.855705	4464.801248
405.237282	4391.218045
405.618797	4503.754243
406.000250	4535.710117
406.381642	4616.272797
406.762972	4580.145368
407.144240	4589.829425
407.525447	4589.337912
407.906593	4651.399557
408.287677	4691.731308
408.668700	4619.673055
409.049661	4672.297660
409.430560	4716.402715
409.811399	4637.521261
410.192176	4804.728772
410.572891	4739.244183
410.953545	4845.637735
411.334138	4722.333633
411.714669	4789.466679
412.095139	4687.153941
412.475547	4831.207432
412.855894	4810.667251
413.236180	4813.313857
413.616405	4768.117392
413.996568	4861.431670
414.376670	4802.828257
414.756711	4759.043315
415.136691	4791.377276
415.516609	4864.534501
415.896466	4904.231067
416.276262	4941.517961
416.655997	4917.181791
417.035670	5101.040233
417.415283	5192.678328
417.794834	5133.502743
418.174324	5087.343418
418.553753	4998.858565
418.933121	5178.858005
419.312428	5246.805197
419.691674	5186.265980
420.070859	5313.358510
420.449983	5222.816866
420.829045	5340.542932
421.208047	5245.938118
421.586988	5319.899407
421.965867	5327.718237
422.344686	5464.610769
422.723444	5317.731711
423.102141	5134.052229
423.480777	5435.425009
423.859352	5204.630904
424.237866	5462.082631
424.616319	5456.328153
424.994712	5566.565585
425.373044	5442.946411
425.751314	5583.405560
426.129524	5386.130086
426.507673	5578.762657
426.885762	5667.721378
427.263789	5594.470892
427.641756	5476.013859
428.019662	5601.505822
428.397508	5603.199650
428.775292	5552.974634
429.153016	5653.923740
429.530679	5573.534980
429.908282	5663.196943
430.285824	5533.321696
430.663305	5806.146422
431.040726	5540.429723
431.418086	5545.793511
431.795385	5646.513244
432.172624	5660.436911
432.549802	5653.107073
432.926920	5668.038971
433.303977	5678.784190
433.680974	5717.958997
434.057910	5729.498198
434.434786	5736.150001
434.811601	5707.249066
435.188355	5946.471980
435.565050	5818.424152
435.941683	5795.678466
436.318257	6006.176886
436.694770	5996.011399
437.071222	6030.618920
437.447614	5959.571418
437.823946	5873.410538
438.200218	6028.385689
438.576429	5895.833590
438.952580	5991.862529
439.328670	6038.193254
439.704700	5943.802689
440.080670	5930.453714
440.456580	6203.132246
440.832429	6085.774184
441.208218	5931.250216
441.583947	6087.437765
441.959616	6091.369865
442.335224	6017.758937
442.710773	6153.507128
443.086261	6182.060223
443.461689	5972.610363
443.837057	6125.584176
444.212365	6282.197703
444.587612	6173.545714
444.962800	6326.287634
445.337927	6303.688142
445.712995	5919.600110
446.088002	6494.992368
446.462949	6324.737480
446.837837	6251.623105
447.212664	6425.671462
447.587431	6571.353246
447.962139	7109.370391
448.336786	8036.705764
448.711374	7777.499716
449.085901	6855.815476
449.460369	6775.724144
449.834776	6708.258382
450.209124	7105.329906
450.583412	7252.271979
450.957640	7401.054073
451.331808	7160.732187
451.705917	6718.285237
452.079965	6637.389841
452.453954	6845.473548
452.827883	6724.127934
453.201752	6821.583520
453.575562	6617.391584
453.949311	6824.071330
454.323001	6713.513785
454.696632	6786.328211
455.070202	6929.809532
455.443713	7080.199754
455.817164	7184.549118
456.190556	7259.140551
456.563888	7330.969431
456.937160	7381.519602
457.310373	7037.294493
457.683526	7063.899183
458.056619	6950.211081
458.429653	6940.048115
458.802628	6880.769187
459.175542	6985.869683
459.548398	7338.493353
459.921194	7500.306830
460.293930	7502.214907
460.666607	8031.520937
461.039224	8338.330602
461.411782	8470.328174
461.784280	8482.215215
462.156719	8380.164617
462.529099	8256.999146
462.901419	7847.445725
463.273680	7736.633602
463.645882	7748.664316
464.018024	7617.647248
464.390106	7782.918956
464.762130	8174.425046
465.134094	8640.515007
465.505999	9662.061984
465.877845	10885.459282
466.249631	11533.613035
466.621358	11154.709829
466.993026	10520.106698
467.364634	10261.543397
467.736184	9902.134333
468.107674	9567.610926
468.479105	9601.542932
468.850477	9364.407055
469.221790	9139.725349
469.593043	8810.621182
469.964238	8665.188935
470.335373	8681.751646
470.706449	8744.398064
471.077467	8722.509374
471.448425	10032.629642
471.819324	11112.911102
472.190164	11139.132664
472.560945	9880.971569
472.931667	9091.922608
473.302330	8962.120458
473.672934	8600.826003
474.043479	8963.063154
474.413965	8904.800018
474.784393	8784.324003
475.154761	8938.520296
475.525070	9023.161269
475.895321	8855.114406
476.265513	9028.182258
476.635645	9197.426396
477.005719	9197.199544
477.375734	9307.994023
477.745691	9549.911435
478.115588	9687.575264
478.485427	9928.522253
478.855207	10463.865065
479.224928	11277.456884
479.594591	11904.906618
479.964194	11723.906510
480.333739	11661.802015
480.703226	11574.826988
481.072653	11666.908704
481.442022	11905.829150
481.811333	12091.424270
482.180584	11901.062739
482.549777	11611.251845
482.918912	11431.799371
483.287988	11455.888525
483.657005	11467.273971
484.025964	11151.962401
484.394864	11276.088211
484.763706	11251.822617
485.132489	11009.544763
485.501213	10968.358536
485.869879	11046.995495
486.238487	10888.032791
486.607036	10991.910807
486.975527	10776.255287
487.343959	10974.513785
487.712333	11015.949549
488.080648	10937.458784
488.448905	10989.062555
488.817104	10929.897053
489.185244	11192.705006
489.553326	11345.953562
489.921350	11892.570915
490.289315	12943.119650
490.657222	13293.777271
491.025070	13189.236343
491.392861	13073.914907
491.760593	12693.547247
492.128267	12347.623270
492.495883	12020.618743
492.863440	11682.770695
493.230939	11348.932884
493.598380	11275.006884
493.965763	11143.727676
494.333088	11045.208406
494.700354	10968.250152
495.067563	11022.866012
495.434713	10855.247647
495.801805	10983.436628
496.168839	10909.840823
496.535815	10843.592499
496.902733	10841.782725
497.269593	10773.200348
497.636395	10875.833199
498.003139	10854.945178
498.369825	10727.711496
498.736453	10890.281146
499.103023	10819.218520
499.469535	10847.693478
499.835989	10834.861221
500.202385	10791.978646
500.568723	10645.018929
500.935003	10867.104441
501.301226	10678.764413
501.667390	10934.610532
502.033497	11028.106292
502.399546	10887.158151
502.765537	10796.263626
503.131470	10868.848680
503.497345	11048.379292
503.863163	10656.502677
504.228923	10975.249794
504.594625	11028.496981
504.960269	10777.676892
505.325856	10998.512198
505.691385	10796.510643
506.056856	10945.060844
506.422270	10975.890020
506.787625	10863.182423
507.152924	10978.468570
507.518164	10958.780344
507.883347	10884.544312
508.248472	10802.943155
508.613540	11032.907991
508.978550	10912.343755
509.343503	10894.311548
509.708398	11012.100628
510.073236	11130.885336
510.438016	11125.229162
510.802738	11071.964330
511.167403	11124.961981
511.532010	11023.571774
511.896561	11261.277301
512.261053	11323.961529
512.625488	11197.446211
512.989866	11176.656493
513.354186	11167.393373
513.718449	11068.047354
514.082655	11263.694534
514.446803	11162.543782
514.810894	11283.899479
515.174927	11148.234467
515.538904	11168.545276
515.902822	11330.257930
516.266684	11215.082688
516.630488	11152.471557
516.994235	11212.148736
517.357925	11274.215422
517.721558	11364.714216
518.085133	11372.704445
518.448651	11389.708257
518.812112	11267.881213
519.175516	11284.496856
519.538863	11404.211657
519.902152	11318.149078
520.265385	11483.778708
520.628560	11396.768393
520.991678	11368.119516
521.354739	11436.437233
521.717743	11372.326359
522.080690	11345.623367
522.443580	11479.957514
522.806413	11435.292891
523.169189	11468.007459
523.531908	11515.474963
523.894569	11338.306132
524.257174	11343.687564
524.619722	11466.943775
524.982213	11414.629201
525.344647	11464.748353
525.707025	11410.495455
526.069345	11512.296516
526.431608	11421.580952
526.793815	11535.937007
527.155964	11328.478402
527.518057	11374.738551
527.880093	11328.952271
528.242072	11392.059955
528.603995	11302.239197
528.965860	11220.844727
529.327669	11275.508478
529.689421	11226.137938
530.051117	11200.639782
530.412755	11304.192644
530.774337	11188.601507
531.135862	11175.295381
531.497331	11197.967971
531.858743	11045.263859
532.220098	11210.447347
532.581396	11083.939591
532.942638	11061.274563
533.303824	11027.365242
533.664953	11039.811851
534.026025	10952.592328
534.387040	11051.252750
534.747999	11059.739532
535.108902	11113.377409
535.469748	10869.433454
535.830537	10972.857766
536.191270	10961.507608
536.551947	10976.086625
536.912567	10973.911367
537.273131	10901.258258
537.633638	10878.073992
537.994089	10865.874399
538.354483	10821.658439
538.714821	10960.854779
539.075103	10969.381891
539.435328	10934.320666
539.795497	10759.947154
540.155609	10917.803325
540.515665	11008.597026
540.875665	10738.928063
541.235609	10809.264762
541.595496	10814.673920
541.955328	10963.657660
542.315102	10850.546771
542.674821	10793.846393
543.034483	10799.419389
543.394090	10798.257403
543.753640	10729.624614
544.113134	10952.713315
544.472571	10805.504061
544.831953	10950.979158
545.191278	10753.338201
545.550548	10779.774012
545.909761	10919.209807
546.268918	10896.065870
546.628019	10982.859415
546.987064	10844.270534
547.346053	10764.297670
547.704986	10858.657988
548.063863	10848.288334
548.422684	10844.177273
548.781449	10759.024623
549.140158	10865.816426
549.498811	10731.406662
549.857408	10593.394993
550.215949	10821.723974
550.574434	10672.926756
550.932864	10772.555080
551.291237	10827.392751
551.649555	10780.973807
552.007817	10785.283993
552.366022	10753.933058
552.724173	10742.751778
553.082267	10730.925231
553.440305	10861.105468
553.798288	10667.479790
554.156215	10822.916207
554.514086	10797.841507
554.871902	10649.278704
555.229661	10682.928406
555.587365	10660.344036
555.945014	10552.002078
556.302606	10680.307006
556.660143	10570.674512
557.017625	10726.778882
557.375050	10627.805909
557.732421	10764.464028
558.089735	10673.173773
558.446994	10674.524802
558.804197	10710.190966
559.161345	10713.487880
559.518437	10567.312063
559.875474	10654.372790
560.232455	10683.747593
560.589381	10631.183482
560.946251	10628.310024
561.303065	10736.329348
561.659825	10668.677064
562.016528	10598.849521
562.373177	10476.039452
562.729770	10596.654099
563.086307	10508.265028
563.442789	10609.279668
563.799216	10480.490791
564.155587	10529.866372
564.511904	10481.403239
564.868164	10474.968207
565.224370	10488.158386
565.580520	10406.869780
565.936615	10416.831100
566.292654	10285.640112
566.648638	10414.015615
567.004567	10379.493794
567.360441	10360.828922
567.716260	10266.387946
568.072023	10368.254541
568.427732	10319.166306
568.783385	10224.548889
569.138982	10288.906780
569.494525	10308.259769
569.850013	10186.286532
570.205445	10272.565880
570.560823	10162.497327
570.916145	10082.544627
571.271412	10153.955091
571.626625	10100.929715
571.981782	10077.085057
572.336884	10046.739831
572.691931	10059.191481
573.046923	9999.554631
573.401860	9958.754053
573.756743	9896.205936
574.111570	9937.989540
574.466342	9923.438249
574.821059	9946.859450
575.175722	9842.857926
575.530330	9850.336477
575.884882	9845.789357
576.239380	9773.085836
576.593823	9749.694882
576.948211	9763.111913
577.302544	9644.551536
577.656823	9664.779166
578.011047	9660.481582
578.365216	9632.054516
578.719330	9555.043329
579.073389	9566.358199
579.427394	9515.349284
579.781344	9489.523453
580.135239	9443.099467
580.489080	9446.832441
580.842866	9352.754428
581.196597	9355.234676
581.550273	9394.038958
581.903895	9367.827478
582.257463	9432.339124
582.610975	9314.227410
582.964434	9339.775978
583.317837	9259.450232
583.671186	9239.371317
584.024481	9235.219926
584.377721	9156.025920
584.730906	9129.254873
585.084037	9163.466663
585.437113	9100.812683
585.790135	9116.722564
586.143103	9021.159931
586.496016	8991.729675
586.848874	9052.243686
587.201679	9037.183239
587.554428	8923.905991
587.907124	8968.613464
588.259765	8943.044732
588.612352	8948.242161
588.964884	8820.640475
589.317362	8839.489349
589.669786	8838.292075
590.022155	8886.304025
590.374470	8902.062672
590.726731	8837.694699
591.078937	8690.765229
591.431090	8802.847723
591.783188	8677.920369
592.135232	8665.138523
592.487222	8668.206065
592.839157	8727.278306
593.191038	8656.273654
593.542866	8597.103111
593.894639	8502.778081
594.246358	8550.958909
594.598022	8566.979696
594.949633	8466.559911
595.301190	8437.525386
595.652692	8466.625446
596.004141	8579.443949
596.355535	8357.202161
596.706876	8333.072678
597.058162	8271.389120
597.409395	8344.548865
597.760573	8410.900532
598.111698	8320.784866
598.462768	8300.040518
598.813785	8267.343594
599.164748	8235.203717
599.515657	8222.978919
599.866511	8137.896845
600.217312	8260.780011
600.568060	8120.557797
600.918753	8228.229281
601.269392	8190.360133
601.619978	8101.464426
601.970510	8168.247112
602.320988	8159.987181
602.671412	8223.011687
603.021783	8154.441912
603.372100	8136.785271
603.722363	8133.107749
604.072572	8110.906508
604.422728	8124.275647
604.772830	8053.964154
605.122878	8056.666213
605.472872	8053.563382
605.822813	8082.086231
606.172701	8030.825258
606.522534	8104.209335
606.872314	8103.445600
607.222041	8076.354439
607.571714	8131.366030
607.921333	8090.762057
608.270899	8095.523427
608.620411	8180.416457
608.969870	8082.844925
609.319276	8077.181188
609.668627	8098.288499
610.017926	8130.120865
610.367171	8180.880243
610.716362	8155.979464
611.065500	8141.783575
611.414585	8168.272318
611.763616	8158.663878
612.112594	8137.060014
612.461518	8155.389649
612.810389	8213.821663
613.159207	8154.615832
613.507971	8105.149510
613.856682	8223.437664
614.205340	8178.720109
614.553945	8256.396728
614.902496	8151.477714
615.250994	8208.137762
615.599439	8190.458436
615.947830	8207.414357
616.296169	8172.622833
616.644454	8192.411883
616.992686	8185.349226
617.340864	8246.362311
617.688990	8151.777662
618.037063	8244.199656
618.385082	8189.969444
618.733048	8272.460365
619.080961	8208.011733
619.428821	8236.204386
619.776628	8233.802277
620.124382	8186.145729
620.472083	8163.460536
620.819731	8198.249539
621.167326	8089.448836
621.514868	8096.866894
621.862357	7985.225501
622.209793	8002.476329
622.557176	7941.175899
622.904506	7908.151300
623.251783	7841.479520
623.599007	7799.063251
623.946179	7808.107081
624.293297	7757.773681
624.640363	7678.801485
624.987376	7651.899368
625.334336	7602.899352
625.681243	7550.766260
626.028097	7539.330402
626.374899	7522.427413
626.721647	7513.287801
627.068343	7445.282636
627.414987	7415.675939
627.761577	7370.890329
628.108115	7407.693272
628.454600	7297.425594
628.801032	7350.821495
629.147412	7311.255999
629.493739	7297.443238
629.840014	7234.239771
630.186236	7290.158770
630.532405	7181.950403
630.878521	7228.145016
631.224585	7183.495517
631.570597	7107.479958
631.916556	7133.255377
632.262462	7134.946685
632.608316	7091.736434
632.954117	7074.336892
633.299866	7057.247380
633.645562	7050.855197
633.991206	6972.203115
634.336797	6914.242449
634.682336	6869.721498
635.027823	6837.755542
635.373257	6827.385888
635.718639	6760.462051
636.063968	6774.650378
636.409245	6669.587691
636.754470	6666.880591
637.099642	6626.266535
637.444762	6568.951137
637.789829	6580.142498
638.134845	6521.040010
638.479808	6504.056363
638.824719	6511.318145
639.169577	6439.960612
639.514383	6458.020546
639.859137	6391.560494
640.203839	6398.625672
640.548489	6383.061109
