Dividing Wavelength (nm)	Counts (n)	Blue Motor Position (mm): 0.000000	Red Motor Position (mm): 11.300000	
326.493990	2130.169805
326.888308	2130.169805
327.282561	2130.169805
327.676750	2097.208220
328.070874	2095.176635
328.464933	2097.273755
328.858929	2102.009919
329.252859	2111.504933
329.646726	2127.790380
330.040528	2137.822276
330.434265	2151.153608
330.827938	2171.663542
331.221547	2190.300688
331.615091	2207.932123
332.008571	2230.329970
332.401986	2250.000552
332.795338	2266.288520
333.188625	2285.812909
333.581847	2305.392751
333.975006	2321.988229
334.368100	2342.331805
334.761129	2359.953159
335.154095	2375.008565
335.546996	2393.305433
335.939833	2407.332443
336.332606	2420.951120
336.725315	2433.647266
337.117960	2444.049687
337.510540	2450.088989
337.903056	2464.741103
338.295508	2469.497432
338.687896	2480.388845
339.080220	2487.920328
339.472480	2496.797800
339.864676	2498.587410
340.256807	2502.706033
340.648875	2505.738287
341.040879	2509.025119
341.432818	2509.128463
341.824694	2510.842455
342.216506	2511.573422
342.608253	2513.594925
342.999937	2513.602487
343.391557	2514.093999
343.783113	2511.928824
344.174605	2509.418329
344.566033	2508.233658
344.957397	2509.231806
345.348697	2505.208966
345.739934	2505.072854
346.131106	2505.322392
346.522215	2501.440703
346.913260	2500.316526
347.304241	2497.445589
347.695159	2497.861484
348.086012	2494.103304
348.476802	2491.731441
348.867528	2490.889568
349.258191	2490.483755
349.648789	2485.326655
350.039324	2487.330513
350.429796	2485.493013
350.820203	2484.913280
351.210548	2485.999649
351.600828	2480.829946
351.991045	2482.354895
352.381198	2482.160810
352.771288	2480.832466
353.161314	2478.541262
353.551276	2479.042857
353.941175	2480.121663
354.331010	2481.145018
354.720782	2478.581591
355.110490	2481.082003
355.500135	2479.957826
355.889717	2480.053608
356.279235	2480.575367
356.668689	2482.226345
357.058080	2483.637868
357.447408	2480.146869
357.836672	2478.810963
358.225873	2481.641571
358.615010	2479.859523
359.004084	2485.969402
359.393095	2485.087200
359.782043	2481.825573
360.170927	2481.966726
360.559748	2487.726244
360.948505	2487.343116
361.337199	2487.040647
361.725830	2485.190544
362.114398	2489.278919
362.502903	2488.263127
362.891344	2490.428302
363.279722	2490.483755
363.668037	2490.277068
364.056289	2491.688591
364.444478	2491.948210
364.832603	2491.970896
365.220665	2492.159939
365.608665	2494.090701
365.996601	2492.553149
366.384474	2496.311329
366.772284	2496.157574
367.160031	2499.913233
367.547715	2500.326608
367.935336	2501.670076
368.322893	2504.757782
368.710388	2509.778772
369.097820	2515.608866
369.485189	2515.976870
369.872495	2522.605988
370.259738	2530.780218
370.646918	2537.384130
371.034035	2542.765562
371.421090	2552.628579
371.808081	2561.879097
372.195010	2570.194480
372.581875	2586.590833
372.968678	2598.424941
373.355418	2607.083123
373.742096	2625.420320
374.128710	2642.335912
374.515262	2659.150681
374.901751	2673.891014
375.288177	2685.321831
375.674540	2709.317723
376.060841	2725.315825
376.447079	2742.344842
376.833254	2766.313008
377.219367	2777.761469
377.605417	2814.934937
377.991404	2822.751246
378.377329	2844.554237
378.763191	2862.530991
379.148991	2899.407032
379.534727	2923.476021
379.920402	2951.232614
380.306013	2962.000518
380.691563	3013.168230
381.077049	3033.847043
381.462474	3051.322203
381.847835	3089.705548
382.233134	3108.856892
382.618371	3104.566870
383.003545	3170.777384
383.388657	3174.102025
383.773706	3201.813248
384.158693	3212.931513
384.543618	3231.913978
384.928480	3257.878441
385.313280	3293.229532
385.698017	3286.028244
386.082692	3323.695745
386.467305	3315.750887
386.851856	3334.841736
387.236344	3343.260463
387.620770	3353.229345
388.005133	3360.899461
388.389435	3368.138558
388.773674	3356.322093
389.157851	3377.502501
389.541965	3369.280379
389.926018	3321.901094
390.310008	3352.601721
390.693936	3348.140300
391.077802	3355.850745
391.461606	3319.493943
391.845348	3337.952128
392.229027	3310.830721
392.612645	3291.631486
392.996200	3311.659990
393.379694	3306.339053
393.763125	3313.991524
394.146494	3263.857249
394.529801	3263.239708
394.913047	3254.359715
395.296230	3205.972200
395.679351	3195.400900
396.062410	3171.120183
396.445408	3132.764564
396.828343	3112.347891
397.211217	3083.394024
397.594028	3024.382277
397.976778	3014.602438
398.359466	2992.630569
398.742092	2969.468988
399.124656	2920.963006
399.507158	2912.902201
399.889598	2891.326062
400.271977	2878.261912
400.654294	2846.903414
401.036549	2818.620021
401.418742	2791.748150
401.800874	2783.064763
402.182944	2763.840322
402.564952	2748.666449
402.946898	2728.879921
403.328783	2707.659183
403.710606	2685.052129
404.092367	2682.660102
404.474067	2661.603202
404.855705	2649.816984
405.237282	2632.203193
405.618797	2623.890330
406.000250	2614.289452
406.381642	2605.880808
406.762972	2594.870928
407.144240	2588.002356
407.525447	2582.139494
407.906593	2568.500652
408.287677	2565.846485
408.668700	2560.122254
409.049661	2553.757798
409.430560	2549.490461
409.811399	2546.460727
410.192176	2544.736653
410.572891	2540.502084
410.953545	2537.454706
411.334138	2536.252391
411.714669	2530.147554
412.095139	2528.587317
412.475547	2529.819879
412.855894	2525.628159
413.236180	2527.435413
413.616405	2526.459950
413.996568	2528.592358
414.376670	2527.541277
414.756711	2523.407531
415.136691	2527.213602
415.516609	2524.516585
415.896466	2525.731503
416.276262	2525.466842
416.655997	2520.687828
417.035670	2519.440143
417.415283	2524.158663
417.794834	2519.863600
418.174324	2523.435257
418.553753	2522.560617
418.933121	2523.349558
419.312428	2524.083046
419.691674	2523.586492
420.070859	2525.734023
420.449983	2524.463653
420.829045	2523.722603
421.208047	2524.400638
421.586988	2525.761750
421.965867	2526.417100
422.344686	2523.173117
422.723444	2524.579599
423.102141	2523.820906
423.480777	2525.061029
423.859352	2522.643796
424.237866	2525.572707
424.616319	2525.847449
424.994712	2525.998684
425.373044	2525.401307
425.751314	2526.533046
426.129524	2526.028931
426.507673	2527.143026
426.885762	2525.043385
427.263789	2526.714528
427.641756	2526.800228
428.019662	2528.630166
428.397508	2526.132275
428.775292	2526.512882
429.153016	2522.174969
429.530679	2528.589837
429.908282	2526.301153
430.285824	2525.494569
430.663305	2526.543129
431.040726	2526.296112
431.418086	2527.241328
431.795385	2527.344672
432.172624	2526.696884
432.549802	2525.353416
432.926920	2529.993798
433.303977	2528.665454
433.680974	2529.514889
434.057910	2528.022707
434.434786	2529.247708
434.811601	2527.717717
435.188355	2530.772657
435.565050	2527.674868
435.941683	2528.325177
436.318257	2528.620084
436.694770	2524.854342
437.071222	2527.947090
437.447614	2525.555063
437.823946	2527.722759
438.200218	2528.708304
438.576429	2527.385001
438.952580	2530.059333
439.328670	2530.639066
439.704700	2528.393232
440.080670	2528.773839
440.456580	2528.413397
440.832429	2529.708973
441.208218	2530.747451
441.583947	2529.754344
441.959616	2529.351051
442.335224	2529.162008
442.710773	2531.790970
443.086261	2531.160826
443.461689	2529.996319
443.837057	2532.287523
444.212365	2531.498583
444.587612	2530.860877
444.962800	2529.043541
445.337927	2532.680733
445.712995	2528.042872
446.088002	2532.463964
446.462949	2533.462112
446.837837	2530.094622
447.212664	2529.451874
447.587431	2534.359438
447.962139	2532.085877
448.336786	2534.319108
448.711374	2534.558563
449.085901	2535.952442
449.460369	2533.010929
449.834776	2531.884231
450.209124	2533.371372
450.583412	2536.438914
450.957640	2535.614685
451.331808	2536.078471
451.705917	2531.891793
452.079965	2534.669469
452.453954	2536.481763
452.827883	2533.111752
453.201752	2533.842719
453.575562	2535.430683
453.949311	2535.009747
454.323001	2534.780374
454.696632	2531.657379
455.070202	2536.496887
455.443713	2535.642411
455.817164	2532.242153
456.190556	2533.694005
456.563888	2533.394057
456.937160	2530.132430
457.310373	2534.419932
457.683526	2533.021011
458.056619	2536.640560
458.429653	2536.859850
458.802628	2538.881353
459.175542	2535.740714
459.548398	2535.619726
459.921194	2534.732483
460.293930	2538.107536
460.666607	2537.747093
461.039224	2538.336908
461.411782	2540.857485
461.784280	2541.565767
462.156719	2539.776158
462.529099	2538.130221
462.901419	2538.596528
463.273680	2536.179294
463.645882	2540.902855
464.018024	2536.955632
464.390106	2541.270860
464.762130	2541.386806
465.134094	2540.270191
465.505999	2543.609955
465.877845	2546.680018
466.249631	2548.479710
466.621358	2544.174564
466.993026	2544.126673
467.364634	2546.596839
467.736184	2544.719009
468.107674	2544.240099
468.479105	2541.379244
468.850477	2542.480737
469.221790	2544.169523
469.593043	2540.759183
469.964238	2544.640871
470.335373	2540.628113
470.706449	2542.611807
471.077467	2542.168185
471.448425	2541.958977
471.819324	2546.816129
472.190164	2545.633978
472.560945	2543.277239
472.931667	2543.856972
473.302330	2541.938812
473.672934	2541.659028
474.043479	2542.737835
474.413965	2540.930582
474.784393	2539.269522
475.154761	2539.927392
475.525070	2538.092412
475.895321	2540.670962
476.265513	2538.021836
476.635645	2545.596170
477.005719	2543.836807
477.375734	2543.342774
477.745691	2544.719009
478.115588	2542.195911
478.485427	2544.645912
478.855207	2546.702703
479.224928	2546.072559
479.594591	2546.982487
479.964194	2545.132383
480.333739	2547.206818
480.703226	2547.075748
481.072653	2545.928886
481.442022	2545.737322
481.811333	2547.728578
482.180584	2545.505429
482.549777	2544.275387
482.918912	2548.923331
483.287988	2547.181612
483.657005	2547.244627
484.025964	2545.384441
484.394864	2546.382590
484.763706	2545.684390
485.132489	2548.388969
485.501213	2546.329658
485.869879	2544.608103
486.238487	2543.763710
486.607036	2545.674307
486.975527	2544.812270
487.343959	2546.070038
487.712333	2544.363608
488.080648	2545.916283
488.448905	2546.246478
488.817104	2545.860830
489.185244	2545.938968
489.553326	2547.166489
489.921350	2547.131201
490.289315	2548.555327
490.657222	2550.551624
491.025070	2551.096068
491.392861	2550.256716
491.760593	2548.993907
492.128267	2551.091027
492.495883	2548.386448
492.863440	2547.635316
493.230939	2546.523742
493.598380	2545.639019
493.965763	2541.596014
494.333088	2546.259081
494.700354	2544.754297
495.067563	2544.973587
495.434713	2541.500232
495.801805	2548.671273
496.168839	2547.965512
496.535815	2545.969215
496.902733	2545.974256
497.269593	2547.302600
497.636395	2548.436860
498.003139	2550.586912
498.369825	2546.528783
498.736453	2550.549103
499.103023	2545.074410
499.469535	2547.383259
499.835989	2547.612631
500.202385	2549.371994
500.568723	2546.695141
500.935003	2547.242106
501.301226	2544.149358
501.667390	2545.944009
502.033497	2545.621375
502.399546	2546.117929
502.765537	2548.346119
503.131470	2549.906356
503.497345	2547.315203
503.863163	2547.179092
504.228923	2546.143135
504.594625	2549.626572
504.960269	2544.819832
505.325856	2549.616490
505.691385	2545.276056
506.056856	2547.607590
506.422270	2545.981818
506.787625	2547.254709
507.152924	2547.887374
507.518164	2548.325954
507.883347	2547.100954
508.248472	2548.457024
508.613540	2550.004659
508.978550	2544.968546
509.343503	2547.244627
509.708398	2548.126829
510.073236	2548.225131
510.438016	2548.089020
510.802738	2545.336550
511.167403	2547.269833
511.532010	2547.121119
511.896561	2549.762683
512.261053	2550.801161
512.625488	2544.600542
512.989866	2540.272711
513.354186	2546.881664
513.718449	2544.603062
514.082655	2547.995759
514.446803	2548.666232
514.810894	2546.586756
515.174927	2550.680173
515.538904	2546.639688
515.902822	2546.697662
516.266684	2547.017775
516.630488	2548.005841
516.994235	2548.721685
517.357925	2547.226983
517.721558	2548.305790
518.085133	2548.913249
518.448651	2547.892415
518.812112	2550.130687
519.175516	2550.488609
519.538863	2548.449463
519.902152	2549.417364
520.265385	2550.145811
520.628560	2550.324772
520.991678	2549.808054
521.354739	2546.027188
521.717743	2553.160421
522.080690	2549.240924
522.443580	2549.966850
522.806413	2552.852911
523.169189	2549.581202
523.531908	2548.041129
523.894569	2552.406768
524.257174	2549.051881
524.619722	2550.007179
524.982213	2549.727395
525.344647	2548.255378
525.707025	2549.127498
526.069345	2549.281253
526.431608	2547.481561
526.793815	2550.239072
527.155964	2551.733774
527.518057	2549.782848
527.880093	2551.885009
528.242072	2550.279402
528.603995	2547.960471
528.965860	2549.258568
529.327669	2549.513146
529.689421	2549.671942
530.051117	2550.594474
530.412755	2548.699000
530.774337	2551.781665
531.135862	2548.683876
531.497331	2548.641027
531.858743	2547.731098
532.220098	2549.739998
532.581396	2544.300593
532.942638	2547.973074
533.303824	2548.232693
533.664953	2549.112374
534.026025	2548.174720
534.387040	2551.038095
534.747999	2551.708569
535.108902	2550.256716
535.469748	2549.767724
535.830537	2549.555996
536.191270	2550.150852
536.551947	2549.072045
536.912567	2550.602035
537.273131	2548.751932
537.633638	2547.131201
537.994089	2554.675288
538.354483	2549.293856
538.714821	2551.733774
539.075103	2548.792261
539.435328	2551.627910
539.795497	2550.765873
540.155609	2550.463404
540.515665	2550.037426
540.875665	2552.038764
541.235609	2548.283105
541.595496	2550.811243
541.955328	2548.308310
542.315102	2549.903836
542.674821	2553.656975
543.034483	2550.516336
543.394090	2550.591953
543.753640	2551.564896
544.113134	2550.833928
544.472571	2548.454504
544.831953	2550.539021
545.191278	2551.849721
545.550548	2550.758311
545.909761	2551.075904
546.268918	2550.196223
546.628019	2548.298228
546.987064	2548.872920
547.346053	2549.039278
547.704986	2549.482899
548.063863	2551.078424
548.422684	2549.253527
548.781449	2549.616490
549.140158	2550.992725
549.498811	2550.533980
549.857408	2549.941644
550.215949	2547.746222
550.574434	2548.537683
550.932864	2547.784030
551.291237	2550.297046
551.649555	2549.608928
552.007817	2553.460370
552.366022	2552.285781
552.724173	2551.138918
553.082267	2550.987684
553.440305	2550.264278
553.798288	2550.493651
554.156215	2548.696479
554.514086	2550.440718
554.871902	2548.197405
555.229661	2548.729247
555.587365	2547.148845
555.945014	2550.171017
556.302606	2549.893753
556.660143	2550.014741
557.017625	2552.144628
557.375050	2551.075904
557.732421	2551.249824
558.089735	2550.365101
558.446994	2550.193702
558.804197	2551.549772
559.161345	2551.201933
559.518437	2552.595812
559.875474	2552.285781
560.232455	2550.544062
560.589381	2550.150852
560.946251	2555.171841
561.303065	2551.771583
561.659825	2551.252344
562.016528	2552.515153
562.373177	2551.373332
562.729770	2550.171017
563.086307	2554.007335
563.442789	2551.161603
563.799216	2550.443239
564.155587	2549.508105
564.511904	2553.079762
564.868164	2549.566078
565.224370	2552.303425
565.580520	2551.186809
565.936615	2551.418702
566.292654	2548.782179
566.648638	2549.676984
567.004567	2544.890408
567.360441	2550.922149
567.716260	2551.469114
568.072023	2551.033054
568.427732	2547.481561
568.783385	2547.988197
569.138982	2546.122970
569.494525	2550.201264
569.850013	2546.619524
570.205445	2548.343598
570.560823	2551.869886
570.916145	2551.383414
571.271412	2553.152859
571.626625	2549.543393
571.981782	2552.177396
572.336884	2551.718651
572.691931	2549.271171
573.046923	2550.513815
573.401860	2552.888199
573.756743	2549.419885
574.111570	2552.253013
574.466342	2552.953734
574.821059	2550.168496
575.175722	2550.846531
575.530330	2549.641696
575.884882	2551.930379
576.239380	2546.193546
576.593823	2553.745195
576.948211	2548.111705
577.302544	2548.809905
577.656823	2552.152190
578.011047	2550.881819
578.365216	2552.900802
578.719330	2549.220759
579.073389	2549.760163
579.427394	2550.387786
579.781344	2550.055070
580.135239	2551.915256
580.489080	2550.833928
580.842866	2549.563558
581.196597	2552.285781
581.550273	2549.182951
581.903895	2550.047508
582.257463	2550.385266
582.610975	2549.530790
582.964434	2547.279915
583.317837	2552.305945
583.671186	2549.908877
584.024481	2549.119936
584.377721	2553.495658
584.730906	2546.778320
585.084037	2548.600697
585.437113	2548.247817
585.790135	2548.910728
586.143103	2548.693959
586.496016	2550.171017
586.848874	2546.062476
587.201679	2547.428629
587.554428	2546.672456
587.907124	2549.082128
588.259765	2545.200439
588.612352	2549.581202
588.964884	2549.808054
589.317362	2547.922662
589.669786	2547.839483
590.022155	2549.029195
590.374470	2550.239072
590.726731	2551.791748
591.078937	2549.800492
591.431090	2548.832590
591.783188	2548.520039
592.135232	2549.200595
592.487222	2546.831252
592.839157	2549.871068
593.191038	2548.883002
593.542866	2548.963660
593.894639	2544.091385
594.246358	2548.789741
594.598022	2549.805533
594.949633	2549.003990
595.301190	2549.251006
595.652692	2549.251006
596.004141	2550.854093
596.355535	2548.252858
596.706876	2547.617672
597.058162	2548.741850
597.409395	2550.443239
597.760573	2548.699000
598.111698	2546.737991
598.462768	2547.254709
598.813785	2548.762014
599.164748	2547.683207
599.515657	2545.812939
599.866511	2549.145142
600.217312	2545.449976
600.568060	2545.828063
600.918753	2550.380225
601.269392	2548.182282
601.619978	2546.985007
601.970510	2548.900646
602.320988	2547.103475
602.671412	2547.589946
603.021783	2547.035419
603.372100	2550.662529
603.722363	2548.288146
604.072572	2547.884853
604.422728	2550.793599
604.772830	2545.303783
605.122878	2544.237579
605.472872	2547.095913
605.822813	2543.526776
606.172701	2545.361756
606.522534	2544.131714
606.872314	2551.577499
607.222041	2545.339071
607.571714	2549.664381
607.921333	2549.997097
608.270899	2544.114070
608.620411	2549.054401
608.969870	2550.430636
609.319276	2548.094061
609.668627	2551.280071
610.017926	2553.072201
610.367171	2557.397511
610.716362	2553.294012
611.065500	2554.695452
611.414585	2551.179248
611.763616	2552.046326
612.112594	2548.303269
612.461518	2549.558517
612.810389	2548.819988
613.159207	2553.553631
613.507971	2548.008362
613.856682	2551.711089
614.205340	2550.274360
614.553945	2550.662529
614.902496	2548.215049
615.250994	2547.176571
615.599439	2549.944165
615.947830	2550.491130
616.296169	2547.905018
616.644454	2547.355532
616.992686	2546.622044
617.340864	2547.353012
617.688990	2550.047508
618.037063	2546.299411
618.385082	2548.512477
618.733048	2548.318393
619.080961	2546.390151
619.428821	2551.118754
619.776628	2545.918803
620.124382	2550.251675
620.472083	2546.059956
620.819731	2546.551468
621.167326	2547.247147
621.514868	2548.542724
621.862357	2549.288815
622.209793	2546.783361
622.557176	2546.223793
622.904506	2545.412167
623.251783	2541.989224
623.599007	2544.535007
623.946179	2541.717002
624.293297	2545.245809
624.640363	2548.699000
624.987376	2547.569781
625.334336	2547.839483
625.681243	2547.531973
626.028097	2545.762528
626.374899	2548.328475
626.721647	2548.378887
627.068343	2546.932075
627.414987	2545.157589
627.761577	2547.330327
628.108115	2542.947043
628.454600	2547.726057
628.801032	2545.369318
629.147412	2545.966694
629.493739	2543.741025
629.840014	2548.051212
630.186236	2544.708927
630.532405	2544.860161
630.878521	2547.562220
631.224585	2545.187836
631.570597	2546.312013
631.916556	2547.305121
632.262462	2545.586087
632.608316	2544.028371
632.954117	2541.792619
633.299866	2545.911242
633.645562	2544.696324
633.991206	2545.641540
634.336797	2545.112219
634.682336	2546.821170
635.027823	2543.972918
635.373257	2546.392672
635.718639	2544.398896
636.063968	2544.862682
636.409245	2544.285470
636.754470	2545.802857
637.099642	2547.398382
637.444762	2544.492157
637.789829	2541.974101
638.134845	2543.524255
638.479808	2544.552651
638.824719	2544.678680
639.169577	2545.797816
639.514383	2545.132383
639.859137	2545.898639
640.203839	2545.565923
640.548489	2543.632640
640.893086	2539.272042
641.237632	2538.036959
641.582125	2541.913607
641.926566	2538.299099
642.270955	2541.096940
642.615292	2542.354708
642.959576	2545.923845
643.303809	2544.126673
643.647990	2543.511652
643.992118	2546.120450
644.336195	2543.088196
