Dividing Wavelength (nm)	Counts (n)	Blue Motor Position (mm): 0.000000	Red Motor Position (mm): 19.100000	
326.493990	2127.233333
326.888308	2127.233333
327.282561	2127.233333
327.676750	2096.774681
328.070874	2094.740575
328.464933	2097.051944
328.858929	2105.465630
329.252859	2112.732453
329.646726	2122.729062
330.040528	2137.809673
330.434265	2154.213588
330.827938	2171.986176
331.221547	2190.943435
331.615091	2207.417926
332.008571	2228.081615
332.401986	2246.968298
332.795338	2265.330701
333.188625	2285.076901
333.581847	2304.455096
333.975006	2324.206337
334.368100	2341.411795
334.761129	2358.871831
335.154095	2377.735829
335.546996	2392.216543
335.939833	2407.476116
336.332606	2425.299115
336.725315	2436.266146
337.117960	2446.330809
337.510540	2453.499330
337.903056	2465.986268
338.295508	2471.186218
338.687896	2479.914976
339.080220	2489.495689
339.472480	2495.598006
339.864676	2500.084633
340.256807	2505.312309
340.648875	2507.185098
341.040879	2511.086951
341.432818	2509.869512
341.824694	2512.087620
342.216506	2514.701458
342.608253	2515.480317
342.999937	2515.707168
343.391557	2514.061232
343.783113	2509.166271
344.174605	2509.486385
344.566033	2509.307424
344.957397	2510.812208
345.348697	2506.345746
345.739934	2505.758451
346.131106	2502.796773
346.522215	2504.241064
346.913260	2499.462050
347.304241	2501.249139
347.695159	2494.990547
348.086012	2495.585403
348.476802	2493.233705
348.867528	2492.782521
349.258191	2490.055257
349.648789	2489.374701
350.039324	2486.665081
350.429796	2487.973261
350.820203	2485.263640
351.210548	2481.850779
351.600828	2485.384628
351.991045	2485.500575
352.381198	2480.663588
352.771288	2483.252220
353.161314	2481.069400
353.551276	2482.503609
353.941175	2481.654174
354.331010	2479.804071
354.720782	2481.397075
355.110490	2483.002683
355.500135	2480.535038
355.889717	2484.724237
356.279235	2482.470841
356.668689	2483.716006
357.058080	2482.153248
357.447408	2480.852631
357.836672	2479.037815
358.225873	2483.436222
358.615010	2481.248361
359.004084	2485.319093
359.393095	2485.583754
359.782043	2485.384628
360.170927	2485.200626
360.559748	2486.357571
360.948505	2489.898981
361.337199	2486.932262
361.725830	2489.825885
362.114398	2491.842346
362.502903	2491.968375
362.891344	2493.142964
363.279722	2491.335710
363.668037	2494.350320
364.056289	2492.845536
364.444478	2494.781339
364.832603	2494.304950
365.220665	2494.771257
365.608665	2494.231853
365.996601	2498.466422
366.384474	2500.971876
366.772284	2499.068840
367.160031	2500.218223
367.547715	2501.274345
367.935336	2507.182577
368.322893	2507.190139
368.710388	2509.998062
369.097820	2517.882426
369.485189	2520.836543
369.872495	2526.512882
370.259738	2533.910775
370.646918	2538.606610
371.034035	2548.051212
371.421090	2555.779300
371.808081	2569.776064
372.195010	2572.815880
372.581875	2590.094435
372.968678	2601.137082
373.355418	2612.819956
373.742096	2631.880559
374.128710	2644.009575
374.515262	2660.526916
374.901751	2677.316478
375.288177	2688.712007
375.674540	2712.138249
376.060841	2729.658779
376.447079	2748.253075
376.833254	2769.892228
377.219367	2782.386727
377.605417	2819.166986
377.991404	2827.840291
378.377329	2850.696883
378.763191	2869.099615
379.148991	2904.133113
379.534727	2928.791918
379.920402	2960.417596
380.306013	2970.973772
380.691563	3022.325486
381.077049	3042.331305
381.462474	3059.022565
381.847835	3098.784666
382.233134	3120.494395
382.618371	3121.842904
383.003545	3187.589632
383.388657	3194.811085
383.773706	3231.548494
384.158693	3246.044332
384.543618	3271.416459
384.928480	3305.978610
385.313280	3350.282791
385.698017	3351.507791
386.082692	3402.763723
386.467305	3411.207655
386.851856	3440.988272
387.236344	3464.144812
387.620770	3493.438957
388.005133	3521.787886
388.389435	3548.188408
388.773674	3562.764905
389.157851	3601.717900
389.541965	3616.392699
389.926018	3581.109663
390.310008	3653.692197
390.693936	3671.563087
391.077802	3713.311403
391.461606	3702.404866
391.845348	3762.782766
392.229027	3761.774535
392.612645	3774.667286
392.996200	3853.543700
393.379694	3892.897467
393.763125	3957.066314
394.146494	3924.601284
394.529801	3988.213083
394.913047	4034.337121
395.296230	4001.698170
395.679351	4056.707241
396.062410	4078.111980
396.445408	4060.699835
396.828343	4093.212756
397.211217	4116.288638
397.594028	4037.901216
397.976778	4101.712142
398.359466	4131.185248
398.742092	4156.527128
399.124656	4077.123914
399.507158	4162.150535
399.889598	4184.147610
400.271977	4246.148761
400.654294	4215.924523
401.036549	4223.128332
401.418742	4191.820246
401.800874	4292.892860
402.182944	4315.671314
402.564952	4379.192373
402.946898	4367.920353
403.328783	4364.091597
403.710606	4279.518679
404.092367	4464.062718
404.474067	4431.413686
404.855705	4438.640180
405.237282	4365.243500
405.618797	4471.952124
406.000250	4504.545704
406.381642	4586.219958
406.762972	4546.626736
407.144240	4551.781316
407.525447	4548.590266
407.906593	4601.275364
408.287677	4640.225840
408.668700	4569.342175
409.049661	4611.879432
409.430560	4641.806241
409.811399	4562.697935
410.192176	4707.787383
410.572891	4644.054596
410.953545	4724.390424
411.334138	4605.930870
411.714669	4655.939116
412.095139	4548.073547
412.475547	4659.541021
412.855894	4627.630517
413.236180	4619.363024
413.616405	4557.054363
413.996568	4621.954177
414.376670	4550.561357
414.756711	4489.008868
415.136691	4499.708717
415.516609	4547.624885
415.896466	4556.605700
416.276262	4558.838931
416.655997	4517.607334
417.035670	4638.741220
417.415283	4687.136297
417.794834	4607.924646
418.174324	4542.210685
418.553753	4438.393163
418.933121	4545.926016
419.312428	4564.817740
419.691674	4484.101305
420.070859	4533.940672
420.449983	4433.505764
420.829045	4471.374912
421.208047	4368.031258
421.586988	4370.743399
421.965867	4335.306608
422.344686	4368.331207
422.723444	4239.731372
423.102141	4086.979370
423.480777	4215.894276
423.859352	4033.989281
424.237866	4130.217346
424.616319	4078.850509
424.994712	4094.830967
425.373044	3978.786126
425.751314	3992.886233
426.129524	3853.715099
426.507673	3890.926376
426.885762	3889.272877
427.263789	3798.774084
427.641756	3710.221175
428.019662	3707.067933
428.397508	3664.729803
428.775292	3591.665840
429.153016	3579.524221
429.530679	3510.321781
429.908282	3492.077845
430.285824	3414.567584
430.663305	3442.989610
431.040726	3328.298319
431.418086	3286.061011
431.795385	3274.998199
432.172624	3239.851274
432.549802	3201.601520
432.926920	3166.676406
433.303977	3132.073926
433.680974	3102.638628
434.057910	3070.166036
434.434786	3037.786705
434.811601	3003.446365
435.188355	3007.242354
435.565050	2959.366516
435.941683	2931.446085
436.318257	2923.216401
436.694770	2892.281361
437.071222	2871.327805
437.447614	2836.508555
437.823946	2807.436221
438.200218	2801.777526
438.576429	2771.439862
438.952580	2755.875299
439.328670	2743.292579
439.704700	2720.093189
440.080670	2706.071220
440.456580	2701.771116
440.832429	2683.345698
441.208218	2665.910868
441.583947	2658.722182
441.959616	2647.513177
442.335224	2637.675365
442.710773	2630.169087
443.086261	2620.177520
443.461689	2610.944647
443.837057	2605.429625
444.212365	2602.069696
444.587612	2594.444950
444.962800	2590.167531
445.337927	2584.607139
445.712995	2576.362332
446.088002	2578.658577
446.462949	2572.785633
446.837837	2569.755899
447.212664	2568.351938
447.587431	2565.274314
447.962139	2571.379151
448.336786	2578.356108
448.711374	2572.684810
449.085901	2564.553429
449.460369	2559.724003
449.834776	2557.747871
450.209124	2557.548745
450.583412	2560.830537
450.957640	2564.223233
451.331808	2559.108983
451.705917	2555.252500
452.079965	2555.882644
452.453954	2553.167983
452.827883	2552.739485
453.201752	2552.091696
453.575562	2551.050698
453.949311	2551.852242
454.323001	2551.373332
454.696632	2549.215718
455.070202	2553.205791
455.443713	2548.406613
455.817164	2546.725388
456.190556	2547.511808
456.563888	2549.011551
456.937160	2548.646068
457.310373	2552.200081
457.683526	2550.712941
458.056619	2551.655637
458.429653	2550.191181
458.802628	2552.792417
459.175542	2549.732436
459.548398	2552.192519
459.921194	2550.362581
460.293930	2553.538508
460.666607	2554.461039
461.039224	2555.106306
461.411782	2557.442881
461.784280	2556.651420
462.156719	2555.330638
462.529099	2557.042109
462.901419	2556.565720
463.273680	2552.621017
463.645882	2555.247459
464.018024	2556.893395
464.390106	2555.161759
464.762130	2557.765515
465.134094	2559.015721
465.505999	2564.485373
465.877845	2567.305899
466.249631	2571.684141
466.621358	2571.646332
466.993026	2571.227916
467.364634	2570.713719
467.736184	2565.291958
468.107674	2563.739282
468.479105	2563.678788
468.850477	2561.369940
469.221790	2562.846998
469.593043	2558.378015
469.964238	2559.406411
470.335373	2562.789025
470.706449	2563.212482
471.077467	2561.259035
471.448425	2567.976372
471.819324	2572.949470
472.190164	2574.371076
472.560945	2567.842782
472.931667	2565.662482
473.302330	2560.734755
473.672934	2561.402708
474.043479	2563.343552
474.413965	2563.643500
474.784393	2559.426575
475.154761	2561.223747
475.525070	2560.157542
475.895321	2562.809189
476.265513	2561.105279
476.635645	2566.403532
477.005719	2565.150805
477.375734	2569.345045
477.745691	2568.631722
478.115588	2568.339335
478.485427	2570.628019
478.855207	2572.021898
479.224928	2577.231931
479.594591	2580.244020
479.964194	2578.759400
480.333739	2577.693196
480.703226	2578.003227
481.072653	2581.521952
481.442022	2581.171592
481.811333	2581.002714
482.180584	2580.591860
482.549777	2578.807291
482.918912	2579.795357
483.287988	2578.164544
483.657005	2579.475244
484.025964	2577.965418
484.394864	2575.275963
484.763706	2578.328382
485.132489	2576.843762
485.501213	2577.186560
485.869879	2577.683114
486.238487	2576.495922
486.607036	2573.420818
486.975527	2574.902917
487.343959	2571.825293
487.712333	2575.064234
488.080648	2575.528021
488.448905	2572.246229
488.817104	2576.228741
489.185244	2575.570870
489.553326	2575.167578
489.921350	2578.968608
490.289315	2582.676377
490.657222	2582.971284
491.025070	2583.709813
491.392861	2582.535224
491.760593	2580.760738
492.128267	2578.519945
492.495883	2579.336612
492.863440	2576.682445
493.230939	2573.718246
493.598380	2571.613565
493.965763	2568.891342
494.333088	2569.879408
494.700354	2570.086095
495.067563	2571.177505
495.434713	2567.149623
495.801805	2570.101218
496.168839	2571.487536
496.535815	2571.142217
496.902733	2571.905952
497.269593	2574.489543
497.636395	2572.321847
498.003139	2569.221537
498.369825	2572.205900
498.736453	2573.297310
499.103023	2571.565674
499.469535	2572.677248
499.835989	2568.888821
500.202385	2570.859912
500.568723	2570.254974
500.935003	2571.442165
501.301226	2567.870508
501.667390	2573.065417
502.033497	2572.336970
502.399546	2572.508369
502.765537	2570.701116
503.131470	2568.636763
503.497345	2572.977197
503.863163	2572.959553
504.228923	2569.201373
504.594625	2570.938050
504.960269	2572.495767
505.325856	2573.718246
505.691385	2568.220868
506.056856	2573.884604
506.422270	2572.883935
506.787625	2573.597259
507.152924	2570.963256
507.518164	2572.160530
507.883347	2571.545509
508.248472	2573.962742
508.613540	2574.509707
508.978550	2571.147258
509.343503	2571.810170
509.708398	2572.573904
510.073236	2573.451065
510.438016	2575.263360
510.802738	2575.490212
511.167403	2576.987435
511.532010	2572.092474
511.896561	2575.616241
512.261053	2578.000707
512.625488	2571.364027
512.989866	2572.505849
513.354186	2573.287228
513.718449	2568.785477
514.082655	2575.901066
514.446803	2575.936354
514.810894	2572.710016
515.174927	2577.816704
515.538904	2574.650860
515.902822	2575.167578
516.266684	2573.443503
516.630488	2572.213462
516.994235	2575.132290
517.357925	2577.970460
517.721558	2577.899883
518.085133	2572.878894
518.448651	2576.720253
518.812112	2574.958370
519.175516	2576.531210
519.538863	2575.621282
519.902152	2577.219328
520.265385	2579.578588
520.628560	2578.194791
520.991678	2578.368711
521.354739	2576.145562
521.717743	2577.998186
522.080690	2577.196642
522.443580	2576.475758
522.806413	2578.986252
523.169189	2578.318299
523.531908	2575.782599
523.894569	2573.985427
524.257174	2577.448700
524.619722	2576.369893
524.982213	2578.600604
525.344647	2574.658422
525.707025	2578.565316
526.069345	2576.498443
526.431608	2577.194122
526.793815	2574.474419
527.155964	2578.346026
527.518057	2578.303176
527.880093	2576.954667
528.242072	2576.385017
528.603995	2576.521128
528.965860	2576.160685
529.327669	2578.681262
529.689421	2576.085068
530.051117	2577.115984
530.412755	2576.102712
530.774337	2575.364183
531.135862	2576.909297
531.497331	2575.336457
531.858743	2571.729511
532.220098	2576.435428
532.581396	2569.498801
532.942638	2571.323698
533.303824	2576.601786
533.664953	2576.112794
534.026025	2576.785788
534.387040	2576.528690
534.747999	2578.744277
535.108902	2577.186560
535.469748	2575.953998
535.830537	2575.797722
536.191270	2576.226220
536.551947	2576.692527
536.912567	2575.643967
537.273131	2574.247567
537.633638	2572.306723
537.994089	2576.621951
538.354483	2574.691189
538.714821	2576.639595
539.075103	2577.395768
539.435328	2576.841241
539.795497	2574.557598
540.155609	2577.178998
540.515665	2576.296797
540.875665	2577.292424
541.235609	2575.681776
541.595496	2576.392578
541.955328	2573.990469
542.315102	2576.465675
542.674821	2576.684965
543.034483	2578.169585
543.394090	2575.646488
543.753640	2576.309399
544.113134	2575.386868
544.472571	2575.170099
544.831953	2578.598083
545.191278	2578.351067
545.550548	2575.671693
545.909761	2575.041549
546.268918	2575.026426
546.628019	2576.637074
546.987064	2571.379151
547.346053	2575.729667
547.704986	2573.403174
548.063863	2574.613051
548.422684	2574.950808
548.781449	2574.398802
549.140158	2576.780747
549.498811	2576.372414
549.857408	2573.619944
550.215949	2571.298492
550.574434	2569.949984
550.932864	2572.581466
551.291237	2571.142217
551.649555	2577.302507
552.007817	2574.809656
552.366022	2576.102712
552.724173	2574.769327
553.082267	2577.390727
553.440305	2574.943247
553.798288	2573.476271
554.156215	2577.509194
554.514086	2577.700758
554.871902	2576.727815
555.229661	2575.119687
555.587365	2574.751683
555.945014	2574.882753
556.302606	2574.514749
556.660143	2574.600448
557.017625	2577.234451
557.375050	2574.723957
557.732421	2573.173802
558.089735	2575.291086
558.446994	2575.011302
558.804197	2575.757393
559.161345	2575.152455
559.518437	2576.768144
559.875474	2570.701116
560.232455	2576.538772
560.589381	2576.042218
560.946251	2577.315110
561.303065	2576.377455
561.659825	2574.595407
562.016528	2575.477609
562.373177	2575.369224
562.729770	2574.426528
563.086307	2573.982907
563.442789	2577.219328
563.799216	2574.522310
564.155587	2575.086920
564.511904	2573.115828
564.868164	2575.870819
565.224370	2575.361662
565.580520	2574.532393
565.936615	2576.269070
566.292654	2571.669017
566.648638	2575.059193
567.004567	2575.689338
567.360441	2573.178843
567.716260	2572.258832
568.072023	2572.193297
568.427732	2568.372103
568.783385	2570.484346
569.138982	2570.136507
569.494525	2571.986610
569.850013	2569.145920
570.205445	2573.710685
570.560823	2570.350756
570.916145	2573.183884
571.271412	2571.623647
571.626625	2574.366035
571.981782	2573.317475
572.336884	2571.638770
572.691931	2572.679769
573.046923	2572.301682
573.401860	2572.011816
573.756743	2570.469223
574.111570	2569.201372
574.466342	2572.886456
574.821059	2571.537947
575.175722	2572.518452
575.530330	2569.292113
575.884882	2570.950653
576.239380	2569.246743
576.593823	2573.030129
576.948211	2568.563667
577.302544	2571.507700
577.656823	2570.123904
578.011047	2571.870663
578.365216	2570.622978
578.719330	2571.754717
579.073389	2571.285890
579.427394	2568.677093
579.781344	2569.276990
580.135239	2569.521486
580.489080	2570.345714
580.842866	2571.313616
581.196597	2571.043914
581.550273	2569.680282
581.903895	2570.302865
582.257463	2572.629357
582.610975	2568.351938
582.964434	2571.875705
583.317837	2567.983934
583.671186	2569.841599
584.024481	2568.336815
584.377721	2569.579459
584.730906	2566.090981
585.084037	2569.755899
585.437113	2567.381516
585.790135	2567.368913
586.143103	2566.741289
586.496016	2568.944274
586.848874	2564.243398
587.201679	2564.681978
587.554428	2563.656103
587.907124	2566.516958
588.259765	2562.358006
588.612352	2566.718604
588.964884	2565.574262
589.317362	2564.066957
589.669786	2563.736762
590.022155	2569.055179
590.374470	2565.470919
590.726731	2570.721280
591.078937	2565.823799
591.431090	2567.220199
591.783188	2565.241546
592.135232	2567.270611
592.487222	2569.289593
592.839157	2567.416804
593.191038	2568.225909
593.542866	2565.501166
593.894639	2565.801114
594.246358	2566.552246
594.598022	2567.111814
594.949633	2564.064437
595.301190	2565.493604
595.652692	2564.918912
596.004141	2568.326732
596.355535	2565.344890
596.706876	2565.720456
597.058162	2564.082081
597.409395	2565.546536
597.760573	2562.244580
598.111698	2561.937070
598.462768	2564.301371
598.813785	2564.258521
599.164748	2564.409756
599.515657	2564.414797
599.866511	2563.703994
600.217312	2565.274314
600.568060	2563.661144
600.918753	2567.205076
601.269392	2564.639128
601.619978	2561.730382
601.970510	2564.424879
602.320988	2564.578634
602.671412	2564.523182
603.021783	2562.766340
603.372100	2562.781463
603.722363	2559.855073
604.072572	2564.361865
604.422728	2563.416648
604.772830	2560.215516
605.122878	2558.073025
605.472872	2557.163097
605.822813	2558.655279
606.172701	2560.341545
606.522534	2560.359189
606.872314	2563.575445
607.222041	2561.710218
607.571714	2563.850188
607.921333	2561.437996
608.270899	2562.289951
608.620411	2562.118551
608.969870	2564.712225
609.319276	2564.344221
609.668627	2567.426886
610.017926	2570.529717
610.367171	2571.109449
610.716362	2570.847309
611.065500	2567.603327
611.414585	2567.736917
611.763616	2567.295816
612.112594	2563.043603
612.461518	2565.198696
612.810389	2565.163408
613.159207	2563.469581
613.507971	2563.172152
613.856682	2564.122410
614.205340	2566.461505
614.553945	2565.760785
614.902496	2565.944787
615.250994	2563.978737
615.599439	2563.406566
615.947830	2564.147616
616.296169	2563.061247
616.644454	2563.998902
616.992686	2565.622153
617.340864	2567.318502
617.688990	2564.157698
618.037063	2563.875393
618.385082	2563.867832
618.733048	2560.747357
619.080961	2564.208110
619.428821	2567.643656
619.776628	2563.419169
620.124382	2564.538305
620.472083	2562.242060
620.819731	2562.688202
621.167326	2561.833726
621.514868	2562.809189
621.862357	2557.904147
622.209793	2559.915567
622.557176	2561.075032
622.904506	2561.145609
623.251783	2558.214178
623.599007	2560.258366
623.946179	2557.246276
624.293297	2559.502192
624.640363	2559.209806
624.987376	2562.224416
625.334336	2559.996226
625.681243	2559.814744
626.028097	2557.515978
626.374899	2560.606205
626.721647	2561.253993
627.068343	2561.450598
627.414987	2559.993705
627.761577	2559.396328
628.108115	2560.470094
628.454600	2557.286605
628.801032	2558.463715
629.147412	2559.310629
629.493739	2559.832388
629.840014	2558.816596
630.186236	2559.429096
630.532405	2557.291647
630.878521	2558.640155
631.224585	2560.402038
631.570597	2558.579661
631.916556	2558.841801
632.262462	2558.466235
632.608316	2558.297357
632.954117	2558.138560
633.299866	2558.773746
633.645562	2558.511606
633.991206	2557.241235
634.336797	2558.282233
634.682336	2557.873900
635.027823	2556.704352
635.373257	2556.265772
635.718639	2555.640669
636.063968	2557.397511
636.409245	2555.754095
636.754470	2553.742674
637.099642	2555.537325
637.444762	2557.538663
637.789829	2553.583878
638.134845	2554.322407
638.479808	2555.612942
638.824719	2554.035061
639.169577	2553.447767
639.514383	2556.106975
639.859137	2553.127653
640.203839	2552.457180
640.548489	2551.501881
640.893086	2550.118085
641.237632	2550.236552
641.582125	2551.121274
641.926566	2549.450132
642.270955	2551.930379
642.615292	2553.573796
642.959576	2554.256872
643.303809	2552.618497
643.647990	2555.554969
643.992118	2553.321738
644.336195	2555.504558
