Dividing Wavelength (nm)	Counts (n)	Blue Motor Position (mm): 0.000000	Red Motor Position (mm): 46.400000	
326.493990	2128.939763
326.888308	2128.939763
327.282561	2128.939763
327.676750	2097.296440
328.070874	2092.799731
328.464933	2098.319795
328.858929	2103.181988
329.252859	2113.660026
329.646726	2123.016407
330.040528	2138.984262
330.434265	2153.732158
330.827938	2171.731598
331.221547	2192.130627
331.615091	2209.341126
332.008571	2228.774774
332.401986	2250.779410
332.795338	2270.134921
333.188625	2288.285595
333.581847	2306.877370
333.975006	2325.900164
334.368100	2345.338854
334.761129	2359.814527
335.154095	2377.912269
335.546996	2401.104097
335.939833	2424.926070
336.332606	2440.397371
336.725315	2452.624690
337.117960	2462.207923
337.510540	2467.380147
337.903056	2480.524956
338.295508	2487.557365
338.687896	2497.165805
339.080220	2502.418687
339.472480	2512.609379
339.864676	2515.941582
340.256807	2518.323527
340.648875	2524.209074
341.040879	2528.052954
341.432818	2526.391894
341.824694	2531.198634
342.216506	2531.879190
342.608253	2530.255938
342.999937	2529.204858
343.391557	2528.642769
343.783113	2525.333252
344.174605	2528.743592
344.566033	2526.480114
344.957397	2524.922398
345.348697	2520.324865
345.739934	2517.277488
346.131106	2519.646830
346.522215	2515.760101
346.913260	2515.684483
347.304241	2515.790347
347.695159	2511.467558
348.086012	2510.305572
348.476802	2507.991683
348.867528	2507.046466
349.258191	2504.349449
349.648789	2503.963801
350.039324	2501.145796
350.429796	2505.340036
350.820203	2500.402225
351.210548	2501.312154
351.600828	2498.504231
351.991045	2497.352327
352.381198	2501.130672
352.771288	2495.958448
353.161314	2499.146978
353.551276	2498.302585
353.941175	2498.300064
354.331010	2497.884169
354.720782	2497.334683
355.110490	2498.645383
355.500135	2497.937101
355.889717	2498.093377
356.279235	2497.284272
356.668689	2499.116731
357.058080	2501.985148
357.447408	2497.286792
357.836672	2496.134889
358.225873	2497.599344
358.615010	2498.589931
359.004084	2501.176042
359.393095	2504.346928
359.782043	2501.657473
360.170927	2503.290807
360.559748	2502.978255
360.948505	2507.167454
361.337199	2503.633605
361.725830	2511.795233
362.114398	2507.066631
362.502903	2506.222238
362.891344	2506.801970
363.279722	2507.595952
363.668037	2508.016888
364.056289	2508.944461
364.444478	2510.033350
364.832603	2510.484533
365.220665	2512.485871
365.608665	2510.464368
365.996601	2511.777589
366.384474	2513.673063
366.772284	2518.338651
367.160031	2514.303207
367.547715	2515.218177
367.935336	2519.616583
368.322893	2522.570699
368.710388	2523.331914
369.097820	2532.688295
369.485189	2535.760878
369.872495	2541.850592
370.259738	2549.074566
370.646918	2556.626214
371.034035	2563.978737
371.421090	2570.965776
371.808081	2583.702252
372.195010	2591.631987
372.581875	2604.617999
372.968678	2617.500667
373.355418	2627.608181
373.742096	2649.219607
374.128710	2664.882472
374.515262	2677.061900
374.901751	2696.561083
375.288177	2706.635829
375.674540	2729.215157
376.060841	2744.406674
376.447079	2765.261928
376.833254	2786.986780
377.219367	2799.778708
377.605417	2836.969821
377.991404	2847.170596
378.377329	2870.375027
378.763191	2887.081411
379.148991	2921.560382
379.534727	2947.076183
379.920402	2976.612303
380.306013	2991.188799
380.691563	3036.657486
381.077049	3058.117678
381.462474	3077.752972
381.847835	3120.890126
382.233134	3139.290337
382.618371	3139.146665
383.003545	3206.662838
383.388657	3212.152655
383.773706	3246.409816
384.158693	3261.497989
384.543618	3290.214922
384.928480	3323.751198
385.313280	3370.409597
385.698017	3368.201572
386.082692	3423.455139
386.467305	3427.004111
386.851856	3459.204481
387.236344	3483.006289
387.620770	3516.867719
388.005133	3537.947304
388.389435	3567.135585
388.773674	3577.555650
389.157851	3620.037453
389.541965	3636.582520
389.926018	3600.056840
390.310008	3671.084177
390.693936	3687.725026
391.077802	3731.167169
391.461606	3720.041343
391.845348	3782.400416
392.229027	3783.469141
392.612645	3794.594967
392.996200	3875.427348
393.379694	3912.152154
393.763125	3978.506342
394.146494	3943.840847
394.529801	4009.960621
394.913047	4061.735792
395.296230	4020.814225
395.679351	4077.426383
396.062410	4099.698201
396.445408	4082.326385
396.828343	4113.780664
397.211217	4138.981392
397.594028	4055.633475
397.976778	4122.459010
398.359466	4150.691993
398.742092	4185.927137
399.124656	4104.416721
399.507158	4183.794729
399.889598	4210.318760
400.271977	4269.093573
400.654294	4243.381168
401.036549	4247.852671
401.418742	4218.682034
401.800874	4322.106347
402.182944	4341.729038
402.564952	4405.918050
402.946898	4397.282553
403.328783	4388.682345
403.710606	4302.730672
404.092367	4495.116226
404.474067	4461.857214
404.855705	4470.641424
405.237282	4400.143408
405.618797	4506.073174
406.000250	4541.419224
406.381642	4621.606338
406.762972	4586.063683
407.144240	4595.470476
407.525447	4594.598356
407.906593	4653.410978
408.287677	4695.313048
408.668700	4624.535248
409.049661	4679.224206
409.430560	4717.030339
409.811399	4645.342611
410.192176	4805.870593
410.572891	4742.853650
410.953545	4845.594886
411.334138	4731.286722
411.714669	4799.027227
412.095139	4691.847255
412.475547	4832.056867
412.855894	4812.978620
413.236180	4823.028160
413.616405	4775.048979
413.996568	4863.216239
414.376670	4803.221467
414.756711	4761.173203
415.136691	4793.000527
415.516609	4867.894430
415.896466	4905.065378
416.276262	4941.361685
416.655997	4919.871246
417.035670	5107.341676
417.415283	5194.467938
417.794834	5139.436182
418.174324	5090.650415
418.553753	5001.941231
418.933121	5184.289848
419.312428	5250.989354
419.691674	5192.816960
420.070859	5317.484694
420.449983	5228.208380
420.829045	5342.324980
421.208047	5252.274849
421.586988	5320.579963
421.965867	5334.238969
422.344686	5466.740657
422.723444	5319.470909
423.102141	5140.431809
423.480777	5435.485503
423.859352	5207.401018
424.237866	5468.641172
424.616319	5456.817145
424.994712	5570.921142
425.373044	5446.790290
425.751314	5587.498977
426.129524	5390.462958
426.507673	5584.237350
426.885762	5666.352705
427.263789	5598.380307
427.641756	5474.758612
428.019662	5603.623107
428.397508	5607.015804
428.775292	5551.656373
429.153016	5657.215614
429.530679	5578.956741
429.908282	5666.203991
430.285824	5536.270771
430.663305	5812.863759
431.040726	5544.024066
431.418086	5548.228388
431.795385	5651.622453
432.172624	5663.806922
432.549802	5658.296941
432.926920	5669.021996
433.303977	5679.724366
433.680974	5716.736517
434.057910	5734.488940
434.434786	5737.629579
434.811601	5712.570003
435.188355	5943.868224
435.565050	5817.032793
435.941683	5802.126102
436.318257	6017.179204
436.694770	5996.502912
437.071222	6031.039857
437.447614	5964.582325
437.823946	5875.923553
438.200218	6030.780237
438.576429	5895.889043
438.952580	5995.522407
439.328670	6043.045364
439.704700	5953.375840
440.080670	5935.525115
440.456580	6206.633327
440.832429	6091.589155
441.208218	5935.754487
441.583947	6093.466985
441.959616	6095.821204
442.335224	6024.423342
442.710773	6158.452499
443.086261	6187.413928
443.461689	5980.587989
443.837057	6128.445031
444.212365	6285.240039
444.587612	6176.192320
444.962800	6334.219890
445.337927	6310.975130
445.712995	5922.435759
446.088002	6497.946485
446.462949	6329.413150
446.837837	6258.448827
447.212664	6430.730260
447.587431	6575.812147
447.962139	7119.296422
448.336786	8044.680869
448.711374	7781.759491
449.085901	6856.554005
449.460369	6781.040041
449.834776	6714.491769
450.209124	7104.097344
450.583412	7255.475632
450.957640	7402.521048
451.331808	7166.443814
451.705917	6718.948149
452.079965	6641.843701
452.453954	6856.591813
452.827883	6732.609676
453.201752	6822.264076
453.575562	6622.674713
453.949311	6828.585683
454.323001	6712.321552
454.696632	6794.757020
455.070202	6927.992196
455.443713	7085.495486
455.817164	7183.298912
456.190556	7266.021726
456.563888	7343.423602
456.937160	7382.762246
457.310373	7039.142076
457.683526	7070.031747
458.056619	6952.789632
458.429653	6942.316634
458.802628	6879.241718
459.175542	6989.753892
459.548398	7347.736309
459.921194	7506.613314
460.293930	7503.442428
460.666607	8037.502266
461.039224	8349.708486
461.411782	8473.264646
461.784280	8492.436154
462.156719	8379.786530
462.529099	8262.773788
462.901419	7850.092331
463.273680	7741.815908
463.645882	7754.794359
464.018024	7621.861652
464.390106	7790.165615
464.762130	8178.246241
465.134094	8647.665884
465.505999	9663.884361
465.877845	10885.953315
466.249631	11538.689477
466.621358	11155.523976
466.993026	10526.445949
467.364634	10273.374985
467.736184	9907.344366
468.107674	9577.990662
468.479105	9608.010733
468.850477	9373.844095
469.221790	9142.941605
469.593043	8810.696799
469.964238	8676.425667
470.335373	8690.528294
470.706449	8744.085513
471.077467	8725.929797
471.448425	10039.329335
471.819324	11112.122162
472.190164	11133.925152
472.560945	9889.589422
472.931667	9096.232794
473.302330	8966.019790
473.672934	8606.643494
474.043479	8962.261610
474.413965	8900.986385
474.784393	8785.634703
475.154761	8941.290410
475.525070	9033.122589
475.895321	8858.088687
476.265513	9037.289103
476.635645	9202.603661
477.005719	9198.356489
477.375734	9317.168923
477.745691	9554.957630
478.115588	9688.487713
478.485427	9928.915463
478.855207	10466.975457
479.224928	11286.336877
479.594591	11915.452712
479.964194	11723.621685
480.333739	11670.233345
480.703226	11577.924777
481.072653	11668.479024
481.442022	11911.951631
481.811333	12102.592946
482.180584	11904.299159
482.549777	11612.552463
482.918912	11435.630648
483.287988	11454.867691
483.657005	11469.383694
484.025964	11154.361990
484.394864	11284.935436
484.763706	11259.071796
485.132489	11010.918478
485.501213	10981.614250
485.869879	11048.396936
486.238487	10893.565457
486.607036	11003.923877
486.975527	10776.542633
487.343959	10980.086781
487.712333	11021.328460
488.080648	10946.963879
488.448905	10988.013995
488.817104	10931.875706
489.185244	11200.302025
489.553326	11351.503873
489.921350	11894.214331
490.289315	12957.000467
490.657222	13295.513948
491.025070	13209.403479
491.392861	13085.501999
491.760593	12703.727857
492.128267	12346.675533
492.495883	12020.757375
492.863440	11683.332783
493.230939	11346.666886
493.598380	11278.074426
493.965763	11158.422639
494.333088	11050.662935
494.700354	10977.755247
495.067563	11035.161387
495.434713	10858.080775
495.801805	10989.546506
496.168839	10913.271328
496.535815	10850.818993
496.902733	10854.897287
497.269593	10785.034456
497.636395	10887.362318
498.003139	10865.917249
498.369825	10736.929246
498.736453	10896.595191
499.103023	10818.117028
499.469535	10850.496359
499.835989	10838.445481
500.202385	10802.058433
500.568723	10648.880452
500.935003	10870.880265
501.301226	10680.007057
501.667390	10940.120513
502.033497	11031.733402
502.399546	10903.534339
502.765537	10802.393669
503.131470	10876.112983
503.497345	11056.782895
503.863163	10665.115488
504.228923	10972.454474
504.594625	11041.984588
504.960269	10784.999168
505.325856	11013.040803
505.691385	10805.889710
506.056856	10958.535848
506.422270	10978.405556
506.787625	10866.330624
507.152924	10986.801598
507.518164	10966.445418
507.883347	10891.150745
508.248472	10807.328959
508.613540	11042.380319
508.978550	10922.058059
509.343503	10900.607949
509.708398	11019.007009
510.073236	11128.190840
510.438016	11128.253854
510.802738	11081.860115
511.167403	11138.747016
511.532010	11029.331292
511.896561	11263.049267
512.261053	11336.032572
512.625488	11202.187416
512.989866	11188.185612
513.354186	11178.234374
513.718449	11071.969371
514.082655	11266.449525
514.446803	11169.767756
514.810894	11288.436517
515.174927	11156.300313
515.538904	11179.875269
515.902822	11336.347644
516.266684	11220.138965
516.630488	11158.987248
516.994235	11217.847761
517.357925	11280.290013
517.721558	11370.234280
518.085133	11380.792977
518.448651	11395.263609
518.812112	11272.836667
519.175516	11285.883173
519.538863	11416.575087
519.902152	11328.228865
520.265385	11485.890952
520.628560	11399.924155
520.991678	11371.297963
521.354739	11442.032913
521.717743	11378.499252
522.080690	11351.584531
522.443580	11484.174439
522.806413	11444.412338
523.169189	11469.955865
523.531908	11527.077179
523.894569	11353.510252
524.257174	11360.676252
524.619722	11474.626494
524.982213	11424.522466
525.344647	11472.990639
525.707025	11425.318968
526.069345	11518.280365
526.431608	11431.995976
526.793815	11547.415714
527.155964	11331.682056
527.518057	11383.265662
527.880093	11338.900988
528.242072	11401.018086
528.603995	11312.324025
528.965860	11226.884029
529.327669	11281.588110
529.689421	11230.707744
530.051117	11194.182064
530.412755	11304.956379
530.774337	11201.458970
531.135862	11177.150526
531.497331	11195.795233
531.858743	11051.197297
532.220098	11217.875487
532.581396	11089.835221
532.942638	11069.655482
533.303824	11037.074504
533.664953	11050.738552
534.026025	10964.335696
534.387040	11069.048023
534.747999	11064.758001
535.108902	11118.300096
535.469748	10877.118693
535.830537	10983.366051
536.191270	10961.610952
536.551947	10983.920578
536.912567	10980.588376
537.273131	10904.580378
537.633638	10888.630168
537.994089	10876.319670
538.354483	10822.240692
538.714821	10977.500669
539.075103	10977.851029
539.435328	10952.355393
539.795497	10774.306881
540.155609	10930.418813
540.515665	11013.091215
540.875665	10753.852399
541.235609	10827.334778
541.595496	10811.104783
541.955328	10979.895217
542.315102	10855.920641
542.674821	10809.010184
543.034483	10806.144288
543.394090	10813.156533
543.753640	10742.282951
544.113134	10971.446243
544.472571	10811.571090
544.831953	10963.899636
545.191278	10768.267578
545.550548	10794.227000
545.909761	10926.960581
546.268918	10907.027859
546.628019	10984.240692
546.987064	10851.670948
547.346053	10774.783270
547.704986	10873.310101
548.063863	10854.103305
548.422684	10853.165650
548.781449	10762.442525
549.140158	10870.645851
549.498811	10752.793757
549.857408	10603.726837
550.215949	10825.577936
550.574434	10684.617192
550.932864	10772.671026
551.291237	10844.893117
551.649555	10786.327512
552.007817	10798.748915
552.366022	10766.803123
552.724173	10756.519169
553.082267	10739.154915
553.440305	10877.330421
553.798288	10677.211737
554.156215	10840.550163
554.514086	10807.344083
554.871902	10653.757769
555.229661	10698.603873
555.587365	10668.538432
555.945014	10566.119830
556.302606	10689.260095
556.660143	10585.981976
557.017625	10739.681716
557.375050	10636.862342
557.732421	10771.841757
558.089735	10686.132059
558.446994	10685.446462
558.804197	10725.760569
559.161345	10724.361649
559.518437	10573.144678
559.875474	10659.902935
560.232455	10693.983656
560.589381	10645.490277
560.946251	10634.845880
561.303065	10750.593293
561.659825	10679.427324
562.016528	10611.293609
562.373177	10488.307100
562.729770	10607.371592
563.086307	10522.271874
563.442789	10615.825607
563.799216	10493.128963
564.155587	10537.652434
564.511904	10494.061577
564.868164	10484.662345
565.224370	10502.891158
565.580520	10422.714126
565.936615	10425.592625
566.292654	10296.897009
566.648638	10429.244941
567.004567	10385.152489
567.360441	10366.220436
567.716260	10280.228433
568.072023	10383.320030
568.427732	10328.048819
568.783385	10222.348426
569.138982	10299.891454
569.494525	10313.570625
569.850013	10200.023676
570.205445	10277.889338
570.560823	10169.859932
570.916145	10091.250699
571.271412	10161.415999
571.626625	10108.158729
571.981782	10079.293082
572.336884	10056.723837
572.691931	10064.519981
573.046923	10005.251135
573.401860	9965.645310
573.756743	9904.317153
574.111570	9949.420356
574.466342	9928.882696
574.821059	9964.632038
575.175722	9850.291107
575.530330	9858.989618
575.884882	9851.143062
576.239380	9777.544737
576.593823	9765.781204
576.948211	9767.747254
577.302544	9655.105192
577.656823	9668.925515
578.011047	9668.456688
578.365216	9641.673037
578.719330	9560.432323
579.073389	9579.591228
579.427394	9519.616621
579.781344	9500.896296
580.135239	9452.226476
580.489080	9461.361047
580.842866	9360.522846
581.196597	9369.382674
581.550273	9405.568077
581.903895	9375.734528
582.257463	9434.884907
582.610975	9319.487854
582.964434	9343.264456
583.317837	9270.260987
583.671186	9247.530424
584.024481	9245.861802
584.377721	9161.614039
584.730906	9139.853898
585.084037	9174.920165
585.437113	9104.419628
585.790135	9121.670457
586.143103	9024.938276
586.496016	8999.505655
586.848874	9056.327020
587.201679	9049.682780
587.554428	8928.795910
587.907124	8981.007141
588.259765	8951.768448
588.612352	8950.873644
588.964884	8827.733379
589.317362	8840.472374
589.669786	8838.198814
590.022155	8894.377432
590.374470	8902.060151
590.726731	8850.637861
591.078937	8697.180097
591.431090	8811.558837
591.783188	8679.634361
592.135232	8672.458278
592.487222	8672.657404
592.839157	8732.838699
593.191038	8660.830857
593.542866	8605.123587
593.894639	8500.612906
594.246358	8558.147594
594.598022	8568.202176
594.949633	8465.188717
595.301190	8441.707023
595.652692	8466.633008
596.004141	8585.195905
596.355535	8359.420269
596.706876	8338.650715
597.058162	8272.092361
597.409395	8346.905604
597.760573	8412.299452
598.111698	8319.733785
598.462768	8313.076941
598.813785	8273.735777
599.164748	8238.452741
599.515657	8228.335145
599.866511	8137.208728
600.217312	8267.262935
600.568060	8126.324877
600.918753	8228.279692
601.269392	8205.115591
601.619978	8113.601004
601.970510	8178.546189
602.320988	8169.083943
602.671412	8228.866987
603.021783	8160.987850
603.372100	8134.108418
603.722363	8134.615054
604.072572	8116.066128
604.422728	8122.223898
604.772830	8051.042806
605.122878	8067.431597
605.472872	8057.490441
605.822813	8090.167201
606.172701	8031.271400
606.522534	8106.651774
606.872314	8112.237372
607.222041	8075.903256
607.571714	8129.578941
607.921333	8089.957993
608.270899	8097.401256
608.620411	8185.651696
608.969870	8085.914987
609.319276	8081.680418
609.668627	8102.845702
610.017926	8134.277297
610.367171	8186.722941
610.716362	8158.633632
611.065500	8144.467989
611.414585	8178.720109
611.763616	8165.494642
612.112594	8145.735839
612.461518	8155.765215
612.810389	8221.958086
613.159207	8160.579517
613.507971	8105.525076
613.856682	8230.107111
614.205340	8184.212446
614.553945	8264.351669
614.902496	8155.692118
615.250994	8214.776962
615.599439	8195.108900
615.947830	8208.961991
616.296169	8182.805964
616.644454	8198.050413
616.992686	8188.656223
617.340864	8251.854648
617.688990	8153.474011
618.037063	8251.925225
618.385082	8190.592026
618.733048	8276.498329
619.080961	8213.947692
619.428821	8237.179850
619.776628	8237.893173
620.124382	8194.675361
620.472083	8173.855396
620.819731	8204.061989
621.167326	8087.679391
621.514868	8108.103626
621.862357	7990.687591
622.209793	8007.464551
622.557176	7940.550796
622.904506	7912.453925
623.251783	7848.806837
623.599007	7803.242368
623.946179	7802.143396
624.293297	7765.199300
624.640363	7680.540683
624.987376	7660.804566
625.334336	7616.308821
625.681243	7560.447796
626.028097	7543.045733
626.374899	7528.252467
626.721647	7513.706217
627.068343	7444.128212
627.414987	7425.468381
627.761577	7370.323199
628.108115	7410.841473
628.454600	7305.317520
628.801032	7355.292999
629.147412	7318.575755
629.493739	7303.550596
629.840014	7237.367807
630.186236	7296.566077
630.532405	7178.749270
630.878521	7229.667445
631.224585	7191.873914
631.570597	7111.671677
631.916556	7147.035372
632.262462	7140.955740
632.608316	7098.811694
632.954117	7079.604898
633.299866	7066.807929
633.645562	7058.984058
633.991206	6982.222408
634.336797	6921.826865
634.682336	6878.039402
635.027823	6840.981880
635.373257	6833.301683
635.718639	6771.570233
636.063968	6784.157994
636.409245	6676.274781
636.754470	6669.958216
637.099642	6636.948740
637.444762	6577.957158
637.789829	6588.813283
638.134845	6525.756010
638.479808	6511.872672
638.824719	6515.033476
639.169577	6450.937725
639.514383	6470.394058
639.859137	6395.648870
640.203839	6403.596249
640.548489	6391.633591
