Dividing Wavelength (nm)	Counts (n)	Blue Motor Position (mm): 0.000000	Red Motor Position (mm): 25.400000	
326.493990	2128.047479
326.888308	2128.047479
327.282561	2128.047479
327.676750	2092.310739
328.070874	2093.392067
328.464933	2093.744948
328.858929	2103.537389
329.252859	2110.824377
329.646726	2125.267283
330.040528	2136.806484
330.434265	2153.278454
330.827938	2171.615651
331.221547	2188.188444
331.615091	2209.618389
332.008571	2226.901985
332.401986	2246.212125
332.795338	2265.582759
333.188625	2284.028341
333.581847	2304.921403
333.975006	2323.140133
334.368100	2341.303410
334.761129	2360.048941
335.154095	2374.456558
335.546996	2393.633108
335.939833	2408.436456
336.332606	2423.570000
336.725315	2436.351845
337.117960	2448.281736
337.510540	2454.124433
337.903056	2465.880404
338.295508	2472.459110
338.687896	2482.483444
339.080220	2493.170690
339.472480	2495.955928
339.864676	2500.727380
340.256807	2504.914058
340.648875	2509.597290
341.040879	2512.732888
341.432818	2511.192815
341.824694	2512.576612
342.216506	2514.507374
342.608253	2518.119361
342.999937	2513.284894
343.391557	2515.407220
343.783113	2514.540141
344.174605	2512.044770
344.566033	2514.283043
344.957397	2508.389934
345.348697	2508.664677
345.739934	2505.100581
346.131106	2505.861795
346.522215	2502.380878
346.913260	2502.257370
347.304241	2499.724190
347.695159	2496.306288
348.086012	2494.115907
348.476802	2494.277223
348.867528	2491.053406
349.258191	2489.024341
349.648789	2489.586430
350.039324	2490.171204
350.429796	2489.896461
350.820203	2486.045019
351.210548	2485.424957
351.600828	2481.051756
351.991045	2485.815647
352.381198	2485.303970
352.771288	2485.465287
353.161314	2482.712817
353.551276	2485.223311
353.941175	2486.465956
354.331010	2482.836325
354.720782	2483.335399
355.110490	2483.405975
355.500135	2481.724750
355.889717	2481.434884
356.279235	2482.193578
356.668689	2485.974443
357.058080	2484.429329
357.447408	2481.296252
357.836672	2482.128043
358.225873	2482.609473
358.615010	2482.319607
359.004084	2485.107365
359.393095	2485.619042
359.782043	2487.806903
360.170927	2486.909577
360.559748	2491.275216
360.948505	2487.128867
361.337199	2485.982005
361.725830	2489.263796
362.114398	2490.501399
362.502903	2493.135402
362.891344	2492.157418
363.279722	2493.700011
363.668037	2493.117758
364.056289	2493.271513
364.444478	2495.310660
364.832603	2495.711432
365.220665	2496.318891
365.608665	2498.355517
365.996601	2498.778974
366.384474	2499.641011
366.772284	2499.575476
367.160031	2501.506238
367.547715	2504.737618
367.935336	2506.285252
368.322893	2507.477485
368.710388	2511.938906
369.097820	2520.486182
369.485189	2522.056502
369.872495	2528.289888
370.259738	2534.036804
370.646918	2541.820345
371.034035	2548.126829
371.421090	2558.577141
371.808081	2570.058369
372.195010	2577.136149
372.581875	2591.032089
372.968678	2604.116404
373.355418	2613.906325
373.742096	2635.739562
374.128710	2649.443939
374.515262	2663.027328
374.901751	2677.805470
375.288177	2690.584795
375.674540	2715.296532
376.060841	2728.998388
376.447079	2748.915987
376.833254	2773.640326
377.219367	2783.147942
377.605417	2821.740495
377.991404	2831.263235
378.377329	2849.701255
378.763191	2869.576004
379.148991	2906.212589
379.534727	2931.748554
379.920402	2960.236115
380.306013	2974.898311
380.691563	3023.056453
381.077049	3042.059083
381.462474	3061.563307
381.847835	3102.401694
382.233134	3123.955147
382.618371	3121.122019
383.003545	3193.218081
383.388657	3199.224616
383.773706	3231.117475
384.158693	3247.211359
384.543618	3273.987448
384.928480	3310.193015
385.313280	3352.687421
385.698017	3351.895960
386.082692	3406.922675
386.467305	3414.728901
386.851856	3443.541616
387.236344	3464.406952
387.620770	3495.236128
388.005133	3521.833256
388.389435	3550.792164
388.773674	3563.828588
389.157851	3606.534723
389.541965	3618.968729
389.926018	3582.322061
390.310008	3657.838546
390.693936	3674.413859
391.077802	3712.257801
391.461606	3704.224723
391.845348	3768.181842
392.229027	3766.424999
392.612645	3780.691465
392.996200	3857.347250
393.379694	3894.341758
393.763125	3960.607725
394.146494	3928.175462
394.529801	3988.142507
394.913047	4038.604457
395.296230	4004.977441
395.679351	4054.872261
396.062410	4082.316302
396.445408	4065.753591
396.828343	4096.083693
397.211217	4122.184267
397.594028	4040.983882
397.976778	4107.486783
398.359466	4129.967809
398.742092	4162.828570
399.124656	4084.547013
399.507158	4163.897295
399.889598	4189.629865
400.271977	4253.007251
400.654294	4222.717478
401.036549	4230.221236
401.418742	4201.879869
401.800874	4301.659427
402.182944	4327.611287
402.564952	4393.431112
402.946898	4374.123493
403.328783	4369.157956
403.710606	4285.999082
404.092367	4477.220130
404.474067	4442.829378
404.855705	4447.583187
405.237282	4378.201786
405.618797	4486.866378
406.000250	4522.900546
406.381642	4603.319552
406.762972	4565.077359
407.144240	4576.198145
407.525447	4575.172270
407.906593	4632.061691
408.287677	4677.421993
408.668700	4603.138071
409.049661	4657.068335
409.430560	4700.064336
409.811399	4625.793016
410.192176	4785.544661
410.572891	4724.957553
410.953545	4828.091999
411.334138	4709.917271
411.714669	4776.863794
412.095139	4670.850849
412.475547	4812.083815
412.855894	4791.344508
413.236180	4802.097290
413.616405	4761.248820
413.996568	4838.799410
414.376670	4784.450731
414.756711	4736.970623
415.136691	4773.143422
415.516609	4850.767109
415.896466	4885.364548
416.276262	4922.104477
416.655997	4904.551180
417.035670	5080.462243
417.415283	5173.164021
417.794834	5115.432728
418.174324	5073.462601
418.553753	4979.704701
418.933121	5164.541128
419.312428	5227.487495
419.691674	5169.612528
420.070859	5297.559534
420.449983	5209.253642
420.829045	5322.654397
421.208047	5226.418771
421.586988	5301.191685
421.965867	5310.381708
422.344686	5444.115958
422.723444	5299.742353
423.102141	5117.814673
423.480777	5411.976082
423.859352	5181.081153
424.237866	5445.366164
424.616319	5438.941214
424.994712	5539.739085
425.373044	5420.334315
425.751314	5563.951747
426.129524	5364.886664
426.507673	5559.452517
426.885762	5645.280682
427.263789	5574.202933
427.641756	5457.258246
428.019662	5579.213840
428.397508	5583.760961
428.775292	5532.646182
429.153016	5629.590091
429.530679	5554.302978
429.908282	5641.956041
430.285824	5512.186659
430.663305	5782.606754
431.040726	5522.354666
431.418086	5520.411301
431.795385	5623.142455
432.172624	5636.768694
432.549802	5627.109843
432.926920	5641.514940
433.303977	5648.083563
433.680974	5684.221075
434.057910	5699.069793
434.434786	5703.561462
434.811601	5670.161297
435.188355	5902.077059
435.565050	5771.352378
435.941683	5750.867649
436.318257	5956.967662
436.694770	5940.294046
437.071222	5967.251616
437.447614	5898.931379
437.823946	5805.652389
438.200218	5950.973731
438.576429	5811.558100
438.952580	5899.732922
439.328670	5939.532832
439.704700	5838.470300
440.080670	5816.939532
440.456580	6070.451597
440.832429	5943.043996
441.208218	5787.983144
441.583947	5927.431542
441.959616	5916.409059
442.335224	5834.374363
442.710773	5956.541685
443.086261	5966.271112
443.461689	5754.764461
443.837057	5879.641404
444.212365	6009.158728
444.587612	5891.064658
444.962800	6016.982599
445.337927	5982.733000
445.712995	5601.399958
446.088002	6105.732112
446.462949	5929.929434
446.837837	5841.396690
447.212664	5979.274768
447.587431	6068.568726
447.962139	6508.500140
448.336786	7270.778054
448.711374	7015.516709
449.085901	6195.865423
449.460369	6100.824549
449.834776	6005.382904
450.209124	6289.870339
450.583412	6363.365321
450.957640	6458.149096
451.331808	6223.606892
451.705917	5822.320964
452.079965	5722.538885
452.453954	5840.164128
452.827883	5707.299477
453.201752	5737.211163
453.575562	5538.932500
453.949311	5638.495289
454.323001	5520.431466
454.696632	5522.430283
455.070202	5562.351181
455.443713	5627.122446
455.817164	5641.048633
456.190556	5637.303056
456.563888	5627.772755
456.937160	5603.169403
457.310373	5334.642261
457.683526	5292.407474
458.056619	5168.742929
458.429653	5104.468218
458.802628	5017.367162
459.175542	5022.809087
459.548398	5159.073996
459.921194	5191.957443
460.293930	5135.599863
460.666607	5331.859544
461.039224	5423.321199
461.411782	5421.299696
461.784280	5355.719326
462.156719	5231.258278
462.529099	5104.511068
462.901419	4847.792829
463.273680	4738.540942
463.645882	4680.187066
464.018024	4555.206780
464.390106	4562.788675
464.762130	4650.635822
465.134094	4766.436167
465.505999	5085.359724
465.877845	5457.641374
466.249631	5592.308237
466.621358	5351.915775
466.993026	5035.235532
467.364634	4865.688925
467.736184	4667.644675
468.107674	4496.825177
468.479105	4428.199950
468.850477	4304.530364
469.221790	4174.443389
469.593043	4026.886295
469.964238	3927.265533
470.335373	3873.229405
470.706449	3829.630986
471.077467	3778.838841
471.448425	3987.330882
471.819324	4138.696567
472.190164	4081.013164
472.560945	3795.497334
472.931667	3598.995677
473.302330	3531.045965
473.672934	3431.851180
474.043479	3441.502469
474.413965	3391.547155
474.784393	3332.273268
475.154761	3311.067655
475.525070	3283.416926
475.895321	3228.596898
476.265513	3211.129300
476.635645	3202.168649
477.005719	3162.582989
477.375734	3143.154382
477.745691	3129.767598
478.115588	3108.037704
478.485427	3094.794593
478.855207	3113.043570
479.224928	3143.451810
479.594591	3156.694921
479.964194	3102.862960
480.333739	3061.964079
480.703226	3018.968078
481.072653	2999.829337
481.442022	2989.230311
481.811333	2976.849237
482.180584	2940.588218
482.549777	2901.194121
482.918912	2876.189998
483.287988	2857.618387
483.657005	2840.768330
484.025964	2809.717343
484.394864	2794.747637
484.763706	2783.452932
485.132489	2760.117430
485.501213	2748.033785
485.869879	2739.428535
486.238487	2725.630897
486.607036	2716.052705
486.975527	2703.749769
487.343959	2700.732638
487.712333	2693.639735
488.080648	2687.487006
488.448905	2677.898732
488.817104	2670.074861
489.185244	2672.660973
489.553326	2667.657628
489.921350	2670.309275
490.289315	2680.676407
490.657222	2681.079700
491.025070	2675.660459
491.392861	2668.179387
491.760593	2659.846360
492.128267	2657.837460
492.495883	2649.219607
492.863440	2640.090078
493.230939	2634.673358
493.598380	2631.474746
493.965763	2623.804630
494.333088	2622.322531
494.700354	2619.146604
495.067563	2620.056532
495.434713	2613.142590
495.801805	2619.111316
496.168839	2615.143928
496.535815	2614.360029
496.902733	2610.891715
497.269593	2613.505553
497.636395	2612.439349
498.003139	2610.962291
498.369825	2608.030860
498.736453	2608.275356
499.103023	2606.989862
499.469535	2605.399378
499.835989	2606.558843
500.202385	2604.615478
500.568723	2603.272011
500.935003	2605.616147
501.301226	2600.716146
501.667390	2603.715632
502.033497	2606.863833
502.399546	2602.793101
502.765537	2600.879983
503.131470	2599.337390
503.497345	2601.552977
503.863163	2599.319746
504.228923	2597.910744
504.594625	2598.646752
504.960269	2598.949221
505.325856	2600.680858
505.691385	2598.256063
506.056856	2596.118613
506.422270	2598.366968
506.787625	2597.867894
507.152924	2596.486618
507.518164	2599.491145
507.883347	2593.711462
508.248472	2594.016452
508.613540	2593.209868
508.978550	2594.717173
509.343503	2593.348499
509.708398	2594.964189
510.073236	2594.326483
510.438016	2595.816144
510.802738	2594.981833
511.167403	2595.755650
511.532010	2591.183324
511.896561	2595.027204
512.261053	2597.968717
512.625488	2594.013932
512.989866	2592.083170
513.354186	2592.315063
513.718449	2589.970926
514.082655	2591.498396
514.446803	2593.961000
514.810894	2592.947728
515.174927	2594.177769
515.538904	2592.947728
515.902822	2595.415373
516.266684	2593.093921
516.630488	2591.667275
516.994235	2597.688933
517.357925	2594.351689
517.721558	2597.419231
518.085133	2594.563417
518.448651	2594.649117
518.812112	2595.072574
519.175516	2594.754981
519.538863	2594.444950
519.902152	2594.152563
520.265385	2595.322111
520.628560	2593.167018
520.991678	2595.397728
521.354739	2594.815475
521.717743	2597.555342
522.080690	2595.932091
522.443580	2594.860846
522.806413	2595.521237
523.169189	2595.848912
523.531908	2592.337748
523.894569	2595.339755
524.257174	2594.807913
524.619722	2594.626432
524.982213	2596.723552
525.344647	2595.425455
525.707025	2593.199785
526.069345	2594.344127
526.431608	2593.280444
526.793815	2593.202306
527.155964	2595.065012
527.518057	2593.635845
527.880093	2596.121134
528.242072	2593.403952
528.603995	2596.615167
528.965860	2593.366143
529.327669	2598.727411
529.689421	2593.842532
530.051117	2594.369333
530.412755	2593.547625
530.774337	2594.543253
531.135862	2592.496544
531.497331	2593.116606
531.858743	2591.163159
532.220098	2590.666606
532.581396	2588.793817
532.942638	2593.938314
533.303824	2596.025352
533.664953	2593.381267
534.026025	2594.223140
534.387040	2595.324632
534.747999	2594.513006
535.108902	2592.166349
535.469748	2593.081318
535.830537	2593.895465
536.191270	2591.337079
536.551947	2592.519230
536.912567	2594.306319
537.273131	2593.446802
537.633638	2593.966041
537.994089	2593.204827
538.354483	2592.864549
538.714821	2594.334045
539.075103	2593.862697
539.435328	2595.884200
539.795497	2591.654672
540.155609	2593.814806
540.515665	2593.877821
540.875665	2592.879672
541.235609	2594.495362
541.595496	2595.322111
541.955328	2592.804055
542.315102	2593.618201
542.674821	2592.652820
543.034483	2595.306988
543.394090	2590.769949
543.753640	2595.838829
544.113134	2593.182141
544.472571	2594.417224
544.831953	2595.889241
545.191278	2592.511668
545.550548	2592.201637
545.909761	2594.729776
546.268918	2594.588623
546.628019	2595.916967
546.987064	2593.862697
547.346053	2593.870259
547.704986	2592.859507
548.063863	2594.805393
548.422684	2591.833633
548.781449	2592.287337
549.140158	2592.725917
549.498811	2593.071236
549.857408	2595.619539
550.215949	2593.386308
550.574434	2590.086873
550.932864	2592.224322
551.291237	2591.253900
551.649555	2594.873448
552.007817	2595.445619
552.366022	2592.733479
552.724173	2595.014601
553.082267	2595.543922
553.440305	2595.249014
553.798288	2592.398242
554.156215	2594.974272
554.514086	2594.974272
554.871902	2592.746082
555.229661	2592.834302
555.587365	2594.543253
555.945014	2591.873962
556.302606	2593.719024
556.660143	2592.889754
557.017625	2594.457553
557.375050	2594.099631
557.732421	2596.209354
558.089735	2594.560897
558.446994	2593.613160
558.804197	2595.581731
559.161345	2594.878490
559.518437	2593.550146
559.875474	2593.577872
560.232455	2594.059302
560.589381	2591.188365
560.946251	2594.936463
561.303065	2596.325301
561.659825	2594.691967
562.016528	2595.498552
562.373177	2593.540063
562.729770	2592.771287
563.086307	2593.776997
563.442789	2594.931422
563.799216	2595.624580
564.155587	2594.039137
564.511904	2594.918819
564.868164	2595.188521
565.224370	2594.830599
565.580520	2594.482759
565.936615	2594.276072
566.292654	2592.511668
566.648638	2592.763726
567.004567	2593.199785
567.360441	2592.037799
567.716260	2591.936976
568.072023	2593.272882
568.427732	2587.515884
568.783385	2591.493355
569.138982	2588.962696
569.494525	2588.713158
569.850013	2588.665268
570.205445	2593.857656
570.560823	2592.635176
570.916145	2591.851277
571.271412	2592.020155
571.626625	2592.609970
571.981782	2593.582913
572.336884	2591.619384
572.691931	2594.351689
573.046923	2592.806575
573.401860	2590.757346
573.756743	2592.050402
574.111570	2589.676019
574.466342	2593.280444
574.821059	2591.130392
575.175722	2591.652151
575.530330	2590.472521
575.884882	2591.851277
576.239380	2589.161821
576.593823	2589.817171
576.948211	2591.127871
577.302544	2590.349013
577.656823	2591.727768
578.011047	2591.364805
578.365216	2589.731472
578.719330	2588.148549
579.073389	2586.699217
579.427394	2589.781883
579.781344	2586.507654
580.135239	2589.456729
580.489080	2588.035123
580.842866	2588.269537
581.196597	2594.525609
581.550273	2589.003025
581.903895	2587.765422
582.257463	2587.536049
582.610975	2588.488827
582.964434	2587.009248
583.317837	2586.878178
583.671186	2587.488158
584.024481	2586.101841
584.377721	2586.999166
584.730906	2589.749116
585.084037	2587.047057
585.437113	2584.609659
585.790135	2587.583940
586.143103	2585.196954
586.496016	2586.197623
586.848874	2581.476582
587.201679	2585.995977
587.554428	2582.852817
587.907124	2582.694021
588.259765	2583.261151
588.612352	2585.696028
588.964884	2582.923393
589.317362	2585.149063
589.669786	2585.950606
590.022155	2588.609815
590.374470	2586.999166
590.726731	2586.268199
591.078937	2584.571851
591.431090	2586.074114
591.783188	2582.779720
592.135232	2583.949268
592.487222	2584.269381
592.839157	2585.751481
593.191038	2582.991449
593.542866	2583.523291
593.894639	2581.917683
594.246358	2584.211408
594.598022	2584.198805
594.949633	2581.668146
595.301190	2581.305183
595.652692	2582.071438
596.004141	2583.513208
596.355535	2586.122005
596.706876	2583.664443
597.058162	2582.333578
597.409395	2583.911459
597.760573	2585.385997
598.111698	2577.148752
598.462768	2579.689493
598.813785	2582.084041
599.164748	2579.470203
599.515657	2583.566140
599.866511	2581.829463
600.217312	2583.359453
600.568060	2578.320820
600.918753	2582.547827
601.269392	2578.887950
601.619978	2583.029257
601.970510	2584.801223
602.320988	2578.817373
602.671412	2581.224524
603.021783	2580.342322
603.372100	2584.196285
603.722363	2580.934658
604.072572	2581.708475
604.422728	2581.282498
604.772830	2575.016343
605.122878	2573.914851
605.472872	2578.910635
605.822813	2577.882239
606.172701	2581.617734
606.522534	2579.311407
606.872314	2580.402816
607.222041	2579.623958
607.571714	2580.725450
607.921333	2580.170923
608.270899	2578.356108
608.620411	2582.227714
608.969870	2583.510688
609.319276	2586.404310
609.668627	2584.377766
610.017926	2587.442788
610.367171	2586.767273
610.716362	2586.921028
611.065500	2586.479927
611.414585	2585.554876
611.763616	2585.557396
612.112594	2582.779720
612.461518	2584.271902
612.810389	2582.608321
613.159207	2582.565471
613.507971	2579.843248
613.856682	2583.273753
614.205340	2583.019175
614.553945	2582.043712
614.902496	2581.219483
615.250994	2579.616396
615.599439	2581.892477
615.947830	2583.281315
616.296169	2581.479103
616.644454	2583.397262
616.992686	2581.375759
617.340864	2579.414750
617.688990	2581.685790
618.037063	2580.007086
618.385082	2582.610842
618.733048	2582.225193
619.080961	2581.355594
619.428821	2581.118660
619.776628	2581.877354
620.124382	2582.999011
620.472083	2582.245358
620.819731	2580.528845
621.167326	2580.755697
621.514868	2583.213260
621.862357	2579.795357
622.209793	2579.520614
622.557176	2578.799729
622.904506	2577.859554
623.251783	2575.152455
623.599007	2577.405850
623.946179	2574.907959
624.293297	2574.676066
624.640363	2577.567167
624.987376	2575.815366
625.334336	2576.274111
625.681243	2576.843762
626.028097	2574.320664
626.374899	2578.162023
626.721647	2574.635736
627.068343	2574.562640
627.414987	2577.743608
627.761577	2573.826631
628.108115	2577.478947
628.454600	2574.953329
628.801032	2574.325705
629.147412	2575.964080
629.493739	2576.737897
629.840014	2572.556260
630.186236	2576.778227
630.532405	2572.480643
630.878521	2573.768658
631.224585	2573.188925
631.570597	2572.150447
631.916556	2574.418967
632.262462	2570.590210
632.608316	2574.078689
632.954117	2572.934347
633.299866	2574.232444
633.645562	2575.049111
633.991206	2575.306210
634.336797	2572.147927
634.682336	2573.166240
635.027823	2568.790518
635.373257	2570.930488
635.718639	2569.559294
636.063968	2568.777916
636.409245	2569.899572
636.754470	2568.692216
637.099642	2569.869325
637.444762	2569.607185
637.789829	2569.045097
638.134845	2569.387895
638.479808	2566.670713
638.824719	2567.444530
639.169577	2568.873698
639.514383	2567.626012
639.859137	2565.662482
640.203839	2569.428224
640.548489	2566.554767
640.893086	2564.760116
641.237632	2565.173491
641.582125	2562.607543
641.926566	2558.423386
642.270955	2569.181208
642.615292	2565.511248
642.959576	2566.534602
643.303809	2564.911351
643.647990	2568.273800
643.992118	2565.092832
644.336195	2565.821279
