Dividing Wavelength (nm)	Counts (n)	Blue Motor Position (mm): 0.000000	Red Motor Position (mm): 17.600000	
326.493990	2130.747017
326.888308	2130.747017
327.282561	2130.747017
327.676750	2096.227716
328.070874	2095.164032
328.464933	2096.419280
328.858929	2105.566453
329.252859	2115.041302
329.646726	2125.650410
330.040528	2139.551392
330.434265	2156.565286
330.827938	2174.983142
331.221547	2191.729855
331.615091	2212.015458
332.008571	2229.142778
332.401986	2249.274626
332.795338	2269.504776
333.188625	2287.181582
333.581847	2306.174129
333.975006	2324.667602
334.368100	2340.229644
334.761129	2361.241173
335.154095	2376.301621
335.546996	2394.306102
335.939833	2410.014337
336.332606	2423.224681
336.725315	2439.787392
337.117960	2449.912549
337.510540	2452.841459
337.903056	2468.239664
338.295508	2472.653194
338.687896	2482.180975
339.080220	2491.378560
339.472480	2495.512306
339.864676	2500.036742
340.256807	2508.092506
340.648875	2510.144255
341.040879	2511.245747
341.432818	2517.174144
341.824694	2513.741118
342.216506	2515.843280
342.608253	2516.052488
342.999937	2515.303876
343.391557	2516.254134
343.783113	2516.733043
344.174605	2511.835562
344.566033	2514.653567
344.957397	2511.588546
345.348697	2506.779285
345.739934	2506.121414
346.131106	2503.623523
346.522215	2502.675786
346.913260	2500.881135
347.304241	2500.775271
347.695159	2497.488438
348.086012	2496.487769
348.476802	2496.308808
348.867528	2492.177583
349.258191	2489.944352
349.648789	2492.676657
350.039324	2487.867396
350.429796	2488.547952
350.820203	2488.500061
351.210548	2484.610811
351.600828	2485.707262
351.991045	2486.919659
352.381198	2485.339258
352.771288	2482.112919
353.161314	2482.856489
353.551276	2484.273054
353.941175	2481.150059
354.331010	2482.619555
354.720782	2481.835656
355.110490	2484.623414
355.500135	2483.335399
355.889717	2483.796665
356.279235	2481.886067
356.668689	2484.439412
357.058080	2482.546458
357.447408	2479.715851
357.836672	2480.061170
358.225873	2483.592498
358.615010	2480.489668
359.004084	2485.571151
359.393095	2487.660709
359.782043	2488.444608
360.170927	2489.470483
360.559748	2488.462253
360.948505	2490.151039
361.337199	2490.370329
361.725830	2489.866214
362.114398	2490.947541
362.502903	2493.571462
362.891344	2493.556338
363.279722	2489.979640
363.668037	2495.164467
364.056289	2493.001812
364.444478	2497.599344
364.832603	2496.485249
365.220665	2497.387615
365.608665	2496.792759
365.996601	2496.623881
366.384474	2498.630260
366.772284	2500.258552
367.160031	2502.587566
367.547715	2503.331136
367.935336	2505.766013
368.322893	2509.950171
368.710388	2509.856909
369.097820	2518.575585
369.485189	2520.276974
369.872495	2525.262676
370.259738	2536.580066
370.646918	2542.037115
371.034035	2546.795964
371.421090	2557.967161
371.808081	2570.827145
372.195010	2578.131777
372.581875	2591.455546
372.968678	2603.370313
373.355418	2616.782303
373.742096	2631.613378
374.128710	2644.155768
374.515262	2659.649755
374.901751	2676.940912
375.288177	2689.049764
375.674540	2714.626058
376.060841	2730.311608
376.447079	2749.140318
376.833254	2771.427259
377.219367	2783.253806
377.605417	2821.493478
377.991404	2828.961948
378.377329	2851.740402
378.763191	2868.978627
379.148991	2907.220820
379.534727	2931.206630
379.920402	2961.488841
380.306013	2970.741879
380.691563	3019.701565
381.077049	3043.425235
381.462474	3061.041547
381.847835	3098.439347
382.233134	3123.035137
382.618371	3121.984056
383.003545	3190.221115
383.388657	3198.856611
383.773706	3228.518761
384.158693	3245.648601
384.543618	3268.971500
384.928480	3306.891059
385.313280	3352.934438
385.698017	3348.309179
386.082692	3404.923857
386.467305	3411.873088
386.851856	3440.842078
387.236344	3465.488279
387.620770	3494.679081
388.005133	3519.045498
388.389435	3550.817370
388.773674	3556.380283
389.157851	3599.255297
389.541965	3617.645426
389.926018	3580.734097
390.310008	3652.729336
390.693936	3669.531502
391.077802	3708.862584
391.461606	3698.676933
391.845348	3760.773866
392.229027	3764.486676
392.612645	3776.897997
392.996200	3854.932537
393.379694	3893.462076
393.763125	3959.297025
394.146494	3919.497115
394.529801	3984.797702
394.913047	4033.439795
395.296230	4001.584744
395.679351	4050.940161
396.062410	4076.715580
396.445408	4056.586253
396.828343	4090.939196
397.211217	4110.559367
397.594028	4034.551370
397.976778	4101.288685
398.359466	4124.788023
398.742092	4150.949091
399.124656	4076.234150
399.507158	4157.789937
399.889598	4178.347763
400.271977	4239.743975
400.654294	4210.059141
401.036549	4213.182136
401.418742	4184.228268
401.800874	4284.358187
402.182944	4300.537770
402.564952	4363.348026
402.946898	4343.105273
403.328783	4331.024148
403.710606	4238.892020
404.092367	4422.763066
404.474067	4377.402763
404.855705	4374.378071
405.237282	4297.500475
405.618797	4390.091347
406.000250	4409.154471
406.381642	4471.644614
406.762972	4419.430863
407.144240	4413.613371
407.525447	4396.188623
407.906593	4435.497020
408.287677	4451.278352
408.668700	4364.666288
409.049661	4388.543713
409.430560	4404.829161
409.811399	4316.082168
410.192176	4425.490330
410.572891	4350.719936
410.953545	4406.031476
411.334138	4280.955408
411.714669	4303.212102
412.095139	4194.376111
412.475547	4268.685239
412.855894	4222.329309
413.236180	4193.337633
413.616405	4123.991521
413.996568	4151.707785
414.376670	4073.174170
414.756711	4008.188656
415.136691	3997.735823
415.516609	4001.428468
415.896466	3987.582939
416.276262	3963.657623
416.655997	3912.250457
417.035670	3971.738593
417.415283	3979.406188
417.794834	3905.034045
418.174324	3838.941998
418.553753	3746.807349
418.933121	3791.983649
419.312428	3780.693985
419.691674	3699.758260
420.070859	3710.742935
420.449983	3627.450470
420.829045	3624.559368
421.208047	3546.832338
421.586988	3523.332999
421.965867	3486.277998
422.344686	3475.431955
422.723444	3393.792989
423.102141	3298.227836
423.480777	3341.483457
423.859352	3233.295254
424.237866	3262.864142
424.616319	3222.164386
424.994712	3212.298848
425.373044	3147.131852
425.751314	3132.915798
426.129524	3060.683626
426.507673	3060.411403
426.885762	3041.938095
427.263789	2995.551918
427.641756	2951.265381
428.019662	2937.520675
428.397508	2909.529669
428.775292	2879.202087
429.153016	2860.517050
429.530679	2830.217195
429.908282	2811.816984
430.285824	2784.075514
430.663305	2781.081069
431.040726	2740.383834
431.418086	2723.896740
431.795385	2715.755277
432.172624	2701.622402
432.549802	2685.130267
432.926920	2676.575429
433.303977	2659.737975
433.680974	2649.088537
434.057910	2639.870788
434.434786	2627.426699
434.811601	2618.261882
435.188355	2616.570575
435.565050	2605.394337
435.941683	2596.592482
436.318257	2592.423448
436.694770	2582.825091
437.071222	2580.430543
437.447614	2574.754203
437.823946	2567.560477
438.200218	2571.154820
438.576429	2566.479149
438.952580	2563.945970
439.328670	2562.846998
439.704700	2558.932542
440.080670	2556.316183
440.456580	2556.510268
440.832429	2553.021789
441.208218	2547.325285
441.583947	2551.834597
441.959616	2550.181099
442.335224	2548.711603
442.710773	2546.188505
443.086261	2550.506253
443.461689	2545.041643
443.837057	2544.983669
444.212365	2546.007024
444.587612	2545.550799
444.962800	2545.455017
445.337927	2544.421581
445.712995	2543.302445
446.088002	2546.024668
446.462949	2543.524255
446.837837	2547.257230
447.212664	2545.132383
447.587431	2547.869730
447.962139	2546.322096
448.336786	2551.910215
448.711374	2550.823846
449.085901	2549.021634
449.460369	2545.210521
449.834776	2544.958464
450.209124	2543.405788
450.583412	2547.889895
450.957640	2545.737322
451.331808	2544.540048
451.705917	2542.626930
452.079965	2545.596170
452.453954	2543.909904
452.827883	2544.673638
453.201752	2545.124822
453.575562	2546.364946
453.949311	2543.539379
454.323001	2544.673638
454.696632	2546.468289
455.070202	2543.572146
455.443713	2547.209339
455.817164	2545.727240
456.190556	2542.478216
456.563888	2545.381921
456.937160	2541.386806
457.310373	2548.961140
457.683526	2546.604400
458.056619	2547.111036
458.429653	2545.661705
458.802628	2544.035932
459.175542	2543.557023
459.548398	2549.639175
459.921194	2548.247817
460.293930	2549.951727
460.666607	2552.048847
461.039224	2550.717982
461.411782	2552.852911
461.784280	2554.317366
462.156719	2552.295863
462.529099	2553.926676
462.901419	2549.273691
463.273680	2552.550441
463.645882	2549.472817
464.018024	2552.437015
464.390106	2552.376522
464.762130	2555.020607
465.134094	2554.392983
465.505999	2561.027142
465.877845	2566.267421
466.249631	2568.389747
466.621358	2568.460323
466.993026	2568.067113
467.364634	2566.380847
467.736184	2562.020249
468.107674	2557.979764
468.479105	2561.745506
468.850477	2556.031358
469.221790	2561.677450
469.593043	2558.332645
469.964238	2560.830537
470.335373	2556.066646
470.706449	2556.374157
471.077467	2557.914229
471.448425	2563.726679
471.819324	2570.436455
472.190164	2571.384192
472.560945	2567.074006
472.931667	2561.322049
473.302330	2559.998746
473.672934	2559.272820
474.043479	2561.480845
474.413965	2560.671740
474.784393	2556.754764
475.154761	2559.751730
475.525070	2558.841801
475.895321	2556.411965
476.265513	2558.022614
476.635645	2563.469581
477.005719	2561.077553
477.375734	2565.637277
477.745691	2566.027966
478.115588	2567.323543
478.485427	2565.705332
478.855207	2571.071641
479.224928	2571.283369
479.594591	2573.173802
479.964194	2576.264029
480.333739	2576.049780
480.703226	2573.277145
481.072653	2574.179512
481.442022	2575.754872
481.811333	2576.052301
482.180584	2575.230592
482.549777	2574.615572
482.918912	2574.600448
483.287988	2574.976014
483.657005	2572.304203
484.025964	2570.338153
484.394864	2574.063565
484.763706	2573.831672
485.132489	2573.002402
485.501213	2571.409398
485.869879	2570.900241
486.238487	2571.724470
486.607036	2570.880077
486.975527	2568.994685
487.343959	2568.601475
487.712333	2571.298492
488.080648	2570.444017
488.448905	2570.068451
488.817104	2569.120714
489.185244	2570.633060
489.553326	2567.704150
489.921350	2573.380489
490.289315	2575.407033
490.657222	2577.491550
491.025070	2577.083217
491.392861	2575.452403
491.760593	2575.190263
492.128267	2576.435428
492.495883	2571.290931
492.863440	2571.981569
493.230939	2568.712381
493.598380	2569.655076
493.965763	2563.832544
494.333088	2564.109807
494.700354	2562.892368
495.067563	2567.328584
495.434713	2560.853222
495.801805	2568.311609
496.168839	2566.232133
496.535815	2570.912844
496.902733	2568.719942
497.269593	2566.801783
497.636395	2566.733728
498.003139	2566.022925
498.369825	2568.155333
498.736453	2569.110632
499.103023	2568.631722
499.469535	2569.067782
499.835989	2568.359500
500.202385	2571.515262
500.568723	2566.297668
500.935003	2567.305899
501.301226	2566.002760
501.667390	2568.349418
502.033497	2571.353945
502.399546	2569.657597
502.765537	2569.287072
503.131470	2567.709191
503.497345	2568.089798
503.863163	2568.256156
504.228923	2570.829665
504.594625	2569.967628
504.960269	2568.508214
505.325856	2570.867474
505.691385	2567.071485
506.056856	2568.341856
506.422270	2569.680282
506.787625	2567.169787
507.152924	2570.985941
507.518164	2567.404201
507.883347	2568.669531
508.248472	2570.761610
508.613540	2569.700447
508.978550	2571.099367
509.343503	2566.257339
509.708398	2571.588359
510.073236	2573.146075
510.438016	2572.621795
510.802738	2568.109963
511.167403	2570.968297
511.532010	2569.748338
511.896561	2573.143555
512.261053	2573.025088
512.625488	2568.419994
512.989866	2566.577452
513.354186	2568.631722
513.718449	2567.502504
514.082655	2569.314798
514.446803	2568.540981
514.810894	2574.696230
515.174927	2571.338822
515.538904	2571.953842
515.902822	2573.173802
516.266684	2570.653225
516.630488	2572.064748
516.994235	2570.398647
517.357925	2573.093143
517.721558	2574.877712
518.085133	2570.882597
518.448651	2572.987279
518.812112	2572.606672
519.175516	2569.153482
519.538863	2573.186405
519.902152	2572.246229
520.265385	2572.924265
520.628560	2570.950653
520.991678	2572.679769
521.354739	2571.293451
521.717743	2571.169943
522.080690	2570.570046
522.443580	2572.737742
522.806413	2573.388051
523.169189	2573.728329
523.531908	2574.360993
523.894569	2571.306054
524.257174	2572.369738
524.619722	2572.082392
524.982213	2572.427711
525.344647	2573.302351
525.707025	2572.914182
526.069345	2574.078689
526.431608	2574.744121
526.793815	2571.641291
527.155964	2575.217990
527.518057	2572.846127
527.880093	2573.476271
528.242072	2574.698751
528.603995	2571.414439
528.965860	2571.638770
529.327669	2570.809501
529.689421	2572.951991
530.051117	2572.503328
530.412755	2570.592731
530.774337	2570.953173
531.135862	2573.108267
531.497331	2571.648853
531.858743	2568.548543
532.220098	2569.357648
532.581396	2567.515107
532.942638	2568.661969
533.303824	2568.805642
533.664953	2570.933009
534.026025	2571.323698
534.387040	2571.976528
534.747999	2571.268246
535.108902	2570.933009
535.469748	2570.925447
535.830537	2573.902248
536.191270	2568.578790
536.551947	2570.454099
536.912567	2570.940571
537.273131	2571.888308
537.633638	2572.969635
537.994089	2568.606516
538.354483	2567.273131
538.714821	2570.970817
539.075103	2571.910993
539.435328	2572.478122
539.795497	2572.369738
540.155609	2574.739080
540.515665	2570.323029
540.875665	2572.084912
541.235609	2571.061558
541.595496	2570.474264
541.955328	2571.714388
542.315102	2571.860581
542.674821	2573.345201
543.034483	2572.215982
543.394090	2571.217834
543.753640	2573.088102
544.113134	2571.346383
544.472571	2572.084912
544.831953	2569.796229
545.191278	2569.292113
545.550548	2571.442165
545.909761	2570.519634
546.268918	2570.774212
546.628019	2572.720098
546.987064	2569.735735
547.346053	2571.737073
547.704986	2568.051989
548.063863	2571.215313
548.422684	2570.507031
548.781449	2574.338308
549.140158	2572.054666
549.498811	2572.152968
549.857408	2568.188101
550.215949	2569.065261
550.574434	2566.630384
550.932864	2569.922257
551.291237	2567.336146
551.649555	2569.783626
552.007817	2570.587690
552.366022	2570.837227
552.724173	2570.675910
553.082267	2567.754561
553.440305	2571.298492
553.798288	2571.827814
554.156215	2570.817062
554.514086	2572.785633
554.871902	2569.609706
555.229661	2572.047104
555.587365	2573.030129
555.945014	2574.146744
556.302606	2568.835889
556.660143	2569.879408
557.017625	2573.138514
557.375050	2570.446537
557.732421	2572.067268
558.089735	2571.936198
558.446994	2573.350242
558.804197	2571.916034
559.161345	2570.408729
559.518437	2566.474108
559.875474	2567.782288
560.232455	2571.444686
560.589381	2569.566856
560.946251	2572.223544
561.303065	2572.599110
561.659825	2568.540981
562.016528	2570.945612
562.373177	2571.275807
562.729770	2571.709347
563.086307	2566.980744
563.442789	2569.372772
563.799216	2569.143399
564.155587	2569.203893
564.511904	2569.400498
564.868164	2571.658935
565.224370	2569.397977
565.580520	2571.230437
565.936615	2570.320509
566.292654	2569.092988
566.648638	2571.517783
567.004567	2568.130127
567.360441	2569.713050
567.716260	2568.104922
568.072023	2569.105591
568.427732	2563.877914
568.783385	2565.236505
569.138982	2564.818089
569.494525	2565.894376
569.850013	2563.434292
570.205445	2567.416804
570.560823	2569.256825
570.916145	2569.453430
571.271412	2566.146433
571.626625	2568.614078
571.981782	2570.544840
572.336884	2568.198183
572.691931	2568.190621
573.046923	2567.966290
573.401860	2567.822617
573.756743	2567.194993
574.111570	2566.746331
574.466342	2568.659448
574.821059	2569.045097
575.175722	2569.329922
575.530330	2565.997719
575.884882	2569.483677
576.239380	2565.849005
576.593823	2570.030642
576.948211	2564.261042
577.302544	2566.910168
577.656823	2568.137689
578.011047	2568.717422
578.365216	2566.537123
578.719330	2565.533933
579.073389	2566.582493
579.427394	2565.349931
579.781344	2565.360013
580.135239	2563.124262
580.489080	2567.605847
580.842866	2564.437482
581.196597	2569.584500
581.550273	2567.285734
581.903895	2568.573749
582.257463	2565.004612
582.610975	2565.281875
582.964434	2565.990157
583.317837	2564.394632
583.671186	2564.823130
584.024481	2566.448903
584.377721	2564.646690
584.730906	2563.608212
585.084037	2564.109807
585.437113	2565.803635
585.790135	2564.071998
586.143103	2564.843295
586.496016	2566.887483
586.848874	2561.654765
587.201679	2564.109807
587.554428	2559.749209
587.907124	2564.213151
588.259765	2557.878941
588.612352	2564.631567
588.964884	2563.872873
589.317362	2564.059396
589.669786	2566.559808
590.022155	2564.744992
590.374470	2565.037379
590.726731	2566.771536
591.078937	2565.574262
591.431090	2562.937739
591.783188	2565.080229
592.135232	2563.698953
592.487222	2562.579817
592.839157	2565.201217
593.191038	2563.091494
593.542866	2565.327246
593.894639	2562.562173
594.246358	2563.391443
594.598022	2558.821637
594.949633	2562.804148
595.301190	2562.277348
595.652692	2562.310115
596.004141	2562.423541
596.355535	2563.913202
596.706876	2560.303736
597.058162	2559.413972
597.409395	2559.895402
597.760573	2561.072512
598.111698	2561.823644
598.462768	2562.040413
598.813785	2565.112997
599.164748	2559.456822
599.515657	2558.685526
599.866511	2559.645865
600.217312	2559.550083
600.568060	2562.690722
600.918753	2562.889848
601.269392	2560.931360
601.619978	2561.790876
601.970510	2563.005794
602.320988	2561.306926
602.671412	2560.931360
603.021783	2560.608726
603.372100	2560.013870
603.722363	2562.557132
604.072572	2561.589230
604.422728	2561.647203
604.772830	2558.990515
605.122878	2555.759136
605.472872	2559.986143
605.822813	2555.920453
606.172701	2558.433468
606.522534	2560.621329
606.872314	2559.043447
607.222041	2559.855073
607.571714	2562.632749
607.921333	2560.097049
608.270899	2560.495300
608.620411	2561.795917
608.969870	2562.544529
609.319276	2560.560835
609.668627	2562.327759
610.017926	2567.729356
610.367171	2569.589541
610.716362	2565.833882
611.065500	2567.124417
611.414585	2563.958572
611.763616	2567.225240
612.112594	2562.302553
612.461518	2565.334808
612.810389	2562.607543
613.159207	2560.580999
613.507971	2562.766340
613.856682	2560.979251
614.205340	2558.587223
614.553945	2563.383881
614.902496	2562.141237
615.250994	2562.872204
615.599439	2560.265927
615.947830	2564.001422
616.296169	2562.917574
616.644454	2559.814744
616.992686	2561.566545
617.340864	2559.381205
617.688990	2560.767522
618.037063	2561.173335
618.385082	2559.330793
618.733048	2562.544529
619.080961	2561.480845
619.428821	2559.918088
619.776628	2561.407749
620.124382	2562.942780
620.472083	2560.276010
620.819731	2562.783984
621.167326	2559.577810
621.514868	2561.853891
621.862357	2559.582851
622.209793	2559.174517
622.557176	2560.097049
622.904506	2557.326935
623.251783	2555.610422
623.599007	2557.800803
623.946179	2555.169321
624.293297	2558.246945
624.640363	2559.106462
624.987376	2557.369784
625.334336	2557.110165
625.681243	2559.963458
626.028097	2558.642676
626.374899	2560.454971
626.721647	2558.854404
627.068343	2557.097562
627.414987	2558.574620
627.761577	2557.447922
628.108115	2558.219219
628.454600	2559.771894
628.801032	2556.054043
629.147412	2555.108827
629.493739	2555.532284
629.840014	2556.202757
630.186236	2558.030176
630.532405	2557.838612
630.878521	2556.590926
631.224585	2556.684188
631.570597	2558.441030
631.916556	2556.802655
632.262462	2555.265103
632.608316	2557.828529
632.954117	2555.055895
633.299866	2556.424568
633.645562	2555.418858
633.991206	2554.259392
634.336797	2555.623025
634.682336	2555.933056
635.027823	2555.249979
635.373257	2554.392983
635.718639	2556.472459
636.063968	2556.270813
636.409245	2554.269475
636.754470	2554.866852
637.099642	2554.972716
637.444762	2554.662685
637.789829	2553.331820
638.134845	2552.500030
638.479808	2553.767880
638.824719	2553.299053
639.169577	2553.654454
639.514383	2553.631769
639.859137	2556.376677
640.203839	2553.528425
640.548489	2550.665050
640.893086	2550.844011
641.237632	2549.044319
641.582125	2550.612118
641.926566	2545.676828
642.270955	2553.485575
642.615292	2556.260731
642.959576	2554.337530
643.303809	2554.468600
643.647990	2553.341903
643.992118	2555.398693
644.336195	2552.016079
