Dividing Wavelength (nm)	Counts (n)	Blue Motor Position (mm): 0.000000	Red Motor Position (mm): 19.000000	
326.493990	2127.689557
326.888308	2127.689557
327.282561	2127.689557
327.676750	2094.869125
328.070874	2094.430544
328.464933	2095.083374
328.858929	2103.101329
329.252859	2114.224635
329.646726	2124.619494
330.040528	2137.560136
330.434265	2153.538073
330.827938	2172.023984
331.221547	2188.811027
331.615091	2208.985724
332.008571	2228.263097
332.401986	2248.994842
332.795338	2267.737852
333.188625	2288.129319
333.581847	2307.300827
333.975006	2326.273210
334.368100	2341.905828
334.761129	2360.084229
335.154095	2376.291538
335.546996	2394.840464
335.939833	2409.595921
336.332606	2424.908426
336.725315	2435.041145
337.117960	2447.644030
337.510540	2452.002107
337.903056	2468.958028
338.295508	2472.691003
338.687896	2481.475213
339.080220	2490.468632
339.472480	2498.736124
339.864676	2500.419869
340.256807	2503.144613
340.648875	2506.784326
341.040879	2510.925634
341.432818	2512.548886
341.824694	2515.205574
342.216506	2514.441839
342.608253	2515.891171
342.999937	2514.615759
343.391557	2513.562158
343.783113	2513.463855
344.174605	2511.278515
344.566033	2512.034688
344.957397	2509.955212
345.348697	2509.791374
345.739934	2504.135200
346.131106	2504.271311
346.522215	2502.116218
346.913260	2500.616474
347.304241	2501.498676
347.695159	2500.361896
348.086012	2494.557007
348.476802	2493.415186
348.867528	2491.376039
349.258191	2489.974599
349.648789	2489.725062
350.039324	2487.252376
350.429796	2487.116264
350.820203	2484.706593
351.210548	2484.144504
351.600828	2484.008393
351.991045	2483.416057
352.381198	2482.629638
352.771288	2483.786582
353.161314	2480.958495
353.551276	2481.175265
353.941175	2481.578557
354.331010	2481.447487
354.720782	2482.911942
355.110490	2482.468321
355.500135	2480.262816
355.889717	2486.004690
356.279235	2481.659215
356.668689	2484.890595
357.058080	2485.563589
357.447408	2483.043012
357.836672	2479.002527
358.225873	2484.073928
358.615010	2481.160141
359.004084	2486.060143
359.393095	2484.666264
359.782043	2483.400934
360.170927	2489.006697
360.559748	2489.467963
360.948505	2491.113899
361.337199	2488.873107
361.725830	2489.808241
362.114398	2490.836636
362.502903	2489.775473
362.891344	2493.243787
363.279722	2492.807727
363.668037	2493.079949
364.056289	2493.102635
364.444478	2494.839312
364.832603	2494.662872
365.220665	2498.063130
365.608665	2496.412152
365.996601	2499.401556
366.384474	2497.342245
366.772284	2499.204951
367.160031	2502.476660
367.547715	2502.156547
367.935336	2503.958759
368.322893	2507.946312
368.710388	2513.814215
369.097820	2519.601460
369.485189	2520.471059
369.872495	2524.395597
370.259738	2535.203831
370.646918	2539.607279
371.034035	2548.635985
371.421090	2557.757953
371.808081	2568.795560
372.195010	2576.299317
372.581875	2592.453695
372.968678	2605.086826
373.355418	2613.056890
373.742096	2632.601444
374.128710	2648.183650
374.515262	2661.230157
374.901751	2677.775223
375.288177	2689.944569
375.674540	2713.819473
376.060841	2728.564848
376.447079	2749.808271
376.833254	2770.819800
377.219367	2783.410082
377.605417	2820.157573
377.991404	2830.454129
378.377329	2855.128057
378.763191	2868.729090
379.148991	2906.482291
379.534727	2930.304264
379.920402	2961.430868
380.306013	2969.108545
380.691563	3019.648633
381.077049	3043.195863
381.462474	3059.214129
381.847835	3099.636621
382.233134	3122.152935
382.618371	3121.386680
383.003545	3191.781352
383.388657	3198.304605
383.773706	3230.487331
384.158693	3245.474682
384.543618	3275.575411
384.928480	3308.368117
385.313280	3352.594160
385.698017	3352.148018
386.082692	3405.652304
386.467305	3411.588263
386.851856	3441.169753
387.236344	3464.376705
387.620770	3494.696725
388.005133	3522.745705
388.389435	3548.291752
388.773674	3560.970254
389.157851	3605.740741
389.541965	3615.961681
389.926018	3585.596290
390.310008	3656.358967
390.693936	3670.118796
391.077802	3713.621433
391.461606	3700.179197
391.845348	3764.718569
392.229027	3764.980709
392.612645	3775.970424
392.996200	3856.260882
393.379694	3895.541552
393.763125	3957.613280
394.146494	3925.685132
394.529801	3989.675018
394.913047	4037.467677
395.296230	3999.585927
395.679351	4056.414854
396.062410	4078.232968
396.445408	4056.601377
396.828343	4092.091100
397.211217	4117.521200
397.594028	4039.247204
397.976778	4100.517388
398.359466	4129.859424
398.742092	4156.799350
399.124656	4081.076178
399.507158	4159.733302
399.889598	4183.489739
400.271977	4248.697064
400.654294	4216.098443
401.036549	4222.866192
401.418742	4193.745967
401.800874	4296.731699
402.182944	4316.235923
402.564952	4382.464082
402.946898	4367.796845
403.328783	4362.934652
403.710606	4276.539357
404.092367	4467.525991
404.474067	4430.032409
404.855705	4443.661169
405.237282	4368.174931
405.618797	4474.918843
406.000250	4503.487062
406.381642	4583.717026
406.762972	4541.225140
407.144240	4549.774937
407.525447	4543.680182
407.906593	4605.754430
408.287677	4635.469511
408.668700	4561.203233
409.049661	4600.168831
409.430560	4635.098986
409.811399	4556.797264
410.192176	4701.233883
410.572891	4631.698728
410.953545	4722.988983
411.334138	4594.900825
411.714669	4644.346983
412.095139	4528.579405
412.475547	4647.480060
412.855894	4611.914720
413.236180	4602.586064
413.616405	4545.447106
413.996568	4606.273668
414.376670	4528.687790
414.756711	4469.202175
415.136691	4476.584945
415.516609	4523.230741
415.896466	4527.077142
416.276262	4533.376063
416.655997	4485.164988
417.035670	4607.201241
417.415283	4652.879136
417.794834	4568.815375
418.174324	4504.996888
418.553753	4401.401176
418.933121	4509.097866
419.312428	4519.278477
419.691674	4435.902833
420.070859	4485.573322
420.449983	4382.136407
420.829045	4422.175771
421.208047	4315.986386
421.586988	4316.036798
421.965867	4280.922640
422.344686	4306.375426
422.723444	4183.643495
423.102141	4033.651524
423.480777	4159.319927
423.859352	3979.610354
424.237866	4070.391453
424.616319	4022.313969
424.994712	4025.421840
425.373044	3918.539296
425.751314	3935.323818
426.129524	3796.555976
426.507673	3828.257272
426.885762	3824.365501
427.263789	3737.960124
427.641756	3651.741270
428.019662	3645.737256
428.397508	3603.520113
428.775292	3532.606202
429.153016	3519.073224
429.530679	3456.636013
429.908282	3437.209927
430.285824	3360.347454
430.663305	3385.485168
431.040726	3274.892335
431.418086	3237.613002
431.795385	3226.610684
432.172624	3187.856814
432.549802	3148.462717
432.926920	3115.138169
433.303977	3083.368818
433.680974	3058.465518
434.057910	3025.937473
434.434786	2995.990498
434.811601	2962.534881
435.188355	2961.312401
435.565050	2919.198602
435.941683	2892.356978
436.318257	2888.702142
436.694770	2856.471524
437.071222	2837.950325
437.447614	2805.719708
437.823946	2777.650563
438.200218	2774.814914
438.576429	2745.447673
438.952580	2732.668348
439.328670	2720.763663
439.704700	2698.748944
440.080670	2684.537931
440.456580	2681.480472
440.832429	2664.106135
441.208218	2648.105512
441.583947	2643.954122
441.959616	2632.392236
442.335224	2624.044085
442.710773	2616.207612
443.086261	2611.063114
443.461689	2598.888727
443.837057	2594.621391
444.212365	2593.073757
444.587612	2582.550348
444.962800	2583.616552
445.337927	2579.273598
445.712995	2569.294634
446.088002	2572.402505
446.462949	2569.299675
446.837837	2564.858418
447.212664	2566.027966
447.587431	2564.490414
447.962139	2569.231619
448.336786	2575.659091
448.711374	2566.559808
449.085901	2562.983109
449.460369	2558.274672
449.834776	2554.675288
450.209124	2559.716442
450.583412	2559.383725
450.957640	2560.079405
451.331808	2558.395659
451.705917	2552.305945
452.079965	2553.898950
452.453954	2553.669578
452.827883	2554.191337
453.201752	2554.408107
453.575562	2551.582540
453.949311	2551.300235
454.323001	2550.891902
454.696632	2550.009700
455.070202	2552.189999
455.443713	2550.644885
455.817164	2547.834442
456.190556	2549.107333
456.563888	2548.855276
456.937160	2547.211859
457.310373	2549.566078
457.683526	2548.784699
458.056619	2552.142108
458.429653	2549.664381
458.802628	2549.069525
459.175542	2550.385266
459.548398	2551.388455
459.921194	2551.363250
460.293930	2553.243600
460.666607	2556.684187
461.039224	2555.350802
461.411782	2553.888868
461.784280	2554.408107
462.156719	2556.376677
462.529099	2557.742830
462.901419	2553.717468
463.273680	2554.950031
463.645882	2556.086811
464.018024	2553.215874
464.390106	2554.798796
464.762130	2557.775597
465.134094	2558.675443
465.505999	2565.372616
465.877845	2570.418811
466.249631	2572.420149
466.621358	2569.715570
466.993026	2571.288410
467.364634	2571.429562
467.736184	2564.011505
468.107674	2562.962945
468.479105	2565.518810
468.850477	2563.298181
469.221790	2561.440516
469.593043	2559.897923
469.964238	2561.891699
470.335373	2562.355486
470.706449	2561.599312
471.077467	2560.638973
471.448425	2571.548030
471.819324	2574.388720
472.190164	2573.854357
472.560945	2568.029304
472.931667	2563.915723
473.302330	2563.038562
473.672934	2562.526885
474.043479	2564.818089
474.413965	2564.306412
474.784393	2561.332131
475.154761	2559.693756
475.525070	2559.194682
475.895321	2559.325752
476.265513	2559.834909
476.635645	2565.405384
477.005719	2564.503017
477.375734	2566.128789
477.745691	2568.765313
478.115588	2570.277659
478.485427	2572.997361
478.855207	2574.459296
479.224928	2578.230079
479.594591	2580.211252
479.964194	2576.992476
480.333739	2577.690676
480.703226	2573.791343
481.072653	2579.419791
481.442022	2580.574216
481.811333	2582.580595
482.180584	2580.264185
482.549777	2579.560944
482.918912	2577.783937
483.287988	2579.964236
483.657005	2580.037333
484.025964	2575.344018
484.394864	2578.353587
484.763706	2576.342167
485.132489	2575.676735
485.501213	2574.565160
485.869879	2575.941395
486.238487	2571.979048
486.607036	2573.506518
486.975527	2576.289235
487.343959	2575.759914
487.712333	2576.276632
488.080648	2572.311764
488.448905	2574.371076
488.817104	2572.896538
489.185244	2574.151786
489.553326	2576.064903
489.921350	2579.288721
490.289315	2579.001376
490.657222	2583.409865
491.025070	2582.792323
491.392861	2582.762076
491.760593	2580.644792
492.128267	2579.003896
492.495883	2574.998699
492.863440	2575.611200
493.230939	2574.754203
493.598380	2574.197156
493.965763	2569.206414
494.333088	2569.897052
494.700354	2571.205231
495.067563	2568.810683
495.434713	2565.594427
495.801805	2574.348391
496.168839	2569.430745
496.535815	2572.286559
496.902733	2569.035014
497.269593	2571.800087
497.636395	2571.588359
498.003139	2568.921588
498.369825	2570.338153
498.736453	2571.437124
499.103023	2571.124573
499.469535	2574.098853
499.835989	2571.091805
500.202385	2572.957032
500.568723	2571.301013
500.935003	2570.260015
501.301226	2567.076526
501.667390	2572.616754
502.033497	2572.236147
502.399546	2571.606003
502.765537	2569.115673
503.131470	2571.288410
503.497345	2571.132134
503.863163	2570.275138
504.228923	2571.497618
504.594625	2572.609193
504.960269	2571.270766
505.325856	2572.107598
505.691385	2571.283369
506.056856	2571.893349
506.422270	2572.858730
506.787625	2571.361507
507.152924	2573.030129
507.518164	2572.319326
507.883347	2571.858061
508.248472	2574.640777
508.613540	2575.580953
508.978550	2575.258319
509.343503	2571.923596
509.708398	2574.648339
510.073236	2573.569532
510.438016	2575.659091
510.802738	2577.166396
511.167403	2576.226220
511.532010	2575.802763
511.896561	2573.594738
512.261053	2577.186560
512.625488	2574.744121
512.989866	2569.776064
513.354186	2572.122721
513.718449	2568.336815
514.082655	2575.734708
514.446803	2572.314285
514.810894	2576.319482
515.174927	2576.127918
515.538904	2574.613051
515.902822	2573.814028
516.266684	2576.304358
516.630488	2574.240006
516.994235	2577.156313
517.357925	2575.822928
517.721558	2576.538772
518.085133	2577.214287
518.448651	2577.133628
518.812112	2578.950964
519.175516	2575.812846
519.538863	2576.737897
519.902152	2575.472568
520.265385	2574.792012
520.628560	2579.523135
520.991678	2576.379976
521.354739	2578.497260
521.717743	2576.352249
522.080690	2577.945254
522.443580	2576.624472
522.806413	2580.186047
523.169189	2576.463155
523.531908	2579.145048
523.894569	2575.888463
524.257174	2577.526838
524.619722	2578.857703
524.982213	2579.276118
525.344647	2575.921231
525.707025	2576.644636
526.069345	2578.159503
526.431608	2577.441138
526.793815	2577.171437
527.155964	2577.032805
527.518057	2575.134811
527.880093	2575.827969
528.242072	2575.724626
528.603995	2578.235120
528.965860	2577.078175
529.327669	2575.661611
529.689421	2575.384348
530.051117	2576.662280
530.412755	2576.924420
530.774337	2575.981724
531.135862	2578.247723
531.497331	2577.547003
531.858743	2570.930488
532.220098	2576.594225
532.581396	2574.234965
532.942638	2572.853688
533.303824	2572.462999
533.664953	2578.797209
534.026025	2577.836869
534.387040	2577.468865
534.747999	2575.306210
535.108902	2580.841397
535.469748	2577.000037
535.830537	2577.075655
536.191270	2576.359811
536.551947	2576.624472
536.912567	2573.574573
537.273131	2576.692527
537.633638	2574.973494
537.994089	2576.536251
538.354483	2575.175140
538.714821	2576.248906
539.075103	2576.989955
539.435328	2575.669173
539.795497	2576.155644
540.155609	2575.636405
540.515665	2579.281160
540.875665	2575.013823
541.235609	2577.242013
541.595496	2578.293093
541.955328	2576.500963
542.315102	2575.606158
542.674821	2574.575242
543.034483	2578.217476
543.394090	2575.485171
543.753640	2578.716550
544.113134	2573.398133
544.472571	2575.926272
544.831953	2575.573391
545.191278	2577.305027
545.550548	2574.398802
545.909761	2576.203535
546.268918	2574.129100
546.628019	2576.468196
546.987064	2574.648339
547.346053	2578.177147
547.704986	2574.111456
548.063863	2574.857547
548.422684	2576.516087
548.781449	2577.917527
549.140158	2573.314954
549.498811	2577.209245
549.857408	2573.453586
550.215949	2570.996023
550.574434	2572.226065
550.932864	2573.098184
551.291237	2573.529203
551.649555	2577.781416
552.007817	2576.251426
552.366022	2576.032136
552.724173	2576.047259
553.082267	2575.953998
553.440305	2574.653380
553.798288	2575.535582
554.156215	2576.311920
554.514086	2575.719584
554.871902	2571.656414
555.229661	2575.691858
555.587365	2575.573391
555.945014	2573.743452
556.302606	2572.478122
556.660143	2575.485171
557.017625	2576.100192
557.375050	2576.586663
557.732421	2575.235634
558.089735	2575.086920
558.446994	2576.778227
558.804197	2575.180181
559.161345	2574.671024
559.518437	2576.074986
559.875474	2571.353945
560.232455	2575.326374
560.589381	2574.325705
560.946251	2576.352249
561.303065	2576.107753
561.659825	2574.605489
562.016528	2573.206569
562.373177	2574.993658
562.729770	2572.735221
563.086307	2575.097002
563.442789	2576.251426
563.799216	2574.915520
564.155587	2573.440983
564.511904	2578.194791
564.868164	2574.277814
565.224370	2575.666652
565.580520	2574.000551
565.936615	2573.811508
566.292654	2574.310582
566.648638	2572.717577
567.004567	2573.572053
567.360441	2573.249419
567.716260	2569.657597
568.072023	2573.766137
568.427732	2569.203893
568.783385	2572.664645
569.138982	2570.640622
569.494525	2569.322360
569.850013	2569.738255
570.205445	2569.859243
570.560823	2573.135993
570.916145	2573.519121
571.271412	2570.582649
571.626625	2572.674727
571.981782	2571.999213
572.336884	2570.643142
572.691931	2571.132134
573.046923	2573.985427
573.401860	2572.132803
573.756743	2571.207752
574.111570	2573.967783
574.466342	2572.468040
574.821059	2575.008782
575.175722	2569.559294
575.530330	2571.729511
575.884882	2573.052814
576.239380	2572.946950
576.593823	2572.110118
576.948211	2572.505849
577.302544	2571.797567
577.656823	2572.190777
578.011047	2569.561815
578.365216	2570.310426
578.719330	2570.716239
579.073389	2569.650035
579.427394	2569.156002
579.781344	2568.929150
580.135239	2567.005950
580.489080	2571.558112
580.842866	2568.835889
581.196597	2569.851681
581.550273	2571.033832
581.903895	2569.846640
582.257463	2569.166084
582.610975	2566.516958
582.964434	2568.883780
583.317837	2567.810014
583.671186	2570.973338
584.024481	2568.851012
584.377721	2569.408060
584.730906	2570.421332
585.084037	2567.570559
585.437113	2572.047104
585.790135	2569.188770
586.143103	2567.419325
586.496016	2567.129458
586.848874	2564.452606
587.201679	2566.416135
587.554428	2564.775239
587.907124	2563.882955
588.259765	2564.533264
588.612352	2565.612071
588.964884	2570.023081
589.317362	2566.426217
589.669786	2566.781619
590.022155	2569.012329
590.374470	2569.103070
590.726731	2567.394119
591.078937	2567.288255
591.431090	2567.222720
591.783188	2565.843964
592.135232	2566.355641
592.487222	2567.976372
592.839157	2567.857905
593.191038	2567.048800
593.542866	2565.516289
593.894639	2564.601320
594.246358	2565.818758
594.598022	2567.946125
594.949633	2565.670044
595.301190	2565.549057
595.652692	2566.572411
596.004141	2562.748696
596.355535	2565.155847
596.706876	2567.414283
597.058162	2562.415979
597.409395	2561.359858
597.760573	2563.328428
598.111698	2562.428582
598.462768	2564.775239
598.813785	2565.352452
599.164748	2562.312636
599.515657	2563.943449
599.866511	2564.147616
600.217312	2563.898079
600.568060	2566.569890
600.918753	2564.674416
601.269392	2560.265927
601.619978	2562.418500
601.970510	2563.083932
602.320988	2563.673747
602.671412	2565.584345
603.021783	2563.701474
603.372100	2565.198696
603.722363	2561.604354
604.072572	2563.951011
604.422728	2565.912020
604.772830	2559.595454
605.122878	2560.054199
605.472872	2558.136040
605.822813	2561.881617
606.172701	2563.419169
606.522534	2562.194169
606.872314	2563.794735
607.222041	2564.071998
607.571714	2564.102245
607.921333	2563.545198
608.270899	2563.119220
608.620411	2563.837585
608.969870	2565.818758
609.319276	2567.265569
609.668627	2567.436969
610.017926	2569.466033
610.367171	2570.867474
610.716362	2570.169274
611.065500	2569.468554
611.414585	2565.914540
611.763616	2567.341187
612.112594	2566.126269
612.461518	2566.237174
612.810389	2567.056362
613.159207	2566.262380
613.507971	2563.424210
613.856682	2566.514437
614.205340	2563.159550
614.553945	2562.597461
614.902496	2565.274314
615.250994	2562.567214
615.599439	2563.535116
615.947830	2566.194324
616.296169	2563.439334
616.644454	2564.782801
616.992686	2565.738100
617.340864	2565.589386
617.688990	2562.395815
618.037063	2564.543346
618.385082	2562.816751
618.733048	2564.462688
619.080961	2563.681309
619.428821	2564.742472
619.776628	2561.964796
620.124382	2566.002760
620.472083	2563.101576
620.819731	2562.297512
621.167326	2562.050496
621.514868	2564.558470
621.862357	2561.014539
622.209793	2563.114179
622.557176	2564.142575
622.904506	2562.526885
623.251783	2557.931873
623.599007	2558.922460
623.946179	2555.244938
624.293297	2557.924311
624.640363	2559.144271
624.987376	2561.367419
625.334336	2558.998077
625.681243	2560.538150
626.028097	2561.077553
626.374899	2557.982285
626.721647	2559.797100
627.068343	2561.521175
627.414987	2558.751061
627.761577	2561.367419
628.108115	2558.993036
628.454600	2558.446071
628.801032	2555.123950
629.147412	2559.056050
629.493739	2559.628221
629.840014	2559.131668
630.186236	2557.979764
630.532405	2555.794424
630.878521	2560.366750
631.224585	2558.987995
631.570597	2556.926163
631.916556	2558.004970
632.262462	2555.542366
632.608316	2558.085628
632.954117	2556.162428
633.299866	2557.198385
633.645562	2559.073694
633.991206	2560.071843
634.336797	2557.578992
634.682336	2558.950186
635.027823	2554.284598
635.373257	2555.867521
635.718639	2554.224104
636.063968	2554.738302
636.409245	2556.689229
636.754470	2554.239228
637.099642	2554.461039
637.444762	2557.100083
637.789829	2555.338199
638.134845	2556.396842
638.479808	2555.754095
638.824719	2554.508930
639.169577	2556.240566
639.514383	2554.798796
639.859137	2552.454659
640.203839	2556.520350
640.548489	2553.956923
640.893086	2551.552293
641.237632	2550.254196
641.582125	2549.918959
641.926566	2549.213197
642.270955	2553.185627
642.615292	2554.493806
642.959576	2554.617314
643.303809	2557.475649
643.647990	2555.260062
643.992118	2552.174875
644.336195	2555.451625
