Dividing Wavelength (nm)	Counts (n)	Blue Motor Position (mm): 0.000000	Red Motor Position (mm): 0.500000	
326.493990	2129.698457
326.888308	2129.698457
327.282561	2129.698457
327.676750	2095.821903
328.070874	2096.615885
328.464933	2098.261821
328.858929	2105.372369
329.252859	2112.233379
329.646726	2126.182252
330.040528	2136.264560
330.434265	2155.607467
330.827938	2169.634478
331.221547	2189.042920
331.615091	2208.952957
332.008571	2227.879969
332.401986	2246.741446
332.795338	2269.174581
333.188625	2289.929011
333.581847	2304.434931
333.975006	2323.422437
334.368100	2344.476816
334.761129	2357.752695
335.154095	2377.161137
335.546996	2394.636297
335.939833	2409.018709
336.332606	2422.037489
336.725315	2435.535178
337.117960	2445.327620
337.510540	2452.755760
337.903056	2463.153140
338.295508	2472.627988
338.687896	2480.358598
339.080220	2487.713641
339.472480	2493.367295
339.864676	2498.176556
340.256807	2504.087309
340.648875	2505.614778
341.040879	2510.648371
341.432818	2511.704492
341.824694	2512.301869
342.216506	2508.697444
342.608253	2514.663650
342.999937	2510.663494
343.391557	2514.514936
343.783113	2511.815398
344.174605	2511.301200
344.566033	2506.580159
344.957397	2504.848523
345.348697	2505.871877
345.739934	2506.186949
346.131106	2503.812566
346.522215	2498.605054
346.913260	2498.267297
347.304241	2496.825527
347.695159	2496.883500
348.086012	2493.032058
348.476802	2494.360402
348.867528	2489.649444
349.258191	2486.854124
349.648789	2488.883189
350.039324	2484.583085
350.429796	2483.829432
350.820203	2484.935965
351.210548	2481.986890
351.600828	2478.478247
351.991045	2480.943372
352.381198	2480.161993
352.771288	2477.512866
353.161314	2478.780717
353.551276	2480.383803
353.941175	2479.577219
354.331010	2477.475058
354.720782	2479.267188
355.110490	2479.993114
355.500135	2481.472693
355.889717	2479.441108
356.279235	2479.423464
356.668689	2480.144349
357.058080	2478.861375
357.447408	2480.267857
357.836672	2476.786940
358.225873	2481.026551
358.615010	2477.061683
359.004084	2483.100985
359.393095	2481.588639
359.782043	2485.576192
360.170927	2482.493526
360.559748	2483.932776
360.948505	2483.403455
361.337199	2485.931593
361.725830	2487.496872
362.114398	2487.638024
362.502903	2488.618528
362.891344	2487.632983
363.279722	2485.845894
363.668037	2487.993425
364.056289	2489.604074
364.444478	2488.805051
364.832603	2488.832777
365.220665	2489.979640
365.608665	2491.434013
365.996601	2491.779332
366.384474	2490.214053
366.772284	2492.162459
367.160031	2490.975268
367.547715	2491.270175
367.935336	2490.423261
368.322893	2490.728251
368.710388	2491.779332
369.097820	2492.512820
369.485189	2493.949548
369.872495	2492.331338
370.259738	2495.532471
370.646918	2490.899650
371.034035	2492.971565
371.421090	2494.569610
371.808081	2495.333345
372.195010	2494.378047
372.581875	2496.520537
372.968678	2495.598006
373.355418	2497.380054
373.742096	2493.614312
374.128710	2494.496514
374.515262	2495.262769
374.901751	2494.451143
375.288177	2495.787049
375.674540	2495.272851
376.060841	2494.945176
376.447079	2495.345948
376.833254	2497.448109
377.219367	2493.727738
377.605417	2494.713283
377.991404	2493.268993
378.377329	2492.802686
378.763191	2498.048007
379.148991	2499.474653
379.534727	2496.399549
379.920402	2498.531957
380.306013	2499.366268
380.691563	2497.871566
381.077049	2497.110352
381.462474	2499.623367
381.847835	2499.804849
382.233134	2501.337359
382.618371	2499.754437
383.003545	2498.688233
383.388657	2500.639160
383.773706	2501.087822
384.158693	2497.992554
384.543618	2500.795435
384.928480	2501.171001
385.313280	2502.491784
385.698017	2501.418018
386.082692	2502.511948
386.467305	2503.678975
386.851856	2501.372648
387.236344	2502.950529
387.620770	2505.443379
388.005133	2503.409274
388.389435	2503.507576
388.773674	2504.024294
389.157851	2502.212000
389.541965	2504.052021
389.926018	2504.808194
390.310008	2503.202586
390.693936	2504.170488
391.077802	2500.467760
391.461606	2508.732732
391.845348	2505.032525
392.229027	2503.913389
392.612645	2505.836589
392.996200	2507.540499
393.379694	2503.202586
393.763125	2509.589728
394.146494	2506.988493
394.529801	2507.873215
394.913047	2505.420694
395.296230	2508.014368
395.679351	2506.310458
396.062410	2507.767351
396.445408	2505.690396
396.828343	2508.959584
397.211217	2502.148985
397.594028	2507.144769
397.976778	2504.435148
398.359466	2507.260715
398.742092	2501.533964
399.124656	2507.104439
399.507158	2506.128976
399.889598	2509.486385
400.271977	2509.456138
400.654294	2510.587877
401.036549	2511.535614
401.418742	2510.290449
401.800874	2510.913031
402.182944	2510.381189
402.564952	2509.403206
402.946898	2511.777589
403.328783	2508.891528
403.710606	2512.306910
404.092367	2510.696262
404.474067	2511.570902
404.855705	2509.541837
405.237282	2512.327075
405.618797	2511.132321
406.000250	2511.792713
406.381642	2511.107116
406.762972	2510.666015
407.144240	2514.648526
407.525447	2513.531911
407.906593	2512.770696
408.287677	2512.332116
408.668700	2511.076869
409.049661	2511.132321
409.430560	2513.083248
409.811399	2513.466376
410.192176	2515.245903
410.572891	2515.697086
410.953545	2516.281860
411.334138	2513.199194
411.714669	2512.004441
412.095139	2514.633403
412.475547	2515.684483
412.855894	2513.355470
413.236180	2512.972342
413.616405	2516.440656
413.996568	2515.324041
414.376670	2516.869154
414.756711	2514.467045
415.136691	2513.531911
415.516609	2513.743639
415.896466	2514.875378
416.276262	2518.416789
416.655997	2511.202897
417.035670	2510.600480
417.415283	2516.286901
417.794834	2512.727847
418.174324	2518.242869
418.553753	2514.149452
418.933121	2517.665657
419.312428	2516.334792
419.691674	2515.813033
420.070859	2516.591891
420.449983	2516.261695
420.829045	2517.486696
421.208047	2518.535256
421.586988	2517.388393
421.965867	2516.579288
422.344686	2518.825122
422.723444	2518.752025
423.102141	2514.474606
423.480777	2518.366377
423.859352	2520.193795
424.237866	2521.055833
424.616319	2521.368384
424.994712	2520.067767
425.373044	2516.140708
425.751314	2516.985101
426.129524	2516.722961
426.507673	2519.987108
426.885762	2520.516429
427.263789	2521.370905
427.641756	2521.703621
428.019662	2517.884947
428.397508	2519.649351
428.775292	2520.034999
429.153016	2521.393590
429.530679	2523.392408
429.908282	2521.839732
430.285824	2520.909639
430.663305	2520.342509
431.040726	2520.271933
431.418086	2520.831501
431.795385	2520.113137
432.172624	2520.002232
432.549802	2520.987777
432.926920	2521.234794
433.303977	2522.053981
433.680974	2522.759743
434.057910	2522.061543
434.434786	2521.355781
434.811601	2523.833508
435.188355	2524.123375
435.565050	2522.598426
435.941683	2521.633045
436.318257	2519.084742
436.694770	2518.462159
437.071222	2519.654392
437.447614	2518.257992
437.823946	2519.082221
438.200218	2521.060874
438.576429	2524.191430
438.952580	2523.954496
439.328670	2523.218488
439.704700	2520.992818
440.080670	2525.061029
440.456580	2522.948786
440.832429	2522.729496
441.208218	2521.638086
441.583947	2525.371060
441.959616	2523.019362
442.335224	2523.425175
442.710773	2522.616070
443.086261	2524.297295
443.461689	2525.350896
443.837057	2525.691174
444.212365	2525.696215
444.587612	2524.803931
444.962800	2525.126564
445.337927	2525.494569
445.712995	2523.173117
446.088002	2521.897705
446.462949	2523.677233
446.837837	2526.051616
447.212664	2524.572038
447.587431	2529.182173
447.962139	2523.866276
448.336786	2527.994981
448.711374	2524.491379
449.085901	2525.373581
449.460369	2521.746471
449.834776	2525.751667
450.209124	2525.393746
450.583412	2525.963396
450.957640	2525.111441
451.331808	2526.452388
451.705917	2525.915505
452.079965	2524.514064
452.453954	2526.724610
452.827883	2524.723272
453.201752	2526.923736
453.575562	2527.942049
453.949311	2524.935001
454.323001	2526.790145
454.696632	2527.758047
455.070202	2527.160670
455.443713	2525.393746
455.817164	2523.687315
456.190556	2521.950638
456.563888	2524.826616
456.937160	2522.454753
457.310373	2529.368695
457.683526	2524.793848
458.056619	2526.510361
458.429653	2521.801923
458.802628	2528.751154
459.175542	2527.599250
459.548398	2527.437933
459.921194	2528.136133
460.293930	2530.097142
460.666607	2526.298633
461.039224	2528.897348
461.411782	2528.814168
461.784280	2529.159487
462.156719	2529.202337
462.529099	2528.690660
462.901419	2525.786956
463.273680	2530.263500
463.645882	2528.047913
464.018024	2526.875845
464.390106	2527.773170
464.762130	2527.783253
465.134094	2529.164529
465.505999	2529.351051
465.877845	2527.758047
466.249631	2528.231915
466.621358	2528.199148
466.993026	2530.911288
467.364634	2531.788449
467.736184	2530.840712
468.107674	2528.516740
468.479105	2527.606812
468.850477	2528.269724
469.221790	2532.247194
469.593043	2525.681091
469.964238	2530.303829
470.335373	2529.114117
470.706449	2528.846936
471.077467	2528.375588
471.448425	2532.602596
471.819324	2527.304343
472.190164	2530.931453
472.560945	2528.758716
472.931667	2531.710311
473.302330	2527.881555
473.672934	2530.119827
474.043479	2529.414066
474.413965	2532.514375
474.784393	2527.107738
475.154761	2526.896009
475.525070	2524.350227
475.895321	2526.631349
476.265513	2528.199148
476.635645	2530.157636
477.005719	2530.533202
477.375734	2532.312729
477.745691	2531.375075
478.115588	2530.787780
478.485427	2531.291896
478.855207	2530.568490
479.224928	2529.603109
479.594591	2529.328366
479.964194	2530.518078
480.333739	2528.788963
480.703226	2531.201155
481.072653	2533.063861
481.442022	2528.854498
481.811333	2531.072605
482.180584	2527.863911
482.549777	2530.634025
482.918912	2532.476567
483.287988	2531.291896
483.657005	2529.714014
484.025964	2529.855167
484.394864	2532.814324
484.763706	2532.216947
485.132489	2532.277441
485.501213	2531.092770
485.869879	2531.342307
486.238487	2531.785929
486.607036	2531.034797
486.975527	2531.581762
487.343959	2533.109232
487.712333	2530.248377
488.080648	2531.627132
488.448905	2530.893644
488.817104	2532.441279
489.185244	2531.879190
489.553326	2532.297606
489.921350	2532.985723
490.289315	2532.849612
490.657222	2532.721063
491.025070	2533.822555
491.392861	2529.262831
491.760593	2532.148892
492.128267	2533.683923
492.495883	2532.307688
492.863440	2533.898172
493.230939	2534.699716
493.598380	2532.844571
493.965763	2528.972965
494.333088	2532.789118
494.700354	2528.408356
495.067563	2531.372554
495.434713	2527.682429
495.801805	2532.973120
496.168839	2533.981351
496.535815	2531.690147
496.902733	2531.889272
497.269593	2531.864067
497.636395	2530.339118
498.003139	2531.334745
498.369825	2533.872966
498.736453	2531.667462
499.103023	2533.270548
499.469535	2535.365148
499.835989	2533.454551
500.202385	2535.299613
500.568723	2533.583100
500.935003	2533.013450
501.301226	2534.009078
501.667390	2533.237781
502.033497	2533.235260
502.399546	2534.162833
502.765537	2532.811803
503.131470	2536.078471
503.497345	2534.964376
503.863163	2533.686444
504.228923	2531.271731
504.594625	2535.100487
504.960269	2532.469005
505.325856	2534.218285
505.691385	2532.055630
506.056856	2536.905220
506.422270	2535.380271
506.787625	2535.531506
507.152924	2530.840712
507.518164	2532.559746
507.883347	2532.058151
508.248472	2533.217616
508.613540	2534.165353
508.978550	2535.072761
509.343503	2534.369520
509.708398	2534.125024
510.073236	2535.488656
510.438016	2537.502597
510.802738	2532.350538
511.167403	2533.467153
511.532010	2533.381454
511.896561	2535.455889
512.261053	2537.381609
512.625488	2534.036804
512.989866	2530.596216
513.354186	2532.799201
513.718449	2528.194107
514.082655	2532.358100
514.446803	2534.125024
514.810894	2530.883562
515.174927	2539.622402
515.538904	2534.029242
515.902822	2534.283820
516.266684	2532.622760
516.630488	2535.052596
516.994235	2532.806762
517.357925	2535.874304
517.721558	2535.922195
518.085133	2535.042514
518.448651	2533.711649
518.812112	2533.648635
519.175516	2534.319108
519.538863	2534.069571
519.902152	2537.449665
520.265385	2534.639222
520.628560	2537.550488
520.991678	2534.969417
521.354739	2533.971269
521.717743	2535.463450
522.080690	2537.109387
522.443580	2534.888759
522.806413	2534.765251
523.169189	2533.573018
523.531908	2532.726104
523.894569	2534.568646
524.257174	2533.676361
524.619722	2535.050076
524.982213	2538.024357
525.344647	2533.774664
525.707025	2536.640560
526.069345	2536.086033
526.431608	2536.799356
526.793815	2535.297092
527.155964	2534.936650
527.518057	2534.757689
527.880093	2535.105528
528.242072	2536.716177
528.603995	2536.741383
528.965860	2535.705426
529.327669	2535.607123
529.689421	2535.221475
530.051117	2533.696526
530.412755	2535.423121
530.774337	2538.253729
531.135862	2533.918337
531.497331	2534.102339
531.858743	2530.921371
532.220098	2531.513706
532.581396	2531.284334
532.942638	2533.615868
533.303824	2533.444468
533.664953	2538.349511
534.026025	2535.476053
534.387040	2535.372710
534.747999	2536.842206
535.108902	2534.888759
535.469748	2536.542257
535.830537	2536.108718
536.191270	2536.133924
536.551947	2534.624098
536.912567	2536.360776
537.273131	2538.599048
537.633638	2535.960004
537.994089	2534.558563
538.354483	2536.706095
538.714821	2537.195087
539.075103	2536.950591
539.435328	2536.900179
539.795497	2534.427493
540.155609	2534.878677
540.515665	2535.801208
540.875665	2533.136958
541.235609	2535.347504
541.595496	2538.904038
541.955328	2535.095446
542.315102	2537.542926
542.674821	2536.229706
543.034483	2538.495704
543.394090	2534.092257
543.753640	2535.949922
544.113134	2536.360776
544.472571	2538.455375
544.831953	2536.486805
545.191278	2534.717360
545.550548	2535.776002
545.909761	2535.390354
546.268918	2534.573687
546.628019	2536.748945
546.987064	2535.864222
547.346053	2538.364634
547.704986	2536.295241
548.063863	2534.712318
548.422684	2536.416228
548.781449	2536.950591
549.140158	2534.223327
549.498811	2538.576363
549.857408	2537.850437
550.215949	2533.535209
550.574434	2534.608975
550.932864	2533.338604
551.291237	2531.559077
551.649555	2536.968235
552.007817	2536.943029
552.366022	2537.426980
552.724173	2534.422452
553.082267	2536.698533
553.440305	2537.351362
553.798288	2536.993441
554.156215	2535.576876
554.514086	2536.174253
554.871902	2538.553678
555.229661	2537.580735
555.587365	2536.446475
555.945014	2537.119469
556.302606	2536.983358
556.660143	2535.982689
557.017625	2537.651311
557.375050	2535.712987
557.732421	2532.355579
558.089735	2535.884387
558.446994	2534.969417
558.804197	2537.363965
559.161345	2536.864891
559.518437	2538.311702
559.875474	2537.631147
560.232455	2537.842875
560.589381	2538.997299
560.946251	2539.594676
561.303065	2538.594007
561.659825	2539.783719
562.016528	2536.796836
562.373177	2537.684079
562.729770	2536.927906
563.086307	2539.322454
563.442789	2536.270035
563.799216	2537.285827
564.155587	2536.917823
564.511904	2539.355221
564.868164	2537.850437
565.224370	2538.321785
565.580520	2536.827083
565.936615	2537.714326
566.292654	2538.314223
566.648638	2537.336239
567.004567	2537.089222
567.360441	2534.490508
567.716260	2535.367668
568.072023	2534.919006
568.427732	2531.964890
568.783385	2536.433872
569.138982	2531.783408
569.494525	2533.573018
569.850013	2533.179808
570.205445	2537.210210
570.560823	2533.777184
570.916145	2537.605941
571.271412	2538.047042
571.626625	2535.740714
571.981782	2536.703574
572.336884	2537.958822
572.691931	2535.912113
573.046923	2536.353214
573.401860	2534.553522
573.756743	2538.341949
574.111570	2536.388502
574.466342	2535.987730
574.821059	2537.343801
575.175722	2538.420087
575.530330	2537.336239
575.884882	2538.319264
576.239380	2536.058307
576.593823	2539.090561
576.948211	2537.666435
577.302544	2538.110056
577.656823	2536.277597
578.011047	2536.600231
578.365216	2539.297248
578.719330	2537.353883
579.073389	2538.578883
579.427394	2535.113090
579.781344	2536.088553
580.135239	2537.598379
580.489080	2539.314892
580.842866	2535.849099
581.196597	2538.561239
581.550273	2539.511497
581.903895	2536.053265
582.257463	2541.475026
582.610975	2535.836496
582.964434	2536.587628
583.317837	2538.823379
583.671186	2538.813297
584.024481	2538.778009
584.377721	2536.632998
584.730906	2536.756506
585.084037	2539.143493
585.437113	2537.197607
585.790135	2535.213913
586.143103	2537.719367
586.496016	2536.746424
586.848874	2533.434386
587.201679	2534.314067
587.554428	2534.677030
587.907124	2533.938501
588.259765	2534.004036
588.612352	2539.181301
588.964884	2538.407484
589.317362	2536.275076
589.669786	2536.191897
590.022155	2535.781043
590.374470	2535.080323
590.726731	2540.116435
591.078937	2538.447813
591.431090	2538.536034
591.783188	2537.109387
592.135232	2538.924202
592.487222	2535.760878
592.839157	2536.569984
593.191038	2537.928575
593.542866	2535.544109
593.894639	2538.173071
594.246358	2536.393543
594.598022	2536.350693
594.949633	2535.395395
595.301190	2536.272556
595.652692	2535.791125
596.004141	2537.220293
596.355535	2540.169368
596.706876	2535.909592
597.058162	2537.699202
597.409395	2537.948739
597.760573	2538.200797
598.111698	2535.690302
598.462768	2539.786240
598.813785	2535.841537
599.164748	2539.619882
599.515657	2538.112577
599.866511	2537.356404
600.217312	2539.156096
600.568060	2535.534027
600.918753	2538.752803
601.269392	2539.440921
601.619978	2537.026208
601.970510	2538.420087
602.320988	2534.243491
602.671412	2539.385468
603.021783	2536.859850
603.372100	2534.999664
603.722363	2538.624254
604.072572	2537.696682
604.422728	2538.273894
604.772830	2534.067051
605.122878	2533.389016
605.472872	2535.556712
605.822813	2533.162164
606.172701	2537.139634
606.522534	2538.694830
606.872314	2538.798174
607.222041	2537.081661
607.571714	2539.161137
607.921333	2537.308513
608.270899	2537.951260
608.620411	2536.219623
608.969870	2540.522248
609.319276	2539.466127
609.668627	2543.156251
610.017926	2546.458207
610.367171	2546.054915
610.716362	2545.079451
611.065500	2542.788247
611.414585	2542.727753
611.763616	2539.113246
612.112594	2541.485109
612.461518	2541.926210
612.810389	2540.915458
613.159207	2540.358411
613.507971	2538.954449
613.856682	2539.299768
614.205340	2537.941178
614.553945	2537.449665
614.902496	2537.003523
615.250994	2537.855478
615.599439	2538.898997
615.947830	2540.754141
616.296169	2533.847761
616.644454	2538.314223
616.992686	2536.716177
617.340864	2537.066537
617.688990	2535.778523
618.037063	2537.898328
618.385082	2537.069058
618.733048	2537.747093
619.080961	2537.691640
619.428821	2538.934285
619.776628	2536.519572
620.124382	2539.476209
620.472083	2537.986548
620.819731	2537.673996
621.167326	2537.416897
621.514868	2537.245498
621.862357	2537.860519
622.209793	2539.524100
622.557176	2535.576876
622.904506	2536.320447
623.251783	2536.196938
623.599007	2537.369007
623.946179	2533.149561
624.293297	2534.349355
624.640363	2536.900179
624.987376	2538.036959
625.334336	2538.352032
625.681243	2537.684079
626.028097	2536.887576
626.374899	2536.489325
626.721647	2538.170550
627.068343	2539.168698
627.414987	2540.396219
627.761577	2540.156765
628.108115	2537.636188
628.454600	2537.303472
628.801032	2539.791281
629.147412	2538.205838
629.493739	2538.346990
629.840014	2538.830941
630.186236	2536.582587
630.532405	2538.218441
630.878521	2539.340098
631.224585	2539.624923
631.570597	2536.960673
631.916556	2535.339942
632.262462	2537.832793
632.608316	2538.152906
632.954117	2537.863040
633.299866	2533.706608
633.645562	2537.464788
633.991206	2537.800025
634.336797	2538.470499
634.682336	2539.987886
635.027823	2535.932278
635.373257	2534.777853
635.718639	2535.488656
636.063968	2536.640560
636.409245	2536.469161
636.754470	2536.451517
637.099642	2535.287010
637.444762	2535.965045
637.789829	2538.447813
638.134845	2536.146527
638.479808	2535.140817
638.824719	2536.988399
639.169577	2536.222144
639.514383	2536.156609
639.859137	2539.861857
640.203839	2536.630477
640.548489	2537.341280
640.893086	2532.960518
641.237632	2534.351876
641.582125	2534.210724
641.926566	2532.055630
642.270955	2536.025539
642.615292	2537.477391
642.959576	2538.082330
643.303809	2536.781712
643.647990	2538.107536
643.992118	2535.818852
644.336195	2538.866229
