Dividing Wavelength (nm)	Counts (n)	Blue Motor Position (mm): 0.000000	Red Motor Position (mm): 44.100000	
326.493990	2128.796090
326.888308	2128.796090
327.282561	2128.796090
327.676750	2093.893662
328.070874	2095.479104
328.464933	2097.475401
328.858929	2104.868253
329.252859	2112.442587
329.646726	2127.858436
330.040528	2137.497122
330.434265	2151.897178
330.827938	2172.099602
331.221547	2191.807993
331.615091	2211.491178
332.008571	2228.084136
332.401986	2246.570047
332.795338	2266.011257
333.188625	2286.992539
333.581847	2304.250929
333.975006	2323.379588
334.368100	2342.382217
334.761129	2359.413755
335.154095	2374.902700
335.546996	2398.386916
335.939833	2421.397262
336.332606	2436.518203
336.725315	2447.641509
337.117960	2459.205916
337.510540	2466.167750
337.903056	2475.403143
338.295508	2486.952427
338.687896	2493.614312
339.080220	2500.722339
339.472480	2507.031343
339.864676	2510.224914
340.256807	2516.687673
340.648875	2519.026768
341.040879	2520.748322
341.432818	2527.165711
341.824694	2526.830474
342.216506	2526.217974
342.608253	2525.587830
342.999937	2524.950124
343.391557	2525.338293
343.783113	2520.902077
344.174605	2523.548683
344.566033	2519.127591
344.957397	2519.651871
345.348697	2520.861748
345.739934	2516.458300
346.131106	2515.865965
346.522215	2513.650378
346.913260	2513.559637
347.304241	2512.775738
347.695159	2509.917403
348.086012	2506.255005
348.476802	2506.144100
348.867528	2503.648728
349.258191	2503.313492
349.648789	2504.477998
350.039324	2500.707215
350.429796	2500.961793
350.820203	2498.264776
351.210548	2497.125475
351.600828	2495.345948
351.991045	2494.904847
352.381198	2496.255876
352.771288	2497.427945
353.161314	2495.330825
353.551276	2494.695639
353.941175	2493.954590
354.331010	2492.681698
354.720782	2494.766215
355.110490	2492.308653
355.500135	2495.169508
355.889717	2496.465084
356.279235	2495.913078
356.668689	2495.698829
357.058080	2495.313181
357.447408	2492.409476
357.836672	2495.550115
358.225873	2492.253200
358.615010	2494.380567
359.004084	2497.657317
359.393095	2498.080774
359.782043	2501.055055
360.170927	2500.709736
360.559748	2500.157729
360.948505	2497.990033
361.337199	2502.494304
361.725830	2500.797956
362.114398	2502.406084
362.502903	2505.327433
362.891344	2506.706188
363.279722	2505.302227
363.668037	2508.082423
364.056289	2503.999089
364.444478	2504.631753
364.832603	2505.019922
365.220665	2506.083606
365.608665	2507.709378
365.996601	2511.210459
366.384474	2509.982938
366.772284	2511.467558
367.160031	2514.184740
367.547715	2514.895543
367.935336	2520.894516
368.322893	2519.639268
368.710388	2523.372243
369.097820	2529.570342
369.485189	2531.430527
369.872495	2537.782381
370.259738	2544.189688
370.646918	2551.650595
371.034035	2561.783315
371.421090	2568.805642
371.808081	2578.351067
372.195010	2590.732141
372.581875	2604.376023
372.968678	2616.358846
373.355418	2625.909312
373.742096	2645.216931
374.128710	2658.596154
374.515262	2674.705161
374.901751	2690.859538
375.288177	2702.378575
375.674540	2726.523181
376.060841	2742.022209
376.447079	2762.113727
376.833254	2784.456121
377.219367	2794.455250
377.605417	2833.002433
377.991404	2841.955522
378.377329	2864.764223
378.763191	2882.975391
379.148991	2920.713468
379.534727	2945.773044
379.920402	2975.404947
380.306013	2987.244096
380.691563	3036.773433
381.077049	3056.738923
381.462474	3075.534865
381.847835	3115.639764
382.233134	3136.663896
382.618371	3135.781694
383.003545	3205.566387
383.388657	3212.258519
383.773706	3245.570463
384.158693	3261.308946
384.543618	3287.880868
384.928480	3320.166938
385.313280	3368.448588
385.698017	3369.809700
386.082692	3420.740477
386.467305	3425.605191
386.851856	3456.628452
387.236344	3480.019405
387.620770	3509.737007
388.005133	3539.840257
388.389435	3569.358734
388.773674	3577.805187
389.157851	3618.704068
389.541965	3635.256697
389.926018	3599.131788
390.310008	3670.522089
390.693936	3690.686704
391.077802	3729.148187
391.461606	3718.539079
391.845348	3779.758851
392.229027	3783.448976
392.612645	3793.571613
392.996200	3872.921895
393.379694	3910.400353
393.763125	3983.852485
394.146494	3946.179943
394.529801	4005.113552
394.913047	4057.292015
395.296230	4020.673073
395.679351	4078.081733
396.062410	4099.189044
396.445408	4078.139706
396.828343	4112.981641
397.211217	4142.101866
397.594028	4060.306625
397.976778	4124.092344
398.359466	4149.330881
398.742092	4177.473122
399.124656	4101.288685
399.507158	4183.396478
399.889598	4205.557390
400.271977	4273.592803
400.654294	4243.605499
401.036549	4251.910800
401.418742	4217.875450
401.800874	4320.173064
402.182944	4340.899768
402.564952	4407.188421
402.946898	4389.927510
403.328783	4390.179568
403.710606	4304.883245
404.092367	4494.085310
404.474067	4458.411585
404.855705	4466.837874
405.237282	4399.077204
405.618797	4504.943956
406.000250	4537.711456
406.381642	4622.309579
406.762972	4581.264504
407.144240	4594.890743
407.525447	4591.167851
407.906593	4648.783198
408.287677	4694.347667
408.668700	4621.208087
409.049661	4674.488042
409.430560	4720.173498
409.811399	4641.287002
410.192176	4803.395387
410.572891	4745.764916
410.953545	4849.300134
411.334138	4724.569385
411.714669	4794.230569
412.095139	4688.197460
412.475547	4831.787165
412.855894	4812.124145
413.236180	4819.466585
413.616405	4774.549904
413.996568	4863.707751
414.376670	4804.512002
414.756711	4754.987707
415.136691	4790.943737
415.516609	4866.026682
415.896466	4909.209206
416.276262	4939.516623
416.655997	4923.654632
417.035670	5099.273309
417.415283	5192.610272
417.794834	5141.397190
418.174324	5091.782154
418.553753	5000.058360
418.933121	5181.865053
419.312428	5254.641670
419.691674	5192.184295
420.070859	5313.920598
420.449983	5228.092434
420.829045	5341.770453
421.208047	5251.317029
421.586988	5321.626002
421.965867	5336.469680
422.344686	5460.620696
422.723444	5319.463347
423.102141	5140.043641
423.480777	5437.272592
423.859352	5207.458991
424.237866	5469.563703
424.616319	5457.769923
424.994712	5571.188323
425.373044	5444.201658
425.751314	5587.466209
426.129524	5387.597062
426.507673	5585.679120
426.885762	5669.785731
427.263789	5600.124546
427.641756	5482.269931
428.019662	5603.532366
428.397508	5609.017142
428.775292	5556.513524
429.153016	5656.356097
429.530679	5579.854067
429.908282	5665.334392
430.285824	5535.945617
430.663305	5812.021887
431.040726	5544.447523
431.418086	5549.662596
431.795385	5652.119007
432.172624	5662.677704
432.549802	5657.485315
432.926920	5669.110216
433.303977	5678.138923
433.680974	5723.327826
434.057910	5737.662347
434.434786	5741.392801
434.811601	5708.363161
435.188355	5947.303771
435.565050	5822.837682
435.941683	5798.889681
436.318257	6014.335993
436.694770	5997.990052
437.071222	6035.922214
437.447614	5967.871678
437.823946	5877.889603
438.200218	6030.664291
438.576429	5897.229989
438.952580	5996.439897
439.328670	6042.407658
439.704700	5945.919974
440.080670	5934.816833
440.456580	6204.969747
440.832429	6086.621098
441.208218	5930.068066
441.583947	6089.033290
441.959616	6091.876501
442.335224	6022.275811
442.710773	6156.466285
443.086261	6181.334297
443.461689	5981.253421
443.837057	6125.037211
444.212365	6284.924967
444.587612	6177.813051
444.962800	6332.841134
445.337927	6305.210570
445.712995	5916.933339
446.088002	6497.891032
446.462949	6328.301575
446.837837	6257.831286
447.212664	6430.997441
447.587431	6574.992959
447.962139	7116.927080
448.336786	8045.535345
448.711374	7782.069522
449.085901	6855.326484
449.460369	6778.325379
449.834776	6711.267951
450.209124	7102.700944
450.583412	7258.465036
450.957640	7402.750421
451.331808	7171.865575
451.705917	6716.931687
452.079965	6634.493698
452.453954	6855.313881
452.827883	6733.378452
453.201752	6817.669064
453.575562	6615.496110
453.949311	6827.068296
454.323001	6716.477983
454.696632	6790.376258
455.070202	6931.833555
455.443713	7082.677481
455.817164	7180.349837
456.190556	7266.901407
456.563888	7342.251534
456.937160	7384.521609
457.310373	7040.919083
457.683526	7061.139151
458.056619	6956.787267
458.429653	6945.469876
458.802628	6880.242387
459.175542	6987.253480
459.548398	7339.183992
459.921194	7504.037284
460.293930	7504.644743
460.666607	8035.137965
461.039224	8346.550203
461.411782	8472.722722
461.784280	8496.930343
462.156719	8379.390800
462.529099	8264.896113
462.901419	7848.877413
463.273680	7744.487720
463.645882	7753.455932
464.018024	7621.937270
464.390106	7783.559182
464.762130	8175.506373
465.134094	8637.820510
465.505999	9664.816975
465.877845	10886.530527
466.249631	11540.857173
466.621358	11153.930971
466.993026	10524.421926
467.364634	10267.255024
467.736184	9908.791177
468.107674	9580.181043
468.479105	9606.974776
468.850477	9367.323363
469.221790	9145.782295
469.593043	8816.121081
469.964238	8676.211417
470.335373	8680.723250
470.706449	8745.711285
471.077467	8727.006084
471.448425	10040.571980
471.819324	11110.214085
472.190164	11140.201389
472.560945	9888.422395
472.931667	9092.220036
473.302330	8958.342113
473.672934	8603.812887
474.043479	8965.649266
474.413965	8906.249350
474.784393	8790.650651
475.154761	8944.320144
475.525070	9029.896251
475.895321	8862.121610
476.265513	9032.464719
476.635645	9203.029638
477.005719	9206.339156
477.375734	9316.569026
477.745691	9556.694307
478.115588	9686.244399
478.485427	9929.890926
478.855207	10470.224481
479.224928	11280.579879
479.594591	11907.545663
479.964194	11726.933723
480.333739	11660.859320
480.703226	11583.868297
481.072653	11666.253354
481.442022	11909.955334
481.811333	12099.119591
482.180584	11909.758729
482.549777	11615.693102
482.918912	11435.885226
483.287988	11456.838782
483.657005	11473.346041
484.025964	11156.529686
484.394864	11287.471137
484.763706	11251.351269
485.132489	11012.483756
485.501213	10977.137706
485.869879	11054.027905
486.238487	10894.913966
486.607036	11002.771973
486.975527	10779.244691
487.343959	10972.827519
487.712333	11017.976093
488.080648	10944.531523
488.448905	10992.992135
488.817104	10934.887795
489.185244	11192.641992
489.553326	11344.494148
489.921350	11891.542520
490.289315	12955.959469
490.657222	13294.082260
491.025070	13213.065877
491.392861	13085.638111
491.760593	12704.428577
492.128267	12347.489679
492.495883	12021.715194
492.863440	11683.763802
493.230939	11347.970024
493.598380	11277.177100
493.965763	11151.972483
494.333088	11045.006760
494.700354	10975.827006
495.067563	11028.824656
495.434713	10860.452638
495.801805	10989.498615
496.168839	10915.184446
496.535815	10851.930568
496.902733	10850.710608
497.269593	10777.573548
497.636395	10884.251926
498.003139	10870.673578
498.369825	10732.482948
498.736453	10891.344829
499.103023	10817.645680
499.469535	10855.968532
499.835989	10836.560090
500.202385	10799.689090
500.568723	10649.440021
500.935003	10879.024249
501.301226	10678.605616
501.667390	10935.447363
502.033497	11028.093689
502.399546	10892.607638
502.765537	10797.773452
503.131470	10869.914884
503.497345	11051.346011
503.863163	10662.302525
504.228923	10974.115534
504.594625	11039.826974
504.960269	10786.803901
505.325856	11005.466470
505.691385	10799.787393
506.056856	10957.305807
506.422270	10976.469753
506.787625	10868.425223
507.152924	10992.850982
507.518164	10963.408123
507.883347	10887.190918
508.248472	10798.857300
508.613540	11044.777388
508.978550	10921.954715
509.343503	10892.884902
509.708398	11015.316884
510.073236	11127.472475
510.438016	11130.484565
510.802738	11075.994733
511.167403	11137.358178
511.532010	11034.805985
511.896561	11262.194791
512.261053	11331.203146
512.625488	11206.464835
512.989866	11181.339725
513.354186	11176.908550
513.718449	11069.884854
514.082655	11272.009918
514.446803	11166.967395
514.810894	11286.223451
515.174927	11153.230251
515.538904	11180.306288
515.902822	11332.476038
516.266684	11216.784077
516.630488	11153.341156
516.994235	11216.698378
517.357925	11278.200455
517.721558	11366.173630
518.085133	11381.266845
518.448651	11393.219421
518.812112	11276.231884
519.175516	11290.788216
519.538863	11404.932542
519.902152	11323.873308
520.265385	11486.931950
520.628560	11391.250850
520.991678	11375.449353
521.354739	11444.331680
521.717743	11369.490710
522.080690	11354.790705
522.443580	11486.309368
522.806413	11439.761874
523.169189	11469.860083
523.531908	11528.287056
523.894569	11345.928357
524.257174	11354.604182
524.619722	11470.792696
524.982213	11417.565673
525.344647	11471.609363
525.707025	11416.837227
526.069345	11511.837771
526.431608	11428.260481
526.793815	11536.073118
527.155964	11334.217756
527.518057	11387.147351
527.880093	11338.374187
528.242072	11404.796431
528.603995	11308.638942
528.965860	11224.900335
529.327669	11275.480752
529.689421	11225.159954
530.051117	11198.691376
530.412755	11312.641618
530.774337	11189.413132
531.135862	11173.097438
531.497331	11199.623990
531.858743	11049.107739
532.220098	11215.493542
532.581396	11090.750190
532.942638	11066.494678
533.303824	11029.051508
533.664953	11048.500280
534.026025	10959.823863
534.387040	11049.513552
534.747999	11058.338091
535.108902	11119.454520
535.469748	10876.009639
535.830537	10976.074022
536.191270	10960.010386
536.551947	10975.577469
536.912567	10981.339508
537.273131	10899.745912
537.633638	10876.831347
537.994089	10865.950017
538.354483	10821.761783
538.714821	10959.801178
539.075103	10970.075049
539.435328	10939.243352
539.795497	10761.583008
540.155609	10923.903121
540.515665	11013.988540
540.875665	10739.633825
541.235609	10815.225927
541.595496	10806.454319
541.955328	10965.180089
542.315102	10846.526451
542.674821	10799.459718
543.034483	10799.827722
543.394090	10799.182454
543.753640	10729.886754
544.113134	10960.327978
544.472571	10804.911726
544.831953	10954.414705
545.191278	10758.777606
545.550548	10781.772830
545.909761	10920.911196
546.268918	10902.450491
546.628019	10982.100722
546.987064	10840.734165
547.346053	10768.769173
547.704986	10858.589932
548.063863	10851.723880
548.422684	10845.548467
548.781449	10758.391958
549.140158	10853.674807
549.498811	10729.324665
549.857408	10592.603532
550.215949	10820.579632
550.574434	10672.836016
550.932864	10772.640779
551.291237	10828.607669
551.649555	10777.427355
552.007817	10795.192381
552.366022	10751.407439
552.724173	10752.750907
553.082267	10731.835160
553.440305	10863.762156
553.798288	10664.762608
554.156215	10826.997021
554.514086	10796.858483
554.871902	10649.450103
555.229661	10686.772285
555.587365	10667.114306
555.945014	10557.164220
556.302606	10677.710811
556.660143	10574.349513
557.017625	10730.252237
557.375050	10632.605087
557.732421	10765.378997
558.089735	10676.760554
558.446994	10676.233753
558.804197	10714.889321
559.161345	10722.919879
559.518437	10565.192257
559.875474	10645.921295
560.232455	10680.828765
560.589381	10631.218770
560.946251	10627.790785
561.303065	10738.542415
561.659825	10675.767447
562.016528	10601.707855
562.373177	10477.415687
562.729770	10596.245765
563.086307	10515.609989
563.442789	10604.057033
563.799216	10484.821142
564.155587	10532.868379
564.511904	10487.745011
564.868164	10476.460388
565.224370	10494.091824
565.580520	10416.400081
565.936615	10416.677345
566.292654	10294.673860
566.648638	10417.375544
567.004567	10372.887362
567.360441	10353.436070
567.716260	10269.571434
568.072023	10367.170693
568.427732	10312.902672
568.783385	10223.064269
569.138982	10297.612852
569.494525	10304.970417
569.850013	10184.476757
570.205445	10267.580178
570.560823	10164.788531
570.916145	10085.730636
571.271412	10159.036574
571.626625	10101.333007
571.981782	10076.381816
572.336884	10048.055573
572.691931	10057.301049
573.046923	10002.652420
573.401860	9962.517274
573.756743	9895.502695
574.111570	9940.192524
574.466342	9925.933621
574.821059	9954.522004
575.175722	9842.447072
575.530330	9856.219504
575.884882	9844.062762
576.239380	9773.302606
576.593823	9754.675542
576.948211	9760.031768
577.302544	9645.116146
577.656823	9658.686932
578.011047	9657.900512
578.365216	9634.993509
578.719330	9560.644051
579.073389	9573.188962
579.427394	9516.622175
579.781344	9496.008897
580.135239	9446.688768
580.489080	9451.747566
580.842866	9348.832411
581.196597	9357.203247
581.550273	9395.447960
581.903895	9370.411070
582.257463	9436.581255
582.610975	9307.555443
582.964434	9342.621709
583.317837	9257.287577
583.671186	9240.568591
584.024481	9233.594154
584.377721	9154.816043
584.730906	9129.519533
585.084037	9160.376436
585.437113	9099.423845
585.790135	9120.498388
586.143103	9017.454683
586.496016	8989.811516
586.848874	9051.336278
587.201679	9042.554588
587.554428	8921.342564
587.907124	8970.110687
588.259765	8945.396430
588.612352	8944.262170
588.964884	8818.152666
589.317362	8835.408535
589.669786	8834.922064
590.022155	8884.842090
590.374470	8899.960510
590.726731	8835.007764
591.078937	8692.169190
591.431090	8803.351838
591.783188	8675.354421
592.135232	8668.143051
592.487222	8664.581476
592.839157	8722.043068
593.191038	8651.759301
593.542866	8594.821989
593.894639	8493.310794
594.246358	8549.270123
594.598022	8566.052124
594.949633	8462.494221
595.301190	8435.629912
595.652692	8462.834499
596.004141	8573.389523
596.355535	8350.305863
596.706876	8330.549581
597.058162	8265.455682
597.409395	8344.160696
597.760573	8403.336280
598.111698	8311.128535
598.462768	8297.270403
598.813785	8264.956607
599.164748	8237.215138
599.515657	8221.143939
599.866511	8127.685988
600.217312	8258.309846
600.568060	8117.323896
600.918753	8217.206798
601.269392	8190.508847
601.619978	8100.781350
601.970510	8172.746342
602.320988	8163.987337
602.671412	8218.951037
603.021783	8155.218250
603.372100	8129.858725
603.722363	8130.055330
604.072572	8108.022967
604.422728	8120.668702
604.772830	8049.023823
605.122878	8057.472797
605.472872	8054.117909
605.822813	8081.922393
606.172701	8023.548352
606.522534	8097.902851
606.872314	8093.330525
607.222041	8070.826814
607.571714	8129.984754
607.921333	8077.801250
608.270899	8090.535205
608.620411	8181.122219
608.969870	8080.301662
609.319276	8069.937050
609.668627	8090.646110
610.017926	8128.855536
610.367171	8169.310795
610.716362	8150.053588
611.065500	8141.443297
611.414585	8165.368613
611.763616	8155.301429
612.112594	8136.523131
612.461518	8149.534349
612.810389	8212.299235
613.159207	8150.237590
613.507971	8099.637008
613.856682	8216.745533
614.205340	8172.096033
614.553945	8249.979339
614.902496	8150.121643
615.250994	8197.637039
615.599439	8181.286056
615.947830	8198.017646
616.296169	8169.567894
616.644454	8181.918721
616.992686	8179.241868
617.340864	8237.873008
617.688990	8137.725446
618.037063	8235.417966
618.385082	8185.001387
618.733048	8264.941484
619.080961	8201.695168
619.428821	8221.552273
619.776628	8226.598468
620.124382	8175.047628
620.472083	8159.150350
620.819731	8190.586985
621.167326	8078.479285
621.514868	8089.625277
621.862357	7971.455589
622.209793	7998.425762
622.557176	7927.622757
622.904506	7897.988334
623.251783	7833.088519
623.599007	7787.786190
623.946179	7790.513454
624.293297	7749.158349
624.640363	7668.656163
624.987376	7651.491034
625.334336	7596.063548
625.681243	7547.214767
626.028097	7528.307919
626.374899	7511.185640
626.721647	7502.202304
627.068343	7434.141686
627.414987	7397.510142
627.761577	7354.957762
628.108115	7397.855461
628.454600	7289.485776
628.801032	7337.565781
629.147412	7298.453989
629.493739	7289.727752
629.840014	7216.381484
630.186236	7277.782738
630.532405	7162.811662
630.878521	7211.186575
631.224585	7169.715523
631.570597	7090.188800
631.916556	7120.564273
632.262462	7119.820702
632.608316	7078.402582
632.954117	7058.729480
633.299866	7042.088631
633.645562	7031.197218
633.991206	6952.643438
634.336797	6893.697226
634.682336	6852.503438
635.027823	6816.630587
635.373257	6813.676471
635.718639	6738.651498
636.063968	6755.940136
636.409245	6652.961965
636.754470	6647.078939
637.099642	6603.326765
637.444762	6550.046810
637.789829	6555.720628
638.134845	6505.472927
638.479808	6486.712273
638.824719	6486.457695
639.169577	6416.012611
639.514383	6439.774090
639.859137	6357.129414
640.203839	6372.986363
640.548489	6357.313416
