Dividing Wavelength (nm)	Counts (n)	Blue Motor Position (mm): 0.000000	Red Motor Position (mm): 36.500000	
326.493990	2128.193672
326.888308	2128.193672
327.282561	2128.193672
327.676750	2096.804928
328.070874	2095.695874
328.464933	2097.208220
328.858929	2104.182657
329.252859	2112.951744
329.646726	2122.761829
330.040528	2139.543830
330.434265	2157.530667
330.827938	2172.780158
331.221547	2187.860769
331.615091	2208.905066
332.008571	2227.050699
332.401986	2246.696076
332.795338	2268.632657
333.188625	2286.990018
333.581847	2306.257308
333.975006	2322.762046
334.368100	2340.781651
334.761129	2359.096163
335.154095	2376.087372
335.546996	2397.814745
335.939833	2416.104051
336.332606	2429.153078
336.725315	2442.607917
337.117960	2454.154680
337.510540	2461.164404
337.903056	2471.007257
338.295508	2478.947075
338.687896	2488.195071
339.080220	2498.239570
339.472480	2503.477329
339.864676	2507.850530
340.256807	2512.647188
340.648875	2514.429236
341.040879	2516.801099
341.432818	2519.679598
341.824694	2520.213960
342.216506	2520.410565
342.608253	2522.227901
342.999937	2520.574402
343.391557	2521.083559
343.783113	2516.095337
344.174605	2518.633558
344.566033	2516.848990
344.957397	2515.805471
345.348697	2515.729854
345.739934	2509.632578
346.131106	2512.102743
346.522215	2507.437156
346.913260	2506.255005
347.304241	2508.715088
347.695159	2502.277535
348.086012	2502.413646
348.476802	2499.005826
348.867528	2499.227637
349.258191	2497.652276
349.648789	2496.845691
350.039324	2492.679178
350.429796	2494.340238
350.820203	2493.037100
351.210548	2494.360402
351.600828	2492.601040
351.991045	2489.193220
352.381198	2488.058960
352.771288	2487.622900
353.161314	2490.743375
353.551276	2487.675833
353.941175	2489.866214
354.331010	2490.599702
354.720782	2489.248673
355.110490	2488.081645
355.500135	2488.031234
355.889717	2489.513333
356.279235	2490.352685
356.668689	2488.646255
357.058080	2491.907881
357.447408	2489.135247
357.836672	2485.805564
358.225873	2486.481079
358.615010	2487.900164
359.004084	2492.417038
359.393095	2491.814620
359.782043	2494.683036
360.170927	2493.808396
360.559748	2496.880979
360.948505	2497.619508
361.337199	2498.473984
361.725830	2499.114211
362.114398	2498.995743
362.502903	2497.982472
362.891344	2501.972545
363.279722	2499.182266
363.668037	2501.763337
364.056289	2498.710918
364.444478	2498.872235
364.832603	2499.915754
365.220665	2504.057062
365.608665	2502.847185
365.996601	2506.383554
366.384474	2506.645694
366.772284	2505.778616
367.160031	2507.409429
367.547715	2510.431601
367.935336	2510.565192
368.322893	2516.692714
368.710388	2518.207581
369.097820	2525.471883
369.485189	2527.989940
369.872495	2533.953625
370.259738	2541.991745
370.646918	2549.155224
371.034035	2553.795606
371.421090	2566.698440
371.808081	2575.827969
372.195010	2588.425813
372.581875	2597.832606
372.968678	2611.224431
373.355418	2619.078549
373.742096	2639.258287
374.128710	2654.921153
374.515262	2669.134686
374.901751	2684.689166
375.288177	2699.273224
375.674540	2722.331462
376.060841	2737.563308
376.447079	2755.930752
376.833254	2777.179216
377.219367	2792.711011
377.605417	2827.663851
377.991404	2838.456961
378.377329	2858.125023
378.763191	2876.437014
379.148991	2913.224834
379.534727	2939.022939
379.920402	2966.018318
380.306013	2979.654639
380.691563	3028.596681
381.077049	3050.482851
381.462474	3067.327866
381.847835	3105.449072
382.233134	3129.742392
382.618371	3129.805407
383.003545	3198.251673
383.388657	3202.458516
383.773706	3237.791963
384.158693	3253.805188
384.543618	3282.373407
384.928480	3314.810712
385.313280	3363.462887
385.698017	3358.182279
386.082692	3414.865013
386.467305	3419.230652
386.851856	3451.486475
387.236344	3474.585042
387.620770	3504.461440
388.005133	3528.215357
388.389435	3555.389697
388.773674	3568.589958
389.157851	3610.471864
389.541965	3631.460708
389.926018	3591.708689
390.310008	3664.379443
390.693936	3684.032381
391.077802	3721.972105
391.461606	3712.104046
391.845348	3771.687964
392.229027	3776.908079
392.612645	3787.207156
392.996200	3863.225236
393.379694	3904.131678
393.763125	3970.707677
394.146494	3938.088891
394.529801	3997.380422
394.913047	4048.215417
395.296230	4013.885159
395.679351	4068.052357
396.062410	4094.505812
396.445408	4072.196186
396.828343	4107.068368
397.211217	4130.323210
397.594028	4047.285324
397.976778	4115.330819
398.359466	4145.683606
398.742092	4169.964324
399.124656	4090.601439
399.507158	4174.781146
399.889598	4197.567162
400.271977	4261.383128
400.654294	4232.192327
401.036549	4236.348758
401.418742	4211.954615
401.800874	4313.029749
402.182944	4333.282585
402.564952	4396.982605
402.946898	4382.892580
403.328783	4379.799832
403.710606	4293.961585
404.092367	4483.385461
404.474067	4447.132003
404.855705	4458.482161
405.237282	4388.427767
405.618797	4494.324765
406.000250	4534.701887
406.381642	4610.422538
406.762972	4571.434254
407.144240	4585.531841
407.525447	4582.834824
407.906593	4642.968227
408.287677	4680.734031
408.668700	4610.258701
409.049661	4666.250796
409.430560	4708.553639
409.811399	4636.248369
410.192176	4795.838697
410.572891	4735.702773
410.953545	4835.502496
411.334138	4717.297520
411.714669	4786.205052
412.095139	4679.687992
412.475547	4821.286442
412.855894	4804.287671
413.236180	4811.859484
413.616405	4764.412144
413.996568	4852.723077
414.376670	4796.383142
414.756711	4749.238271
415.136691	4782.028456
415.516609	4859.203480
415.896466	4899.888113
416.276262	4929.139408
416.655997	4908.521088
417.035670	5094.030509
417.415283	5182.046534
417.794834	5130.515860
418.174324	5080.794959
418.553753	4989.507225
418.933121	5174.383981
419.312428	5241.950566
419.691674	5180.516544
420.070859	5305.436337
420.449983	5217.001895
420.829045	5331.231921
421.208047	5241.867387
421.586988	5310.217871
421.965867	5321.240354
422.344686	5451.700374
422.723444	5306.923477
423.102141	5132.978463
423.480777	5425.080561
423.859352	5197.563206
424.237866	5453.621054
424.616319	5446.760043
424.994712	5553.839192
425.373044	5435.656902
425.751314	5576.229477
426.129524	5379.518613
426.507673	5572.115896
426.885762	5655.909955
427.263789	5585.018729
427.641756	5471.229804
428.019662	5588.068627
428.397508	5598.007262
428.775292	5544.286206
429.153016	5641.398993
429.530679	5572.572120
429.908282	5652.035828
430.285824	5524.151837
430.663305	5803.668695
431.040726	5535.013003
431.418086	5538.216657
431.795385	5640.816740
432.172624	5656.106560
432.549802	5647.574407
432.926920	5653.888452
433.303977	5670.625083
433.680974	5706.749991
434.057910	5726.218927
434.434786	5731.794444
434.811601	5701.005597
435.188355	5935.394045
435.565050	5809.690353
435.941683	5790.090347
436.318257	6004.268809
436.694770	5988.550491
437.071222	6022.853023
437.447614	5952.760820
437.823946	5870.526998
438.200218	6016.289440
438.576429	5882.840016
438.952580	5982.211240
439.328670	6025.053486
439.704700	5936.951761
440.080670	5923.323002
440.456580	6193.848961
440.832429	6073.279685
441.208218	5925.478095
441.583947	6079.450057
441.959616	6081.821920
442.335224	6008.435323
442.710773	6140.639582
443.086261	6174.407751
443.461689	5970.054498
443.837057	6113.377022
444.212365	6273.733606
444.587612	6163.554147
444.962800	6312.043854
445.337927	6300.925589
445.712995	5905.230301
446.088002	6485.792263
446.462949	6310.692825
446.837837	6243.408545
447.212664	6421.015956
447.587431	6561.911165
447.962139	7100.757579
448.336786	8025.584979
448.711374	7767.830783
449.085901	6847.137129
449.460369	6766.960098
449.834776	6697.586259
450.209124	7088.137051
450.583412	7236.223465
450.957640	7388.289871
451.331808	7149.681977
451.705917	6702.972732
452.079965	6629.712164
452.453954	6841.491037
452.827883	6715.552932
453.201752	6806.576005
453.575562	6604.224090
453.949311	6815.665206
454.323001	6698.226486
454.696632	6776.951665
455.070202	6911.212715
455.443713	7068.098464
455.817164	7169.990266
456.190556	7248.972543
456.563888	7329.237795
456.937160	7368.321861
457.310373	7027.035745
457.683526	7050.754374
458.056619	6938.369411
458.429653	6933.862619
458.802628	6863.982145
459.175542	6971.189843
459.548398	7321.476939
459.921194	7489.876683
460.293930	7492.041858
460.666607	8024.024742
461.039224	8334.073347
461.411782	8457.518602
461.784280	8473.403278
462.156719	8359.332048
462.529099	8248.093948
462.901419	7834.585742
463.273680	7727.047848
463.645882	7736.061431
464.018024	7603.889939
464.390106	7765.653004
464.762130	8161.776791
465.134094	8625.028582
465.505999	9644.266711
465.877845	10875.316480
466.249631	11523.011488
466.621358	11136.279371
466.993026	10502.813020
467.364634	10247.579401
467.736184	9886.821828
468.107674	9550.712978
468.479105	9586.943751
468.850477	9351.272329
469.221790	9123.601218
469.593043	8790.900188
469.964238	8654.446236
470.335373	8670.237650
470.706449	8727.653872
471.077467	8702.954739
471.448425	10018.222024
471.819324	11089.562998
472.190164	11110.493869
472.560945	9863.244352
472.931667	9077.197397
473.302330	8942.056666
473.672934	8588.676822
474.043479	8952.728788
474.413965	8881.726657
474.784393	8765.026466
475.154761	8921.932379
475.525070	9011.339763
475.895321	8839.544802
476.265513	9016.746401
476.635645	9180.276391
477.005719	9181.904683
477.375734	9298.766191
477.745691	9533.936018
478.115588	9669.192696
478.485427	9908.960056
478.855207	10447.589700
479.224928	11263.487847
479.594591	11893.105277
479.964194	11702.995804
480.333739	11635.930814
480.703226	11559.282590
481.072653	11645.027576
481.442022	11885.205789
481.811333	12073.152607
482.180584	11876.033410
482.549777	11584.377454
482.918912	11413.263048
483.287988	11434.516553
483.657005	11449.408122
484.025964	11126.708740
484.394864	11256.997362
484.763706	11231.521891
485.132489	10991.504994
485.501213	10951.299272
485.869879	11029.356498
486.238487	10871.066788
486.607036	10980.124589
486.975527	10759.995045
487.343959	10948.413211
487.712333	10997.420788
488.080648	10925.307082
488.448905	10969.089504
488.817104	10905.933928
489.185244	11169.175420
489.553326	11332.634834
489.921350	11861.502284
490.289315	12925.831013
490.657222	13272.427984
491.025070	13178.360053
491.392861	13057.382443
491.760593	12674.083352
492.128267	12327.345228
492.495883	11994.089671
492.863440	11659.777992
493.230939	11327.286170
493.598380	11254.827145
493.965763	11131.790223
494.333088	11028.552434
494.700354	10945.000350
495.067563	11008.385298
495.434713	10838.516057
495.801805	10966.763011
496.168839	10885.502132
496.535815	10828.491723
496.902733	10820.156175
497.269593	10748.271842
497.636395	10852.543068
498.003139	10840.555204
498.369825	10717.498118
498.736453	10864.717454
499.103023	10790.471341
499.469535	10820.940074
499.835989	10808.057406
500.202385	10770.710017
500.568723	10621.547316
500.935003	10847.978303
501.301226	10649.331636
501.667390	10906.740513
502.033497	11010.210196
502.399546	10859.033553
502.765537	10776.986254
503.131470	10850.284631
503.497345	11021.812411
503.863163	10635.468463
504.228923	10942.479773
504.594625	11006.872952
504.960269	10757.660991
505.325856	10977.031842
505.691385	10767.455953
506.056856	10920.391957
506.422270	10948.042686
506.787625	10837.754843
507.152924	10955.198604
507.518164	10932.299163
507.883347	10855.406443
508.248472	10776.333425
508.613540	11000.871458
508.978550	10889.431711
509.343503	10864.057063
509.708398	10981.916720
510.073236	11097.013824
510.438016	11097.394431
510.802738	11043.237315
511.167403	11101.019020
511.532010	10993.687814
511.896561	11222.795653
512.261053	11299.481686
512.625488	11166.732981
512.989866	11144.599795
513.354186	11134.023455
513.718449	11041.157839
514.082655	11220.270035
514.446803	11125.128339
514.810894	11242.917419
515.174927	11108.643766
515.538904	11130.625717
515.902822	11286.480550
516.266684	11163.458752
516.630488	11113.649631
516.994235	11161.999338
517.357925	11223.561909
517.721558	11308.402007
518.085133	11324.677372
518.448651	11336.781183
518.812112	11213.456916
519.175516	11229.833104
519.538863	11338.734630
519.902152	11258.981056
520.265385	11407.705176
520.628560	11322.585294
520.991678	11298.201233
521.354739	11362.793537
521.717743	11296.207456
522.080690	11265.181675
522.443580	11392.314534
522.806413	11343.622029
523.169189	11371.285360
523.531908	11418.614233
523.894569	11244.255845
524.257174	11242.022614
524.619722	11354.147958
524.982213	11298.218877
525.344647	11340.345279
525.707025	11286.520879
526.069345	11375.721576
526.431608	11287.269490
526.793815	11388.384954
527.155964	11177.437872
527.518057	11225.109543
527.880093	11171.567448
528.242072	11226.110212
528.603995	11130.396344
528.965860	11045.420135
529.327669	11084.489077
529.689421	11031.231807
530.051117	10994.645633
530.412755	11085.789695
530.774337	10971.020266
531.135862	10941.080853
531.497331	10956.680703
531.858743	10804.528598
532.220098	10962.939296
532.581396	10820.201545
532.942638	10793.606938
533.303824	10751.843499
533.664953	10747.185473
534.026025	10647.859619
534.387040	10736.087373
534.747999	10729.029757
535.108902	10764.839594
535.469748	10519.887408
535.830537	10615.140010
536.191270	10570.785418
536.551947	10578.377395
536.912567	10570.107383
537.273131	10486.381379
537.633638	10441.005953
537.994089	10411.812631
538.354483	10349.201500
538.714821	10475.774791
539.075103	10457.745104
539.435328	10415.316233
539.795497	10234.679088
540.155609	10354.555206
540.515665	10419.036605
540.875665	10157.196553
541.235609	10200.978974
541.595496	10175.185911
541.955328	10302.149891
542.315102	10173.610550
542.674821	10100.297050
543.034483	10091.981667
543.394090	10064.063757
543.753640	9985.920831
544.113134	10152.596500
544.472571	9996.650927
544.831953	10102.079098
545.191278	9905.978213
545.550548	9905.786649
545.909761	10004.857925
546.268918	9956.747673
546.628019	9999.330300
546.987064	9852.811684
547.346053	9756.845759
547.704986	9808.878028
548.063863	9768.427810
548.422684	9743.295137
548.781449	9637.667841
549.140158	9689.392600
549.498811	9551.726250
549.857408	9406.823324
550.215949	9555.839832
550.574434	9402.107324
550.932864	9447.946536
551.291237	9474.180701
551.649555	9385.305159
552.007817	9374.106235
552.366022	9306.174167
552.724173	9261.960727
553.082267	9221.838183
553.440305	9279.027553
553.798288	9105.637067
554.156215	9172.122324
554.514086	9124.745560
554.871902	8972.734607
555.229661	8962.848905
555.587365	8905.225996
555.945014	8792.155435
556.302606	8842.965225
556.660143	8736.402794
557.017625	8795.301115
557.375050	8691.942338
557.732421	8753.293180
558.089735	8637.182804
558.446994	8603.633926
558.804197	8593.244107
559.161345	8551.457983
559.518437	8415.636696
559.875474	8427.445599
560.232455	8406.265191
560.589381	8338.116353
560.946251	8278.245089
561.303065	8336.077206
561.659825	8230.926298
562.016528	8143.716857
562.373177	8036.897328
562.729770	8053.417189
563.086307	7961.625339
563.442789	7987.151222
563.799216	7845.270467
564.155587	7840.889705
564.511904	7769.385978
564.868164	7719.826395
565.224370	7698.119187
565.580520	7585.950993
565.936615	7571.356853
566.292654	7427.593227
566.648638	7474.072666
567.004567	7403.307468
567.360441	7350.987853
567.716260	7250.247955
568.072023	7271.882067
568.427732	7187.372164
568.783385	7114.935824
569.138982	7089.959428
569.494525	7069.199956
569.850013	6955.098480
570.205445	6952.081349
570.560823	6864.609768
570.916145	6770.970336
571.271412	6764.351301
571.626625	6695.249684
571.981782	6644.291181
572.336884	6582.100986
572.691931	6555.955042
573.046923	6465.269725
573.401860	6411.200830
573.756743	6340.009655
574.111570	6317.954607
574.466342	6275.480365
574.821059	6247.282671
575.175722	6158.394526
575.530330	6118.052693
575.884882	6081.378298
576.239380	5997.526266
576.593823	5952.279389
576.948211	5914.551394
577.302544	5832.511656
577.656823	5781.152381
578.011047	5757.922744
578.365216	5704.731009
578.719330	5640.910002
579.073389	5594.559112
579.427394	5549.677720
579.781344	5505.030741
580.135239	5445.275424
580.489080	5422.534779
580.842866	5340.628632
581.196597	5308.526564
581.550273	5296.037105
581.903895	5239.253548
582.257463	5233.310028
582.610975	5144.487418
582.964434	5131.534173
583.317837	5061.381476
583.671186	5031.389131
584.024481	4988.075537
584.377721	4932.572433
584.730906	4885.851020
585.084037	4867.937279
585.437113	4820.290814
585.790135	4787.906442
586.143103	4727.919231
586.496016	4692.777348
586.848874	4674.651879
587.201679	4652.306965
587.554428	4576.077157
587.907124	4567.098862
588.259765	4527.535887
588.612352	4493.518180
588.964884	4438.441054
589.317362	4414.059513
589.669786	4383.679000
590.022155	4381.844020
590.374470	4349.837734
590.726731	4314.279955
591.078937	4240.295982
591.431090	4236.651227
591.783188	4189.730688
592.135232	4148.932630
592.487222	4137.461484
592.839157	4118.615131
593.191038	4077.597782
593.542866	4041.165363
593.894639	3991.021006
594.246358	3977.392247
594.598022	3959.236531
594.949633	3910.675096
595.301190	3881.176784
595.652692	3867.381667
596.004141	3860.417313
596.355535	3796.281233
596.706876	3768.270062
597.058162	3731.441912
597.409395	3725.349678
597.760573	3716.525138
598.111698	3680.337215
598.462768	3655.292763
598.813785	3632.012714
599.164748	3602.431224
599.515657	3583.471444
599.866511	3543.636246
600.217312	3554.376425
600.568060	3511.642563
600.918753	3508.811956
601.269392	3489.577433
601.619978	3461.016776
601.970510	3452.295580
602.320988	3435.904268
602.671412	3424.188627
603.021783	3400.303640
603.372100	3383.536762
603.722363	3357.421064
604.072572	3344.485464
604.422728	3329.346879
604.772830	3302.054072
605.122878	3288.150569
605.472872	3275.910648
605.822813	3260.792227
606.172701	3245.671287
606.522534	3239.241295
606.872314	3227.492886
607.222041	3210.514280
607.571714	3201.183104
607.921333	3187.060311
608.270899	3168.614729
608.620411	3171.102539
608.969870	3149.234013
609.319276	3137.460399
609.668627	3130.642238
610.017926	3125.974130
610.367171	3120.880044
610.716362	3106.190121
611.065500	3091.986670
611.414585	3082.048036
611.763616	3073.704926
612.112594	3059.120868
612.461518	3046.636450
612.810389	3042.699309
613.159207	3031.371837
613.507971	3016.475227
613.856682	3016.704599
614.205340	3003.141375
614.553945	3001.162722
614.902496	2984.201760
615.250994	2980.216728
615.599439	2969.746251
615.947830	2963.969089
616.296169	2953.526339
616.644454	2947.948302
616.992686	2943.186932
617.340864	2937.470264
617.688990	2924.857297
618.037063	2923.511309
618.385082	2915.977304
618.733048	2916.599887
619.080961	2906.169740
619.428821	2900.684964
619.776628	2891.603326
620.124382	2884.470093
620.472083	2875.088506
620.819731	2869.104656
621.167326	2856.892461
621.514868	2849.771831
621.862357	2834.146775
622.209793	2830.570076
622.557176	2821.561534
622.904506	2807.668114
623.251783	2796.917853
623.599007	2789.872841
623.946179	2785.416461
624.293297	2778.063938
624.640363	2771.694440
624.987376	2765.123296
625.334336	2756.938983
625.681243	2752.338930
626.028097	2748.585791
626.374899	2745.266191
626.721647	2740.562795
627.068343	2737.984244
627.414987	2730.457802
627.761577	2724.494117
628.108115	2723.889178
628.454600	2716.375338
628.801032	2715.551110
629.147412	2710.542723
629.493739	2706.235057
629.840014	2703.568287
630.186236	2701.740869
630.532405	2694.282482
630.878521	2694.675692
631.224585	2692.812985
631.570597	2686.662778
631.916556	2684.732016
632.262462	2681.636747
632.608316	2679.310255
632.954117	2675.967970
633.299866	2671.940088
633.645562	2673.941426
633.991206	2665.578152
634.336797	2662.329128
634.682336	2662.152688
635.027823	2656.720844
635.373257	2655.253869
635.718639	2647.669453
636.063968	2649.648106
636.409245	2645.471510
636.754470	2642.908083
637.099642	2637.473719
637.444762	2637.501445
637.789829	2636.246198
638.134845	2631.774695
638.479808	2631.305867
638.824719	2632.571197
639.169577	2627.648510
639.514383	2625.521143
639.859137	2625.039713
640.203839	2627.164559
640.548489	2620.968981
640.893086	2620.086779
641.237632	2615.834566
641.582125	2615.481685
