Dividing Wavelength (nm)	Counts (n)	Blue Motor Position (mm): 0.000000	Red Motor Position (mm): 26.600000	
326.493990	2126.767026
326.888308	2126.767026
327.282561	2126.767026
327.676750	2097.225864
328.070874	2093.089598
328.464933	2097.644280
328.858929	2104.364138
329.252859	2114.181785
329.646726	2122.537498
330.040528	2137.318161
330.434265	2152.179482
330.827938	2171.469458
331.221547	2188.604339
331.615091	2210.603935
332.008571	2231.454147
332.401986	2248.697414
332.795338	2266.162491
333.188625	2285.250820
333.581847	2306.683286
333.975006	2322.121820
334.368100	2342.142762
334.761129	2357.271265
335.154095	2374.968235
335.546996	2393.991029
335.939833	2409.792526
336.332606	2425.299115
336.725315	2438.224634
337.117960	2445.231838
337.510540	2452.576799
337.903056	2464.872173
338.295508	2473.129583
338.687896	2483.337920
339.080220	2489.994763
339.472480	2497.012049
339.864676	2500.540857
340.256807	2506.801970
340.648875	2507.918586
341.040879	2511.339009
341.432818	2513.635254
341.824694	2517.055677
342.216506	2512.891684
342.608253	2512.574091
342.999937	2513.083248
343.391557	2514.552744
343.783113	2512.894205
344.174605	2511.190295
344.566033	2511.465038
344.957397	2511.649040
345.348697	2508.778103
345.739934	2508.241220
346.131106	2505.045128
346.522215	2504.041938
346.913260	2500.064468
347.304241	2500.709736
347.695159	2497.380054
348.086012	2497.924498
348.476802	2492.404435
348.867528	2495.507265
349.258191	2490.251862
349.648789	2492.759836
350.039324	2488.013590
350.429796	2490.231698
350.820203	2486.443270
351.210548	2485.608959
351.600828	2483.710965
351.991045	2483.673156
352.381198	2485.190544
352.771288	2482.700214
353.161314	2482.271716
353.551276	2481.039153
353.941175	2481.424802
354.331010	2483.426140
354.720782	2484.038640
355.110490	2483.844556
355.500135	2482.475882
355.889717	2482.879175
356.279235	2483.728609
356.668689	2484.313383
357.058080	2483.093424
357.447408	2484.504947
357.836672	2484.613332
358.225873	2484.535194
358.615010	2481.933958
359.004084	2490.032572
359.393095	2489.528457
359.782043	2489.099958
360.170927	2487.191882
360.559748	2492.258241
360.948505	2491.973416
361.337199	2490.629949
361.725830	2490.642552
362.114398	2493.826040
362.502903	2493.178252
362.891344	2492.109527
363.279722	2496.540702
363.668037	2495.421565
364.056289	2494.758654
364.444478	2498.239570
364.832603	2494.438540
365.220665	2497.828716
365.608665	2498.363079
365.996601	2496.636483
366.384474	2501.357524
366.772284	2499.746875
367.160031	2503.452123
367.547715	2503.951198
367.935336	2504.120076
368.322893	2509.009996
368.710388	2513.441170
369.097820	2520.644979
369.485189	2520.834022
369.872495	2529.711494
370.259738	2534.140148
370.646918	2543.239430
371.034035	2548.078938
371.421090	2560.941442
371.808081	2571.389233
372.195010	2576.165727
372.581875	2595.022162
372.968678	2606.402567
373.355418	2612.073865
373.742096	2634.144037
374.128710	2649.779176
374.515262	2663.120589
374.901751	2676.388906
375.288177	2693.102852
375.674540	2716.597149
376.060841	2732.595251
376.447079	2752.638879
376.833254	2773.514297
377.219367	2787.069959
377.605417	2822.622697
377.991404	2832.052175
378.377329	2852.942717
378.763191	2873.225799
379.148991	2911.062179
379.534727	2935.516817
379.920402	2961.806434
380.306013	2976.025008
380.691563	3024.911598
381.077049	3047.012016
381.462474	3064.600602
381.847835	3103.460337
382.233134	3126.954634
382.618371	3126.521095
383.003545	3194.992567
383.388657	3201.117569
383.773706	3232.014801
384.158693	3247.012233
384.543618	3274.473919
384.928480	3311.806184
385.313280	3354.658512
385.698017	3353.763707
386.082692	3408.750093
386.467305	3413.148500
386.851856	3446.646967
387.236344	3470.552118
387.620770	3501.328363
388.005133	3528.454812
388.389435	3556.239131
388.773674	3565.378743
389.157851	3607.984055
389.541965	3624.564410
389.926018	3586.486054
390.310008	3660.369205
390.693936	3677.284797
391.077802	3716.268039
391.461606	3707.279662
391.845348	3770.609157
392.229027	3769.666461
392.612645	3782.332360
392.996200	3861.400338
393.379694	3897.250503
393.763125	3964.123930
394.146494	3933.025052
394.529801	3995.575689
394.913047	4043.980848
395.296230	4007.883666
395.679351	4065.219229
396.062410	4085.698917
396.445408	4070.056216
396.828343	4102.065023
397.211217	4124.241058
397.594028	4046.130900
397.976778	4110.937453
398.359466	4140.304695
398.742092	4166.062471
399.124656	4089.086572
399.507158	4168.759488
399.889598	4195.437274
400.271977	4256.011779
400.654294	4227.700659
401.036549	4236.711721
401.418742	4202.699056
401.800874	4305.737720
402.182944	4332.057584
402.564952	4394.504878
402.946898	4378.738669
403.328783	4375.656003
403.710606	4290.190802
404.092367	4484.892766
404.474067	4446.360707
404.855705	4454.111481
405.237282	4388.400040
405.618797	4493.223273
406.000250	4524.596894
406.381642	4606.152681
406.762972	4570.776384
407.144240	4581.685441
407.525447	4580.697374
407.906593	4640.213237
408.287677	4682.984907
408.668700	4609.295840
409.049661	4662.210312
409.430560	4702.910067
409.811399	4630.584633
410.192176	4794.273419
410.572891	4730.384356
410.953545	4832.581147
411.334138	4714.920616
411.714669	4784.072644
412.095139	4672.476621
412.475547	4817.646729
412.855894	4796.075631
413.236180	4802.971930
413.616405	4761.884005
413.996568	4846.227550
414.376670	4792.524138
414.756711	4743.186366
415.136691	4778.066109
415.516609	4859.599211
415.896466	4890.632554
416.276262	4927.233852
416.655997	4908.231222
417.035670	5088.475157
417.415283	5181.053427
417.794834	5122.480261
418.174324	5075.554680
418.553753	4983.775433
418.933121	5165.090613
419.312428	5236.173403
419.691674	5173.837015
420.070859	5304.241583
420.449983	5211.607861
420.829045	5327.125901
421.208047	5233.554524
421.586988	5309.287778
421.965867	5319.312113
422.344686	5447.271721
422.723444	5303.785359
423.102141	5121.308192
423.480777	5422.925468
423.859352	5192.421229
424.237866	5445.451864
424.616319	5441.592861
424.994712	5556.198452
425.373044	5426.542496
425.751314	5572.307459
426.129524	5375.861256
426.507673	5566.285801
426.885762	5654.700078
427.263789	5584.128965
427.641756	5464.789730
428.019662	5582.805662
428.397508	5593.734884
428.775292	5543.030958
429.153016	5635.246265
429.530679	5562.207508
429.908282	5646.503162
430.285824	5521.369120
430.663305	5795.116377
431.040726	5530.995204
431.418086	5530.894381
431.795385	5635.251306
432.172624	5646.319160
432.549802	5640.080732
432.926920	5652.116487
433.303977	5657.069420
433.680974	5697.270102
434.057910	5718.027053
434.434786	5720.449327
434.811601	5690.688875
435.188355	5923.723773
435.565050	5798.483868
435.941683	5780.552484
436.318257	5992.664073
436.694770	5977.016331
437.071222	6012.576631
437.447614	5939.248007
437.823946	5855.844637
438.200218	6005.392986
438.576429	5873.153439
438.952580	5965.885464
439.328670	6013.340365
439.704700	5916.411580
440.080670	5903.433129
440.456580	6168.776782
440.832429	6051.365789
441.208218	5900.708386
441.583947	6048.807403
441.959616	6050.919647
442.335224	5974.168079
442.710773	6110.637155
443.086261	6134.466689
443.461689	5923.146561
443.837057	6064.455145
444.212365	6215.409976
444.587612	6101.502584
444.962800	6250.481283
445.337927	6225.880453
445.712995	5830.502757
446.088002	6391.343725
446.462949	6220.894752
446.837837	6143.820550
447.212664	6305.291229
447.587431	6431.047852
447.962139	6943.423168
448.336786	7827.084505
448.711374	7552.039151
449.085901	6659.563356
449.460369	6571.665798
449.834776	6495.395661
450.209124	6845.339958
450.583412	6964.303627
450.957640	7089.974551
451.331808	6854.482090
451.705917	6418.654176
452.079965	6326.945505
452.453954	6501.795406
452.827883	6368.545107
453.201752	6432.403923
453.575562	6229.212655
453.949311	6384.739813
454.323001	6263.091730
454.696632	6303.836856
455.070202	6395.379168
455.443713	6507.685994
455.817164	6566.922072
456.190556	6603.256188
456.563888	6631.728625
456.937160	6638.156097
457.310373	6318.821686
457.683526	6300.691176
458.056619	6173.550755
458.429653	6127.759434
458.802628	6036.426329
459.175542	6085.191931
459.548398	6323.172201
459.921194	6399.775055
460.293930	6354.102201
460.666607	6693.938984
461.039224	6860.234047
461.411782	6905.642240
461.784280	6868.735953
462.156719	6740.635193
462.529099	6597.993224
462.901419	6251.827272
463.273680	6129.349918
463.645882	6086.651345
464.018024	5932.543272
464.390106	5985.079657
464.762130	6178.604512
465.134094	6402.177164
465.505999	6952.862728
465.877845	7618.358050
466.249631	7940.853265
466.621358	7625.312322
466.993026	7156.364027
467.364634	6930.439676
467.736184	6638.148535
468.107674	6368.819849
468.479105	6291.687675
468.850477	6109.621363
469.221790	5902.626545
469.593043	5652.592876
469.964238	5508.947717
470.335373	5442.936328
470.706449	5396.275408
471.077467	5322.851003
471.448425	5820.264173
471.819324	6198.917841
472.190164	6136.720085
472.560945	5528.726684
472.931667	5121.547647
473.302330	5000.164224
473.672934	4795.400117
474.043479	4855.725084
474.413965	4768.492958
474.784393	4650.691275
475.154761	4641.362620
475.525070	4601.776959
475.895321	4486.788240
476.265513	4473.434223
476.635645	4465.401145
477.005719	4390.882809
477.375734	4364.628479
477.745691	4364.804920
478.115588	4332.720496
478.485427	4322.716326
478.855207	4398.936052
479.224928	4520.758055
479.594591	4606.140078
479.964194	4477.260459
480.333739	4380.651787
480.703226	4271.377216
481.072653	4227.819126
481.442022	4211.200962
481.811333	4189.592056
482.180584	4081.592897
482.549777	3959.796099
482.918912	3876.256618
483.287988	3824.433557
483.657005	3770.223509
484.025964	3671.023683
484.394864	3627.853762
484.763706	3568.978127
485.132489	3499.122858
485.501213	3447.632513
485.869879	3413.309817
486.238487	3350.227338
486.607036	3325.306394
486.975527	3262.934718
487.343959	3241.761872
487.712333	3213.609548
488.080648	3171.107580
488.448905	3138.856798
488.817104	3103.379678
489.185244	3089.506423
489.553326	3070.624781
489.921350	3080.565936
490.289315	3108.015019
490.657222	3103.745162
491.025070	3065.124882
491.392861	3030.343441
491.760593	2985.532625
492.128267	2943.698609
492.495883	2903.966755
492.863440	2874.246633
493.230939	2842.815039
493.598380	2826.857266
493.965763	2801.482618
494.333088	2791.281843
494.700354	2769.572114
495.067563	2765.478697
495.434713	2744.545306
495.801805	2741.656725
496.168839	2727.715414
496.535815	2716.849207
496.902733	2712.901983
497.269593	2703.686754
497.636395	2696.871114
498.003139	2689.427851
498.369825	2680.535255
498.736453	2677.326561
499.103023	2674.201045
499.469535	2668.895231
499.835989	2662.054385
500.202385	2659.087666
500.568723	2652.423261
500.935003	2651.120123
501.301226	2642.794657
501.667390	2644.236427
502.033497	2645.022847
502.399546	2640.241312
502.765537	2637.014974
503.131470	2635.701753
503.497345	2633.897020
503.863163	2628.162708
504.228923	2630.615229
504.594625	2629.138171
504.960269	2624.747326
505.325856	2625.768160
505.691385	2620.638786
506.056856	2624.296143
506.422270	2621.165586
506.787625	2620.109465
507.152924	2619.355812
507.518164	2618.405555
507.883347	2614.798609
508.248472	2616.933538
508.613540	2614.682662
508.978550	2614.412961
509.343503	2610.838783
509.708398	2610.934565
510.073236	2614.148300
510.438016	2614.536469
510.802738	2610.281735
511.167403	2608.151848
511.532010	2607.524224
511.896561	2608.812239
512.261053	2609.180243
512.625488	2603.009871
512.989866	2604.746548
513.354186	2603.471136
513.718449	2599.057606
514.082655	2601.661362
514.446803	2606.246292
514.810894	2604.053390
515.174927	2605.520365
515.538904	2601.484922
515.902822	2603.375354
516.266684	2603.980293
516.630488	2601.237905
516.994235	2603.022474
517.357925	2600.978286
517.721558	2603.012391
518.085133	2604.136569
518.448651	2604.020622
518.812112	2602.110025
519.175516	2601.308481
519.538863	2602.742690
519.902152	2600.572473
520.265385	2601.568101
520.628560	2602.578852
520.991678	2600.975765
521.354739	2600.330497
521.717743	2603.559357
522.080690	2603.307299
522.443580	2603.687906
522.806413	2601.391660
523.169189	2599.014756
523.531908	2602.377206
523.894569	2602.362082
524.257174	2601.041300
524.619722	2601.648759
524.982213	2600.746393
525.344647	2601.711774
525.707025	2600.660693
526.069345	2601.275714
526.431608	2600.416197
526.793815	2601.663883
527.155964	2600.650611
527.518057	2597.562904
527.880093	2601.069027
528.242072	2601.096753
528.603995	2600.380909
528.965860	2600.726228
529.327669	2600.743872
529.689421	2599.992740
530.051117	2598.339242
530.412755	2598.487956
530.774337	2596.506782
531.135862	2597.794797
531.497331	2596.814293
531.858743	2592.819178
532.220098	2595.861515
532.581396	2596.136257
532.942638	2596.151381
533.303824	2600.287648
533.664953	2600.353183
534.026025	2599.793615
534.387040	2601.230343
534.747999	2597.802359
535.108902	2599.566763
535.469748	2599.370158
535.830537	2600.141454
536.191270	2597.860332
536.551947	2597.666248
536.912567	2597.051227
537.273131	2598.583738
537.633638	2595.977461
537.994089	2595.853953
538.354483	2596.670620
538.714821	2597.749427
539.075103	2596.542070
539.435328	2599.723038
539.795497	2596.872266
540.155609	2598.656834
540.515665	2598.152719
540.875665	2599.833944
541.235609	2597.494848
541.595496	2597.840167
541.955328	2597.184817
542.315102	2596.048037
542.674821	2597.252873
543.034483	2596.269848
543.394090	2594.893613
543.753640	2599.022318
544.113134	2597.744386
544.472571	2596.471494
544.831953	2599.360075
545.191278	2599.100456
545.550548	2595.785897
545.909761	2599.050044
546.268918	2596.998295
546.628019	2599.599530
546.987064	2596.776484
547.346053	2599.695312
547.704986	2598.215733
548.063863	2599.589448
548.422684	2597.588110
548.781449	2595.153232
549.140158	2599.559201
549.498811	2598.291351
549.857408	2598.581217
550.215949	2595.070053
550.574434	2594.044179
550.932864	2591.261462
551.291237	2595.392687
551.649555	2598.135075
552.007817	2598.157760
552.366022	2597.479725
552.724173	2599.249170
553.082267	2601.361413
553.440305	2598.205651
553.798288	2597.744386
554.156215	2598.251022
554.514086	2599.821341
554.871902	2601.195055
555.229661	2597.656165
555.587365	2598.278748
555.945014	2600.585076
556.302606	2597.157091
556.660143	2601.495004
557.017625	2599.405446
557.375050	2596.579879
557.732421	2599.591968
558.089735	2599.150867
558.446994	2598.288830
558.804197	2598.820672
559.161345	2597.172215
559.518437	2596.544591
559.875474	2600.307812
560.232455	2600.227154
560.589381	2596.773963
560.946251	2601.409304
561.303065	2598.694643
561.659825	2599.256732
562.016528	2596.224478
562.373177	2598.858481
562.729770	2597.996443
563.086307	2595.614498
563.442789	2597.787235
563.799216	2599.203800
564.155587	2597.056268
564.511904	2597.862853
564.868164	2597.298243
565.224370	2597.744386
565.580520	2598.571135
565.936615	2598.767740
566.292654	2596.224478
566.648638	2596.390836
567.004567	2597.038624
567.360441	2596.446288
567.716260	2597.323449
568.072023	2597.288161
568.427732	2592.022676
568.783385	2593.676174
569.138982	2592.453695
569.494525	2593.363623
569.850013	2590.938828
570.205445	2596.584920
570.560823	2595.634663
570.916145	2594.439909
571.271412	2596.670620
571.626625	2597.976279
571.981782	2591.712645
572.336884	2598.019128
572.691931	2594.500403
573.046923	2592.728437
573.401860	2596.468974
573.756743	2594.563417
574.111570	2593.277923
574.466342	2597.109200
574.821059	2596.315218
575.175722	2592.670464
575.530330	2594.938983
575.884882	2594.623911
576.239380	2591.866400
576.593823	2594.039137
576.948211	2594.061823
577.302544	2591.727768
577.656823	2591.843715
578.011047	2594.870928
578.365216	2591.841194
578.719330	2592.899837
579.073389	2591.263982
579.427394	2592.410845
579.781344	2592.171390
580.135239	2591.947059
580.489080	2593.766915
580.842866	2590.086873
581.196597	2595.864035
581.550273	2590.404466
581.903895	2592.746082
582.257463	2591.304312
582.610975	2590.137284
582.964434	2593.323294
583.317837	2589.391194
583.671186	2591.629466
584.024481	2590.207861
584.377721	2589.854980
584.730906	2589.492017
585.084037	2589.658375
585.437113	2589.673498
585.790135	2588.750967
586.143103	2588.241811
586.496016	2588.100658
586.848874	2586.346337
587.201679	2588.496389
587.554428	2583.533373
587.907124	2589.905391
588.259765	2583.122519
588.612352	2586.033785
588.964884	2587.906574
589.317362	2590.038982
589.669786	2587.238621
590.022155	2590.011256
590.374470	2586.605956
590.726731	2587.929259
591.078937	2586.583271
591.431090	2587.901533
591.783188	2588.042685
592.135232	2585.577561
592.487222	2588.879517
592.839157	2587.800710
593.191038	2586.726944
593.542866	2584.009762
593.894639	2585.779207
594.246358	2587.473035
594.598022	2585.834660
594.949633	2585.131419
595.301190	2585.295256
595.652692	2585.456573
596.004141	2587.815833
596.355535	2586.192582
596.706876	2585.081007
597.058162	2583.525811
597.409395	2584.024885
597.760573	2584.521439
598.111698	2583.223342
598.462768	2584.927252
598.813785	2584.140832
599.164748	2584.201326
599.515657	2584.839032
599.866511	2580.735532
600.217312	2584.402972
600.568060	2584.357602
600.918753	2582.381469
601.269392	2582.562951
601.619978	2581.151428
601.970510	2585.754001
602.320988	2582.250399
602.671412	2584.405492
603.021783	2585.234762
603.372100	2584.549165
603.722363	2583.336768
604.072572	2583.828280
604.422728	2583.437591
604.772830	2580.733012
605.122878	2576.195973
605.472872	2580.244020
605.822813	2579.346695
606.172701	2579.810481
606.522534	2582.741912
606.872314	2587.946903
607.222041	2582.540266
607.571714	2582.212591
607.921333	2583.273753
608.270899	2583.150245
608.620411	2582.908270
608.969870	2583.314083
609.319276	2584.473548
609.668627	2588.007397
610.017926	2589.605443
610.367171	2592.224322
610.716362	2588.632500
611.065500	2589.292891
611.414585	2587.967068
611.763616	2588.990422
612.112594	2588.735844
612.461518	2586.613518
612.810389	2585.164186
613.159207	2584.526480
613.507971	2584.458425
613.856682	2586.293405
614.205340	2582.757035
614.553945	2584.760894
614.902496	2580.811150
615.250994	2584.750812
615.599439	2585.330544
615.947830	2587.886409
616.296169	2586.807602
616.644454	2582.220152
616.992686	2584.037488
617.340864	2584.067735
617.688990	2585.118816
618.037063	2586.109402
618.385082	2582.492375
618.733048	2583.787951
619.080961	2582.872982
619.428821	2582.230235
619.776628	2584.042529
620.124382	2585.504464
620.472083	2582.235276
620.819731	2582.764597
621.167326	2582.303331
621.514868	2583.495564
621.862357	2581.030440
622.209793	2581.947930
622.557176	2581.824422
622.904506	2578.920717
623.251783	2578.025912
623.599007	2576.939544
623.946179	2577.617579
624.293297	2578.439287
624.640363	2577.166396
624.987376	2579.954154
625.334336	2581.887436
625.681243	2579.860892
626.028097	2576.264029
626.374899	2581.529514
626.721647	2579.250913
627.068343	2579.533217
627.414987	2578.240161
627.761577	2576.740418
628.108115	2579.815522
628.454600	2578.658577
628.801032	2577.496591
629.147412	2578.822415
629.493739	2578.262847
629.840014	2576.778227
630.186236	2576.369893
630.532405	2577.776375
630.878521	2576.745459
631.224585	2574.754203
631.570597	2574.968452
631.916556	2576.569019
632.262462	2577.395768
632.608316	2574.580284
632.954117	2577.426015
633.299866	2572.382341
633.645562	2575.187743
633.991206	2575.984245
634.336797	2572.657083
634.682336	2574.645819
635.027823	2572.125242
635.373257	2573.297310
635.718639	2571.306054
636.063968	2573.292269
636.409245	2569.854202
636.754470	2570.781774
637.099642	2574.242526
637.444762	2570.628019
637.789829	2570.340673
638.134845	2573.163719
638.479808	2571.505180
638.824719	2568.283883
639.169577	2571.714388
639.514383	2569.314798
639.859137	2567.343707
640.203839	2571.290931
640.548489	2570.242371
640.893086	2565.622153
641.237632	2565.143244
641.582125	2567.101732
641.926566	2564.775239
642.270955	2568.813204
642.615292	2565.173491
642.959576	2568.477967
643.303809	2568.087278
643.647990	2568.959397
643.992118	2568.795560
644.336195	2566.789180
