Dividing Wavelength (nm)	Counts (n)	Blue Motor Position (mm): 0.000000	Red Motor Position (mm): 7.400000	
326.493990	2127.737448
326.888308	2127.737448
327.282561	2127.737448
327.676750	2098.213930
328.070874	2095.572366
328.464933	2099.423807
328.858929	2104.843048
329.252859	2118.330655
329.646726	2125.955400
330.040528	2140.962915
330.434265	2156.401449
330.827938	2174.388286
331.221547	2191.039217
331.615091	2209.063862
332.008571	2229.107490
332.401986	2248.440315
332.795338	2267.337080
333.188625	2288.356171
333.581847	2307.764613
333.975006	2325.683395
334.368100	2344.252485
334.761129	2362.607326
335.154095	2380.354708
335.546996	2396.703170
335.939833	2411.178843
336.332606	2422.700401
336.725315	2438.365786
337.117960	2446.315686
337.510540	2454.865483
337.903056	2465.041052
338.295508	2472.519603
338.687896	2481.538228
339.080220	2490.985350
339.472480	2493.906699
339.864676	2500.631598
340.256807	2504.508245
340.648875	2507.593431
341.040879	2510.018226
341.432818	2509.912362
341.824694	2514.809843
342.216506	2512.450583
342.608253	2515.243382
342.999937	2513.675583
343.391557	2512.637106
343.783113	2513.473937
344.174605	2513.536952
344.566033	2510.444204
344.957397	2508.236178
345.348697	2504.977073
345.739934	2506.945643
346.131106	2505.521517
346.522215	2503.343739
346.913260	2498.284941
347.304241	2499.419200
347.695159	2495.902996
348.086012	2494.551966
348.476802	2495.499703
348.867528	2492.217912
349.258191	2489.961996
349.648789	2486.851604
350.039324	2487.648106
350.429796	2487.958137
350.820203	2484.978815
351.210548	2487.539721
351.600828	2481.709627
351.991045	2482.430512
352.381198	2484.966212
352.771288	2482.327168
353.161314	2482.496047
353.551276	2484.905718
353.941175	2479.022692
354.331010	2481.830615
354.720782	2480.194760
355.110490	2481.734833
355.500135	2479.441108
355.889717	2478.198463
356.279235	2480.898001
356.668689	2483.143835
357.058080	2484.172231
357.447408	2480.338433
357.836672	2480.734164
358.225873	2482.014617
358.615010	2478.001858
359.004084	2485.266161
359.393095	2483.814309
359.782043	2486.274392
360.170927	2484.943527
360.559748	2486.128198
360.948505	2488.971409
361.337199	2488.023672
361.725830	2489.669609
362.114398	2486.407982
362.502903	2487.302787
362.891344	2489.649444
363.279722	2488.704228
363.668037	2491.363437
364.056289	2491.660865
364.444478	2490.763539
364.832603	2489.498210
365.220665	2491.002994
365.608665	2492.895947
365.996601	2493.894096
366.384474	2493.510968
366.772284	2495.497183
367.160031	2493.463077
367.547715	2497.070023
367.935336	2500.795435
368.322893	2501.279386
368.710388	2506.088647
369.097820	2514.330933
369.485189	2513.171468
369.872495	2521.489372
370.259738	2527.258973
370.646918	2537.003523
371.034035	2542.536189
371.421090	2552.416851
371.808081	2559.547563
372.195010	2570.996023
372.581875	2583.309042
372.968678	2594.941504
373.355418	2601.058944
373.742096	2617.309104
374.128710	2630.736217
374.515262	2643.722229
374.901751	2652.703045
375.288177	2661.920795
375.674540	2675.110974
376.060841	2689.097655
376.447079	2702.134079
376.833254	2712.849051
377.219367	2714.631099
377.605417	2739.473905
377.991404	2741.772672
378.377329	2751.557551
378.763191	2752.966554
379.148991	2771.931374
379.534727	2782.177520
379.920402	2791.768315
380.306013	2785.560134
380.691563	2804.653504
381.077049	2805.336580
381.462474	2805.276087
381.847835	2812.517704
382.233134	2810.062662
382.618371	2793.028603
383.003545	2815.272695
383.388657	2803.859522
383.773706	2803.799028
384.158693	2793.245373
384.543618	2786.228087
384.928480	2784.037705
385.313280	2783.745318
385.698017	2767.689243
386.082692	2766.504572
386.467305	2749.825915
386.851856	2745.190574
387.236344	2734.258832
387.620770	2721.973540
388.005133	2711.727395
388.389435	2701.917309
388.773674	2686.317459
389.157851	2677.717250
389.541965	2665.996567
389.926018	2646.641057
390.310008	2640.954636
390.693936	2633.571866
391.077802	2624.568365
391.461606	2610.513628
391.845348	2603.743359
392.229027	2595.712801
392.612645	2585.363312
392.996200	2581.925245
393.379694	2575.767475
393.763125	2570.617937
394.146494	2559.557645
394.529801	2555.063457
394.913047	2553.084804
395.296230	2543.544420
395.679351	2540.038298
396.062410	2533.235260
396.445408	2531.657379
396.828343	2530.450023
397.211217	2522.986595
397.594028	2523.417613
397.976778	2519.833353
398.359466	2520.564320
398.742092	2516.506191
399.124656	2519.372087
399.507158	2518.910822
399.889598	2519.193126
400.271977	2516.367560
400.654294	2519.583816
401.036549	2515.828156
401.418742	2516.488547
401.800874	2516.299504
402.182944	2518.560462
402.564952	2515.717251
402.946898	2515.445028
403.328783	2512.495953
403.710606	2515.351767
404.092367	2516.838908
404.474067	2516.344874
404.855705	2515.167765
405.237282	2515.535769
405.618797	2517.280008
406.000250	2516.773373
406.381642	2514.915707
406.762972	2516.465862
407.144240	2516.508712
407.525447	2519.989629
407.906593	2516.785975
408.287677	2518.469721
408.668700	2516.503671
409.049661	2516.022241
409.430560	2516.239010
409.811399	2516.251613
410.192176	2517.837056
410.572891	2519.513240
410.953545	2515.596263
411.334138	2520.226563
411.714669	2517.774042
412.095139	2517.821933
412.475547	2519.490554
412.855894	2517.438805
413.236180	2518.472241
413.616405	2518.023579
413.996568	2518.361336
414.376670	2518.668846
414.756711	2519.246058
415.136691	2519.470390
415.516609	2519.364526
415.896466	2519.414937
416.276262	2520.236645
416.655997	2518.000893
417.035670	2518.376459
417.415283	2520.569361
417.794834	2516.168434
418.174324	2518.142046
418.553753	2520.118178
418.933121	2519.939217
419.312428	2518.358815
419.691674	2519.155318
420.070859	2520.496265
420.449983	2519.929135
420.829045	2523.147912
421.208047	2520.685308
421.586988	2522.512726
421.965867	2522.553055
422.344686	2524.135978
422.723444	2523.420134
423.102141	2522.333765
423.480777	2522.542973
423.859352	2519.185565
424.237866	2523.205885
424.616319	2523.808303
424.994712	2523.160514
425.373044	2525.895340
425.751314	2526.197810
426.129524	2521.396111
426.507673	2521.189423
426.885762	2521.905267
427.263789	2526.797707
427.641756	2523.576410
428.019662	2526.162522
428.397508	2526.240659
428.775292	2528.121010
429.153016	2522.850483
429.530679	2528.403314
429.908282	2524.592202
430.285824	2522.926101
430.663305	2524.446009
431.040726	2523.717562
431.418086	2525.882738
431.795385	2523.894002
432.172624	2525.391225
432.549802	2524.206554
432.926920	2524.907274
433.303977	2526.654034
433.680974	2525.640762
434.057910	2527.271575
434.434786	2526.404497
434.811601	2526.124713
435.188355	2525.146729
435.565050	2527.828623
435.941683	2524.753519
436.318257	2524.728313
436.694770	2521.668333
437.071222	2522.651358
437.447614	2521.927952
437.823946	2523.309228
438.200218	2528.173942
438.576429	2527.836185
438.952580	2525.305525
439.328670	2526.275947
439.704700	2527.223684
440.080670	2528.136133
440.456580	2526.273427
440.832429	2528.983047
441.208218	2527.594209
441.583947	2528.342821
441.959616	2529.472039
442.335224	2528.350382
442.710773	2527.163191
443.086261	2529.056144
443.461689	2530.066895
443.837057	2529.875331
444.212365	2529.817358
444.587612	2528.657893
444.962800	2527.800897
445.337927	2528.748633
445.712995	2528.378109
446.088002	2530.071936
446.462949	2528.463808
446.837837	2527.422810
447.212664	2526.459950
447.587431	2531.095291
447.962139	2529.955990
448.336786	2531.135620
448.711374	2531.186031
449.085901	2532.070754
449.460369	2530.016484
449.834776	2531.075126
450.209124	2528.657893
450.583412	2532.524458
450.957640	2530.084539
451.331808	2528.483973
451.705917	2529.391381
452.079965	2531.541433
452.453954	2530.013963
452.827883	2532.905065
453.201752	2529.835002
453.575562	2531.445651
453.949311	2530.203006
454.323001	2531.881711
454.696632	2529.285516
455.070202	2529.214940
455.443713	2531.236443
455.817164	2527.584127
456.190556	2528.927594
456.563888	2531.992616
456.937160	2526.066740
457.310373	2530.949097
457.683526	2531.521268
458.056619	2533.320960
458.429653	2532.796680
458.802628	2530.727286
459.175542	2535.823893
459.548398	2534.301464
459.921194	2531.523789
460.293930	2536.053265
460.666607	2531.972451
461.039224	2533.643594
461.411782	2533.550332
461.784280	2535.246681
462.156719	2534.475384
462.529099	2535.670138
462.901419	2534.936650
463.273680	2535.347504
463.645882	2532.791639
464.018024	2533.333563
464.390106	2534.898841
464.762130	2534.551002
465.134094	2534.651825
465.505999	2534.409849
465.877845	2536.479243
466.249631	2536.103677
466.621358	2536.459078
466.993026	2539.367824
467.364634	2536.690971
467.736184	2533.797349
468.107674	2533.784746
468.479105	2534.195600
468.850477	2535.095446
469.221790	2532.164015
469.593043	2532.779036
469.964238	2533.812473
470.335373	2533.446989
470.706449	2534.598892
471.077467	2536.141486
471.448425	2535.307175
471.819324	2536.512010
472.190164	2535.347504
472.560945	2535.685261
472.931667	2535.881866
473.302330	2532.945394
473.672934	2536.582587
474.043479	2534.750127
474.413965	2532.146371
474.784393	2528.337779
475.154761	2531.687626
475.525070	2531.231402
475.895321	2531.823737
476.265513	2529.749303
476.635645	2536.325488
477.005719	2536.418749
477.375734	2536.438914
477.745691	2537.762217
478.115588	2536.696013
478.485427	2538.561239
478.855207	2537.127031
479.224928	2537.479912
479.594591	2536.910262
479.964194	2538.551157
480.333739	2539.917310
480.703226	2539.672814
481.072653	2535.715508
481.442022	2536.312885
481.811333	2539.486291
482.180584	2536.272556
482.549777	2537.396733
482.918912	2536.459078
483.287988	2540.174409
483.657005	2538.772968
484.025964	2535.712988
484.394864	2540.542413
484.763706	2539.897145
485.132489	2539.544264
485.501213	2539.254398
485.869879	2538.578883
486.238487	2537.963863
486.607036	2539.350180
486.975527	2535.216434
487.343959	2538.904038
487.712333	2537.986548
488.080648	2538.031918
488.448905	2540.512166
488.817104	2538.493184
489.185244	2538.087371
489.553326	2540.731456
489.921350	2541.749769
490.289315	2539.236754
490.657222	2539.425797
491.025070	2539.382947
491.392861	2540.323123
491.760593	2540.701209
492.128267	2540.055942
492.495883	2538.901517
492.863440	2538.790612
493.230939	2541.291024
493.598380	2538.460416
493.965763	2535.808769
494.333088	2536.832124
494.700354	2534.606454
495.067563	2537.051414
495.434713	2531.498583
495.801805	2538.289017
496.168839	2538.737680
496.535815	2540.197094
496.902733	2537.754655
497.269593	2540.207176
497.636395	2541.364121
498.003139	2539.541744
498.369825	2539.471168
498.736453	2539.662732
499.103023	2534.987061
499.469535	2539.635005
499.835989	2539.965201
500.202385	2540.013092
500.568723	2540.388658
500.935003	2539.324974
501.301226	2540.655839
501.667390	2540.371014
502.033497	2540.986034
502.399546	2538.455375
502.765537	2542.155582
503.131470	2542.463092
503.497345	2541.699358
503.863163	2541.964018
504.228923	2540.043339
504.594625	2539.947557
504.960269	2540.272711
505.325856	2541.943854
505.691385	2541.691796
506.056856	2540.381096
506.422270	2541.003678
506.787625	2540.003009
507.152924	2540.088709
507.518164	2544.746735
507.883347	2540.741538
508.248472	2543.806560
508.613540	2540.607948
508.978550	2539.854295
509.343503	2542.841179
509.708398	2540.028215
510.073236	2542.573998
510.438016	2541.117104
510.802738	2537.918492
511.167403	2543.327650
511.532010	2540.698689
511.896561	2542.052238
512.261053	2539.889583
512.625488	2539.589635
512.989866	2533.419262
513.354186	2537.681558
513.718449	2536.144006
514.082655	2539.574511
514.446803	2542.599204
514.810894	2540.348328
515.174927	2541.689275
515.538904	2542.019471
515.902822	2542.216076
516.266684	2540.749100
516.630488	2541.129707
516.994235	2542.949564
517.357925	2541.222969
517.721558	2543.090716
518.085133	2541.424615
518.448651	2540.363452
518.812112	2539.629964
519.175516	2539.796322
519.538863	2542.616848
519.902152	2543.231868
520.265385	2544.340922
520.628560	2543.156251
520.991678	2540.073586
521.354739	2540.575180
521.717743	2541.359080
522.080690	2539.582073
522.443580	2541.071734
522.806413	2541.628782
523.169189	2539.957639
523.531908	2542.959646
523.894569	2542.115253
524.257174	2541.616179
524.619722	2543.758669
524.982213	2543.350336
525.344647	2540.423946
525.707025	2542.909235
526.069345	2540.300438
526.431608	2541.354039
526.793815	2542.407640
527.155964	2543.050387
527.518057	2542.107691
527.880093	2543.884698
528.242072	2541.681714
528.603995	2544.315717
528.965860	2544.287990
529.327669	2545.006355
529.689421	2544.146838
530.051117	2541.888401
530.412755	2542.836138
530.774337	2542.669780
531.135862	2542.790768
531.497331	2540.638195
531.858743	2538.233564
532.220098	2539.440921
532.581396	2537.109387
532.942638	2539.093081
533.303824	2539.055273
533.664953	2542.533669
534.026025	2539.561908
534.387040	2543.657846
534.747999	2543.269677
535.108902	2539.277083
535.469748	2542.110212
535.830537	2542.193391
536.191270	2540.809594
536.551947	2543.947712
536.912567	2542.188350
537.273131	2543.209183
537.633638	2540.572660
537.994089	2543.100798
538.354483	2540.497043
538.714821	2540.605427
539.075103	2543.791437
539.435328	2544.542568
539.795497	2542.813453
540.155609	2543.672969
540.515665	2540.534851
540.875665	2543.698175
541.235609	2542.861344
541.595496	2543.085675
541.955328	2545.893598
542.315102	2541.064172
542.674821	2543.650284
543.034483	2544.046015
543.394090	2542.258926
543.753640	2544.661036
544.113134	2544.275387
544.472571	2542.876467
544.831953	2544.270346
545.191278	2543.156251
545.550548	2544.519883
545.909761	2543.322609
546.268918	2541.739687
546.628019	2543.375541
546.987064	2542.490819
547.346053	2544.514842
547.704986	2543.937630
548.063863	2543.224307
548.422684	2543.897301
548.781449	2541.938813
549.140158	2543.549461
549.498811	2543.640202
549.857408	2543.970397
550.215949	2540.895294
550.574434	2537.358924
550.932864	2541.575849
551.291237	2539.612320
551.649555	2544.802188
552.007817	2543.410829
552.366022	2546.611962
552.724173	2543.824204
553.082267	2547.380738
553.440305	2543.105840
553.798288	2543.877136
554.156215	2546.130532
554.514086	2544.451828
554.871902	2543.846889
555.229661	2544.787064
555.587365	2544.822352
555.945014	2544.575336
556.302606	2542.831097
556.660143	2542.659698
557.017625	2544.182126
557.375050	2543.549461
557.732421	2542.319420
558.089735	2544.257743
558.446994	2541.835469
558.804197	2544.703885
559.161345	2543.839327
559.518437	2543.819163
559.875474	2543.700696
560.232455	2546.193546
560.589381	2543.267157
560.946251	2546.944678
561.303065	2541.762372
561.659825	2544.988711
562.016528	2542.763041
562.373177	2542.803370
562.729770	2543.620037
563.086307	2545.664225
563.442789	2543.355377
563.799216	2545.144986
564.155587	2544.693803
564.511904	2548.126829
564.868164	2543.650284
565.224370	2547.277394
565.580520	2541.777496
565.936615	2546.695141
566.292654	2541.785057
566.648638	2544.804708
567.004567	2543.020140
567.360441	2543.935109
567.716260	2544.839997
568.072023	2544.925696
568.427732	2540.819676
568.783385	2543.017619
569.138982	2539.309851
569.494525	2541.303627
569.850013	2541.616179
570.205445	2544.242620
570.560823	2542.573998
570.916145	2544.978628
571.271412	2542.155582
571.626625	2546.319575
571.981782	2541.994265
572.336884	2542.916796
572.691931	2545.684390
573.046923	2545.276056
573.401860	2544.242620
573.756743	2541.129707
574.111570	2541.767413
574.466342	2544.373690
574.821059	2545.772610
575.175722	2543.562064
575.530330	2542.067362
575.884882	2541.890922
576.239380	2544.754297
576.593823	2543.093237
576.948211	2544.945861
577.302544	2543.771272
577.656823	2544.194729
578.011047	2542.543751
578.365216	2544.915614
578.719330	2546.528783
579.073389	2543.695655
579.427394	2542.163144
579.781344	2544.330840
580.135239	2542.168185
580.489080	2541.401930
580.842866	2539.627443
581.196597	2544.416540
581.550273	2541.031405
581.903895	2543.176416
582.257463	2546.997610
582.610975	2540.933102
582.964434	2545.460058
583.317837	2546.264123
583.671186	2541.280942
584.024481	2544.237579
584.377721	2545.719678
584.730906	2542.884029
585.084037	2546.266643
585.437113	2543.844369
585.790135	2545.956612
586.143103	2543.645243
586.496016	2545.651622
586.848874	2539.030067
587.201679	2538.755324
587.554428	2542.485778
587.907124	2540.318082
588.259765	2537.933616
588.612352	2543.136087
588.964884	2542.783206
589.317362	2544.469472
589.669786	2543.473844
590.022155	2545.344112
590.374470	2541.918648
590.726731	2544.103988
591.078937	2541.853113
591.431090	2545.359235
591.783188	2543.163813
592.135232	2544.144317
592.487222	2543.811601
592.839157	2544.121632
593.191038	2544.880326
593.542866	2545.558361
593.894639	2542.193391
594.246358	2543.582229
594.598022	2542.460572
594.949633	2543.509132
595.301190	2539.481250
595.652692	2542.962167
596.004141	2543.882177
596.355535	2541.699358
596.706876	2542.344625
597.058162	2542.881508
597.409395	2543.297403
597.760573	2543.231868
598.111698	2543.050387
598.462768	2543.509132
598.813785	2541.938812
599.164748	2541.767413
599.515657	2542.790768
599.866511	2541.953936
600.217312	2539.975283
600.568060	2542.647095
600.918753	2544.290511
601.269392	2543.597352
601.619978	2538.919161
601.970510	2543.264636
602.320988	2541.026364
602.671412	2544.265305
603.021783	2541.359080
603.372100	2542.387475
603.722363	2540.812115
604.072572	2542.304296
604.422728	2543.093237
604.772830	2538.586445
605.122878	2537.363965
605.472872	2541.754810
605.822813	2537.719367
606.172701	2542.415202
606.522534	2545.739843
606.872314	2542.563916
607.222041	2540.577701
607.571714	2546.004503
607.921333	2543.839328
608.270899	2541.888401
608.620411	2544.419060
608.969870	2544.353525
609.319276	2547.105995
609.668627	2550.110523
610.017926	2547.264792
610.367171	2550.841490
610.716362	2551.287632
611.065500	2548.913249
611.414585	2547.093392
611.763616	2549.036757
612.112594	2545.878474
612.461518	2545.104657
612.810389	2545.439894
613.159207	2543.602393
613.507971	2544.124153
613.856682	2544.855120
614.205340	2542.800850
614.553945	2542.536189
614.902496	2543.955274
615.250994	2541.701878
615.599439	2543.554502
615.947830	2542.768082
616.296169	2542.856302
616.644454	2542.072403
616.992686	2542.213555
617.340864	2543.236910
617.688990	2543.380582
618.037063	2542.137938
618.385082	2540.129038
618.733048	2543.327650
619.080961	2540.718853
619.428821	2542.266487
619.776628	2543.367980
620.124382	2547.015254
620.472083	2540.093750
620.819731	2544.353525
621.167326	2541.409491
621.514868	2543.020140
621.862357	2542.228679
622.209793	2542.616848
622.557176	2544.081303
622.904506	2537.847916
623.251783	2534.792977
623.599007	2539.876981
623.946179	2536.335570
624.293297	2540.454193
624.640363	2539.960160
624.987376	2542.563916
625.334336	2542.644574
625.681243	2544.396375
626.028097	2540.260108
626.374899	2540.431507
626.721647	2541.621220
627.068343	2540.817156
627.414987	2542.213555
627.761577	2540.842362
628.108115	2541.210366
628.454600	2541.540561
628.801032	2540.247505
629.147412	2541.656508
629.493739	2543.839327
629.840014	2543.667928
630.186236	2541.575849
630.532405	2542.490819
630.878521	2544.653474
631.224585	2542.198432
631.570597	2541.527958
631.916556	2541.260777
632.262462	2543.062990
632.608316	2543.254554
632.954117	2541.051569
633.299866	2541.502753
633.645562	2540.055942
633.991206	2540.353370
634.336797	2543.279759
634.682336	2540.492001
635.027823	2542.160623
635.373257	2540.865047
635.718639	2538.336908
636.063968	2542.634492
636.409245	2541.230530
636.754470	2539.624923
637.099642	2541.744728
637.444762	2539.312371
637.789829	2539.763555
638.134845	2542.538710
638.479808	2539.161137
638.824719	2538.253729
639.169577	2541.734646
639.514383	2537.878163
639.859137	2539.902186
640.203839	2542.755479
640.548489	2541.192722
640.893086	2537.653832
641.237632	2537.084181
641.582125	2537.956301
641.926566	2534.477905
642.270955	2540.557536
642.615292	2539.443441
642.959576	2538.931764
643.303809	2538.339429
643.647990	2540.721374
643.992118	2541.651467
644.336195	2538.984696
