Dividing Wavelength (nm)	Counts (n)	Blue Motor Position (mm): 0.000000	Red Motor Position (mm): 36.700000	
326.493990	2128.304578
326.888308	2128.304578
327.282561	2128.304578
327.676750	2094.397777
328.070874	2094.765781
328.464933	2097.790473
328.858929	2106.665425
329.252859	2112.480396
329.646726	2125.012704
330.040528	2139.896711
330.434265	2153.384318
330.827938	2172.906186
331.221547	2189.637776
331.615091	2209.043698
332.008571	2230.161091
332.401986	2249.834194
332.795338	2266.301123
333.188625	2285.797786
333.581847	2305.599438
333.975006	2324.939825
334.368100	2341.651250
334.761129	2360.298478
335.154095	2376.306662
335.546996	2394.865670
335.939833	2416.608166
336.332606	2431.792122
336.725315	2444.581529
337.117960	2453.879937
337.510540	2461.416462
337.903056	2473.658904
338.295508	2479.209215
338.687896	2488.585761
339.080220	2497.019611
339.472480	2502.396002
339.864676	2505.655108
340.256807	2512.440501
340.648875	2512.664832
341.040879	2515.596263
341.432818	2521.262520
341.824694	2521.491893
342.216506	2520.980215
342.608253	2522.648837
342.999937	2522.726975
343.391557	2520.982736
343.783113	2518.996521
344.174605	2519.321676
344.566033	2517.839577
344.957397	2518.084072
345.348697	2514.204905
345.739934	2515.407220
346.131106	2510.507218
346.522215	2510.933196
346.913260	2506.292814
347.304241	2504.780468
347.695159	2503.810045
348.086012	2506.091168
348.476802	2500.679489
348.867528	2498.259735
349.258191	2499.459530
349.648789	2498.723521
350.039324	2495.068685
350.429796	2495.300578
350.820203	2493.642038
351.210548	2492.351503
351.600828	2490.335041
351.991045	2491.123982
352.381198	2490.125833
352.771288	2492.222953
353.161314	2491.224805
353.551276	2490.148518
353.941175	2490.612305
354.331010	2488.099289
354.720782	2492.235556
355.110490	2489.553662
355.500135	2489.835967
355.889717	2491.459218
356.279235	2491.358395
356.668689	2492.679178
357.058080	2490.357726
357.447408	2491.428972
357.836672	2487.388487
358.225873	2491.444095
358.615010	2488.999135
359.004084	2492.835453
359.393095	2490.960144
359.782043	2496.460043
360.170927	2493.405104
360.559748	2497.203613
360.948505	2499.724190
361.337199	2496.608757
361.725830	2497.155722
362.114398	2498.574807
362.502903	2499.018429
362.891344	2500.296361
363.279722	2497.937101
363.668037	2502.242247
364.056289	2499.416680
364.444478	2502.519510
364.832603	2502.907679
365.220665	2502.111177
365.608665	2502.406084
365.996601	2502.489263
366.384474	2508.692403
366.772284	2507.739625
367.160031	2508.901611
367.547715	2513.662981
367.935336	2514.421674
368.322893	2515.455111
368.710388	2519.543487
369.097820	2527.349713
369.485189	2528.141174
369.872495	2534.356917
370.259738	2542.110212
370.646918	2548.247817
371.034035	2554.887016
371.421090	2567.278172
371.808081	2578.799729
372.195010	2586.835329
372.581875	2601.510127
372.968678	2611.836931
373.355418	2620.800103
373.742096	2639.661580
374.128710	2654.129691
374.515262	2670.470592
374.901751	2682.516429
375.288177	2699.139633
375.674540	2721.880278
376.060841	2736.781929
376.447079	2758.305136
376.833254	2784.168775
377.219367	2790.573561
377.605417	2829.380364
377.991404	2838.772033
378.377329	2861.759695
378.763191	2876.926006
379.148991	2915.175761
379.534727	2940.058896
379.920402	2969.605099
380.306013	2980.786378
380.691563	3032.695139
381.077049	3052.380845
381.462474	3069.903896
381.847835	3110.182715
382.233134	3134.448309
382.618371	3130.019656
383.003545	3200.840305
383.388657	3208.180225
383.773706	3238.732138
384.158693	3254.241248
384.543618	3281.435753
384.928480	3317.979077
385.313280	3365.852394
385.698017	3362.406766
386.082692	3416.732760
386.467305	3423.072011
386.851856	3452.424129
387.236344	3474.315340
387.620770	3509.076616
388.005133	3532.906150
388.389435	3562.343968
388.773674	3573.079105
389.157851	3614.885394
389.541965	3629.726551
389.926018	3595.245059
390.310008	3667.091583
390.693936	3682.540199
391.077802	3727.025862
391.461606	3709.505331
391.845348	3775.022687
392.229027	3775.249539
392.612645	3790.907363
392.996200	3867.212788
393.379694	3904.706370
393.763125	3967.967810
394.146494	3937.937656
394.529801	4001.942666
394.913047	4048.855644
395.296230	4018.069317
395.679351	4069.660486
396.062410	4092.819546
396.445408	4077.229778
396.828343	4104.063840
397.211217	4133.151298
397.594028	4050.057959
397.976778	4119.043629
398.359466	4143.823420
398.742092	4172.941125
399.124656	4096.474383
399.507158	4177.735262
399.889598	4199.318963
400.271977	4262.358591
400.654294	4233.813058
401.036549	4239.063419
401.418742	4214.381930
401.800874	4315.010923
402.182944	4334.348789
402.564952	4399.835898
402.946898	4388.634454
403.328783	4383.129514
403.710606	4294.516112
404.092367	4492.353674
404.474067	4457.534424
404.855705	4464.604642
405.237282	4396.246596
405.618797	4497.725023
406.000250	4534.028893
406.381642	4620.981235
406.762972	4579.101849
407.144240	4589.521914
407.525447	4586.966049
407.906593	4646.290348
408.287677	4691.174261
408.668700	4616.482005
409.049661	4670.366898
409.430560	4710.822158
409.811399	4639.751971
410.192176	4803.902023
410.572891	4737.658741
410.953545	4841.241849
411.334138	4719.782809
411.714669	4788.236637
412.095139	4682.137993
412.475547	4827.250127
412.855894	4805.462260
413.236180	4816.434331
413.616405	4775.280872
413.996568	4860.113409
414.376670	4797.608142
414.756711	4755.149024
415.136691	4785.564826
415.516609	4866.427454
415.896466	4896.999531
416.276262	4938.021921
416.655997	4917.446451
417.035670	5096.566209
417.415283	5192.272515
417.794834	5135.708248
418.174324	5088.379375
418.553753	4988.362883
418.933121	5184.466288
419.312428	5246.147326
419.691674	5186.865878
420.070859	5310.013704
420.449983	5222.958018
420.829045	5335.779042
421.208047	5248.461216
421.586988	5315.296833
421.965867	5328.928113
422.344686	5459.005006
422.723444	5315.949663
423.102141	5132.754132
423.480777	5433.597591
423.859352	5204.212488
424.237866	5460.197239
424.616319	5448.819355
424.994712	5560.465789
425.373044	5437.249907
425.751314	5582.684675
426.129524	5381.391402
426.507673	5580.416155
426.885762	5660.605790
427.263789	5595.484164
427.641756	5472.837932
428.019662	5596.494916
428.397508	5601.899032
428.775292	5545.990116
429.153016	5653.238143
429.530679	5573.096400
429.908282	5662.460934
430.285824	5530.997724
430.663305	5807.626000
431.040726	5541.979878
431.418086	5545.191093
431.795385	5645.613398
432.172624	5657.903731
432.549802	5654.213607
432.926920	5672.399569
433.303977	5669.826060
433.680974	5713.699222
434.057910	5722.896807
434.434786	5737.526236
434.811601	5704.501637
435.188355	5943.933759
435.565050	5817.698226
435.941683	5796.011182
436.318257	6012.354820
436.694770	5993.233723
437.071222	6031.019692
437.447614	5954.777281
437.823946	5873.249221
438.200218	6024.637591
438.576429	5894.185133
438.952580	5993.775647
439.328670	6031.410381
439.704700	5942.812103
440.080670	5930.957829
440.456580	6204.321958
440.832429	6084.594554
441.208218	5927.451707
441.583947	6085.625470
441.959616	6086.749648
442.335224	6017.897568
442.710773	6153.512169
443.086261	6180.472259
443.461689	5976.280323
443.837057	6123.234999
444.212365	6282.157374
444.587612	6167.677811
444.962800	6326.832079
445.337927	6305.061856
445.712995	5914.112814
446.088002	6495.299879
446.462949	6321.274207
446.837837	6253.740389
447.212664	6426.208345
447.587431	6569.482978
447.962139	7111.752336
448.336786	8042.924027
448.711374	7776.614993
449.085901	6851.069229
449.460369	6776.684484
449.834776	6702.266971
450.209124	7101.944771
450.583412	7246.313335
450.957640	7398.621716
451.331808	7158.380488
451.705917	6712.253496
452.079965	6633.745087
452.453954	6849.572007
452.827883	6723.764971
453.201752	6815.609753
453.575562	6612.867148
453.949311	6822.052348
454.323001	6712.792900
454.696632	6784.591533
455.070202	6920.833757
455.443713	7078.493323
455.817164	7176.821029
456.190556	7258.170129
456.563888	7339.488981
456.937160	7380.886937
457.310373	7037.324740
457.683526	7062.830458
458.056619	6949.273427
458.429653	6937.255316
458.802628	6869.847527
459.175542	6985.355485
459.548398	7339.289856
459.921194	7499.351532
460.293930	7501.642736
460.666607	8032.531689
461.039224	8342.562650
461.411782	8464.591341
461.784280	8486.971543
462.156719	8378.357363
462.529099	8255.794310
462.901419	7846.205601
463.273680	7743.378666
463.645882	7747.981239
464.018024	7615.270344
464.390106	7782.142618
464.762130	8172.960591
465.134094	8638.813618
465.505999	9663.042489
465.877845	10881.249918
466.249631	11534.664115
466.621358	11152.138841
466.993026	10516.923209
467.364634	10265.057081
467.736184	9902.527543
468.107674	9565.710411
468.479105	9603.642573
468.850477	9367.893013
469.221790	9134.134709
469.593043	8808.763517
469.964238	8671.379472
470.335373	8679.306686
470.706449	8741.317919
471.077467	8718.620124
471.448425	10032.546463
471.819324	11108.210226
472.190164	11135.193002
472.560945	9883.477023
472.931667	9089.452442
473.302330	8959.685581
473.672934	8600.611754
474.043479	8959.632648
474.413965	8896.517402
474.784393	8778.972818
475.154761	8941.350904
475.525070	9024.620683
475.895321	8848.727264
476.265513	9024.615642
476.635645	9196.108134
477.005719	9190.446918
477.375734	9314.103902
477.745691	9551.625427
478.115588	9681.861116
478.485427	9926.919166
478.855207	10469.317073
479.224928	11278.644076
479.594591	11909.678071
479.964194	11715.727238
480.333739	11655.147692
480.703226	11574.900085
481.072653	11664.284784
481.442022	11905.761094
481.811333	12088.709608
482.180584	11897.203735
482.549777	11609.099273
482.918912	11430.614700
483.287988	11443.593151
483.657005	11462.174844
484.025964	11147.075002
484.394864	11275.059816
484.763706	11251.021074
485.132489	11000.775676
485.501213	10971.244597
485.869879	11043.282685
486.238487	10882.437110
486.607036	10997.229224
486.975527	10773.157498
487.343959	10962.999790
487.712333	11010.184990
488.080648	10942.862901
488.448905	10983.318160
488.817104	10923.827504
489.185244	11187.951198
489.553326	11346.671927
489.921350	11884.913402
490.289315	12939.283332
490.657222	13282.406948
491.025070	13199.064072
491.392861	13073.131008
491.760593	12693.438862
492.128267	12335.945437
492.495883	12013.087259
492.863440	11677.112000
493.230939	11338.411996
493.598380	11271.934300
493.965763	11140.599640
494.333088	11040.956193
494.700354	10955.554006
495.067563	11026.903977
495.434713	10849.193221
495.801805	10974.803652
496.168839	10910.004660
496.535815	10837.454894
496.902733	10841.316418
497.269593	10770.190779
497.636395	10870.539987
498.003139	10856.109684
498.369825	10723.794519
498.736453	10883.031966
499.103023	10808.372478
499.469535	10839.302477
499.835989	10823.110291
500.202385	10788.923706
500.568723	10635.468463
500.935003	10862.884995
501.301226	10664.757567
501.667390	10922.695765
502.033497	11020.786536
502.399546	10875.001408
502.765537	10789.019488
503.131470	10865.498833
503.497345	11041.712366
503.863163	10649.253498
504.228923	10963.062804
504.594625	11021.572956
504.960269	10773.245718
505.325856	10989.087761
505.691385	10782.014805
506.056856	10929.677763
506.422270	10962.132711
506.787625	10852.893428
507.152924	10967.214194
507.518164	10951.301792
507.883347	10868.226098
508.248472	10788.477564
508.613540	11015.884014
508.978550	10905.185317
509.343503	10877.088446
509.708398	10998.156797
510.073236	11106.319794
510.438016	11114.405804
510.802738	11059.621065
511.167403	11106.493713
511.532010	11009.648107
511.896561	11239.232335
512.261053	11311.338479
512.625488	11185.080261
512.989866	11161.291056
513.354186	11153.152113
513.718449	11052.132431
514.082655	11241.077398
514.446803	11137.552262
514.810894	11258.161868
515.174927	11126.935592
515.538904	11151.942236
515.902822	11305.374794
516.266684	11177.279075
516.630488	11130.439194
516.994235	11187.936074
517.357925	11245.233829
517.721558	11332.556696
518.085133	11346.863491
518.448651	11353.721980
518.812112	11238.564382
519.175516	11247.709036
519.538863	11369.664629
519.902152	11282.389653
520.265385	11443.053747
520.628560	11358.621982
520.991678	11327.694503
521.354739	11388.727753
521.717743	11324.561426
522.080690	11293.838114
522.443580	11424.744276
522.806413	11380.392205
523.169189	11406.931359
523.531908	11455.475150
523.894569	11278.888572
524.257174	11282.891248
524.619722	11393.171530
524.982213	11339.223622
525.344647	11389.332691
525.707025	11337.335710
526.069345	11424.227558
526.431608	11337.779331
526.793815	11443.807400
527.155964	11232.850235
527.518057	11273.408838
527.880093	11218.167874
528.242072	11273.325659
528.603995	11185.939777
528.965860	11099.904925
529.327669	11149.245219
529.689421	11088.821949
530.051117	11061.072917
530.412755	11147.722790
530.774337	11036.255317
531.135862	11007.440082
531.497331	11025.104285
531.858743	10871.465039
532.220098	11028.045798
532.581396	10891.851465
532.942638	10866.612928
533.303824	10824.247071
533.664953	10825.414098
534.026025	10729.662422
534.387040	10813.700978
534.747999	10809.526902
535.108902	10860.571105
535.469748	10610.045924
535.830537	10702.145284
536.191270	10667.010962
536.551947	10678.973620
536.912567	10662.970477
537.273131	10583.234547
537.633638	10551.775227
537.994089	10524.119457
538.354483	10461.120157
538.714821	10596.956568
539.075103	10583.312685
539.435328	10534.335355
539.795497	10359.999652
540.155609	10486.696451
540.515665	10552.874198
540.875665	10290.797212
541.235609	10336.235653
541.595496	10314.533485
541.955328	10447.758579
542.315102	10319.655298
542.674821	10255.120967
543.034483	10241.366178
543.394090	10220.755421
543.753640	10138.985385
544.113134	10323.415998
544.472571	10168.581999
544.831953	10278.549729
545.191278	10077.213606
545.550548	10079.605634
545.909761	10184.065903
546.268918	10137.556218
546.628019	10189.711996
546.987064	10044.695643
547.346053	9954.728691
547.704986	10009.783133
548.063863	9985.883022
548.422684	9947.187125
548.781449	9848.970325
549.140158	9909.257484
549.498811	9772.085167
549.857408	9623.295511
550.215949	9791.695255
550.574434	9635.729517
550.932864	9690.854534
551.291237	9720.123474
551.649555	9637.509044
552.007817	9621.405078
552.366022	9561.760667
552.724173	9523.384883
553.082267	9482.856527
553.440305	9548.474706
553.798288	9363.386222
554.156215	9451.619017
554.514086	9400.332838
554.871902	9247.585877
555.229661	9235.676151
555.587365	9189.282412
555.945014	9073.882839
556.302606	9132.019945
556.660143	9014.767748
557.017625	9094.518802
557.375050	8980.999579
557.732421	9053.067914
558.089735	8939.465512
558.446994	8908.734639
558.804197	8899.973113
559.161345	8855.847894
559.518437	8719.512408
559.875474	8742.855471
560.232455	8721.060043
560.589381	8655.063777
560.946251	8596.581351
561.303065	8650.511615
561.659825	8553.978560
562.016528	8466.978327
562.373177	8350.326027
562.729770	8375.609934
563.086307	8285.680791
563.442789	8316.474679
563.799216	8172.824480
564.155587	8174.583842
564.511904	8100.327646
564.868164	8053.649082
565.224370	8036.131072
565.580520	7924.257786
565.936615	7912.733709
566.292654	7764.042355
566.648638	7823.533012
567.004567	7742.904797
567.360441	7702.124383
567.716260	7589.482321
568.072023	7619.217567
568.427732	7534.259001
568.783385	7455.493493
569.138982	7441.274919
569.494525	7410.773417
569.850013	7295.199924
570.205445	7300.795605
570.560823	7208.857562
570.916145	7107.394258
571.271412	7110.023220
571.626625	7037.203753
571.981782	6988.314643
572.336884	6926.825169
572.691931	6903.388844
573.046923	6809.910729
573.401860	6753.469970
573.756743	6676.635224
574.111570	6661.882287
574.466342	6619.087932
574.821059	6593.342759
575.175722	6496.824828
575.530330	6451.880421
575.884882	6420.118631
576.239380	6334.119067
576.593823	6292.534589
576.948211	6253.299288
577.302544	6162.238406
577.656823	6121.906655
578.011047	6087.226037
578.365216	6036.648140
578.719330	5968.295135
579.073389	5926.491367
579.427394	5878.083687
579.781344	5831.130380
580.135239	5765.318117
580.489080	5740.016566
580.842866	5647.289582
581.196597	5622.081292
581.550273	5607.419096
581.903895	5549.765940
582.257463	5550.965735
582.610975	5452.519562
582.964434	5436.173620
583.317837	5358.224779
583.671186	5331.247044
584.024481	5294.313031
584.377721	5232.349688
584.730906	5189.507442
585.084037	5164.392414
585.437113	5120.824242
585.790135	5086.652780
586.143103	5018.776164
586.496016	4978.399043
586.848874	4962.302638
587.201679	4934.901447
587.554428	4853.406153
587.907124	4843.412066
588.259765	4806.432682
588.612352	4772.152836
588.964884	4702.426116
589.317362	4675.478628
589.669786	4645.254391
590.022155	4643.689112
590.374470	4610.941777
590.726731	4572.886107
591.078937	4489.659177
591.431090	4490.879136
591.783188	4430.355043
592.135232	4393.509250
592.487222	4380.049369
592.839157	4361.913818
593.191038	4314.622754
593.542866	4273.239922
593.894639	4220.305286
594.246358	4212.173905
594.598022	4188.039381
594.949633	4137.244715
595.301190	4104.615846
595.652692	4090.886264
596.004141	4087.634720
596.355535	4012.183770
596.706876	3985.228720
597.058162	3941.763892
597.409395	3944.302113
597.760573	3929.899536
598.111698	3890.102147
598.462768	3858.415975
598.813785	3836.285309
599.164748	3799.247952
599.515657	3784.517701
599.866511	3734.506934
600.217312	3748.410436
600.568060	3694.961603
600.918753	3700.718600
601.269392	3670.295237
601.619978	3632.718476
601.970510	3629.315697
602.320988	3611.119652
602.671412	3597.173300
603.021783	3569.152047
603.372100	3545.846792
603.722363	3523.917773
604.072572	3507.617202
604.422728	3493.010459
604.772830	3461.236066
605.122878	3445.232923
605.472872	3430.351437
605.822813	3417.468768
606.172701	3395.993453
606.522534	3389.550858
606.872314	3376.622819
607.222041	3353.340250
607.571714	3346.597707
607.921333	3329.362002
608.270899	3313.101760
608.620411	3310.780309
608.969870	3287.217956
609.319276	3272.097015
609.668627	3260.063781
610.017926	3255.675456
610.367171	3249.235382
610.716362	3233.529667
611.065500	3219.618603
611.414585	3207.013198
611.763616	3196.557845
612.112594	3182.072090
612.461518	3172.352745
612.810389	3165.723628
613.159207	3149.044970
613.507971	3133.359420
613.856682	3130.599388
614.205340	3119.670167
614.553945	3114.361832
614.902496	3096.579162
615.250994	3088.818305
615.599439	3080.200453
615.947830	3067.421128
616.296169	3061.346537
616.644454	3053.210115
616.992686	3041.297868
617.340864	3038.618495
617.688990	3022.433871
618.037063	3023.058974
618.385082	3010.448528
618.733048	3007.333094
619.080961	2995.471259
619.428821	2991.743326
619.776628	2979.694968
620.124382	2970.210038
620.472083	2961.438430
620.819731	2952.389559
621.167326	2934.062444
621.514868	2930.667227
621.862357	2909.174267
622.209793	2905.809297
622.557176	2891.613408
622.904506	2878.539175
623.251783	2866.019470
623.599007	2859.735672
623.946179	2849.287880
624.293297	2843.261181
624.640363	2831.293482
624.987376	2826.300219
625.334336	2820.349137
625.681243	2811.012920
626.028097	2801.701908
626.374899	2797.812658
626.721647	2790.442491
627.068343	2786.036523
627.414987	2776.609565
627.761577	2772.332146
628.108115	2767.827875
628.454600	2760.810589
628.801032	2758.743716
629.147412	2754.652820
629.493739	2748.318610
629.840014	2745.117477
630.186236	2743.839545
630.532405	2733.883266
630.878521	2733.716908
631.224585	2729.469736
631.570597	2725.386401
631.916556	2722.296174
632.262462	2719.682335
632.608316	2716.536655
632.954117	2710.683876
633.299866	2710.220090
633.645562	2705.226827
633.991206	2700.175591
634.336797	2692.084539
634.682336	2689.679908
635.027823	2688.094465
635.373257	2680.867971
635.718639	2674.856395
636.063968	2674.362362
636.409245	2668.991013
636.754470	2663.738131
637.099642	2662.994560
637.444762	2661.804848
637.789829	2659.506082
638.134845	2655.379897
638.479808	2652.420740
638.824719	2648.100471
639.169577	2648.453352
639.514383	2643.855820
639.859137	2642.121663
640.203839	2641.879687
640.548489	2636.349542
640.893086	2636.820890
641.237632	2632.896351
641.582125	2635.119500
