Dividing Wavelength (nm)	Counts (n)	Blue Motor Position (mm): 0.000000	Red Motor Position (mm): 36.000000	
326.493990	2129.499331
326.888308	2129.499331
327.282561	2129.499331
327.676750	2093.770153
328.070874	2091.665472
328.464933	2095.491707
328.858929	2102.098139
329.252859	2113.483585
329.646726	2124.402725
330.040528	2135.377317
330.434265	2151.463638
330.827938	2171.172029
331.221547	2189.138702
331.615091	2208.481609
332.008571	2228.316029
332.401986	2247.127094
332.795338	2266.898500
333.188625	2286.241407
333.581847	2303.590538
333.975006	2321.776501
334.368100	2342.835921
334.761129	2358.566841
335.154095	2375.119470
335.546996	2394.439692
335.939833	2416.270409
336.332606	2428.079312
336.725315	2444.064811
337.117960	2449.874740
337.510540	2459.478138
337.903056	2472.000365
338.295508	2478.085037
338.687896	2488.326141
339.080220	2495.814775
339.472480	2504.296517
339.864676	2507.149810
340.256807	2512.533762
340.648875	2513.829339
341.040879	2516.498630
341.432818	2520.758405
341.824694	2521.542304
342.216506	2519.949299
342.608253	2519.286388
342.999937	2521.370905
343.391557	2520.347551
343.783113	2520.342509
344.174605	2518.341171
344.566033	2515.689524
344.957397	2513.930162
345.348697	2510.449245
345.739934	2512.737929
346.131106	2508.062259
346.522215	2508.994872
346.913260	2504.737618
347.304241	2505.380365
347.695159	2505.196363
348.086012	2499.814931
348.476802	2498.189159
348.867528	2498.670589
349.258191	2497.115393
349.648789	2494.879641
350.039324	2497.546412
350.429796	2492.956441
350.820203	2491.623056
351.210548	2490.178765
351.600828	2488.822695
351.991045	2489.558703
352.381198	2486.602067
352.771288	2486.856645
353.161314	2491.096255
353.551276	2489.740185
353.941175	2489.586430
354.331010	2489.954434
354.720782	2488.192551
355.110490	2491.391163
355.500135	2488.474855
355.889717	2488.474855
356.279235	2488.462253
356.668689	2487.892602
357.058080	2488.704228
357.447408	2489.354537
357.836672	2485.745071
358.225873	2491.023159
358.615010	2485.792962
359.004084	2491.071050
359.393095	2492.563231
359.782043	2493.503406
360.170927	2493.238746
360.559748	2493.039620
360.948505	2492.757316
361.337199	2496.545743
361.725830	2494.660351
362.114398	2499.804849
362.502903	2496.951556
362.891344	2500.177894
363.279722	2497.261587
363.668037	2501.017246
364.056289	2499.189828
364.444478	2502.675786
364.832603	2502.010353
365.220665	2503.565549
365.608665	2500.127483
365.996601	2502.595127
366.384474	2502.806856
366.772284	2507.379182
367.160031	2510.406395
367.547715	2509.892198
367.935336	2512.634585
368.322893	2516.712879
368.710388	2516.523835
369.097820	2525.313087
369.485189	2526.626308
369.872495	2530.744930
370.259738	2538.883873
370.646918	2547.658002
371.034035	2555.262582
371.421090	2565.632236
371.808081	2572.342011
372.195010	2584.138311
372.581875	2597.479725
372.968678	2609.235696
373.355418	2622.423354
373.742096	2641.690644
374.128710	2653.333189
374.515262	2667.919768
374.901751	2683.691017
375.288177	2695.789787
375.674540	2719.639486
376.060841	2740.847620
376.447079	2760.029210
376.833254	2778.149638
377.219367	2788.163890
377.605417	2827.684015
377.991404	2836.780777
378.377329	2857.668798
378.763191	2876.951212
379.148991	2915.687438
379.534727	2938.501180
379.920402	2969.486632
380.306013	2979.757983
380.691563	3031.165149
381.077049	3046.754918
381.462474	3069.243505
381.847835	3107.072323
382.233134	3129.714666
382.618371	3131.355561
383.003545	3198.264276
383.388657	3205.450441
383.773706	3237.817169
384.158693	3253.653954
384.543618	3280.813170
384.928480	3312.970690
385.313280	3365.421376
385.698017	3363.694780
386.082692	3411.376534
386.467305	3423.293822
386.851856	3453.434881
387.236344	3474.635453
387.620770	3505.988909
388.005133	3529.581509
388.389435	3560.551838
388.773674	3569.144485
389.157851	3610.860033
389.541965	3629.981129
389.926018	3595.441664
390.310008	3663.388856
390.693936	3682.479706
391.077802	3727.318248
391.461606	3710.982389
391.845348	3776.129221
392.229027	3774.032101
392.612645	3790.980460
392.996200	3865.433261
393.379694	3906.737955
393.763125	3972.681288
394.146494	3937.236936
394.529801	3999.190196
394.913047	4048.843041
395.296230	4013.744007
395.679351	4066.666040
396.062410	4092.585133
396.445408	4075.057041
396.828343	4106.241618
397.211217	4126.728868
397.594028	4052.064338
397.976778	4114.839306
398.359466	4143.286538
398.742092	4174.574459
399.124656	4094.808282
399.507158	4173.737627
399.889598	4200.647307
400.271977	4264.281792
400.654294	4233.185434
401.036549	4240.558122
401.418742	4210.366651
401.800874	4313.617044
402.182944	4335.662009
402.564952	4399.165424
402.946898	4388.856265
403.328783	4380.228330
403.710606	4297.802944
404.092367	4486.188343
404.474067	4451.338846
404.855705	4459.644147
405.237282	4387.732088
405.618797	4500.777442
406.000250	4532.677863
406.381642	4615.446048
406.762972	4576.891303
407.144240	4585.720884
407.525447	4586.192232
407.906593	4645.884535
408.287677	4688.273077
408.668700	4616.401347
409.049661	4664.809026
409.430560	4711.926171
409.811399	4637.508658
410.192176	4795.558913
410.572891	4735.496086
410.953545	4836.561138
411.334138	4720.773396
411.714669	4791.336947
412.095139	4682.430380
412.475547	4826.262061
412.855894	4803.508813
413.236180	4815.471471
413.616405	4768.974388
413.996568	4856.123335
414.376670	4801.676353
414.756711	4750.390175
415.136691	4781.526861
415.516609	4860.458728
415.896466	4900.092279
416.276262	4932.219553
416.655997	4914.676337
417.035670	5093.932206
417.415283	5184.650290
417.794834	5129.071569
418.174324	5085.349642
418.553753	4994.419829
418.933121	5178.452192
419.312428	5243.604064
419.691674	5181.161812
420.070859	5307.215864
420.449983	5221.085230
420.829045	5338.806254
421.208047	5247.435341
421.586988	5312.509075
421.965867	5327.496426
422.344686	5458.077434
422.723444	5309.612933
423.102141	5132.169358
423.480777	5431.669349
423.859352	5196.554975
424.237866	5453.928564
424.616319	5451.128203
424.994712	5558.063679
425.373044	5440.072953
425.751314	5580.033028
426.129524	5382.419797
426.507673	5579.959931
426.885762	5659.378269
427.263789	5592.643474
427.641756	5473.904136
428.019662	5594.730512
428.397508	5605.337099
428.775292	5551.454727
429.153016	5647.607174
429.530679	5578.361885
429.908282	5659.680738
430.285824	5527.451272
430.663305	5803.812367
431.040726	5539.449219
431.418086	5535.799423
431.795385	5643.135671
432.172624	5660.136962
432.549802	5649.048944
432.926920	5662.360111
433.303977	5670.887223
433.680974	5714.533533
434.057910	5730.423250
434.434786	5734.957768
434.811601	5702.492737
435.188355	5937.775990
435.565050	5806.958048
435.941683	5793.294000
436.318257	6006.771742
436.694770	5991.083671
437.071222	6026.404516
437.447614	5956.511438
437.823946	5867.560278
438.200218	6025.582808
438.576429	5888.874277
438.952580	5985.543443
439.328670	6029.023395
439.704700	5936.906391
440.080670	5930.408343
440.456580	6190.272263
440.832429	6081.597588
441.208218	5925.248723
441.583947	6081.090953
441.959616	6085.338125
442.335224	6011.119737
442.710773	6150.880686
443.086261	6180.870511
443.461689	5968.322862
443.837057	6120.825327
444.212365	6275.833246
444.587612	6164.859806
444.962800	6323.711605
445.337927	6303.385672
445.712995	5910.309263
446.088002	6491.115721
446.462949	6320.190359
446.837837	6248.237970
447.212664	6424.048210
447.587431	6566.019706
447.962139	7110.592870
448.336786	8033.643263
448.711374	7772.357739
449.085901	6849.012438
449.460369	6768.371621
449.834776	6703.151693
450.209124	7096.366734
450.583412	7246.003304
450.957640	7388.925057
451.331808	7156.726990
451.705917	6714.522016
452.079965	6636.190047
452.453954	6846.862386
452.827883	6722.608026
453.201752	6814.707387
453.575562	6613.547704
453.949311	6819.922460
454.323001	6707.262754
454.696632	6783.202696
455.070202	6921.121103
455.443713	7073.091727
455.817164	7173.377921
456.190556	7254.296002
456.563888	7336.416398
456.937160	7370.393775
457.310373	7026.894593
457.683526	7051.326545
458.056619	6943.425688
458.429653	6934.505367
458.802628	6864.551795
459.175542	6980.964640
459.548398	7333.636202
459.921194	7495.240471
460.293930	7496.967066
460.666607	8024.559104
461.039224	8334.746341
461.411782	8459.842574
461.784280	8482.618507
462.156719	8372.973411
462.529099	8251.353054
462.901419	7841.852565
463.273680	7734.100422
463.645882	7750.050633
464.018024	7609.354550
464.390106	7774.381762
464.762130	8162.878283
465.134094	8626.424982
465.505999	9654.888422
465.877845	10874.532581
466.249631	11528.183712
466.621358	11142.245577
466.993026	10510.664617
467.364634	10261.790413
467.736184	9897.536801
468.107674	9559.918125
468.479105	9593.431716
468.850477	9359.438998
469.221790	9134.401891
469.593043	8806.003485
469.964238	8663.535436
470.335373	8672.906941
470.706449	8732.500941
471.077467	8711.179381
471.448425	10027.240648
471.819324	11101.019020
472.190164	11124.707402
472.560945	9879.343277
472.931667	9086.591587
473.302330	8950.127553
473.672934	8595.046320
474.043479	8953.858007
474.413965	8891.561948
474.784393	8775.086088
475.154761	8932.816231
475.525070	9015.322275
475.895321	8841.520934
476.265513	9021.880816
476.635645	9182.630609
477.005719	9191.898771
477.375734	9301.949680
477.745691	9540.484477
478.115588	9672.625722
478.485427	9914.308720
478.855207	10453.863416
479.224928	11269.519588
479.594591	11897.448231
479.964194	11715.603730
480.333739	11651.074440
480.703226	11565.495812
481.072653	11663.271512
481.442022	11890.204093
481.811333	12085.140471
482.180584	11892.218034
482.549777	11606.896288
482.918912	11421.394430
483.287988	11445.304622
483.657005	11456.637136
484.025964	11136.586881
484.394864	11265.095975
484.763706	11237.717469
485.132489	10997.813998
485.501213	10962.193205
485.869879	11033.742302
486.238487	10874.774556
486.607036	10984.896042
486.975527	10766.162897
487.343959	10955.664911
487.712333	11004.400266
488.080648	10935.593557
488.448905	10980.878242
488.817104	10905.717159
489.185244	11173.818323
489.553326	11336.256903
489.921350	11874.258924
490.289315	12937.161006
490.657222	13279.856124
491.025070	13182.917256
491.392861	13058.650293
491.760593	12685.214219
492.128267	12337.132629
492.495883	12013.611539
492.863440	11668.836946
493.230939	11336.698004
493.598380	11267.528332
493.965763	11129.476334
494.333088	11029.727023
494.700354	10958.740015
495.067563	11014.316215
495.434713	10845.659372
495.801805	10969.631428
496.168839	10898.473021
496.535815	10826.984418
496.902733	10832.312918
497.269593	10762.631568
497.636395	10866.980933
498.003139	10852.318737
498.369825	10713.644156
498.736453	10871.316325
499.103023	10797.476024
499.469535	10829.010962
499.835989	10819.044601
500.202385	10783.915320
500.568723	10631.397731
500.935003	10855.343429
501.301226	10655.539817
501.667390	10914.907182
502.033497	11006.832623
502.399546	10870.950841
502.765537	10777.334094
503.131470	10852.994251
503.497345	11034.127950
503.863163	10648.028498
504.228923	10952.509149
504.594625	11017.383757
504.960269	10760.763821
505.325856	10983.749179
505.691385	10775.007601
506.056856	10929.708010
506.422270	10956.426125
506.787625	10840.290543
507.152924	10962.946858
507.518164	10939.888620
507.883347	10858.307627
508.248472	10777.755030
508.613540	11006.457057
508.978550	10889.555219
509.343503	10867.348937
509.708398	10981.795732
510.073236	11090.803122
510.438016	11097.437281
510.802738	11044.114476
511.167403	11095.919893
511.532010	10995.684111
511.896561	11220.600231
512.261053	11293.467589
512.625488	11163.410861
512.989866	11143.536112
513.354186	11125.856785
513.718449	11029.669049
514.082655	11217.988913
514.446803	11116.061823
514.810894	11231.867210
515.174927	11102.039854
515.538904	11127.114553
515.902822	11266.711665
516.266684	11142.341358
516.630488	11088.920251
516.994235	11143.084929
517.357925	11202.994001
517.721558	11285.439552
518.085133	11296.792230
518.448651	11304.197685
518.812112	11180.381905
519.175516	11187.227792
519.538863	11304.376646
519.902152	11219.460930
520.265385	11375.313242
520.628560	11277.572831
520.991678	11244.223078
521.354739	11303.756584
521.717743	11236.273178
522.080690	11197.804133
522.443580	11329.337919
522.806413	11277.139292
523.169189	11301.523353
523.531908	11349.116886
523.894569	11157.424491
524.257174	11159.352732
524.619722	11265.826942
524.982213	11205.564989
525.344647	11245.581669
525.707025	11181.107832
526.069345	11267.046902
526.431608	11170.695328
526.793815	11272.100658
527.155964	11057.473533
527.518057	11097.321334
527.880093	11032.771880
528.242072	11085.270456
528.603995	10982.067954
528.965860	10892.521938
529.327669	10934.003073
529.689421	10861.823832
530.051117	10820.761113
530.412755	10914.695454
530.774337	10795.794799
531.135862	10749.900134
531.497331	10761.474624
531.858743	10598.504202
532.220098	10745.048024
532.581396	10603.472259
532.942638	10572.910264
533.303824	10517.722232
533.664953	10511.816521
534.026025	10413.768599
534.387040	10481.415842
534.747999	10466.166352
535.108902	10498.417134
535.469748	10252.416388
535.830537	10330.579478
536.191270	10284.205904
536.551947	10281.087950
536.912567	10258.894270
537.273131	10163.104786
537.633638	10117.099216
537.994089	10082.398433
538.354483	10008.298513
538.714821	10117.530234
539.075103	10095.512995
539.435328	10033.579899
539.795497	9856.872333
540.155609	9968.329724
540.515665	10012.187763
540.875665	9757.959854
541.235609	9780.740828
541.595496	9752.028936
541.955328	9850.563329
542.315102	9724.249658
542.674821	9645.564808
543.034483	9618.897104
543.394090	9587.518442
543.753640	9489.619235
544.113134	9642.998861
544.472571	9485.775355
544.831953	9573.695598
545.191278	9384.266681
545.550548	9367.764464
545.909761	9449.617679
546.268918	9386.111743
546.628019	9417.548379
546.987064	9264.776211
547.346053	9178.010392
547.704986	9201.376140
548.063863	9155.657916
548.422684	9115.800033
548.781449	9004.362807
549.140158	9044.271101
549.498811	8909.674814
549.857408	8765.520499
550.215949	8885.300835
550.574434	8740.775995
550.932864	8766.107793
551.291237	8780.470041
551.649555	8682.966564
552.007817	8661.740785
552.366022	8597.282072
552.724173	8547.896408
553.082267	8501.386723
553.440305	8537.257053
553.798288	8371.158595
554.156215	8423.309332
554.514086	8368.348152
554.871902	8222.467242
555.229661	8203.588121
555.587365	8143.174933
555.945014	8036.630147
556.302606	8061.377171
556.660143	7962.971327
557.017625	7992.368816
557.375050	7892.070019
557.732421	7940.439890
558.089735	7826.126686
558.446994	7787.221581
558.804197	7765.224506
559.161345	7719.569296
559.518437	7583.662309
559.875474	7578.109478
560.232455	7556.873618
560.589381	7484.346537
560.946251	7418.642658
561.303065	7459.773433
561.659825	7359.656117
562.016528	7279.123685
562.373177	7174.852458
562.729770	7173.282139
563.086307	7086.251659
563.442789	7105.350070
563.799216	6964.409491
564.155587	6958.985210
564.511904	6886.707666
564.868164	6838.889802
565.224370	6808.849566
565.580520	6705.276539
565.936615	6683.022366
566.292654	6552.932870
566.648638	6588.873777
567.004567	6511.570203
567.360441	6463.674200
567.716260	6367.463779
568.072023	6374.652464
568.427732	6296.023067
568.783385	6225.976235
569.138982	6203.535538
569.494525	6167.188819
569.850013	6074.116516
570.205445	6058.680503
570.560823	5984.870449
570.916145	5898.828035
571.271412	5885.637856
571.626625	5820.841385
571.981782	5772.158963
572.336884	5713.994129
572.691931	5688.009502
573.046923	5606.690649
573.401860	5554.590324
573.756743	5485.521475
574.111570	5465.092199
574.466342	5430.051139
574.821059	5394.616869
575.175722	5317.464530
575.530330	5274.531543
575.884882	5241.514506
576.239380	5171.213095
576.593823	5127.198781
576.948211	5099.863124
577.302544	5028.886198
577.656823	4987.208459
578.011047	4956.328871
578.365216	4911.102159
578.719330	4855.369683
579.073389	4814.856450
579.427394	4773.690388
579.781344	4736.673195
580.135239	4682.276624
580.489080	4658.537831
580.842866	4589.907563
581.196597	4567.615580
581.550273	4543.516344
581.903895	4501.657123
582.257463	4495.179241
582.610975	4423.967901
582.964434	4410.225716
583.317837	4353.066593
583.671186	4333.020445
584.024481	4295.791524
584.377721	4246.516765
584.730906	4213.673648
585.084037	4190.156665
585.437113	4155.788599
585.790135	4124.230976
586.143103	4074.096701
586.496016	4042.150909
586.848874	4024.194319
587.201679	4003.286133
587.554428	3946.358904
587.907124	3928.790482
588.259765	3903.655289
588.612352	3878.832648
588.964884	3835.123323
589.317362	3812.511228
589.669786	3793.997590
590.022155	3781.424953
590.374470	3753.433946
590.726731	3729.269175
591.078937	3674.504600
591.431090	3667.983868
591.783188	3631.561531
592.135232	3601.007098
592.487222	3588.694079
592.839157	3576.091195
593.191038	3545.985424
593.542866	3520.068852
593.894639	3482.184581
594.246358	3471.353662
594.598022	3452.787092
594.949633	3420.495981
595.301190	3397.188207
595.652692	3386.087586
596.004141	3375.791029
596.355535	3337.647138
596.706876	3317.510249
597.058162	3288.037143
597.409395	3282.161679
597.760573	3277.062552
598.111698	3250.253695
598.462768	3235.437744
598.813785	3216.460321
599.164748	3195.458874
599.515657	3186.387317
599.866511	3155.527894
600.217312	3161.320180
600.568060	3132.136940
600.918753	3130.836323
601.269392	3118.009107
601.619978	3091.628748
601.970510	3087.845363
602.320988	3076.512849
602.671412	3066.533885
603.021783	3052.393448
603.372100	3037.794267
603.722363	3025.161135
604.072572	3015.532531
604.422728	3006.466016
604.772830	2991.145949
605.122878	2972.246664
605.472872	2968.617033
605.822813	2957.241669
606.172701	2947.580298
606.522534	2944.485029
606.872314	2939.524534
607.222041	2923.410486
607.571714	2921.111720
607.921333	2909.612848
608.270899	2900.702608
608.620411	2899.202865
608.969870	2886.516801
609.319276	2880.734598
609.668627	2875.196890
610.017926	2872.567929
610.367171	2868.577855
610.716362	2864.149202
611.065500	2852.574712
611.414585	2842.293279
611.763616	2837.332784
612.112594	2832.309274
612.461518	2825.549087
612.810389	2822.579847
613.159207	2811.290183
613.507971	2807.466468
613.856682	2805.190387
614.205340	2796.620425
614.553945	2798.508337
614.902496	2784.705658
615.250994	2786.046605
615.599439	2778.515121
615.947830	2772.929523
616.296169	2771.530603
616.644454	2767.449789
616.992686	2763.202617
617.340864	2761.453336
617.688990	2755.182141
618.037063	2750.627458
618.385082	2746.408012
618.733048	2750.640061
619.080961	2745.215780
619.428821	2741.523134
619.776628	2736.933164
620.124382	2729.535271
620.472083	2726.147615
620.819731	2723.133005
621.167326	2715.357025
621.514868	2713.257385
621.862357	2703.404450
622.209793	2700.198276
622.557176	2696.939170
622.904506	2690.289888
623.251783	2684.908456
623.599007	2680.724298
623.946179	2679.385872
624.293297	2676.141890
624.640363	2674.082578
624.987376	2671.125942
625.334336	2668.522186
625.681243	2664.973213
626.028097	2660.763850
626.374899	2660.221926
626.721647	2658.031544
627.068343	2652.287150
627.414987	2651.001655
627.761577	2650.232879
628.108115	2648.234062
628.454600	2645.670635
628.801032	2646.381438
629.147412	2642.149389
629.493739	2640.831127
629.840014	2640.959677
630.186236	2639.512866
630.532405	2634.938019
630.878521	2637.259470
631.224585	2634.600261
631.570597	2630.474077
631.916556	2631.593213
632.262462	2629.518778
632.608316	2625.778242
632.954117	2627.134312
633.299866	2628.886113
633.645562	2623.897892
633.991206	2623.822274
634.336797	2623.179527
634.682336	2620.338837
635.027823	2617.765328
635.373257	2614.866665
635.718639	2612.673763
636.063968	2613.447580
636.409245	2611.549585
636.754470	2610.616972
637.099642	2608.439193
637.444762	2610.347270
637.789829	2605.364090
638.134845	2606.659666
638.479808	2604.854933
638.824719	2603.869388
639.169577	2602.755292
639.514383	2604.623040
639.859137	2598.140116
640.203839	2602.997268
640.548489	2599.836464
640.893086	2598.435024
641.237632	2594.989395
641.582125	2596.552153
641.926566	2597.141968
