Dividing Wavelength (nm)	Counts (n)	Blue Motor Position (mm): 0.000000	Red Motor Position (mm): 43.900000	
326.493990	2129.098559
326.888308	2129.098559
327.282561	2129.098559
327.676750	2097.581266
328.070874	2095.295102
328.464933	2096.499938
328.858929	2106.120980
329.252859	2115.618514
329.646726	2127.021604
330.040528	2139.057359
330.434265	2154.339617
330.827938	2172.003820
331.221547	2190.371264
331.615091	2209.187371
332.008571	2228.868035
332.401986	2248.868813
332.795338	2267.213572
333.188625	2286.964813
333.581847	2305.770837
333.975006	2324.639876
334.368100	2342.929182
334.761129	2359.597757
335.154095	2377.849255
335.546996	2399.193500
335.939833	2420.293250
336.332606	2433.672472
336.725315	2447.253340
337.117960	2458.641307
337.510540	2463.077522
337.903056	2476.227372
338.295508	2486.375215
338.687896	2494.360403
339.080220	2504.480519
339.472480	2511.366735
339.864676	2511.810357
340.256807	2516.120543
340.648875	2519.316635
341.040879	2522.684125
341.432818	2524.481297
341.824694	2525.297964
342.216506	2525.630680
342.608253	2525.444157
342.999937	2523.760412
343.391557	2527.127903
343.783113	2525.073632
344.174605	2525.270237
344.566033	2522.094310
344.957397	2521.396111
345.348697	2519.656912
345.739934	2518.056346
346.131106	2516.065090
346.522215	2515.291273
346.913260	2510.552589
347.304241	2512.322034
347.695159	2508.294152
348.086012	2506.857423
348.476802	2505.516476
348.867528	2503.442041
349.258191	2504.601507
349.648789	2502.695950
350.039324	2499.830054
350.429796	2499.411639
350.820203	2496.094559
351.210548	2495.149343
351.600828	2495.703870
351.991045	2495.623212
352.381198	2495.116576
352.771288	2493.357213
353.161314	2497.743017
353.551276	2492.061636
353.941175	2496.013901
354.331010	2497.327122
354.720782	2495.348469
355.110490	2494.312512
355.500135	2493.962151
355.889717	2496.064312
356.279235	2491.892758
356.668689	2496.263438
357.058080	2496.354179
357.447408	2496.497852
357.836672	2489.495689
358.225873	2496.245794
358.615010	2493.266472
359.004084	2498.867194
359.393095	2499.220075
359.782043	2501.443224
360.170927	2498.826865
360.559748	2498.337873
360.948505	2503.036228
361.337199	2503.207627
361.725830	2503.479850
362.114398	2505.599655
362.502903	2503.371465
362.891344	2507.265756
363.279722	2502.675786
363.668037	2506.741476
364.056289	2504.367093
364.444478	2508.846158
364.832603	2505.866836
365.220665	2509.665346
365.608665	2509.196518
365.996601	2511.611231
366.384474	2510.088802
366.772284	2512.498474
367.160031	2513.443690
367.547715	2514.814884
367.935336	2518.162210
368.322893	2518.671367
368.710388	2522.235463
369.097820	2530.361803
369.485189	2534.036804
369.872495	2540.539892
370.259738	2549.573640
370.646918	2555.973385
371.034035	2561.579148
371.421090	2572.147927
371.808081	2580.470872
372.195010	2588.050247
372.581875	2604.880139
372.968678	2616.711727
373.355418	2628.313942
373.742096	2644.821201
374.128710	2660.426092
374.515262	2673.533092
374.901751	2688.275947
375.288177	2704.271528
375.674540	2728.093501
376.060841	2743.695872
376.447079	2762.292688
376.833254	2784.173817
377.219367	2798.878862
377.605417	2833.521672
377.991404	2841.612723
378.377329	2864.181969
378.763191	2882.309958
379.148991	2920.796648
379.534727	2942.715584
379.920402	2972.395378
380.306013	2988.292656
380.691563	3038.686551
381.077049	3056.260013
381.462474	3074.070410
381.847835	3111.627006
382.233134	3137.825882
382.618371	3134.743217
383.003545	3202.030018
383.388657	3210.514280
383.773706	3242.462592
384.158693	3259.373143
384.543618	3285.277112
384.928480	3320.635765
385.313280	3368.022611
385.698017	3368.047817
386.082692	3422.204933
386.467305	3425.121240
386.851856	3456.411682
387.236344	3475.704178
387.620770	3509.270701
388.005133	3536.084598
388.389435	3564.352868
388.773674	3576.512131
389.157851	3617.806743
389.541965	3630.528095
389.926018	3597.440481
390.310008	3671.522758
390.693936	3686.494985
391.077802	3728.883527
391.461606	3717.765262
391.845348	3780.759520
392.229027	3781.329171
392.612645	3791.451808
392.996200	3871.548181
393.379694	3909.142585
393.763125	3973.485352
394.146494	3942.368830
394.529801	4001.204137
394.913047	4052.762538
395.296230	4019.949667
395.679351	4076.612237
396.062410	4099.947738
396.445408	4078.064089
396.828343	4111.398719
397.211217	4136.092811
397.594028	4057.418043
397.976778	4123.124443
398.359466	4149.325840
398.742092	4178.947660
399.124656	4102.773305
399.507158	4178.148637
399.889598	4206.459757
400.271977	4269.701032
400.654294	4239.446547
401.036549	4247.076333
401.418742	4216.675655
401.800874	4315.247857
402.182944	4345.058720
402.564952	4404.196496
402.946898	4392.090165
403.328783	4387.931213
403.710606	4304.795024
404.092367	4496.379035
404.474067	4460.538952
404.855705	4467.808296
405.237282	4393.226945
405.618797	4504.260879
406.000250	4539.400242
406.381642	4619.607520
406.762972	4582.146706
407.144240	4589.836986
407.525447	4591.523252
407.906593	4649.670441
408.287677	4690.826421
408.668700	4620.807315
409.049661	4671.251621
409.430560	4711.447261
409.811399	4637.934635
410.192176	4802.281292
410.572891	4740.683433
410.953545	4844.856357
411.334138	4727.795723
411.714669	4793.555054
412.095139	4686.191080
412.475547	4831.434284
412.855894	4810.934432
413.236180	4818.624712
413.616405	4770.620325
413.996568	4859.516032
414.376670	4801.036127
414.756711	4755.035598
415.136691	4791.248727
415.516609	4864.597515
415.896466	4904.407507
416.276262	4935.992856
416.655997	4920.972738
417.035670	5102.126602
417.415283	5192.423750
417.794834	5136.121623
418.174324	5088.185291
418.553753	4995.773379
418.933121	5181.018139
419.312428	5246.326287
419.691674	5187.889232
420.070859	5310.205268
420.449983	5224.798040
420.829045	5340.369012
421.208047	5241.975771
421.586988	5315.264066
421.965867	5331.052960
422.344686	5462.569102
422.723444	5318.744983
423.102141	5133.096931
423.480777	5436.350061
423.859352	5203.920101
424.237866	5462.339729
424.616319	5454.389830
424.994712	5565.282612
425.373044	5439.374753
425.751314	5585.454789
426.129524	5385.593203
426.507673	5578.618984
426.885762	5662.057642
427.263789	5592.519966
427.641756	5479.310774
428.019662	5600.618579
428.397508	5606.889775
428.775292	5552.939346
429.153016	5653.694368
429.530679	5578.175362
429.908282	5664.187529
430.285824	5534.526532
430.663305	5807.719262
431.040726	5543.930804
431.418086	5540.636410
431.795385	5647.362678
432.172624	5661.616541
432.549802	5652.781919
432.926920	5668.033930
433.303977	5676.987019
433.680974	5711.281989
434.057910	5733.032047
434.434786	5736.467593
434.811601	5710.762750
435.188355	5944.354696
435.565050	5819.031611
435.941683	5795.660822
436.318257	6010.741651
436.694770	5992.840513
437.071222	6029.514908
437.447614	5959.977231
437.823946	5871.084045
438.200218	6026.336460
438.576429	5893.164299
438.952580	5987.464123
439.328670	6035.360125
439.704700	5941.019972
440.080670	5932.180309
440.456580	6201.430857
440.832429	6085.040697
441.208218	5930.209218
441.583947	6086.134627
441.959616	6091.561429
442.335224	6019.341859
442.710773	6152.950080
443.086261	6183.388567
443.461689	5971.642461
443.837057	6125.067458
444.212365	6279.488083
444.587612	6172.257699
444.962800	6331.169992
445.337927	6308.731816
445.712995	5918.284368
446.088002	6494.440362
446.462949	6324.729918
446.837837	6255.479587
447.212664	6427.294713
447.587431	6566.460807
447.962139	7107.895853
448.336786	8040.758852
448.711374	7776.393182
449.085901	6853.514189
449.460369	6775.693897
449.834776	6704.563216
450.209124	7102.171623
450.583412	7247.475321
450.957640	7398.770430
451.331808	7165.790984
451.705917	6715.568055
452.079965	6638.297249
452.453954	6853.730958
452.827883	6726.741773
453.201752	6820.232491
453.575562	6616.479135
453.949311	6819.315001
454.323001	6710.040430
454.696632	6782.864938
455.070202	6928.791219
455.443713	7075.982829
455.817164	7183.490476
456.190556	7260.055520
456.563888	7334.205852
456.937160	7373.443673
457.310373	7040.435132
457.683526	7054.840229
458.056619	6949.074301
458.429653	6936.443690
458.802628	6874.399689
459.175542	6979.900957
459.548398	7333.668969
459.921194	7501.105853
460.293930	7500.279104
460.666607	8031.558746
461.039224	8335.973862
461.411782	8465.503790
461.784280	8483.344433
462.156719	8373.711940
462.529099	8256.439578
462.901419	7844.037905
463.273680	7743.441680
463.645882	7748.898729
464.018024	7616.845704
464.390106	7777.144314
464.762130	8167.677462
465.134094	8636.149368
465.505999	9657.295573
465.877845	10883.029446
466.249631	11530.358970
466.621358	11146.528037
466.993026	10522.997800
467.364634	10267.711248
467.736184	9896.044619
468.107674	9567.797448
468.479105	9596.385832
468.850477	9362.972847
469.221790	9130.479873
469.593043	8806.855440
469.964238	8668.064913
470.335373	8678.300976
470.706449	8739.402281
471.077467	8719.474600
471.448425	10032.128047
471.819324	11103.078332
472.190164	11127.195212
472.560945	9876.399243
472.931667	9090.405220
473.302330	8958.894119
473.672934	8596.218388
474.043479	8956.572668
474.413965	8896.887927
474.784393	8779.839897
475.154761	8936.229092
475.525070	9020.484417
475.895321	8850.295063
476.265513	9023.466259
476.635645	9201.219864
477.005719	9195.548566
477.375734	9315.631371
477.745691	9542.289210
478.115588	9683.144090
478.485427	9922.641747
478.855207	10461.057143
479.224928	11272.619897
479.594591	11896.724826
479.964194	11718.731766
480.333739	11651.991930
480.703226	11573.947307
481.072653	11667.889209
481.442022	11893.871533
481.811333	12091.515010
482.180584	11900.631720
482.549777	11607.276895
482.918912	11430.798702
483.287988	11450.575149
483.657005	11462.603342
484.025964	11150.351752
484.394864	11267.523291
484.763706	11243.587892
485.132489	11005.242138
485.501213	10959.382762
485.869879	11045.168077
486.238487	10884.002388
486.607036	10992.402320
486.975527	10767.327403
487.343959	10959.539038
487.712333	11013.612974
488.080648	10938.192272
488.448905	10984.296144
488.817104	10925.569223
489.185244	11188.848523
489.553326	11347.360044
489.921350	11874.384953
490.289315	12944.536214
490.657222	13285.592957
491.025070	13193.947301
491.392861	13061.450654
491.760593	12687.664220
492.128267	12339.386024
492.495883	12012.099193
492.863440	11683.224399
493.230939	11342.686895
493.598380	11276.436051
493.965763	11145.169446
494.333088	11037.339165
494.700354	10958.651795
495.067563	11022.147648
495.434713	10850.796308
495.801805	10983.900414
496.168839	10907.474001
496.535815	10837.215440
496.902733	10842.574186
497.269593	10776.283013
497.636395	10875.306398
498.003139	10860.964315
498.369825	10726.799047
498.736453	10889.240147
499.103023	10807.744854
499.469535	10844.031080
499.835989	10830.719913
500.202385	10793.528800
500.568723	10640.640687
500.935003	10868.117713
501.301226	10670.486838
501.667390	10924.671897
502.033497	11029.255675
502.399546	10883.750331
502.765537	10790.494026
503.131470	10862.469100
503.497345	11042.052644
503.863163	10648.194856
504.228923	10957.998965
504.594625	11034.289267
504.960269	10774.500965
505.325856	10995.845428
505.691385	10792.661722
506.056856	10937.630183
506.422270	10965.860645
506.787625	10855.968532
507.152924	10977.223405
507.518164	10947.546133
507.883347	10877.032993
508.248472	10788.159972
508.613540	11024.786692
508.978550	10910.465926
509.343503	10886.570856
509.708398	11005.723569
510.073236	11116.825558
510.438016	11124.427618
510.802738	11075.079763
511.167403	11125.398040
511.532010	11021.716629
511.896561	11251.016033
512.261053	11322.935654
512.625488	11193.559482
512.989866	11178.788901
513.354186	11166.793475
513.718449	11065.337733
514.082655	11257.070458
514.446803	11158.054635
514.810894	11280.801690
515.174927	11144.957717
515.538904	11167.532004
515.902822	11318.995992
516.266684	11209.232429
516.630488	11152.277473
516.994235	11207.367202
517.357925	11268.962540
517.721558	11357.223062
518.085133	11370.085566
518.448651	11385.425797
518.812112	11266.923393
519.175516	11283.949891
519.538863	11401.292829
519.902152	11320.833493
520.265385	11477.996505
520.628560	11382.048224
520.991678	11373.626976
521.354739	11431.207036
521.717743	11364.499967
522.080690	11334.865544
522.443580	11477.399128
522.806413	11427.211921
523.169189	11458.792229
523.531908	11519.389419
523.894569	11339.069867
524.257174	11344.491628
524.619722	11458.951026
524.982213	11409.338510
525.344647	11462.532766
525.707025	11410.150136
526.069345	11502.284784
526.431608	11417.646332
526.793815	11524.912003
527.155964	11324.470685
527.518057	11381.632329
527.880093	11325.824235
528.242072	11393.952909
528.603995	11300.409258
528.965860	11219.760879
529.327669	11276.665423
529.689421	11218.921527
530.051117	11191.175016
530.412755	11294.584205
530.774337	11184.611433
531.135862	11164.930769
531.497331	11182.965497
531.858743	11045.810824
532.220098	11201.713548
532.581396	11071.074567
532.942638	11064.364791
533.303824	11023.654953
533.664953	11037.896213
534.026025	10955.624582
534.387040	11045.919209
534.747999	11056.062010
535.108902	11108.134609
535.469748	10869.771211
535.830537	10965.152363
536.191270	10947.571338
536.551947	10970.019597
536.912567	10970.591768
537.273131	10893.010930
537.633638	10870.035872
537.994089	10859.096568
538.354483	10808.599330
538.714821	10956.479057
539.075103	10962.387290
539.435328	10925.453276
539.795497	10755.964642
540.155609	10910.828889
540.515665	11003.182827
540.875665	10734.937990
541.235609	10809.317694
541.595496	10799.328648
541.955328	10958.321599
542.315102	10842.274238
542.674821	10788.182657
543.034483	10792.807915
543.394090	10796.472834
543.753640	10724.124715
544.113134	10951.183325
544.472571	10800.762856
544.831953	10940.186048
545.191278	10747.377037
545.550548	10771.007446
545.909761	10910.483570
546.268918	10887.589169
546.628019	10968.439195
546.987064	10834.410037
547.346053	10760.015210
547.704986	10849.467964
548.063863	10837.752323
548.422684	10833.116982
548.781449	10753.592780
549.140158	10858.012720
549.498811	10728.775179
549.857408	10586.463406
550.215949	10812.365072
550.574434	10666.950468
550.932864	10763.269274
551.291237	10820.778758
551.649555	10774.327045
552.007817	10780.948601
552.366022	10741.715821
552.724173	10738.199616
553.082267	10725.884078
553.440305	10854.690599
553.798288	10653.223407
554.156215	10821.106433
554.514086	10791.925713
554.871902	10642.972220
555.229661	10681.834475
555.587365	10654.690382
555.945014	10555.601462
556.302606	10677.652838
556.660143	10566.543287
557.017625	10722.135980
557.375050	10625.295414
557.732421	10752.080433
558.089735	10665.508698
558.446994	10665.816209
558.804197	10710.180883
559.161345	10707.642662
559.518437	10559.725126
559.875474	10643.226798
560.232455	10674.640749
560.589381	10620.397933
560.946251	10620.874322
561.303065	10729.221321
561.659825	10667.920891
562.016528	10602.746333
562.373177	10473.735644
562.729770	10592.414488
563.086307	10503.833853
563.442789	10602.826992
563.799216	10476.185645
564.155587	10526.047698
564.511904	10475.837806
564.868164	10468.752464
565.224370	10476.934257
565.580520	10405.705273
565.936615	10412.220965
566.292654	10288.092633
566.648638	10413.982848
567.004567	10370.485252
567.360441	10353.234423
567.716260	10262.667574
568.072023	10360.874292
568.427732	10308.063164
568.783385	10217.808867
569.138982	10290.421647
569.494525	10306.563421
569.850013	10180.186735
570.205445	10263.028017
570.560823	10157.491461
570.916145	10080.407177
571.271412	10149.120625
571.626625	10095.984343
571.981782	10071.325539
572.336884	10044.587259
572.691931	10046.679338
573.046923	9992.839814
573.401860	9949.952198
573.756743	9888.238393
574.111570	9934.274210
574.466342	9914.986755
574.821059	9944.709398
575.175722	9829.604732
575.530330	9844.889511
575.884882	9835.162604
576.239380	9762.690977
576.593823	9745.309078
576.948211	9759.081511
577.302544	9637.846802
577.656823	9654.948916
578.011047	9654.631323
578.365216	9626.456315
578.719330	9547.481598
579.073389	9564.629083
579.427394	9505.836627
579.781344	9488.195109
580.135239	9436.505638
580.489080	9455.301580
580.842866	9343.803860
581.196597	9354.780972
581.550273	9392.524091
581.903895	9367.893013
582.257463	9426.922404
582.610975	9306.590062
582.964434	9333.499741
583.317837	9252.221218
583.671186	9240.866019
584.024481	9233.944514
584.377721	9152.529880
584.730906	9124.997618
585.084037	9157.281167
585.437113	9093.775232
585.790135	9111.439435
586.143103	9014.765228
586.496016	8984.828335
586.848874	9042.824290
587.201679	9033.263742
587.554428	8921.650075
587.907124	8965.916447
588.259765	8936.889483
588.612352	8938.472405
588.964884	8816.315165
589.317362	8829.621291
589.669786	8828.141712
590.022155	8873.194504
590.374470	8899.781549
590.726731	8839.600255
591.078937	8679.863733
591.431090	8801.358062
591.783188	8675.283845
592.135232	8662.933018
592.487222	8665.251949
592.839157	8716.364208
593.191038	8650.932552
593.542866	8595.931043
593.894639	8491.896751
594.246358	8547.208291
594.598022	8555.301863
594.949633	8458.105896
595.301190	8432.703522
595.652692	8463.199982
596.004141	8568.219820
596.355535	8348.004576
596.706876	8325.944487
597.058162	8263.023325
597.409395	8340.624327
597.760573	8401.420642
598.111698	8310.959657
598.462768	8297.219992
598.813785	8261.647090
599.164748	8231.332111
599.515657	8218.764515
599.866511	8126.791183
600.217312	8258.075432
600.568060	8113.595963
600.918753	8216.921973
601.269392	8189.490534
601.619978	8095.256245
601.970510	8159.780494
602.320988	8163.959611
602.671412	8215.094555
603.021783	8149.599884
603.372100	8126.592058
603.722363	8129.258828
604.072572	8106.435004
604.422728	8115.133515
604.772830	8046.750263
605.122878	8052.603043
605.472872	8049.401910
605.822813	8073.675066
606.172701	8019.296139
606.522534	8096.231709
606.872314	8088.569155
607.222041	8065.377327
607.571714	8119.594936
607.921333	8080.636899
608.270899	8087.084535
608.620411	8170.177874
608.969870	8075.429387
609.319276	8070.801608
609.668627	8090.336079
610.017926	8121.447560
610.367171	8169.784664
610.716362	8142.514542
611.065500	8131.751679
611.414585	8162.601020
611.763616	8149.748598
612.112594	8127.978375
612.461518	8148.566447
612.810389	8207.258081
613.159207	8139.825087
613.507971	8098.452337
613.856682	8209.468627
614.205340	8170.044283
614.553945	8244.683607
614.902496	8144.760376
615.250994	8199.212399
615.599439	8174.737597
615.947830	8191.154115
616.296169	8163.629415
616.644454	8175.521497
616.992686	8175.702978
617.340864	8232.985610
617.688990	8139.197463
618.037063	8232.284889
618.385082	8176.885129
618.733048	8260.333869
619.080961	8194.395577
619.428821	8215.013896
619.776628	8226.863128
620.124382	8171.140734
620.472083	8156.677664
620.819731	8183.294956
621.167326	8076.825787
621.514868	8081.884585
621.862357	7981.202660
622.209793	7989.429823
622.557176	7922.919360
622.904506	7892.400215
623.251783	7826.966038
623.599007	7782.109851
623.946179	7785.545397
624.293297	7740.558140
624.640363	7661.908578
624.987376	7638.663818
625.334336	7592.443999
625.681243	7536.459465
626.028097	7522.316508
626.374899	7503.160123
626.721647	7492.475398
627.068343	7425.365037
627.414987	7398.556181
627.761577	7348.031217
628.108115	7387.074953
628.454600	7279.887419
628.801032	7328.058165
629.147412	7286.652648
629.493739	7278.002028
629.840014	7214.357461
630.186236	7272.880216
630.532405	7152.956207
630.878521	7199.289452
631.224585	7158.584655
631.570597	7083.559683
631.916556	7114.809796
632.262462	7108.576409
632.608316	7070.578712
632.954117	7045.632562
633.299866	7036.452621
633.645562	7022.264293
633.991206	6941.562982
634.336797	6885.475104
634.682336	6843.875503
635.027823	6807.110368
635.373257	6802.986704
635.718639	6733.048256
636.063968	6746.777838
636.409245	6637.515870
636.754470	6637.714996
637.099642	6594.353511
637.444762	6535.929058
637.789829	6546.018928
638.134845	6489.623540
638.479808	6471.430015
638.824719	6476.292208
639.169577	6404.730509
639.514383	6423.760865
639.859137	6349.227405
640.203839	6358.946750
640.548489	6344.506364
