Dividing Wavelength (nm)	Counts (n)	Blue Motor Position (mm): 0.000000	Red Motor Position (mm): 20.600000	
326.493990	2131.745165
326.888308	2131.745165
327.282561	2131.745165
327.676750	2095.244691
328.070874	2095.854670
328.464933	2096.709146
328.858929	2104.996803
329.252859	2112.913935
329.646726	2125.690739
330.040528	2139.354787
330.434265	2156.774494
330.827938	2171.842503
331.221547	2191.873528
331.615091	2209.835159
332.008571	2228.719321
332.401986	2250.524832
332.795338	2266.948911
333.188625	2287.262241
333.581847	2306.055662
333.975006	2323.692139
334.368100	2343.430777
334.761129	2360.159846
335.154095	2378.605428
335.546996	2396.365413
335.939833	2410.662125
336.332606	2422.428178
336.725315	2439.079109
337.117960	2444.364759
337.510540	2456.763477
337.903056	2466.318984
338.295508	2472.963225
338.687896	2482.367498
339.080220	2493.337048
339.472480	2497.725373
339.864676	2502.998420
340.256807	2506.439007
340.648875	2507.911024
341.040879	2509.892197
341.432818	2512.135511
341.824694	2514.129287
342.216506	2514.424195
342.608253	2517.229597
342.999937	2515.056860
343.391557	2515.876047
343.783113	2513.408402
344.174605	2513.637775
344.566033	2512.460665
344.957397	2507.575787
345.348697	2508.629388
345.739934	2505.103101
346.131106	2505.846672
346.522215	2503.893224
346.913260	2499.177225
347.304241	2501.007164
347.695159	2497.974910
348.086012	2497.654797
348.476802	2492.878303
348.867528	2495.189672
349.258191	2490.554331
349.648789	2489.571306
350.039324	2490.864362
350.429796	2490.967706
350.820203	2487.552324
351.210548	2486.294556
351.600828	2485.520739
351.991045	2485.777838
352.381198	2484.472179
352.771288	2482.997642
353.161314	2483.678197
353.551276	2486.362612
353.941175	2481.036633
354.331010	2481.334061
354.720782	2483.433702
355.110490	2482.186016
355.500135	2486.163486
355.889717	2482.319607
356.279235	2483.902529
356.668689	2483.806747
357.058080	2485.729947
357.447408	2484.525111
357.836672	2482.095275
358.225873	2483.458907
358.615010	2480.051087
359.004084	2487.935452
359.393095	2489.168014
359.782043	2491.391163
360.170927	2488.250524
360.559748	2489.876296
360.948505	2489.994763
361.337199	2488.114413
361.725830	2489.314208
362.114398	2495.477018
362.502903	2493.168170
362.891344	2494.937615
363.279722	2493.803355
363.668037	2493.793273
364.056289	2492.941318
364.444478	2494.977944
364.832603	2497.233860
365.220665	2496.623881
365.608665	2498.277379
365.996601	2497.566576
366.384474	2498.408449
366.772284	2501.090343
367.160031	2501.871722
367.547715	2500.802997
367.935336	2508.470592
368.322893	2509.559481
368.710388	2511.611231
369.097820	2523.326873
369.485189	2523.732685
369.872495	2530.916330
370.259738	2530.939015
370.646918	2540.809594
371.034035	2550.423074
371.421090	2558.746019
371.808081	2572.576425
372.195010	2578.207394
372.581875	2592.161308
372.968678	2604.567587
373.355418	2614.002107
373.742096	2632.659417
374.128710	2647.067035
374.515262	2661.769560
374.901751	2678.833866
375.288177	2689.460618
375.674540	2714.646223
376.060841	2731.937380
376.447079	2750.130905
376.833254	2773.032867
377.219367	2783.578960
377.605417	2822.713438
377.991404	2828.921619
378.377329	2855.700228
378.763191	2869.127341
379.148991	2907.790471
379.534727	2932.895417
379.920402	2960.725107
380.306013	2971.177939
380.691563	3025.743388
381.077049	3044.103271
381.462474	3063.625139
381.847835	3099.324070
382.233134	3121.449694
382.618371	3120.869961
383.003545	3191.733461
383.388657	3198.745706
383.773706	3230.777197
384.158693	3246.417377
384.543618	3273.074999
384.928480	3308.030360
385.313280	3355.744881
385.698017	3354.943337
386.082692	3404.245822
386.467305	3409.052562
386.851856	3446.407512
387.236344	3465.374853
387.620770	3497.466839
388.005133	3526.524050
388.389435	3548.432904
388.773674	3560.203998
389.157851	3605.241667
389.541965	3621.703555
389.926018	3583.920107
390.310008	3656.474913
390.693936	3672.127696
391.077802	3716.205025
391.461606	3705.560628
391.845348	3766.523302
392.229027	3768.559928
392.612645	3778.574180
392.996200	3858.506716
393.379694	3897.394176
393.763125	3959.725523
394.146494	3928.682098
394.529801	3994.131398
394.913047	4036.167059
395.296230	4003.817975
395.679351	4060.488106
396.062410	4082.202876
396.445408	4067.291143
396.828343	4097.409517
397.211217	4123.552941
397.594028	4039.683264
397.976778	4105.498048
398.359466	4136.042399
398.742092	4162.672295
399.124656	4086.220676
399.507158	4163.115916
399.889598	4190.564999
400.271977	4252.732508
400.654294	4220.930389
401.036549	4236.038727
401.418742	4202.051268
401.800874	4304.306033
402.182944	4325.181451
402.564952	4385.221593
402.946898	4376.883524
403.328783	4367.844736
403.710606	4286.359525
404.092367	4476.801714
404.474067	4438.055406
404.855705	4448.324236
405.237282	4374.708267
405.618797	4483.282117
406.000250	4518.378631
406.381642	4603.422896
406.762972	4559.862286
407.144240	4572.724790
407.525447	4570.113472
407.906593	4632.343996
408.287677	4671.959903
408.668700	4600.398204
409.049661	4651.127335
409.430560	4692.197615
409.811399	4620.280514
410.192176	4779.457468
410.572891	4716.533785
410.953545	4819.040608
411.334138	4697.352195
411.714669	4764.636475
412.095139	4660.450949
412.475547	4794.593532
412.855894	4773.702991
413.236180	4777.403197
413.616405	4730.780086
413.996568	4813.356707
414.376670	4749.596193
414.756711	4697.838666
415.136691	4726.117019
415.516609	4793.025733
415.896466	4825.193336
416.276262	4850.562943
416.655997	4823.456658
417.035670	4981.993385
417.415283	5062.356939
417.794834	4996.416126
418.174324	4939.105769
418.553753	4836.062064
418.933121	4998.800592
419.312428	5043.510586
419.691674	4967.230366
420.070859	5067.307352
420.449983	4969.609791
420.829045	5052.715733
421.208047	4944.179690
421.586988	4989.489581
421.965867	4975.702025
422.344686	5062.528338
422.723444	4912.256583
423.102141	4732.587340
423.480777	4958.935148
423.859352	4736.063215
424.237866	4924.521711
424.616319	4883.779105
424.994712	4937.106951
425.373044	4799.440602
425.751314	4879.690730
426.129524	4687.766441
426.507673	4800.058143
426.885762	4823.176874
427.263789	4721.408581
427.641756	4603.664871
428.019662	4648.445441
428.397508	4610.682157
428.775292	4522.512377
429.153016	4547.259401
429.530679	4456.221204
429.908282	4459.109785
430.285824	4336.783666
430.663305	4451.437149
431.040726	4244.633894
431.418086	4198.550187
431.795385	4209.774316
432.172624	4168.802338
432.549802	4116.109677
432.926920	4070.391453
433.303977	4028.232283
433.680974	3996.556193
434.057910	3955.611942
434.434786	3907.993202
434.811601	3846.468440
435.188355	3896.794279
435.565050	3790.859472
435.941683	3736.523395
436.318257	3766.261162
436.694770	3708.804611
437.071222	3669.198786
437.447614	3597.871500
437.823946	3525.359543
438.200218	3524.230325
438.576429	3446.538582
438.952580	3424.728030
439.328670	3396.825243
439.704700	3331.451560
440.080670	3290.552679
440.456580	3303.379895
440.832429	3239.785739
441.208218	3171.515913
441.583947	3168.861746
441.959616	3129.036631
442.335224	3087.316041
442.710773	3074.879515
443.086261	3042.248126
443.461689	2992.103769
443.837057	2977.202118
444.212365	2967.467650
444.587612	2927.350148
444.962800	2916.126018
445.337927	2888.934035
445.712995	2823.913232
446.088002	2853.638396
446.462949	2820.500371
446.837837	2792.111113
447.212664	2787.390073
447.587431	2773.945315
447.962139	2787.069959
448.336786	2822.602532
448.711374	2787.841256
449.085901	2726.455126
449.460369	2703.051569
449.834776	2686.254444
450.209124	2689.183355
450.583412	2682.919721
450.957640	2679.922755
451.331808	2661.003305
451.705917	2636.100005
452.079965	2628.432410
452.453954	2625.679940
452.827883	2616.726850
453.201752	2614.607045
453.575562	2602.659511
453.949311	2598.949221
454.323001	2596.468974
454.696632	2590.855649
455.070202	2588.156111
455.443713	2588.448498
455.817164	2584.624783
456.190556	2579.855851
456.563888	2579.538258
456.937160	2575.638926
457.310373	2575.833010
457.683526	2571.280848
458.056619	2569.791187
458.429653	2567.452092
458.802628	2565.430589
459.175542	2568.518296
459.548398	2570.600293
459.921194	2565.365054
460.293930	2568.014181
460.666607	2570.857392
461.039224	2572.959553
461.411782	2570.990982
461.784280	2569.004767
462.156719	2570.955694
462.529099	2567.313460
462.901419	2564.901268
463.273680	2564.117369
463.645882	2563.255332
464.018024	2561.778273
464.390106	2564.775239
464.762130	2564.392112
465.134094	2568.934191
465.505999	2574.063565
465.877845	2582.764597
466.249631	2585.965730
466.621358	2585.640575
466.993026	2580.992631
467.364634	2581.748804
467.736184	2575.432239
468.107674	2574.179512
468.479105	2571.880746
468.850477	2571.623647
469.221790	2569.922258
469.593043	2569.806311
469.964238	2566.206927
470.335373	2566.186762
470.706449	2567.391598
471.077467	2566.063254
471.448425	2575.805284
471.819324	2580.652353
472.190164	2580.932137
472.560945	2576.117836
472.931667	2571.802608
473.302330	2570.123904
473.672934	2568.974521
474.043479	2570.048286
474.413965	2567.255487
474.784393	2563.666186
475.154761	2570.794377
475.525070	2568.828327
475.895321	2566.476629
476.265513	2565.859087
476.635645	2571.278328
477.005719	2572.160530
477.375734	2572.377299
477.745691	2575.407033
478.115588	2575.941395
478.485427	2576.604307
478.855207	2580.606983
479.224928	2581.083372
479.594591	2586.505133
479.964194	2587.803230
480.333739	2586.331213
480.703226	2586.116964
481.072653	2586.658888
481.442022	2586.434557
481.811333	2588.687953
482.180584	2587.876327
482.549777	2587.316759
482.918912	2584.382807
483.287988	2584.740729
483.657005	2586.742067
484.025964	2580.796026
484.394864	2583.833322
484.763706	2585.254927
485.132489	2583.503126
485.501213	2581.816860
485.869879	2582.638568
486.238487	2579.397106
486.607036	2580.690162
486.975527	2579.460121
487.343959	2582.341140
487.712333	2583.031778
488.080648	2581.794175
488.448905	2580.228897
488.817104	2581.116140
489.185244	2581.287539
489.553326	2584.758373
489.921350	2587.558734
490.289315	2591.669795
490.657222	2593.673654
491.025070	2592.201637
491.392861	2590.250710
491.760593	2589.635690
492.128267	2588.650144
492.495883	2585.098651
492.863440	2583.157807
493.230939	2583.535893
493.598380	2583.001531
493.965763	2576.563978
494.333088	2574.343349
494.700354	2573.385530
495.067563	2577.776375
495.434713	2570.922927
495.801805	2580.584298
496.168839	2576.901735
496.535815	2578.126735
496.902733	2576.594225
497.269593	2577.045408
497.636395	2577.862075
498.003139	2578.736715
498.369825	2574.590366
498.736453	2577.751169
499.103023	2579.225707
499.469535	2577.685634
499.835989	2575.217990
500.202385	2575.437280
500.568723	2577.990624
500.935003	2578.010789
501.301226	2576.712692
501.667390	2577.178998
502.033497	2578.000707
502.399546	2578.209914
502.765537	2575.578432
503.131470	2576.082547
503.497345	2575.250757
503.863163	2577.022723
504.228923	2575.724626
504.594625	2577.239492
504.960269	2576.667321
505.325856	2580.049936
505.691385	2576.475757
506.056856	2578.071283
506.422270	2579.694534
506.787625	2577.915007
507.152924	2577.163875
507.518164	2579.936510
507.883347	2577.902404
508.248472	2577.247054
508.613540	2579.717219
508.978550	2576.589183
509.343503	2577.713361
509.708398	2577.037846
510.073236	2576.679924
510.438016	2581.675708
510.802738	2578.003227
511.167403	2580.448187
511.532010	2576.639595
511.896561	2579.797878
512.261053	2584.221490
512.625488	2578.381314
512.989866	2575.911148
513.354186	2576.977352
513.718449	2573.935016
514.082655	2578.693865
514.446803	2578.678742
514.810894	2581.950451
515.174927	2581.837025
515.538904	2579.255954
515.902822	2582.162179
516.266684	2577.539441
516.630488	2579.697055
516.994235	2580.554051
517.357925	2579.888619
517.721558	2582.172261
518.085133	2584.670153
518.448651	2582.139494
518.812112	2582.409196
519.175516	2583.997159
519.538863	2584.266861
519.902152	2580.974987
520.265385	2582.817529
520.628560	2583.301480
520.991678	2580.637230
521.354739	2583.445153
521.717743	2583.551017
522.080690	2583.717375
522.443580	2582.631006
522.806413	2583.470358
523.169189	2582.913311
523.531908	2585.101172
523.894569	2582.073959
524.257174	2582.318455
524.619722	2583.311562
524.982213	2584.821388
525.344647	2583.717375
525.707025	2583.077148
526.069345	2582.893146
526.431608	2584.476069
526.793815	2580.783423
527.155964	2584.471027
527.518057	2584.176120
527.880093	2582.328537
528.242072	2583.576223
528.603995	2584.234093
528.965860	2580.541448
529.327669	2583.931624
529.689421	2582.878023
530.051117	2583.510688
530.412755	2582.741912
530.774337	2586.167376
531.135862	2584.062694
531.497331	2581.373238
531.858743	2578.262847
532.220098	2582.573033
532.581396	2579.825604
532.942638	2580.964905
533.303824	2581.194278
533.664953	2583.372056
534.026025	2581.320306
534.387040	2584.944896
534.747999	2581.862230
535.108902	2586.490010
535.469748	2581.466500
535.830537	2584.052612
536.191270	2582.101685
536.551947	2580.634709
536.912567	2582.883064
537.273131	2584.299628
537.633638	2582.436922
537.994089	2584.251737
538.354483	2580.677559
538.714821	2582.530183
539.075103	2583.593867
539.435328	2580.251582
539.795497	2580.178485
540.155609	2582.832653
540.515665	2583.253589
540.875665	2581.065728
541.235609	2582.716706
541.595496	2582.782241
541.955328	2582.651171
542.315102	2582.215111
542.674821	2581.809298
543.034483	2587.198292
543.394090	2582.542786
543.753640	2582.237796
544.113134	2581.718557
544.472571	2582.144535
544.831953	2583.389700
545.191278	2581.826942
545.550548	2582.983887
545.909761	2583.704772
546.268918	2582.318455
546.628019	2585.317941
546.987064	2581.642940
547.346053	2583.785431
547.704986	2582.383990
548.063863	2585.673343
548.422684	2583.034299
548.781449	2582.794844
549.140158	2582.431881
549.498811	2582.686459
549.857408	2581.774010
550.215949	2580.216294
550.574434	2581.297621
550.932864	2580.475913
551.291237	2578.449369
551.649555	2583.117478
552.007817	2580.254102
552.366022	2582.951120
552.724173	2583.503126
553.082267	2585.544793
553.440305	2582.142014
553.798288	2582.550348
554.156215	2581.375759
554.514086	2584.034968
554.871902	2582.094123
555.229661	2583.445153
555.587365	2582.341140
555.945014	2580.065059
556.302606	2581.927765
556.660143	2583.795513
557.017625	2582.804926
557.375050	2580.848958
557.732421	2579.233269
558.089735	2582.026068
558.446994	2585.000349
558.804197	2581.748804
559.161345	2585.917839
559.518437	2583.475400
559.875474	2583.893815
560.232455	2584.080338
560.589381	2581.859710
560.946251	2585.539752
561.303065	2585.343147
561.659825	2581.292580
562.016528	2583.298959
562.373177	2583.629155
562.729770	2581.673187
563.086307	2580.347364
563.442789	2582.094123
563.799216	2582.741912
564.155587	2582.991449
564.511904	2583.679566
564.868164	2581.980698
565.224370	2584.967581
565.580520	2579.760069
565.936615	2580.392734
566.292654	2580.927096
566.648638	2580.475913
567.004567	2582.436922
567.360441	2582.152097
567.716260	2580.891808
568.072023	2581.194277
568.427732	2575.371745
568.783385	2579.011458
569.138982	2576.430387
569.494525	2578.028433
569.850013	2576.682445
570.205445	2577.945254
570.560823	2580.680080
570.916145	2579.550861
571.271412	2579.021540
571.626625	2580.203691
571.981782	2581.501788
572.336884	2579.797878
572.691931	2581.474062
573.046923	2580.924576
573.401860	2575.956519
573.756743	2578.061200
574.111570	2577.383165
574.466342	2579.200501
574.821059	2579.329051
575.175722	2576.584142
575.530330	2577.015161
575.884882	2576.677404
576.239380	2576.715212
576.593823	2579.376942
576.948211	2578.378793
577.302544	2578.514904
577.656823	2576.201015
578.011047	2576.455593
578.365216	2576.795871
578.719330	2576.458113
579.073389	2576.712692
579.427394	2575.583473
579.781344	2576.861406
580.135239	2574.809656
580.489080	2577.274780
580.842866	2576.813515
581.196597	2578.766962
581.550273	2576.301838
581.903895	2572.594069
582.257463	2577.236972
582.610975	2577.050449
582.964434	2573.551888
583.317837	2575.911148
583.671186	2577.254616
584.024481	2576.503484
584.377721	2575.386868
584.730906	2576.747980
585.084037	2575.328895
585.437113	2576.967270
585.790135	2573.123390
586.143103	2575.560788
586.496016	2575.333936
586.848874	2567.000909
587.201679	2569.831517
587.554428	2569.481157
587.907124	2571.706826
588.259765	2569.750858
588.612352	2571.832855
588.964884	2572.480643
589.317362	2574.320664
589.669786	2574.572722
590.022155	2574.383679
590.374470	2574.434090
590.726731	2573.942578
591.078937	2572.838565
591.431090	2572.064748
591.783188	2571.681620
592.135232	2570.832186
592.487222	2573.582135
592.839157	2574.678586
593.191038	2569.816393
593.542866	2570.378482
593.894639	2570.010478
594.246358	2570.958215
594.598022	2569.453430
594.949633	2570.249932
595.301190	2569.823955
595.652692	2572.488205
596.004141	2570.368400
596.355535	2572.831003
596.706876	2569.246743
597.058162	2570.794377
597.409395	2570.370920
597.760573	2571.641291
598.111698	2568.092319
598.462768	2571.805128
598.813785	2569.987792
599.164748	2570.413770
599.515657	2570.501990
599.866511	2567.857905
600.217312	2569.702967
600.568060	2568.747669
600.918753	2570.063410
601.269392	2568.798080
601.619978	2570.907803
601.970510	2567.880590
602.320988	2569.140879
602.671412	2568.777916
603.021783	2567.343707
603.372100	2569.728173
603.722363	2570.028122
604.072572	2569.821434
604.422728	2570.353276
604.772830	2563.928326
605.122878	2563.492266
605.472872	2564.409756
605.822813	2561.148129
606.172701	2565.188614
606.522534	2569.425704
606.872314	2569.206414
607.222041	2570.043245
607.571714	2566.630384
607.921333	2570.806980
608.270899	2568.044428
608.620411	2567.472257
608.969870	2570.658266
609.319276	2571.298493
609.668627	2571.623647
610.017926	2574.129100
610.367171	2575.679255
610.716362	2575.018864
611.065500	2573.259501
611.414585	2572.374779
611.763616	2573.188925
612.112594	2572.717577
612.461518	2571.230437
612.810389	2568.530899
613.159207	2571.381672
613.507971	2571.046435
613.856682	2569.090467
614.205340	2571.487536
614.553945	2571.772361
614.902496	2568.704819
615.250994	2568.445199
615.599439	2569.937381
615.947830	2567.830179
616.296169	2568.084757
616.644454	2568.697257
616.992686	2566.373285
617.340864	2568.984603
617.688990	2566.322874
618.037063	2567.994016
618.385082	2566.590055
618.733048	2568.475446
619.080961	2568.283883
619.428821	2567.373954
619.776628	2569.987792
620.124382	2569.007288
620.472083	2569.960066
620.819731	2567.414283
621.167326	2567.956207
621.514868	2565.906978
621.862357	2565.589386
622.209793	2567.983934
622.557176	2568.021742
622.904506	2565.667524
623.251783	2562.620146
623.599007	2562.612584
623.946179	2561.443037
624.293297	2560.830537
624.640363	2564.172822
624.987376	2566.816907
625.334336	2566.668193
625.681243	2565.037379
626.028097	2564.329097
626.374899	2567.086608
626.721647	2563.736762
627.068343	2566.211968
627.414987	2563.456978
627.761577	2563.338511
628.108115	2564.036710
628.454600	2561.029662
628.801032	2562.602502
629.147412	2564.918912
629.493739	2563.734241
629.840014	2566.121227
630.186236	2564.835733
630.532405	2565.097873
630.878521	2565.019735
631.224585	2564.445044
631.570597	2562.105948
631.916556	2565.428069
632.262462	2562.773901
632.608316	2560.901113
632.954117	2561.697615
633.299866	2564.104766
633.645562	2561.579148
633.991206	2563.860270
634.336797	2561.748027
634.682336	2561.337172
635.027823	2559.872717
635.373257	2560.885989
635.718639	2561.095197
636.063968	2559.829867
636.409245	2560.618808
636.754470	2558.688046
637.099642	2558.786349
637.444762	2558.567058
637.789829	2561.589230
638.134845	2559.708880
638.479808	2560.092008
638.824719	2559.875238
639.169577	2560.964127
639.514383	2557.478169
639.859137	2561.246432
640.203839	2558.904816
640.548489	2559.187120
640.893086	2554.589588
641.237632	2553.286450
641.582125	2555.749053
641.926566	2550.831408
642.270955	2557.563869
642.615292	2559.096380
642.959576	2557.210988
643.303809	2558.728375
643.647990	2558.488921
643.992118	2556.711914
644.336195	2557.541184
