Dividing Wavelength (nm)	Counts (n)	Blue Motor Position (mm): 0.000000	Red Motor Position (mm): 34.300000	
326.493990	2129.282562
326.888308	2129.282562
327.282561	2129.282562
327.676750	2096.840216
328.070874	2095.748806
328.464933	2095.587489
328.858929	2104.346494
329.252859	2111.121805
329.646726	2124.475821
330.040528	2139.805970
330.434265	2154.828609
330.827938	2170.309992
331.221547	2192.034845
331.615091	2206.767617
332.008571	2228.575648
332.401986	2249.632548
332.795338	2269.759355
333.188625	2285.898609
333.581847	2305.352421
333.975006	2323.959320
334.368100	2343.665191
334.761129	2355.484176
335.154095	2376.427649
335.546996	2394.759805
335.939833	2415.108423
336.332606	2429.359765
336.725315	2441.057762
337.117960	2450.966150
337.510540	2462.079374
337.903056	2470.858543
338.295508	2476.403812
338.687896	2488.066522
339.080220	2493.505927
339.472480	2502.499345
339.864676	2506.948164
340.256807	2509.632578
340.648875	2515.273629
341.040879	2515.533249
341.432818	2517.257323
341.824694	2521.660771
342.216506	2518.242869
342.608253	2521.859897
342.999937	2518.540297
343.391557	2521.824609
343.783113	2517.229597
344.174605	2516.728002
344.566033	2515.623989
344.957397	2514.507374
345.348697	2514.905625
345.739934	2511.704492
346.131106	2509.241889
346.522215	2509.267094
346.913260	2504.147803
347.304241	2504.893893
347.695159	2501.574294
348.086012	2500.515651
348.476802	2497.561535
348.867528	2499.701505
349.258191	2494.045330
349.648789	2495.068685
350.039324	2496.134889
350.429796	2493.213540
350.820203	2491.628097
351.210548	2492.391832
351.600828	2490.037613
351.991045	2489.102479
352.381198	2488.744557
352.771288	2490.967706
353.161314	2487.320431
353.551276	2488.605925
353.941175	2488.069043
354.331010	2489.485607
354.720782	2488.981491
355.110490	2488.885709
355.500135	2487.224649
355.889717	2489.823364
356.279235	2486.720534
356.668689	2492.752274
357.058080	2489.641883
357.447408	2487.796820
357.836672	2486.470997
358.225873	2491.073570
358.615010	2489.016779
359.004084	2491.388642
359.393095	2492.404435
359.782043	2494.461226
360.170927	2493.929384
360.559748	2495.345948
360.948505	2494.325114
361.337199	2495.655979
361.725830	2496.860815
362.114398	2497.692605
362.502903	2499.313336
362.891344	2497.768223
363.279722	2498.216885
363.668037	2497.221257
364.056289	2501.866681
364.444478	2501.874242
364.832603	2500.208141
365.220665	2501.216372
365.608665	2501.334839
365.996601	2504.891373
366.384474	2506.607886
366.772284	2502.786691
367.160031	2507.616117
367.547715	2510.471930
367.935336	2510.555109
368.322893	2514.038547
368.710388	2516.796058
369.097820	2523.785617
369.485189	2524.312418
369.872495	2533.136958
370.259738	2540.799512
370.646918	2546.488454
371.034035	2553.946841
371.421090	2567.152143
371.808081	2578.081365
372.195010	2584.246696
372.581875	2597.474684
372.968678	2610.206118
373.355418	2617.425050
373.742096	2636.659573
374.128710	2655.523570
374.515262	2669.059068
374.901751	2683.645647
375.288177	2696.165353
375.674540	2718.762325
376.060841	2736.728997
376.447079	2756.190372
376.833254	2776.168464
377.219367	2793.068932
377.605417	2827.464725
377.991404	2837.932681
378.377329	2858.855990
378.763191	2875.574977
379.148991	2913.297931
379.534727	2935.489090
379.920402	2966.242649
380.306013	2976.599700
380.691563	3031.056764
381.077049	3050.200546
381.462474	3070.367682
381.847835	3104.960080
382.233134	3126.493368
382.618371	3128.739202
383.003545	3195.181610
383.388657	3206.181408
383.773706	3236.456057
384.158693	3252.534817
384.543618	3281.241668
384.928480	3316.489416
385.313280	3358.630941
385.698017	3358.416692
386.082692	3412.243613
386.467305	3418.018254
386.851856	3450.810960
387.236344	3472.122438
387.620770	3504.191738
388.005133	3532.066798
388.389435	3559.203329
388.773674	3569.953590
389.157851	3613.446145
389.541965	3627.596664
389.926018	3590.730706
390.310008	3661.435409
390.693936	3680.788398
391.077802	3725.029565
391.461606	3711.226885
391.845348	3774.233747
392.229027	3777.409674
392.612645	3786.284625
392.996200	3864.838405
393.379694	3900.839805
393.763125	3967.740958
394.146494	3932.785597
394.529801	3997.813961
394.913047	4045.936816
395.296230	4013.343235
395.679351	4069.017738
396.062410	4089.898198
396.445408	4070.940939
396.828343	4105.450157
397.211217	4127.212818
397.594028	4049.468144
397.976778	4114.055407
398.359466	4140.498779
398.742092	4170.216381
399.124656	4093.111933
399.507158	4170.740661
399.889598	4197.587326
400.271977	4261.259620
400.654294	4232.348603
401.036549	4238.571907
401.418742	4210.134758
401.800874	4312.185356
402.182944	4332.291998
402.564952	4397.027975
402.946898	4382.857292
403.328783	4380.089698
403.710606	4295.980567
404.092367	4489.265967
404.474067	4451.769865
404.855705	4458.721616
405.237282	4389.725864
405.618797	4495.035568
406.000250	4528.753325
406.381642	4609.595789
406.762972	4572.722269
407.144240	4584.306841
407.525447	4582.285338
407.906593	4640.477897
408.287677	4686.485988
408.668700	4613.931181
409.049661	4662.245600
409.430560	4704.873597
409.811399	4633.049757
410.192176	4796.955313
410.572891	4731.722782
410.953545	4833.541487
411.334138	4718.157037
411.714669	4786.441986
412.095139	4679.574566
412.475547	4817.815607
412.855894	4803.221467
413.236180	4810.332014
413.616405	4765.057412
413.996568	4852.738201
414.376670	4795.392555
414.756711	4750.848920
415.136691	4782.615751
415.516609	4860.609962
415.896466	4896.465169
416.276262	4933.568061
416.655997	4910.224998
417.035670	5092.873564
417.415283	5181.928067
417.794834	5129.366477
418.174324	5081.525927
418.553753	4988.806505
418.933121	5175.540925
419.312428	5242.598354
419.691674	5180.793808
420.070859	5305.403569
420.449983	5221.667483
420.829045	5330.934493
421.208047	5240.302108
421.586988	5312.771215
421.965867	5326.798226
422.344686	5453.840344
422.723444	5311.397501
423.102141	5127.334892
423.480777	5429.625162
423.859352	5196.789389
424.237866	5454.520900
424.616319	5448.932781
424.994712	5554.061003
425.373044	5431.490388
425.751314	5579.622174
426.129524	5376.307398
426.507673	5571.750412
426.885762	5657.616385
427.263789	5586.291620
427.641756	5471.383559
428.019662	5589.752372
428.397508	5597.064566
428.775292	5547.991454
429.153016	5643.344879
429.530679	5571.957099
429.908282	5653.033977
430.285824	5524.159399
430.663305	5796.071676
431.040726	5535.774217
431.418086	5535.711203
431.795385	5643.569210
432.172624	5654.967259
432.549802	5645.704139
432.926920	5657.228217
433.303977	5668.288508
433.680974	5703.730340
434.057910	5726.299586
434.434786	5735.242593
434.811601	5701.242531
435.188355	5935.628458
435.565050	5807.469725
435.941683	5794.783661
436.318257	6002.249827
436.694770	5984.696529
437.071222	6021.933012
437.447614	5954.005985
437.823946	5866.967943
438.200218	6015.639132
438.576429	5887.298916
438.952580	5985.634184
439.328670	6028.239496
439.704700	5934.917656
440.080670	5921.654380
440.456580	6192.281162
440.832429	6072.644499
441.208218	5919.279996
441.583947	6075.586013
441.959616	6081.499286
442.335224	6004.878789
442.710773	6150.028731
443.086261	6172.139232
443.461689	5968.847142
443.837057	6110.616991
444.212365	6274.046157
444.587612	6165.883160
444.962800	6317.392518
445.337927	6295.715557
445.712995	5908.615435
446.088002	6484.252190
446.462949	6313.498227
446.837837	6248.648824
447.212664	6418.455050
447.587431	6559.980403
447.962139	7102.637930
448.336786	8028.886934
448.711374	7770.346318
449.085901	6842.668146
449.460369	6772.074348
449.834776	6692.930754
450.209124	7089.452792
450.583412	7241.869558
450.957640	7387.362299
451.331808	7151.159035
451.705917	6700.714295
452.079965	6625.790146
452.453954	6835.512228
452.827883	6715.081584
453.201752	6809.361243
453.575562	6611.611901
453.949311	6814.467932
454.323001	6697.835796
454.696632	6778.514423
455.070202	6912.901502
455.443713	7062.323822
455.817164	7167.522621
456.190556	7246.656133
456.563888	7327.614543
456.937160	7373.015175
457.310373	7029.241250
457.683526	7053.262348
458.056619	6939.828825
458.429653	6927.856085
458.802628	6864.750921
459.175542	6975.563044
459.548398	7331.639905
459.921194	7491.898186
460.293930	7490.892475
460.666607	8018.570213
461.039224	8332.629057
461.411782	8462.204354
461.784280	8474.182136
462.156719	8365.210034
462.529099	8247.635203
462.901419	7834.568098
463.273680	7725.931232
463.645882	7737.346925
464.018024	7604.688962
464.390106	7775.127853
464.762130	8159.319228
465.134094	8623.377605
465.505999	9651.132763
465.877845	10871.074349
466.249631	11524.475943
466.621358	11136.990174
466.993026	10507.188741
467.364634	10254.712633
467.736184	9887.429288
468.107674	9558.493999
468.479105	9588.327547
468.850477	9350.677473
469.221790	9127.792938
469.593043	8792.193244
469.964238	8654.907501
470.335373	8663.369078
470.706449	8723.683963
471.077467	8704.956077
471.448425	10016.051807
471.819324	11100.522467
472.190164	11123.565581
472.560945	9868.693839
472.931667	9073.887880
473.302330	8942.938867
473.672934	8592.329138
474.043479	8945.570350
474.413965	8882.639106
474.784393	8765.762474
475.154761	8926.683667
475.525070	9015.400413
475.895321	8835.146395
476.265513	9014.203139
476.635645	9187.391979
477.005719	9185.264612
477.375734	9300.903640
477.745691	9531.990133
478.115588	9664.688425
478.485427	9905.617771
478.855207	10447.221696
479.224928	11257.783782
479.594591	11884.106818
479.964194	11697.831142
480.333739	11642.610343
480.703226	11556.028525
481.072653	11648.468163
481.442022	11882.649924
481.811333	12075.080849
482.180584	11882.947352
482.549777	11586.101529
482.918912	11409.343551
483.287988	11429.956829
483.657005	11446.154057
484.025964	11125.768565
484.394864	11262.996335
484.763706	11230.110367
485.132489	10982.007460
485.501213	10945.701070
485.869879	11027.645026
486.238487	10861.770900
486.607036	10971.655451
486.975527	10747.840823
487.343959	10942.121851
487.712333	10991.109264
488.080648	10924.271125
488.448905	10965.028854
488.817104	10901.137270
489.185244	11162.400110
489.553326	11323.409522
489.921350	11852.745800
490.289315	12917.044282
490.657222	13260.304009
491.025070	13165.091736
491.392861	13034.314123
491.760593	12664.795026
492.128267	12310.220429
492.495883	11988.587252
492.863440	11649.617547
493.230939	11313.914509
493.598380	11244.021432
493.965763	11113.261462
494.333088	11002.111582
494.700354	10929.219018
495.067563	10986.070630
495.434713	10815.291462
495.801805	10947.495721
496.168839	10867.326252
496.535815	10794.390838
496.902733	10792.881012
497.269593	10728.266023
497.636395	10820.246916
498.003139	10806.222426
498.369825	10671.285861
498.736453	10825.915693
499.103023	10749.663200
499.469535	10778.322160
499.835989	10759.690055
500.202385	10719.209590
500.568723	10568.678215
500.935003	10786.607296
501.301226	10585.734959
501.667390	10839.184010
502.033497	10927.918400
502.399546	10781.442634
502.765537	10684.778509
503.131470	10750.116904
503.497345	10923.146948
503.863163	10526.133398
504.228923	10832.592702
504.594625	10879.682120
504.960269	10628.680549
505.325856	10839.478918
505.691385	10626.449838
506.056856	10764.670715
506.422270	10775.642787
506.787625	10656.734570
507.152924	10762.588719
507.518164	10741.839329
507.883347	10638.271344
508.248472	10552.743128
508.613540	10771.420820
508.978550	10640.799483
509.343503	10602.968144
509.708398	10706.969668
510.073236	10806.088835
510.438016	10793.125508
510.802738	10724.187729
511.167403	10754.888356
511.532010	10640.698660
511.896561	10851.824703
512.261053	10900.555017
512.625488	10754.570763
512.989866	10710.132992
513.354186	10686.757162
513.718449	10569.237783
514.082655	10732.747608
514.446803	10615.969280
514.810894	10704.418844
515.174927	10554.290762
515.538904	10557.343181
515.902822	10671.177476
516.266684	10543.152333
516.630488	10453.361821
516.994235	10491.399847
517.357925	10505.628504
517.721558	10565.250231
518.085133	10542.928002
518.448651	10523.590135
518.812112	10385.787674
519.175516	10364.483758
519.538863	10441.724318
519.902152	10333.210960
520.265385	10435.543863
520.628560	10331.005456
520.991678	10261.787893
521.354739	10294.084045
521.717743	10195.577378
522.080690	10144.223144
522.443580	10210.141272
522.806413	10139.728955
523.169189	10122.818405
523.531908	10128.739240
523.894569	9939.975755
524.257174	9898.151822
524.619722	9947.459348
524.982213	9877.041990
525.344647	9862.440288
525.707025	9781.164285
526.069345	9806.755702
526.431608	9692.535759
526.793815	9735.211647
527.155964	9515.578656
527.518057	9518.547896
527.880093	9428.805275
528.242072	9437.680227
528.603995	9308.142737
528.965860	9198.154843
529.327669	9191.596302
529.689421	9101.720090
530.051117	9029.997074
530.412755	9049.841576
530.774337	8925.894726
531.135862	8844.996810
531.497331	8815.438004
531.858743	8652.215525
532.220098	8722.534580
532.581396	8571.720901
532.942638	8514.534052
533.303824	8438.311806
533.664953	8380.779638
534.026025	8272.102443
534.387040	8287.286398
534.747999	8232.766319
535.108902	8208.384779
535.469748	8001.059765
535.830537	8017.420830
536.191270	7942.184129
536.551947	7899.646873
536.912567	7838.331319
537.273131	7747.381342
537.633638	7674.735794
537.994089	7609.122657
538.354483	7529.414453
538.714821	7560.011736
539.075103	7511.742688
539.435328	7433.453568
539.795497	7284.512678
540.155609	7306.676111
540.515665	7306.383724
540.875665	7099.116684
541.235609	7082.233859
541.595496	7026.352669
541.955328	7050.716566
542.315102	6936.146262
542.674821	6859.180446
543.034483	6802.157434
543.394090	6745.457056
543.753640	6658.918089
544.113134	6709.712755
544.472571	6587.008550
544.831953	6596.417863
545.191278	6448.696932
545.550548	6412.045223
545.909761	6421.066368
546.268918	6349.718918
546.628019	6338.310786
546.987064	6213.418720
547.346053	6142.920704
547.704986	6119.703670
548.063863	6063.431791
548.422684	6018.862949
548.781449	5915.771353
549.140158	5908.438995
549.498811	5808.614067
549.857408	5714.621753
550.215949	5731.998610
550.574434	5633.567561
550.932864	5606.882213
551.291237	5597.603969
551.649555	5514.545919
552.007817	5479.003263
552.366022	5420.026805
552.724173	5363.853227
553.082267	5319.102905
553.440305	5297.798988
553.798288	5209.039393
554.156215	5195.503895
554.514086	5139.836953
554.871902	5058.129932
555.229661	5023.383779
555.587365	4970.822188
555.945014	4907.858177
556.302606	4881.394640
556.660143	4823.474302
557.017625	4811.299916
557.375050	4748.109052
557.732421	4741.737034
558.089735	4672.060726
558.446994	4637.087721
558.804197	4603.052371
559.161345	4563.234818
559.518437	4493.810567
559.875474	4466.951300
560.232455	4437.851239
560.589381	4396.952358
560.946251	4342.797763
561.303065	4341.744162
561.659825	4281.104122
562.016528	4233.364395
562.373177	4182.854554
562.729770	4158.349505
563.086307	4109.891414
563.442789	4097.827933
563.799216	4031.657747
564.155587	4010.595807
564.511904	3966.974702
564.868164	3936.611833
565.224370	3913.263729
565.580520	3857.974874
565.936615	3842.864015
566.292654	3781.172895
566.648638	3775.660393
567.004567	3739.238057
567.360441	3710.216134
567.716260	3665.932118
568.072023	3655.915345
568.427732	3615.855816
568.783385	3590.254317
569.138982	3563.629462
569.494525	3544.110115
569.850013	3505.517562
570.205445	3496.471211
570.560823	3467.025831
570.916145	3427.858587
571.271412	3415.101947
571.626625	3390.758215
571.981782	3365.983464
572.336884	3338.816686
572.691931	3323.768842
573.046923	3293.786579
573.401860	3273.417797
573.756743	3245.083992
574.111570	3232.773494
574.466342	3213.072665
574.821059	3198.823844
575.175722	3172.204031
575.530330	3156.541166
575.884882	3141.644556
576.239380	3117.167234
576.593823	3102.628546
576.948211	3085.108016
577.302544	3068.489852
577.656823	3048.441183
578.011047	3038.999102
578.365216	3021.597039
578.719330	3006.569360
579.073389	2991.642503
579.427394	2980.274701
579.781344	2967.167701
580.135239	2955.323510
580.489080	2941.409926
580.842866	2927.708069
581.196597	2916.342788
581.550273	2909.948084
581.903895	2895.719428
582.257463	2894.254973
582.610975	2875.753938
582.964434	2871.153885
583.317837	2859.468490
583.671186	2850.255782
584.024481	2841.801767
584.377721	2830.907833
584.730906	2821.569096
585.084037	2815.907880
585.437113	2805.240798
585.790135	2800.035807
586.143103	2790.450053
586.496016	2783.105092
586.848874	2772.770727
587.201679	2771.213010
587.554428	2758.937800
587.907124	2757.024682
588.259765	2750.395565
588.612352	2749.810791
588.964884	2740.766961
589.317362	2737.215468
589.669786	2731.788666
590.022155	2732.020559
590.374470	2725.736761
590.726731	2720.816595
591.078937	2713.302755
591.431090	2708.526262
591.783188	2706.794626
592.135232	2700.387319
592.487222	2696.888758
592.839157	2693.460774
593.191038	2689.921884
593.542866	2687.275278
593.894639	2682.523990
594.246358	2677.089627
594.598022	2677.671880
594.949633	2672.658452
595.301190	2668.726352
595.652692	2667.700477
596.004141	2666.097391
596.355535	2663.546567
596.706876	2658.336534
597.058162	2655.208498
597.409395	2652.105668
597.760573	2652.871923
598.111698	2649.897643
598.462768	2646.880512
598.813785	2647.351860
599.164748	2643.112250
599.515657	2641.950264
599.866511	2641.700727
600.217312	2640.982362
600.568060	2635.419449
600.918753	2639.674183
601.269392	2637.183853
601.619978	2632.619088
601.970510	2636.082361
602.320988	2634.335601
602.671412	2634.335601
603.021783	2629.082718
603.372100	2630.030455
603.722363	2627.487193
604.072572	2627.996350
604.422728	2630.123717
604.772830	2622.695577
605.122878	2621.064763
605.472872	2621.142901
605.822813	2618.463528
606.172701	2621.210957
606.522534	2620.633745
606.872314	2623.290433
607.222041	2619.257510
607.571714	2622.504013
607.921333	2621.563837
608.270899	2617.777931
608.620411	2618.087962
608.969870	2620.414454
609.319276	2622.914867
609.668627	2620.621142
610.017926	2625.115330
610.367171	2623.126595
610.716362	2621.563837
611.065500	2620.447222
611.414585	2615.499329
611.763616	2619.441512
612.112594	2618.821450
612.461518	2617.414968
612.810389	2616.520163
613.159207	2616.905811
613.507971	2614.213835
613.856682	2613.646705
614.205340	2614.564195
614.553945	2615.363218
614.902496	2612.474637
615.250994	2613.258537
615.599439	2613.356839
615.947830	2614.072683
616.296169	2612.451952
616.644454	2614.251644
616.992686	2612.310800
617.340864	2610.654781
617.688990	2608.507249
618.037063	2608.963473
618.385082	2609.941457
618.733048	2609.825511
619.080961	2612.456993
619.428821	2611.453803
619.776628	2608.245109
620.124382	2610.117898
620.472083	2607.010026
620.819731	2612.099071
621.167326	2603.488780
621.514868	2610.299379
621.862357	2605.341404
622.209793	2604.013060
622.557176	2604.509614
622.904506	2600.438882
623.251783	2599.188676
623.599007	2600.237236
623.946179	2599.128182
624.293297	2600.673296
624.640363	2602.382247
624.987376	2598.979468
625.334336	2597.991402
625.681243	2598.135075
626.028097	2596.474015
626.374899	2600.617843
626.721647	2595.957297
627.068343	2598.810590
627.414987	2596.892431
627.761577	2599.284458
628.108115	2597.744386
628.454600	2592.678026
628.801032	2595.508634
629.147412	2595.934611
629.493739	2595.440578
629.840014	2597.015939
630.186236	2595.102821
630.532405	2593.474528
630.878521	2594.702049
631.224585	2593.555187
631.570597	2592.645258
631.916556	2593.015783
632.262462	2593.575351
632.608316	2594.336566
632.954117	2589.716348
633.299866	2591.115268
633.645562	2591.601740
633.991206	2591.561410
634.336797	2591.657192
634.682336	2591.705083
635.027823	2589.187027
635.373257	2587.740216
635.718639	2583.235945
636.063968	2589.101327
636.409245	2586.464804
636.754470	2587.931780
637.099642	2582.285687
637.444762	2586.908425
637.789829	2584.483630
638.134845	2584.241655
638.479808	2584.886923
638.824719	2582.815008
639.169577	2582.515060
639.514383	2585.408682
639.859137	2582.754515
640.203839	2586.250555
640.548489	2583.477920
640.893086	2583.278795
641.237632	2579.465162
641.582125	2577.768813
641.926566	2577.141190
642.270955	2580.448187
642.615292	2579.805440
