Dividing Wavelength (nm)	Counts (n)	Blue Motor Position (mm): 0.000000	Red Motor Position (mm): 28.100000	
326.493990	2129.562346
326.888308	2129.562346
327.282561	2129.562346
327.676750	2095.877356
328.070874	2094.264186
328.464933	2096.598241
328.858929	2104.182657
329.252859	2113.284460
329.646726	2123.328959
330.040528	2137.366052
330.434265	2152.764256
330.827938	2172.422236
331.221547	2187.560821
331.615091	2208.789119
332.008571	2226.904506
332.401986	2249.256982
332.795338	2265.917995
333.188625	2286.866510
333.581847	2306.826959
333.975006	2320.866572
334.368100	2342.656960
334.761129	2361.253776
335.154095	2376.621734
335.546996	2392.793755
335.939833	2411.330078
336.332606	2424.795000
336.725315	2438.859819
337.117960	2449.168979
337.510540	2456.818930
337.903056	2466.162708
338.295508	2473.253091
338.687896	2482.594349
339.080220	2494.405773
339.472480	2495.908037
339.864676	2503.401712
340.256807	2507.628719
340.648875	2507.568226
341.040879	2513.350429
341.432818	2512.115346
341.824694	2517.378311
342.216506	2516.836387
342.608253	2516.120543
342.999937	2515.041736
343.391557	2517.978208
343.783113	2513.574760
344.174605	2514.817405
344.566033	2514.807322
344.957397	2513.983094
345.348697	2505.695437
345.739934	2507.313647
346.131106	2504.256187
346.522215	2507.081754
346.913260	2504.165447
347.304241	2501.571773
347.695159	2497.385095
348.086012	2499.146978
348.476802	2496.321411
348.867528	2495.053561
349.258191	2493.329487
349.648789	2493.594147
350.039324	2490.889568
350.429796	2489.790597
350.820203	2487.484269
351.210548	2490.151039
351.600828	2485.976964
351.991045	2487.393528
352.381198	2486.700369
352.771288	2485.397231
353.161314	2485.309011
353.551276	2484.220122
353.941175	2483.713486
354.331010	2482.957312
354.720782	2484.555358
355.110490	2481.936479
355.500135	2486.677684
355.889717	2482.831284
356.279235	2485.301449
356.668689	2486.470997
357.058080	2487.902684
357.447408	2485.059474
357.836672	2485.127529
358.225873	2485.984525
358.615010	2479.441108
359.004084	2486.927221
359.393095	2486.402941
359.782043	2491.491986
360.170927	2490.266986
360.559748	2492.532984
360.948505	2489.258755
361.337199	2493.379898
361.725830	2492.893427
362.114398	2494.257059
362.502903	2494.645228
362.891344	2495.227481
363.279722	2496.139930
363.668037	2494.738489
364.056289	2496.192862
364.444478	2496.061792
364.832603	2499.089005
365.220665	2497.649755
365.608665	2501.264263
365.996601	2500.941629
366.384474	2502.824500
366.772284	2504.654439
367.160031	2501.665034
367.547715	2503.331136
367.935336	2507.721981
368.322893	2510.033350
368.710388	2512.075017
369.097820	2522.789990
369.485189	2521.635565
369.872495	2529.068747
370.259738	2535.833975
370.646918	2544.393854
371.034035	2548.076417
371.421090	2560.109652
371.808081	2571.923596
372.195010	2581.799216
372.581875	2591.442943
372.968678	2606.848709
373.355418	2616.293311
373.742096	2634.880045
374.128710	2652.584578
374.515262	2665.341217
374.901751	2682.365194
375.288177	2693.838860
375.674540	2718.364074
376.060841	2733.769840
376.447079	2753.148035
376.833254	2774.373813
377.219367	2787.458128
377.605417	2822.113540
377.991404	2836.024604
378.377329	2858.651823
378.763191	2873.757641
379.148991	2910.553023
379.534727	2934.735438
379.920402	2964.962196
380.306013	2976.090543
380.691563	3028.153060
381.077049	3047.914383
381.462474	3067.446333
381.847835	3105.580142
382.233134	3127.161321
382.618371	3128.819861
383.003545	3194.475849
383.388657	3204.164946
383.773706	3232.087897
384.158693	3250.364601
384.543618	3278.595062
384.928480	3310.752583
385.313280	3360.072711
385.698017	3358.825026
386.082692	3410.312851
386.467305	3417.471289
386.851856	3449.815332
387.236344	3470.363075
387.620770	3502.598733
388.005133	3526.329965
388.389435	3551.865930
388.773674	3564.834298
389.157851	3609.128397
389.541965	3622.280767
389.926018	3588.510077
390.310008	3660.875841
390.693936	3680.168337
391.077802	3721.578895
391.461606	3710.868963
391.845348	3770.273920
392.229027	3773.127213
392.612645	3781.361938
392.996200	3862.791696
393.379694	3901.895927
393.763125	3964.769197
394.146494	3934.555042
394.529801	3993.765914
394.913047	4046.498904
395.296230	4013.749048
395.679351	4064.067325
396.062410	4089.149586
396.445408	4069.491607
396.828343	4105.382102
397.211217	4127.658961
397.594028	4046.118297
397.976778	4114.438535
398.359466	4136.919560
398.742092	4165.742357
399.124656	4086.954164
399.507158	4171.229653
399.889598	4195.228066
400.271977	4256.291563
400.654294	4223.551789
401.036549	4232.378849
401.418742	4206.144685
401.800874	4308.596054
402.182944	4329.559693
402.564952	4394.199888
402.946898	4379.971231
403.328783	4378.032908
403.710606	4292.277839
404.092367	4483.019978
404.474067	4449.148465
404.855705	4453.534269
405.237282	4382.085995
405.618797	4495.378366
406.000250	4527.714847
406.381642	4608.237198
406.762972	4571.066250
407.144240	4579.769802
407.525447	4578.688475
407.906593	4638.713493
408.287677	4684.194783
408.668700	4611.118217
409.049661	4661.494468
409.430560	4705.213874
409.811399	4631.245024
410.192176	4794.575888
410.572891	4731.553903
410.953545	4832.697093
411.334138	4712.972210
411.714669	4784.002068
412.095139	4677.237991
412.475547	4817.278724
412.855894	4803.604595
413.236180	4809.482580
413.616405	4761.263943
413.996568	4848.775854
414.376670	4794.505312
414.756711	4747.753651
415.136691	4778.227426
415.516609	4857.812122
415.896466	4895.068769
416.276262	4923.886525
416.655997	4909.425976
417.035670	5090.400878
417.415283	5179.054610
417.794834	5125.560406
418.174324	5080.285803
418.553753	4985.202080
418.933121	5171.331562
419.312428	5236.092745
419.691674	5178.502603
420.070859	5302.628414
420.449983	5210.123241
420.829045	5328.418957
421.208047	5235.331531
421.586988	5304.780987
421.965867	5321.177339
422.344686	5453.830262
422.723444	5306.757119
423.102141	5121.761896
423.480777	5422.101239
423.859352	5192.816960
424.237866	5449.086536
424.616319	5441.159322
424.994712	5548.795518
425.373044	5425.413278
425.751314	5569.628086
426.129524	5377.171956
426.507673	5566.500050
426.885762	5652.202186
427.263789	5585.187607
427.641756	5463.365604
428.019662	5587.022587
428.397508	5592.676242
428.775292	5542.121030
429.153016	5638.926307
429.530679	5564.912087
429.908282	5649.439634
430.285824	5522.057238
430.663305	5795.028157
431.040726	5527.983114
431.418086	5529.069483
431.795385	5635.374815
432.172624	5644.620291
432.549802	5638.255834
432.926920	5656.111601
433.303977	5664.217776
433.680974	5704.332758
434.057910	5717.797680
434.434786	5725.558536
434.811601	5694.119380
435.188355	5927.781902
435.565050	5804.422347
435.941683	5783.330159
436.318257	5999.388972
436.694770	5980.640921
437.071222	6014.013359
437.447614	5945.652793
437.823946	5854.909503
438.200218	6008.871382
438.576429	5876.669643
438.952580	5976.991126
439.328670	6018.442013
439.704700	5928.185195
440.080670	5913.001239
440.456580	6184.956366
440.832429	6067.189971
441.208218	5913.311270
441.583947	6066.189302
441.959616	6069.254323
442.335224	6001.465928
442.710773	6137.080528
443.086261	6160.718498
443.461689	5956.637467
443.837057	6109.863338
444.212365	6255.368682
444.587612	6155.936964
444.962800	6306.846425
445.337927	6286.147447
445.712995	5895.142952
446.088002	6470.532690
446.462949	6301.628830
446.837837	6226.707202
447.212664	6402.719088
447.587431	6544.609925
447.962139	7087.443892
448.336786	8009.044953
448.711374	7749.498627
449.085901	6818.392470
449.460369	6742.611325
449.834776	6671.621796
450.209124	7054.648666
450.583412	7206.132818
450.957640	7346.849066
451.331808	7117.184179
451.705917	6660.480846
452.079965	6585.375216
452.453954	6788.052286
452.827883	6660.511093
453.201752	6749.822695
453.575562	6548.395832
453.949311	6744.665595
454.323001	6626.808459
454.696632	6693.024015
455.070202	6823.294992
455.443713	6966.481405
455.817164	7058.142185
456.190556	7122.555528
456.563888	7190.699326
456.937160	7222.786270
457.310373	6878.548559
457.683526	6893.888790
458.056619	6775.051150
458.429653	6748.690956
458.802628	6680.927766
459.175542	6776.510564
459.548398	7093.795746
459.921194	7227.928247
460.293930	7216.666309
460.666607	7685.314656
461.039224	7949.879451
461.411782	8046.200777
461.784280	8045.263123
462.156719	7929.394722
462.529099	7796.472098
462.901419	7393.691467
463.273680	7277.215608
463.645882	7262.104749
464.018024	7111.044054
464.390106	7235.711788
464.762130	7556.177938
465.134094	7928.857839
465.505999	8762.130323
465.877845	9761.617211
466.249631	10288.672366
466.621358	9931.640207
466.993026	9357.659471
467.364634	9100.999205
467.736184	8739.225841
468.107674	8414.598218
468.479105	8370.122638
468.850477	8144.029409
469.221790	7910.066938
469.593043	7587.165911
469.964238	7415.537308
470.335373	7379.919035
470.706449	7374.144393
471.077467	7302.537324
471.448425	8239.070282
471.819324	8971.640677
472.190164	8950.795506
472.560945	7955.097045
472.931667	7298.373331
473.302330	7141.653940
473.672934	6827.322874
474.043479	7014.815988
474.413965	6916.604229
474.784393	6761.843327
475.154761	6806.182795
475.525070	6799.410005
475.895321	6620.476770
476.265513	6671.188257
476.635645	6720.841102
477.005719	6634.413040
477.375734	6645.382591
477.745691	6710.678136
478.115588	6710.259720
478.485427	6770.390603
478.855207	6998.833010
479.224928	7352.288471
479.594591	7624.228474
479.964194	7417.906650
480.333739	7297.571787
480.703226	7135.889380
481.072653	7096.051662
481.442022	7103.890656
481.811333	7108.452901
482.180584	6918.103972
482.549777	6681.966244
482.918912	6511.481983
483.287988	6436.262926
483.657005	6345.766653
484.025964	6117.856087
484.394864	6077.839408
484.763706	5975.231763
485.132489	5796.916069
485.501213	5693.090985
485.869879	5645.870497
486.238487	5492.536241
486.607036	5461.250840
486.975527	5295.568278
487.343959	5280.505310
487.712333	5217.072471
488.080648	5119.516062
488.448905	5045.418662
488.817104	4958.783913
489.185244	4957.579077
489.553326	4923.805867
489.921350	4999.713041
490.289315	5199.148649
490.657222	5215.240012
491.025070	5097.909677
491.392861	4987.952029
491.760593	4816.308302
492.128267	4652.942150
492.495883	4503.582844
492.863440	4362.695197
493.230939	4225.051532
493.598380	4155.556706
493.965763	4062.567582
494.333088	4000.382429
494.700354	3924.268567
495.067563	3888.128536
495.434713	3800.546049
495.801805	3777.134931
496.168839	3718.632340
496.535815	3656.996673
496.902733	3618.585601
497.269593	3562.512847
497.636395	3538.043086
498.003139	3485.534428
498.369825	3434.964093
498.736453	3411.051380
499.103023	3367.979761
499.469535	3333.934329
499.835989	3297.912764
500.202385	3261.248452
500.568723	3213.191132
500.935003	3201.898948
501.301226	3156.258861
501.667390	3152.203253
502.033497	3125.190230
502.399546	3087.439550
502.765537	3054.369580
503.131470	3032.052392
503.497345	3019.136956
503.863163	2982.848210
504.228923	2971.651808
504.594625	2954.063222
504.960269	2921.328489
505.325856	2913.000503
505.691385	2884.959085
506.056856	2876.366438
506.422270	2858.810620
506.787625	2839.979390
507.152924	2830.683502
507.518164	2813.987200
507.883347	2798.329377
508.248472	2784.582150
508.613540	2777.446397
508.978550	2764.281423
509.343503	2752.563261
509.708398	2749.198291
510.073236	2741.109760
510.438016	2733.255642
510.802738	2723.780793
511.167403	2716.876933
511.532010	2708.390151
511.896561	2706.149358
512.261053	2703.044007
512.625488	2689.100176
512.989866	2684.311079
513.354186	2682.970132
513.718449	2671.524193
514.082655	2675.975532
514.446803	2671.143586
514.810894	2669.021260
515.174927	2664.637977
515.538904	2659.901812
515.902822	2658.749909
516.266684	2654.011224
516.630488	2648.871768
516.994235	2646.363794
517.357925	2648.861686
517.721558	2646.673825
518.085133	2644.793474
518.448651	2643.253402
518.812112	2640.294245
519.175516	2639.830458
519.538863	2636.888945
519.902152	2634.927936
520.265385	2634.844757
520.628560	2632.790487
520.991678	2629.803603
521.354739	2631.724283
521.717743	2628.223202
522.080690	2627.154477
522.443580	2630.060702
522.806413	2626.761267
523.169189	2626.461318
523.531908	2625.301853
523.894569	2624.326390
524.257174	2621.979733
524.619722	2622.231790
524.982213	2622.251955
525.344647	2623.237501
525.707025	2621.243724
526.069345	2618.433281
526.431608	2619.733899
526.793815	2620.147273
527.155964	2616.482354
527.518057	2616.109309
527.880093	2614.964967
528.242072	2616.091665
528.603995	2614.670060
528.965860	2615.055708
529.327669	2615.824484
529.689421	2612.577981
530.051117	2613.951695
530.412755	2611.010182
530.774337	2611.105964
531.135862	2609.928854
531.497331	2608.020778
531.858743	2605.918617
532.220098	2606.881477
532.581396	2608.464399
532.942638	2605.422063
533.303824	2609.555809
533.664953	2608.252671
534.026025	2607.282249
534.387040	2609.094543
534.747999	2606.778133
535.108902	2608.464399
535.469748	2604.749069
535.830537	2607.143617
536.191270	2606.742845
536.551947	2608.386261
536.912567	2607.456168
537.273131	2607.748555
537.633638	2604.557505
537.994089	2607.340222
538.354483	2605.858123
538.714821	2606.624378
539.075103	2606.684872
539.435328	2605.848040
539.795497	2604.350818
540.155609	2605.220417
540.515665	2605.263267
540.875665	2602.583893
541.235609	2605.406939
541.595496	2605.984152
541.955328	2604.234871
542.315102	2606.924327
542.674821	2604.988524
543.034483	2604.670931
543.394090	2604.028184
543.753640	2604.186980
544.113134	2603.783688
544.472571	2602.730087
544.831953	2603.382916
545.191278	2604.171857
545.550548	2602.528441
545.909761	2604.204624
546.268918	2604.310488
546.628019	2604.587752
546.987064	2605.167485
547.346053	2603.750920
547.704986	2604.164295
548.063863	2605.230499
548.422684	2602.309150
548.781449	2604.292844
549.140158	2601.452154
549.498811	2600.433841
549.857408	2602.725046
550.215949	2601.714294
550.574434	2600.370827
550.932864	2601.177411
551.291237	2602.785539
551.649555	2603.196393
552.007817	2603.221599
552.366022	2602.387288
552.724173	2603.037597
553.082267	2606.936930
553.440305	2603.529110
553.798288	2603.135900
554.156215	2601.263111
554.514086	2603.375354
554.871902	2602.546085
555.229661	2602.389809
555.587365	2603.176229
555.945014	2600.985847
556.302606	2602.914089
556.660143	2601.500045
557.017625	2602.674634
557.375050	2600.640528
557.732421	2603.922320
558.089735	2602.561208
558.446994	2603.476177
558.804197	2604.819645
559.161345	2604.590273
559.518437	2604.711260
559.875474	2601.137082
560.232455	2607.133535
560.589381	2605.180087
560.946251	2603.151023
561.303065	2604.333174
561.659825	2601.812597
562.016528	2603.415684
562.373177	2601.353852
562.729770	2603.145982
563.086307	2603.052721
563.442789	2603.642536
563.799216	2604.126486
564.155587	2603.115735
564.511904	2601.626074
564.868164	2603.140941
565.224370	2603.145982
565.580520	2599.261773
565.936615	2604.267639
566.292654	2600.411156
566.648638	2603.483739
567.004567	2602.926692
567.360441	2603.841661
567.716260	2601.792432
568.072023	2603.289655
568.427732	2598.724890
568.783385	2598.772781
569.138982	2596.322780
569.494525	2599.138265
569.850013	2597.134406
570.205445	2601.114397
570.560823	2600.244798
570.916145	2601.063985
571.271412	2598.452668
571.626625	2598.868563
571.981782	2598.903851
572.336884	2600.524582
572.691931	2597.744386
573.046923	2599.753285
573.401860	2598.876125
573.756743	2595.213726
574.111570	2599.009715
574.466342	2598.268666
574.821059	2599.339911
575.175722	2597.734303
575.530330	2597.527616
575.884882	2597.313367
576.239380	2596.849581
576.593823	2595.377564
576.948211	2600.650611
577.302544	2596.748758
577.656823	2597.293202
578.011047	2600.496856
578.365216	2600.385950
578.719330	2598.646752
579.073389	2597.056268
579.427394	2596.471494
579.781344	2593.746751
580.135239	2597.797318
580.489080	2594.858325
580.842866	2594.235742
581.196597	2594.515527
581.550273	2595.090218
581.903895	2596.010229
582.257463	2596.635332
582.610975	2594.825557
582.964434	2594.636514
583.317837	2593.799683
583.671186	2592.373036
584.024481	2594.825557
584.377721	2596.085846
584.730906	2592.867069
585.084037	2593.270362
585.437113	2591.642069
585.790135	2593.403952
586.143103	2591.982347
586.496016	2591.548807
586.848874	2589.557552
587.201679	2594.760022
587.554428	2590.038982
587.907124	2594.959148
588.259765	2587.513364
588.612352	2590.134764
588.964884	2591.420258
589.317362	2592.766246
589.669786	2590.437233
590.022155	2592.173911
590.374470	2592.375557
590.726731	2591.432861
591.078937	2588.987901
591.431090	2587.838518
591.783188	2591.967223
592.135232	2590.202819
592.487222	2593.310691
592.839157	2592.063005
593.191038	2589.003025
593.542866	2588.009917
593.894639	2589.875144
594.246358	2588.871955
594.598022	2590.487645
594.949633	2585.915318
595.301190	2587.722572
595.652692	2588.438416
596.004141	2590.464959
596.355535	2590.820361
596.706876	2588.582088
597.058162	2588.980340
597.409395	2588.854311
597.760573	2587.636872
598.111698	2589.471852
598.462768	2589.396235
598.813785	2588.864393
599.164748	2586.842890
599.515657	2589.066039
599.866511	2587.881368
600.217312	2585.902715
600.568060	2587.276430
600.918753	2589.066039
601.269392	2586.724423
601.619978	2586.616038
601.970510	2588.703076
602.320988	2588.801379
602.671412	2589.290371
603.021783	2587.800710
603.372100	2588.347675
603.722363	2587.571337
604.072572	2586.658888
604.422728	2589.053436
604.772830	2586.326172
605.122878	2582.114288
605.472872	2583.331727
605.822813	2584.899526
606.172701	2584.914649
606.522534	2585.554876
606.872314	2586.129567
607.222041	2584.934814
607.571714	2588.652665
607.921333	2586.149732
608.270899	2587.099989
608.620411	2586.358940
608.969870	2588.698035
609.319276	2589.681060
609.668627	2591.198447
610.017926	2595.201123
610.367171	2595.838829
610.716362	2594.389498
611.065500	2592.292378
611.414585	2589.358426
611.763616	2592.128540
612.112594	2589.660895
612.461518	2591.894127
612.810389	2588.524115
613.159207	2592.393201
613.507971	2587.115113
613.856682	2587.399938
614.205340	2591.132912
614.553945	2590.623756
614.902496	2588.592171
615.250994	2588.186358
615.599439	2588.032603
615.947830	2589.507140
616.296169	2589.060998
616.644454	2589.517222
616.992686	2589.504620
617.340864	2588.093097
617.688990	2588.385483
618.037063	2590.480083
618.385082	2587.089907
618.733048	2588.617377
619.080961	2587.757860
619.428821	2589.008066
619.776628	2588.929928
620.124382	2591.127871
620.472083	2589.812130
620.819731	2587.442788
621.167326	2584.402972
621.514868	2589.655854
621.862357	2585.522108
622.209793	2586.500092
622.557176	2590.858169
622.904506	2585.196954
623.251783	2580.768300
623.599007	2580.433063
623.946179	2584.677715
624.293297	2577.665470
624.640363	2586.563106
624.987376	2582.245358
625.334336	2584.385328
625.681243	2584.264340
626.028097	2582.376428
626.374899	2580.385172
626.721647	2581.227045
627.068343	2584.460945
627.414987	2580.949782
627.761577	2581.516911
628.108115	2581.879874
628.454600	2581.257292
628.801032	2582.245358
629.147412	2581.595049
629.493739	2581.574885
629.840014	2580.455748
630.186236	2580.770821
630.532405	2582.167220
630.878521	2579.835687
631.224585	2583.082190
631.570597	2578.167065
631.916556	2577.433577
632.262462	2580.702765
632.608316	2580.750656
632.954117	2580.475913
633.299866	2578.993814
633.645562	2577.834348
633.991206	2576.662280
634.336797	2577.685634
634.682336	2577.610017
635.027823	2577.516756
635.373257	2578.366190
635.718639	2577.804102
636.063968	2574.855027
636.409245	2575.033987
636.754470	2573.304872
637.099642	2574.653380
637.444762	2576.967270
637.789829	2574.736559
638.134845	2574.101374
638.479808	2574.784450
638.824719	2575.507856
639.169577	2574.010633
639.514383	2569.781105
639.859137	2571.149778
640.203839	2572.740262
640.548489	2574.297979
640.893086	2571.865622
641.237632	2566.181721
641.582125	2570.592731
641.926566	2568.057031
642.270955	2570.749007
642.615292	2571.469892
642.959576	2570.373441
643.303809	2575.452403
643.647990	2572.788153
643.992118	2570.806980
644.336195	2573.279666
