Dividing Wavelength (nm)	Counts (n)	Blue Motor Position (mm): 0.000000	Red Motor Position (mm): 37.100000	
326.493990	2131.717439
326.888308	2131.717439
327.282561	2131.717439
327.676750	2095.017839
328.070874	2092.212437
328.464933	2096.729311
328.858929	2105.445466
329.252859	2112.613986
329.646726	2126.502365
330.040528	2138.270939
330.434265	2157.215595
330.827938	2170.544406
331.221547	2189.332786
331.615091	2210.674511
332.008571	2230.203941
332.401986	2250.575244
332.795338	2267.387492
333.188625	2286.992539
333.581847	2305.806125
333.975006	2324.881851
334.368100	2342.624192
334.761129	2361.533560
335.154095	2376.835983
335.546996	2397.277862
335.939833	2417.732343
336.332606	2432.094591
336.725315	2444.150510
337.117960	2454.195009
337.510540	2461.300516
337.903056	2475.413226
338.295508	2481.790285
338.687896	2490.206492
339.080220	2498.605054
339.472480	2504.377175
339.864676	2509.778772
340.256807	2511.833042
340.648875	2512.805984
341.040879	2517.529546
341.432818	2519.639268
341.824694	2521.882582
342.216506	2523.964578
342.608253	2523.410052
342.999937	2522.399300
343.391557	2520.917201
343.783113	2522.089269
344.174605	2518.734381
344.566033	2516.428053
344.957397	2518.295801
345.348697	2515.450070
345.739934	2515.802950
346.131106	2512.357322
346.522215	2512.574091
346.913260	2507.439676
347.304241	2509.158710
347.695159	2508.445386
348.086012	2503.101763
348.476802	2502.002792
348.867528	2499.721670
349.258191	2496.328973
349.648789	2496.265959
350.039324	2495.424086
350.429796	2495.978613
350.820203	2494.173880
351.210548	2494.559528
351.600828	2492.858139
351.991045	2491.910402
352.381198	2491.640700
352.771288	2492.437202
353.161314	2486.375215
353.551276	2490.448467
353.941175	2488.462253
354.331010	2493.616832
354.720782	2489.518374
355.110490	2492.137254
355.500135	2491.363437
355.889717	2490.796307
356.279235	2493.682367
356.668689	2490.030051
357.058080	2490.861842
357.447408	2488.442088
357.836672	2488.492499
358.225873	2492.114568
358.615010	2491.270175
359.004084	2494.693119
359.393095	2494.741010
359.782043	2495.267810
360.170927	2496.495331
360.559748	2493.339569
360.948505	2499.025990
361.337199	2499.749396
361.725830	2498.985661
362.114398	2499.119252
362.502903	2499.003305
362.891344	2502.385919
363.279722	2500.364417
363.668037	2499.494818
364.056289	2505.040087
364.444478	2503.464726
364.832603	2503.182422
365.220665	2503.051352
365.608665	2503.210148
365.996601	2505.511435
366.384474	2506.149141
366.772284	2508.737773
367.160031	2507.490088
367.547715	2511.119718
367.935336	2514.361180
368.322893	2517.547190
368.710388	2516.581809
369.097820	2526.827954
369.485189	2529.008253
369.872495	2532.975641
370.259738	2544.608103
370.646918	2549.828218
371.034035	2555.612942
371.421090	2567.366393
371.808081	2576.846282
372.195010	2583.850966
372.581875	2599.120621
372.968678	2614.463372
373.355418	2622.138529
373.742096	2640.715181
374.128710	2654.472490
374.515262	2670.510921
374.901751	2685.959537
375.288177	2700.558718
375.674540	2719.881461
376.060841	2738.011971
376.447079	2759.147008
376.833254	2780.554268
377.219367	2791.118006
377.605417	2830.330621
377.991404	2838.555264
378.377329	2860.774149
378.763191	2877.213352
379.148991	2913.529824
379.534727	2938.990172
379.920402	2967.961683
380.306013	2980.181440
380.691563	3030.945859
381.077049	3054.717420
381.462474	3069.825758
381.847835	3107.952005
382.233134	3131.196765
382.618371	3127.267186
383.003545	3195.771425
383.388657	3204.540512
383.773706	3238.240626
384.158693	3257.586054
384.543618	3278.385854
384.928480	3315.818942
385.313280	3361.378370
385.698017	3360.188658
386.082692	3414.033222
386.467305	3418.051022
386.851856	3451.040333
387.236344	3475.336173
387.620770	3503.659896
388.005133	3531.920605
388.389435	3555.099830
388.773674	3569.295719
389.157851	3614.441773
389.541965	3630.238228
389.926018	3593.039554
390.310008	3665.254083
390.693936	3681.388296
391.077802	3724.885892
391.461606	3711.844427
391.845348	3774.896658
392.229027	3774.274076
392.612645	3789.329482
392.996200	3864.772870
393.379694	3903.834250
393.763125	3970.977378
394.146494	3936.773150
394.529801	4000.299250
394.913047	4045.435221
395.296230	4014.154861
395.679351	4068.697625
396.062410	4094.026903
396.445408	4070.293150
396.828343	4106.284468
397.211217	4133.574755
397.594028	4048.351528
397.976778	4113.712608
398.359466	4145.159326
398.742092	4171.869880
399.124656	4092.093620
399.507158	4174.266948
399.889598	4199.891133
400.271977	4262.517388
400.654294	4233.787852
401.036549	4240.167432
401.418742	4212.370510
401.800874	4312.044204
402.182944	4335.644365
402.564952	4404.075508
402.946898	4383.038773
403.328783	4384.089854
403.710606	4295.995690
404.092367	4486.783199
404.474067	4448.541006
404.855705	4455.845638
405.237282	4389.246954
405.618797	4496.719313
406.000250	4531.631824
406.381642	4611.942446
406.762972	4575.830140
407.144240	4584.067386
407.525447	4584.115277
407.906593	4642.479235
408.287677	4686.178477
408.668700	4616.671048
409.049661	4666.086959
409.430560	4709.619843
409.811399	4634.824243
410.192176	4794.296104
410.572891	4736.247217
410.953545	4839.180017
411.334138	4720.596955
411.714669	4788.213952
412.095139	4683.627654
412.475547	4822.128314
412.855894	4804.113751
413.236180	4812.260256
413.616405	4765.100262
413.996568	4853.703582
414.376670	4796.090755
414.756711	4746.440431
415.136691	4781.801604
415.516609	4858.510322
415.896466	4895.404006
416.276262	4932.814409
416.655997	4913.337911
417.035670	5095.799954
417.415283	5186.570970
417.794834	5132.297908
418.174324	5085.571453
418.553753	4990.512935
418.933121	5174.326007
419.312428	5241.688426
419.691674	5182.953942
420.070859	5305.343075
420.449983	5218.736052
420.829045	5334.838866
421.208047	5240.677674
421.586988	5310.308612
421.965867	5323.980221
422.344686	5455.834120
422.723444	5315.102749
423.102141	5131.176251
423.480777	5428.485861
423.859352	5196.678483
424.237866	5456.002999
424.616319	5448.474036
424.994712	5556.783226
425.373044	5435.069608
425.751314	5577.376340
426.129524	5378.071802
426.507673	5580.945477
426.885762	5655.335263
427.263789	5591.244554
427.641756	5471.801975
428.019662	5594.496098
428.397508	5600.427016
428.775292	5547.724273
429.153016	5646.243542
429.530679	5569.887706
429.908282	5658.513711
430.285824	5528.668711
430.663305	5799.973529
431.040726	5533.730030
431.418086	5539.350916
431.795385	5641.066277
432.172624	5648.433924
432.549802	5647.765971
432.926920	5664.260626
433.303977	5671.499723
433.680974	5710.616556
434.057910	5728.071552
434.434786	5731.300411
434.811601	5699.972160
435.188355	5936.908911
435.565050	5812.599099
435.941683	5794.319875
436.318257	6004.031875
436.694770	5989.730121
437.071222	6024.599783
437.447614	5955.130162
437.823946	5870.418613
438.200218	6023.140368
438.576429	5887.805552
438.952580	5986.034956
439.328670	6032.496750
439.704700	5936.402275
440.080670	5923.043218
440.456580	6195.010947
440.832429	6075.976702
441.208218	5922.100522
441.583947	6082.512558
441.959616	6084.241674
442.335224	6013.047978
442.710773	6147.750130
443.086261	6173.318862
443.461689	5969.333613
443.837057	6119.688547
444.212365	6269.957781
444.587612	6164.141442
444.962800	6323.275545
445.337927	6297.989117
445.712995	5911.314973
446.088002	6485.578014
446.462949	6316.396891
446.837837	6254.836840
447.212664	6417.013280
447.587431	6566.390230
447.962139	7109.201512
448.336786	8036.529324
448.711374	7773.547451
449.085901	6850.116451
449.460369	6767.083606
449.834776	6696.648605
450.209124	7092.946311
450.583412	7236.762869
450.957640	7389.555201
451.331808	7153.856053
451.705917	6703.602876
452.079965	6628.247709
452.453954	6844.248548
452.827883	6724.337142
453.201752	6807.191026
453.575562	6612.373115
453.949311	6820.688716
454.323001	6707.650923
454.696632	6778.927797
455.070202	6914.015597
455.443713	7072.532159
455.817164	7173.524114
456.190556	7257.285406
456.563888	7333.129566
456.937160	7373.748663
457.310373	7031.169492
457.683526	7056.443316
458.056619	6945.477438
458.429653	6931.710047
458.802628	6869.025819
459.175542	6978.867520
459.548398	7333.545461
459.921194	7493.229050
460.293930	7497.050245
460.666607	8022.139350
461.039224	8340.992331
461.411782	8463.227709
461.784280	8471.918658
462.156719	8368.678348
462.529099	8248.035974
462.901419	7833.358221
463.273680	7728.976089
463.645882	7746.990653
464.018024	7610.140970
464.390106	7773.103829
464.762130	8162.802666
465.134094	8635.073082
465.505999	9654.580912
465.877845	10881.055834
466.249631	11527.510718
466.621358	11140.004784
466.993026	10512.371047
467.364634	10249.177446
467.736184	9889.357529
468.107674	9563.857787
468.479105	9593.913146
468.850477	9358.687866
469.221790	9127.525757
469.593043	8791.696690
469.964238	8660.064602
470.335373	8673.169081
470.706449	8731.712001
471.077467	8717.140546
471.448425	10018.486685
471.819324	11097.086920
472.190164	11119.464602
472.560945	9873.586279
472.931667	9085.311134
473.302330	8948.093447
473.672934	8589.937111
474.043479	8946.654198
474.413965	8891.808965
474.784393	8775.794371
475.154761	8931.286240
475.525070	9016.343109
475.895321	8846.244496
476.265513	9013.754476
476.635645	9187.018934
477.005719	9192.516312
477.375734	9297.737796
477.745691	9538.500783
478.115588	9669.774950
478.485427	9914.374255
478.855207	10448.214803
479.224928	11268.718044
479.594591	11893.226265
479.964194	11712.344624
480.333739	11643.636217
480.703226	11560.028681
481.072653	11654.757003
481.442022	11887.928012
481.811333	12082.713156
482.180584	11891.396326
482.549777	11598.485123
482.918912	11415.949983
483.287988	11442.287492
483.657005	11456.579163
484.025964	11136.428085
484.394864	11269.131419
484.763706	11236.013559
485.132489	10994.474234
485.501213	10958.591301
485.869879	11030.364729
486.238487	10872.364885
486.607036	10981.737759
486.975527	10760.940261
487.343959	10957.683893
487.712333	11002.809782
488.080648	10932.896540
488.448905	10971.287447
488.817104	10914.524054
489.185244	11182.950373
489.553326	11331.346819
489.921350	11868.834642
490.289315	12943.270885
490.657222	13273.378242
491.025070	13187.613091
491.392861	13058.481415
491.760593	12686.887882
492.128267	12324.149137
492.495883	12003.514108
492.863440	11670.745022
493.230939	11334.842859
493.598380	11262.325861
493.965763	11134.124278
494.333088	11036.625842
494.700354	10947.407501
495.067563	11010.742037
495.434713	10842.959834
495.801805	10971.153856
496.168839	10897.021168
496.535815	10831.108082
496.902733	10828.116157
497.269593	10762.593760
497.636395	10864.689728
498.003139	10849.016781
498.369825	10723.678573
498.736453	10879.230936
499.103023	10793.082658
499.469535	10825.983749
499.835989	10815.727521
500.202385	10782.433221
500.568723	10630.407144
500.935003	10860.306445
501.301226	10661.964767
501.667390	10919.938254
502.033497	11015.480722
502.399546	10872.042251
502.765537	10778.211254
503.131470	10856.376865
503.497345	11026.072186
503.863163	10637.946190
504.228923	10957.232710
504.594625	11017.335867
504.960269	10761.265416
505.325856	10990.476599
505.691385	10781.553539
506.056856	10928.374625
506.422270	10954.323964
506.787625	10843.776501
507.152924	10959.828904
507.518164	10940.881727
507.883347	10863.182423
508.248472	10779.794177
508.613540	11014.714467
508.978550	10891.911959
509.343503	10867.447239
509.708398	10991.260498
510.073236	11094.745304
510.438016	11103.668147
510.802738	11052.321474
511.167403	11104.885585
511.532010	11005.829433
511.896561	11226.568957
512.261053	11302.960082
512.625488	11175.103817
512.989866	11153.510035
513.354186	11148.105918
513.718449	11048.896010
514.082655	11233.485420
514.446803	11138.976388
514.810894	11252.939233
515.174927	11127.669080
515.538904	11148.433593
515.902822	11297.354319
516.266684	11179.867708
516.630488	11119.323450
516.994235	11179.156905
517.357925	11243.338355
517.721558	11328.070069
518.085133	11343.531288
518.448651	11353.079233
518.812112	11237.833415
519.175516	11250.930333
519.538863	11376.412214
519.902152	11286.614140
520.265385	11448.094901
520.628560	11358.624503
520.991678	11332.455873
521.354739	11395.467775
521.717743	11329.073259
522.080690	11306.136009
522.443580	11439.033427
522.806413	11393.327806
523.169189	11420.676065
523.531908	11475.107924
523.894569	11296.305759
524.257174	11296.648557
524.619722	11415.075343
524.982213	11356.819769
525.344647	11412.897565
525.707025	11363.867303
526.069345	11449.582041
526.431608	11363.678259
526.793815	11469.366050
527.155964	11259.437280
527.518057	11305.334465
527.880093	11254.958215
528.242072	11322.527320
528.603995	11222.437731
528.965860	11143.518468
529.327669	11193.335150
529.689421	11143.082408
530.051117	11106.241656
530.412755	11204.050123
530.774337	11098.695048
531.135862	11063.381766
531.497331	11085.804818
531.858743	10936.526170
532.220098	11097.621283
532.581396	10960.751435
532.942638	10940.554052
533.303824	10904.782025
533.664953	10908.668754
534.026025	10820.025105
534.387040	10913.505741
534.747999	10906.206151
535.108902	10951.253901
535.469748	10719.789323
535.830537	10810.484721
536.191270	10784.958839
536.551947	10791.335898
536.912567	10788.316247
537.273131	10704.267610
537.633638	10676.112766
537.994089	10660.732205
538.354483	10596.235683
538.714821	10730.963040
539.075103	10731.452032
539.435328	10685.698520
539.795497	10511.370378
540.155609	10654.569395
540.515665	10730.950437
540.875665	10462.183840
541.235609	10515.483960
541.595496	10504.799234
541.955328	10641.951387
542.315102	10522.881853
542.674821	10458.501277
543.034483	10454.327202
543.394090	10437.678792
543.753640	10360.559220
544.113134	10560.882071
544.472571	10408.855994
544.831953	10531.421568
545.191278	10327.854734
545.550548	10344.707312
545.909761	10462.635024
546.268918	10416.989896
546.628019	10474.829575
546.987064	10333.934366
547.346053	10251.188867
547.704986	10323.002624
548.063863	10289.236975
548.422684	10270.672926
548.781449	10167.059571
549.140158	10241.930788
549.498811	10110.976734
549.857408	9966.930804
550.215949	10142.476384
550.574434	9998.624538
550.932864	10060.043436
551.291237	10097.479045
551.649555	10019.759576
552.007817	10018.032981
552.366022	9958.806985
552.724173	9928.348333
553.082267	9898.779445
553.440305	9986.636675
553.798288	9791.049988
554.156215	9898.091328
554.514086	9848.861940
554.871902	9699.341317
555.229661	9702.197131
555.587365	9661.817488
555.945014	9544.711484
556.302606	9617.906518
556.660143	9503.472325
557.017625	9610.027194
557.375050	9486.279470
557.732421	9574.426566
558.089735	9462.641500
558.446994	9444.470661
558.804197	9452.468451
559.161345	9414.329602
559.518437	9264.877034
559.875474	9302.942787
560.232455	9283.526783
560.589381	9225.548473
560.946251	9178.348149
561.303065	9252.899253
561.659825	9148.643150
562.016528	9063.699708
562.373177	8946.384496
562.729770	8990.464345
563.086307	8894.904233
563.442789	8935.961911
563.799216	8789.365157
564.155587	8806.923496
564.511904	8729.410714
564.868164	8685.401441
565.224370	8677.940533
565.580520	8557.308242
565.936615	8549.426398
566.292654	8397.279334
566.648638	8475.502918
567.004567	8399.310919
567.360441	8355.644444
567.716260	8248.996314
568.072023	8289.194475
568.427732	8210.197074
568.783385	8122.294474
569.138982	8118.296839
569.494525	8096.302285
569.850013	7976.927762
570.205445	7981.661405
570.560823	7888.551294
570.916145	7784.295191
571.271412	7795.229454
571.626625	7715.801034
571.981782	7661.401942
572.336884	7605.724919
572.691931	7582.515447
573.046923	7493.539081
573.401860	7432.069772
573.756743	7350.355188
574.111570	7340.756832
574.466342	7300.404916
574.821059	7276.466997
575.175722	7171.379103
575.530330	7136.627909
575.884882	7099.086437
576.239380	7009.235431
576.593823	6966.635161
576.948211	6937.230110
577.302544	6836.812846
577.656823	6803.994935
578.011047	6774.267250
578.365216	6711.756943
578.719330	6642.068032
579.073389	6599.223265
579.427394	6543.931890
579.781344	6493.384240
580.135239	6428.991062
580.489080	6403.452576
580.842866	6304.141846
581.196597	6275.987001
581.550273	6266.819663
581.903895	6198.088572
582.257463	6210.414193
582.610975	6097.709116
582.964434	6093.671152
583.317837	6008.843656
583.671186	5978.185879
584.024481	5929.314413
584.377721	5862.262026
584.730906	5812.047092
585.084037	5795.789371
585.437113	5741.775928
585.790135	5705.822419
586.143103	5629.335512
586.496016	5591.037867
586.848874	5576.332821
587.201679	5544.639087
587.554428	5455.138441
587.907124	5443.062357
588.259765	5398.977467
588.612352	5366.698959
588.964884	5290.292710
589.317362	5260.189460
589.669786	5224.493050
590.022155	5232.669801
590.374470	5196.083627
590.726731	5149.377337
591.078937	5051.039549
591.431090	5053.517276
591.783188	4987.082430
592.135232	4942.639618
592.487222	4932.262403
592.839157	4914.268004
593.191038	4866.248493
593.542866	4815.166481
593.894639	4749.654166
594.246358	4744.207199
594.598022	4720.473447
594.949633	4654.643540
595.301190	4618.992500
595.652692	4604.436168
596.004141	4605.252835
596.355535	4510.912682
596.706876	4476.506807
597.058162	4425.628962
597.409395	4426.032254
597.760573	4420.746604
598.111698	4368.016135
598.462768	4335.046989
598.813785	4310.143689
599.164748	4260.327006
599.515657	4245.715222
599.866511	4184.616437
600.217312	4205.118810
600.568060	4142.003564
600.918753	4145.066065
601.269392	4113.914255
601.619978	4069.073191
601.970510	4060.674629
602.320988	4041.639232
602.671412	4030.629352
603.021783	3995.545442
603.372100	3967.120896
603.722363	3944.039973
604.072572	3923.971139
604.422728	3904.792070
604.772830	3864.944269
605.122878	3843.937781
605.472872	3826.674350
605.822813	3804.279024
606.172701	3777.354221
606.522534	3772.935650
606.872314	3760.927621
607.222041	3725.299266
607.571714	3720.041343
607.921333	3693.857590
608.270899	3672.843540
608.620411	3675.301103
608.969870	3641.598468
609.319276	3621.993421
609.668627	3605.692850
610.017926	3600.860904
610.367171	3591.292794
610.716362	3568.993250
611.065500	3552.223852
611.414585	3536.210627
611.763616	3520.126825
612.112594	3499.352230
612.461518	3485.781444
612.810389	3486.335971
613.159207	3457.016620
613.507971	3435.858898
613.856682	3437.361162
614.205340	3415.099426
614.553945	3415.091864
614.902496	3382.856206
615.250994	3379.425701
615.599439	3362.759646
615.947830	3350.151721
616.296169	3337.430369
616.644454	3327.365705
616.992686	3312.073365
617.340864	3310.147644
617.688990	3283.706792
618.037063	3289.236938
618.385082	3270.110800
618.733048	3269.465533
619.080961	3252.287801
619.428821	3244.297572
619.776628	3229.438771
620.124382	3215.321020
620.472083	3199.670758
620.819731	3190.122812
621.167326	3163.318997
621.514868	3152.112512
621.862357	3129.255921
622.209793	3122.286526
622.557176	3099.553442
622.904506	3078.851944
623.251783	3062.248904
623.599007	3048.635268
623.946179	3036.707898
624.293297	3024.662061
624.640363	3009.803260
624.987376	3000.958555
625.334336	2983.574136
625.681243	2972.430666
626.028097	2963.033955
626.374899	2955.013479
626.721647	2942.544185
627.068343	2933.888524
627.414987	2920.017789
627.761577	2909.355749
628.108115	2908.284504
628.454600	2895.013666
628.801032	2889.849004
629.147412	2883.676111
629.493739	2875.932899
629.840014	2866.881507
630.186236	2866.127855
630.532405	2853.905577
630.878521	2850.386852
631.224585	2843.979545
631.570597	2836.193483
631.916556	2834.000581
632.262462	2828.929180
632.608316	2821.732933
632.954117	2811.191881
633.299866	2811.625420
633.645562	2805.281128
633.991206	2794.137657
634.336797	2785.885288
634.682336	2778.137035
635.027823	2768.687392
635.373257	2765.362751
635.718639	2756.366812
636.063968	2753.286667
636.409245	2742.022209
636.754470	2736.461816
637.099642	2734.392422
637.444762	2727.677605
637.789829	2725.686350
638.134845	2716.650081
638.479808	2715.200750
638.824719	2710.358721
639.169577	2709.673124
639.514383	2701.924871
639.859137	2696.908923
640.203839	2696.455219
640.548489	2692.956658
640.893086	2688.757377
641.237632	2683.892664
