Dividing Wavelength (nm)	Counts (n)	Blue Motor Position (mm): 0.000000	Red Motor Position (mm): 1.400000	
326.493990	2127.354320
326.888308	2127.354320
327.282561	2127.354320
327.676750	2096.467171
328.070874	2094.228898
328.464933	2097.798035
328.858929	2102.972780
329.252859	2113.952413
329.646726	2123.772580
330.040528	2137.217338
330.434265	2155.625111
330.827938	2171.192194
331.221547	2189.678105
331.615091	2205.051104
332.008571	2228.197562
332.401986	2247.769842
332.795338	2267.039652
333.188625	2286.473300
333.581847	2304.230765
333.975006	2322.845225
334.368100	2341.270643
334.761129	2359.595237
335.154095	2377.619882
335.546996	2391.233518
335.939833	2405.578122
336.332606	2421.997160
336.725315	2434.252205
337.117960	2444.011878
337.510540	2454.842798
337.903056	2464.859570
338.295508	2470.898872
338.687896	2479.683083
339.080220	2486.758342
339.472480	2495.005670
339.864676	2498.287461
340.256807	2504.644356
340.648875	2505.060252
341.040879	2507.306086
341.432818	2511.616272
341.824694	2511.341529
342.216506	2513.579802
342.608253	2508.795747
342.999937	2512.148114
343.391557	2509.050325
343.783113	2509.201559
344.174605	2508.962105
344.566033	2506.892711
344.957397	2506.184429
345.348697	2505.445900
345.739934	2500.921464
346.131106	2503.893224
346.522215	2498.907523
346.913260	2495.020794
347.304241	2495.403921
347.695159	2493.536174
348.086012	2490.304794
348.476802	2488.920998
348.867528	2491.267655
349.258191	2486.541573
349.648789	2488.217757
350.039324	2484.915801
350.429796	2483.136273
350.820203	2483.718527
351.210548	2481.011427
351.600828	2480.156952
351.991045	2479.887250
352.381198	2478.420274
352.771288	2479.325161
353.161314	2480.227528
353.551276	2476.469348
353.941175	2478.193422
354.331010	2477.230562
354.720782	2477.759883
355.110490	2478.483288
355.500135	2478.011941
355.889717	2479.385655
356.279235	2477.391879
356.668689	2477.870788
357.058080	2479.859523
357.447408	2478.034626
357.836672	2476.217290
358.225873	2478.047229
358.615010	2475.251909
359.004084	2479.801550
359.393095	2481.848259
359.782043	2482.821201
360.170927	2484.295739
360.559748	2482.037302
360.948505	2481.477734
361.337199	2484.799854
361.725830	2486.707931
362.114398	2486.070225
362.502903	2486.395379
362.891344	2484.746922
363.279722	2487.935452
363.668037	2488.270689
364.056289	2486.130719
364.444478	2488.099289
364.832603	2490.030051
365.220665	2490.939980
365.608665	2488.857983
365.996601	2487.721203
366.384474	2489.135247
366.772284	2488.462253
367.160031	2490.924856
367.547715	2492.956441
367.935336	2493.521050
368.322893	2490.014928
368.710388	2493.694970
369.097820	2492.853098
369.485189	2490.685401
369.872495	2490.995432
370.259738	2492.328818
370.646918	2490.324959
371.034035	2490.967706
371.421090	2494.544405
371.808081	2492.306132
372.195010	2492.104486
372.581875	2491.693632
372.968678	2494.486431
373.355418	2493.687408
373.742096	2495.149343
374.128710	2493.332007
374.515262	2495.008191
374.901751	2493.974754
375.288177	2496.018942
375.674540	2495.494662
376.060841	2496.883500
376.447079	2496.709580
376.833254	2496.502893
377.219367	2491.300422
377.605417	2496.548263
377.991404	2494.564569
378.377329	2494.904847
378.763191	2494.569610
379.148991	2499.139416
379.534727	2495.136740
379.920402	2499.240239
380.306013	2500.644201
380.691563	2498.489107
381.077049	2497.460712
381.462474	2497.097749
381.847835	2497.896772
382.233134	2498.529437
382.618371	2499.630929
383.003545	2500.412308
383.388657	2499.913233
383.773706	2499.807369
384.158693	2500.611433
384.543618	2498.068171
384.928480	2500.800477
385.313280	2500.891217
385.698017	2501.654952
386.082692	2500.770230
386.467305	2498.237050
386.851856	2500.331649
387.236344	2502.658142
387.620770	2505.455982
388.005133	2502.196876
388.389435	2503.000940
388.773674	2502.491784
389.157851	2503.593276
389.541965	2502.504387
389.926018	2505.884480
390.310008	2504.266270
390.693936	2505.050169
391.077802	2502.012874
391.461606	2502.685868
391.845348	2503.293327
392.229027	2506.088647
392.612645	2506.212155
392.996200	2502.877432
393.379694	2504.369613
393.763125	2504.815756
394.146494	2502.017915
394.529801	2508.064779
394.913047	2505.077896
395.296230	2505.476147
395.679351	2505.153513
396.062410	2502.821979
396.445408	2505.448420
396.828343	2508.084944
397.211217	2502.862308
397.594028	2503.416835
397.976778	2504.548574
398.359466	2506.330622
398.742092	2504.024294
399.124656	2507.802639
399.507158	2508.447907
399.889598	2508.586539
400.271977	2508.979749
400.654294	2510.628206
401.036549	2507.583349
401.418742	2506.650736
401.800874	2508.614265
402.182944	2509.662825
402.564952	2509.746004
402.946898	2514.653567
403.328783	2509.597290
403.710606	2512.279184
404.092367	2509.625016
404.474067	2510.154338
404.855705	2509.730881
405.237282	2512.044770
405.618797	2509.274656
406.000250	2509.703154
406.381642	2512.064935
406.762972	2508.135355
407.144240	2513.138701
407.525447	2512.649709
407.906593	2513.973012
408.287677	2513.363032
408.668700	2511.016375
409.049661	2510.819770
409.430560	2509.602331
409.811399	2512.269102
410.192176	2513.073166
410.572891	2512.316993
410.953545	2513.705830
411.334138	2512.627023
411.714669	2514.577950
412.095139	2511.066786
412.475547	2513.421005
412.855894	2509.851868
413.236180	2513.173989
413.616405	2513.766324
413.996568	2512.589215
414.376670	2512.720285
414.756711	2516.750687
415.136691	2516.392765
415.516609	2514.963598
415.896466	2514.598115
416.276262	2513.836900
416.655997	2512.553927
417.035670	2510.756755
417.415283	2510.749194
417.794834	2506.819614
418.174324	2514.550224
418.553753	2516.851510
418.933121	2512.871519
419.312428	2515.167765
419.691674	2519.324196
420.070859	2515.563496
420.449983	2515.931500
420.829045	2514.237672
421.208047	2517.741274
421.586988	2517.068280
421.965867	2518.063908
422.344686	2515.807992
422.723444	2520.007273
423.102141	2514.456962
423.480777	2518.739423
423.859352	2516.841428
424.237866	2517.915194
424.616319	2516.296983
424.994712	2517.794206
425.373044	2514.492250
425.751314	2517.716068
426.129524	2517.055677
426.507673	2518.240348
426.885762	2519.455266
427.263789	2520.629855
427.641756	2520.216481
428.019662	2519.787982
428.397508	2519.992149
428.775292	2518.447036
429.153016	2520.874351
429.530679	2520.965092
429.908282	2519.868641
430.285824	2520.667664
430.663305	2519.001563
431.040726	2519.583816
431.418086	2521.491893
431.795385	2519.903929
432.172624	2519.558610
432.549802	2520.939886
432.926920	2520.937366
433.303977	2522.240504
433.680974	2521.771677
434.057910	2519.001562
434.434786	2519.964423
434.811601	2519.616583
435.188355	2522.069105
435.565050	2521.675895
435.941683	2519.709845
436.318257	2515.939062
436.694770	2517.539628
437.071222	2520.818898
437.447614	2515.739936
437.823946	2519.230935
438.200218	2522.336286
438.576429	2520.748322
438.952580	2519.752694
439.328670	2523.079856
439.704700	2519.470390
440.080670	2523.450381
440.456580	2520.027437
440.832429	2523.881399
441.208218	2520.859228
441.583947	2524.478776
441.959616	2521.494413
442.335224	2523.278982
442.710773	2523.316790
443.086261	2522.207736
443.461689	2524.879548
443.837057	2524.733354
444.212365	2524.188910
444.587612	2521.706142
444.962800	2521.078518
445.337927	2522.971471
445.712995	2522.641276
446.088002	2522.661440
446.462949	2523.142870
446.837837	2521.582633
447.212664	2524.254445
447.587431	2523.518436
447.962139	2523.261337
448.336786	2523.407531
448.711374	2523.427696
449.085901	2525.673530
449.460369	2524.569517
449.834776	2524.826616
450.209124	2522.454753
450.583412	2523.949455
450.957640	2524.859383
451.331808	2525.126564
451.705917	2523.589013
452.079965	2526.722090
452.453954	2523.949455
452.827883	2524.919877
453.201752	2525.839888
453.575562	2525.534898
453.949311	2526.205371
454.323001	2523.278982
454.696632	2526.041534
455.070202	2526.152439
455.443713	2524.866945
455.817164	2524.466173
456.190556	2522.215298
456.563888	2520.592047
456.937160	2520.738240
457.310373	2525.529857
457.683526	2520.902078
458.056619	2527.909281
458.429653	2526.729651
458.802628	2527.967255
459.175542	2526.679240
459.548398	2525.693694
459.921194	2525.590351
460.293930	2527.178314
460.666607	2525.923067
461.039224	2525.416431
461.411782	2526.737213
461.784280	2526.976668
462.156719	2524.579599
462.529099	2527.387522
462.901419	2528.604961
463.273680	2527.137985
463.645882	2530.881042
464.018024	2527.561442
464.390106	2529.676206
464.762130	2528.950280
465.134094	2528.388191
465.505999	2528.010104
465.877845	2528.352903
466.249631	2526.573376
466.621358	2526.742254
466.993026	2529.406504
467.364634	2534.359438
467.736184	2529.421628
468.107674	2526.603623
468.479105	2526.878365
468.850477	2527.531195
469.221790	2530.787780
469.593043	2528.655372
469.964238	2526.838036
470.335373	2528.859539
470.706449	2529.590506
471.077467	2528.037831
471.448425	2529.446833
471.819324	2527.125382
472.190164	2528.602440
472.560945	2528.756195
472.931667	2526.964065
473.302330	2530.951618
473.672934	2528.277286
474.043479	2531.669982
474.413965	2526.979188
474.784393	2523.578930
475.154761	2528.259642
475.525070	2526.240659
475.895321	2525.408869
476.265513	2526.217974
476.635645	2530.024045
477.005719	2527.120341
477.375734	2530.119827
477.745691	2529.088911
478.115588	2531.226361
478.485427	2528.151257
478.855207	2528.675537
479.224928	2530.240815
479.594591	2531.312060
479.964194	2530.981865
480.333739	2530.079498
480.703226	2529.545136
481.072653	2533.305837
481.442022	2528.718387
481.811333	2530.709642
482.180584	2529.865249
482.549777	2531.012112
482.918912	2530.739889
483.287988	2530.172759
483.657005	2532.617719
484.025964	2530.185362
484.394864	2529.640918
484.763706	2533.126876
485.132489	2533.202493
485.501213	2534.339273
485.869879	2529.507327
486.238487	2531.070085
486.607036	2531.554036
486.975527	2529.106555
487.343959	2531.054961
487.712333	2530.402132
488.080648	2528.388191
488.448905	2530.729807
488.817104	2529.290558
489.185244	2529.046062
489.553326	2532.937832
489.921350	2532.615198
490.289315	2531.816176
490.657222	2532.443799
491.025070	2533.124355
491.392861	2532.448840
491.760593	2530.944056
492.128267	2532.519417
492.495883	2530.928932
492.863440	2534.969417
493.230939	2529.648479
493.598380	2533.240302
493.965763	2528.436082
494.333088	2530.029087
494.700354	2528.665454
495.067563	2529.855167
495.434713	2529.091432
495.801805	2530.878521
496.168839	2532.577390
496.535815	2533.343645
496.902733	2531.397760
497.269593	2534.392205
497.636395	2532.282482
498.003139	2529.567821
498.369825	2533.136958
498.736453	2534.863553
499.103023	2531.627132
499.469535	2533.010929
499.835989	2531.685106
500.202385	2535.836496
500.568723	2531.054961
500.935003	2533.031094
501.301226	2532.315250
501.667390	2531.977493
502.033497	2533.598223
502.399546	2532.637884
502.765537	2530.812986
503.131470	2531.034797
503.497345	2531.223840
503.863163	2532.731145
504.228923	2529.817358
504.594625	2530.959179
504.960269	2535.196269
505.325856	2533.588141
505.691385	2534.997144
506.056856	2531.591844
506.422270	2533.351207
506.787625	2532.342976
507.152924	2534.336752
507.518164	2532.151412
507.883347	2532.048069
508.248472	2530.906247
508.613540	2528.814168
508.978550	2530.266021
509.343503	2535.365148
509.708398	2533.341125
510.073236	2532.224509
510.438016	2534.656866
510.802738	2535.271887
511.167403	2534.220806
511.532010	2530.318953
511.896561	2534.246012
512.261053	2535.344983
512.625488	2529.371216
512.989866	2529.973634
513.354186	2530.210568
513.718449	2528.259642
514.082655	2530.271062
514.446803	2530.044210
514.810894	2534.568646
515.174927	2535.687782
515.538904	2532.801721
515.902822	2530.818027
516.266684	2532.814324
516.630488	2535.967566
516.994235	2534.785415
517.357925	2531.654859
517.721558	2533.220137
518.085133	2533.585621
518.448651	2535.904551
518.812112	2533.482277
519.175516	2534.843388
519.538863	2532.617719
519.902152	2534.608975
520.265385	2533.366330
520.628560	2536.572504
520.991678	2532.355579
521.354739	2537.094264
521.717743	2533.751979
522.080690	2536.688451
522.443580	2533.890610
522.806413	2533.515044
523.169189	2534.740045
523.531908	2536.627957
523.894569	2534.344314
524.257174	2534.888759
524.619722	2537.096784
524.982213	2536.038142
525.344647	2532.509334
525.707025	2535.745755
526.069345	2533.845240
526.431608	2534.596372
526.793815	2534.314067
527.155964	2535.390354
527.518057	2536.673327
527.880093	2534.493028
528.242072	2532.196783
528.603995	2536.731301
528.965860	2533.240302
529.327669	2537.860519
529.689421	2534.755168
530.051117	2535.808769
530.412755	2535.334901
530.774337	2535.201310
531.135862	2536.423790
531.497331	2534.571166
531.858743	2530.671834
532.220098	2533.212575
532.581396	2530.170239
532.942638	2532.952956
533.303824	2533.386495
533.664953	2533.598223
534.026025	2535.569315
534.387040	2534.636701
534.747999	2534.813142
535.108902	2536.963194
535.469748	2532.710980
535.830537	2535.108049
536.191270	2534.760209
536.551947	2535.229037
536.912567	2534.649304
537.273131	2534.760209
537.633638	2532.922709
537.994089	2533.777184
538.354483	2535.760878
538.714821	2535.990251
539.075103	2535.281969
539.435328	2534.901362
539.795497	2536.297761
540.155609	2538.125180
540.515665	2533.315919
540.875665	2534.694674
541.235609	2536.595189
541.595496	2536.572504
541.955328	2537.469830
542.315102	2537.343801
542.674821	2537.525282
543.034483	2535.430683
543.394090	2533.603265
543.753640	2536.282638
544.113134	2535.085364
544.472571	2534.372041
544.831953	2533.588141
545.191278	2537.096784
545.550548	2534.190559
545.909761	2534.243491
546.268918	2534.034283
546.628019	2535.859181
546.987064	2536.509490
547.346053	2536.368337
547.704986	2535.977648
548.063863	2536.350693
548.422684	2534.790456
548.781449	2534.964376
549.140158	2534.457740
549.498811	2535.871784
549.857408	2535.954963
550.215949	2533.414221
550.574434	2531.264169
550.932864	2533.520086
551.291237	2529.635877
551.649555	2533.257946
552.007817	2534.931609
552.366022	2532.153933
552.724173	2536.161650
553.082267	2537.071578
553.440305	2534.803059
553.798288	2534.934129
554.156215	2535.657535
554.514086	2535.912113
554.871902	2533.237781
555.229661	2538.588966
555.587365	2536.181815
555.945014	2536.363296
556.302606	2534.087215
556.660143	2538.200797
557.017625	2536.020498
557.375050	2536.655683
557.732421	2536.030580
558.089735	2537.192566
558.446994	2534.530837
558.804197	2536.622916
559.161345	2536.101156
559.518437	2532.859694
559.875474	2535.271887
560.232455	2537.174922
560.589381	2534.787936
560.946251	2537.411856
561.303065	2535.899510
561.659825	2534.931609
562.016528	2538.778009
562.373177	2536.537216
562.729770	2536.055786
563.086307	2537.416898
563.442789	2533.106711
563.799216	2536.421270
564.155587	2536.824562
564.511904	2534.402287
564.868164	2536.219623
565.224370	2536.282638
565.580520	2532.557225
565.936615	2535.712987
566.292654	2533.968748
566.648638	2537.094264
567.004567	2535.344983
567.360441	2535.339942
567.716260	2536.380940
568.072023	2535.357586
568.427732	2532.683254
568.783385	2533.963707
569.138982	2530.946577
569.494525	2533.691485
569.850013	2533.013450
570.205445	2535.072761
570.560823	2535.922195
570.916145	2536.607792
571.271412	2536.111239
571.626625	2535.899510
571.981782	2535.733152
572.336884	2535.337422
572.691931	2534.147709
573.046923	2537.321116
573.401860	2536.320447
573.756743	2535.244160
574.111570	2533.673841
574.466342	2538.659542
574.821059	2535.276928
575.175722	2537.031249
575.530330	2533.182328
575.884882	2535.607123
576.239380	2536.668286
576.593823	2540.436549
576.948211	2536.844727
577.302544	2536.512010
577.656823	2537.467309
578.011047	2537.159799
578.365216	2535.229037
578.719330	2533.053779
579.073389	2537.258101
579.427394	2533.167205
579.781344	2537.784902
580.135239	2536.877494
580.489080	2534.125024
580.842866	2539.466127
581.196597	2539.123328
581.550273	2537.033770
581.903895	2538.188194
582.257463	2536.295241
582.610975	2536.701054
582.964434	2535.518903
583.317837	2534.876156
583.671186	2535.667617
584.024481	2537.197607
584.377721	2536.567463
584.730906	2535.965045
585.084037	2535.634850
585.437113	2537.777340
585.790135	2536.801877
586.143103	2538.465458
586.496016	2538.173071
586.848874	2529.693850
587.201679	2534.702236
587.554428	2532.199303
587.907124	2535.783564
588.259765	2533.583100
588.612352	2534.281300
588.964884	2536.514531
589.317362	2537.348842
589.669786	2536.897659
590.022155	2539.143493
590.374470	2535.776002
590.726731	2536.943029
591.078937	2536.817000
591.431090	2535.655014
591.783188	2536.955632
592.135232	2537.749614
592.487222	2534.117462
592.839157	2535.680220
593.191038	2534.727442
593.542866	2537.646270
593.894639	2535.667617
594.246358	2536.116280
594.598022	2536.940508
594.949633	2535.939839
595.301190	2538.084850
595.652692	2536.542257
596.004141	2537.863040
596.355535	2534.697195
596.706876	2534.475384
597.058162	2534.208203
597.409395	2538.447813
597.760573	2536.534696
598.111698	2537.610982
598.462768	2537.278266
598.813785	2535.390354
599.164748	2536.179294
599.515657	2535.385312
599.866511	2535.402957
600.217312	2537.111908
600.568060	2536.834644
600.918753	2538.016795
601.269392	2536.597710
601.619978	2537.346321
601.970510	2538.747762
602.320988	2535.357586
602.671412	2535.065199
603.021783	2537.346321
603.372100	2536.839685
603.722363	2536.872453
604.072572	2539.088040
604.422728	2538.014274
604.772830	2535.337422
605.122878	2533.784746
605.472872	2534.382123
605.822813	2531.102852
606.172701	2535.387833
606.522534	2535.387833
606.872314	2537.661393
607.222041	2538.228523
607.571714	2536.025539
607.921333	2537.787422
608.270899	2535.586959
608.620411	2535.561753
608.969870	2535.735673
609.319276	2541.066693
609.668627	2539.153575
610.017926	2544.139276
610.367171	2543.804039
610.716362	2545.626417
611.065500	2541.684234
611.414585	2540.340767
611.763616	2539.569470
612.112594	2540.741538
612.461518	2535.707946
612.810389	2539.103163
613.159207	2539.952598
613.507971	2540.454193
613.856682	2537.792463
614.205340	2534.593851
614.553945	2537.893287
614.902496	2535.702905
615.250994	2536.872453
615.599439	2537.106867
615.947830	2539.158616
616.296169	2537.106867
616.644454	2540.474357
616.992686	2536.249870
617.340864	2537.507638
617.688990	2534.596372
618.037063	2538.457896
618.385082	2536.960673
618.733048	2539.309851
619.080961	2534.500590
619.428821	2536.554860
619.776628	2535.957483
620.124382	2538.427649
620.472083	2538.596528
620.819731	2539.957639
621.167326	2533.489839
621.514868	2534.253573
621.862357	2535.024870
622.209793	2534.974458
622.557176	2535.496218
622.904506	2533.966228
623.251783	2531.798532
623.599007	2536.086033
623.946179	2534.316588
624.293297	2534.455220
624.640363	2535.150899
624.987376	2536.680889
625.334336	2536.234747
625.681243	2536.512010
626.028097	2534.498069
626.374899	2538.896476
626.721647	2534.742565
627.068343	2536.746424
627.414987	2534.399767
627.761577	2535.221475
628.108115	2536.113759
628.454600	2539.040149
628.801032	2536.998482
629.147412	2536.943029
629.493739	2536.630477
629.840014	2535.420601
630.186236	2535.506300
630.532405	2537.681558
630.878521	2535.876825
631.224585	2536.658204
631.570597	2535.818852
631.916556	2537.091743
632.262462	2534.200641
632.608316	2538.891435
632.954117	2537.258101
633.299866	2534.399767
633.645562	2534.157792
633.991206	2536.486805
634.336797	2537.363965
634.682336	2534.601413
635.027823	2536.103677
635.373257	2534.374561
635.718639	2535.718029
636.063968	2537.517721
636.409245	2534.140147
636.754470	2535.808769
637.099642	2536.748945
637.444762	2533.608306
637.789829	2536.597710
638.134845	2536.121321
638.479808	2535.844058
638.824719	2537.109387
639.169577	2538.077289
639.514383	2536.360776
639.859137	2537.522762
640.203839	2533.842719
640.548489	2536.023018
640.893086	2534.377082
641.237632	2532.806762
641.582125	2534.873635
641.926566	2528.652852
642.270955	2539.405633
642.615292	2535.685261
642.959576	2536.285158
643.303809	2535.889428
643.647990	2535.990251
643.992118	2537.119469
644.336195	2537.449665
