Dividing Wavelength (nm)	Counts (n)	Blue Motor Position (mm): 0.000000	Red Motor Position (mm): 3.000000	
326.493990	2127.878600
326.888308	2127.878600
327.282561	2127.878600
327.676750	2094.700246
328.070874	2096.283168
328.464933	2097.717377
328.858929	2105.069900
329.252859	2115.008534
329.646726	2125.635287
330.040528	2137.784468
330.434265	2157.432365
330.827938	2173.435508
331.221547	2190.217509
331.615091	2208.463965
332.008571	2227.605226
332.401986	2245.718092
332.795338	2266.603592
333.188625	2288.381377
333.581847	2303.393933
333.975006	2324.607108
334.368100	2341.386589
334.761129	2358.594568
335.154095	2376.427649
335.546996	2392.392984
335.939833	2409.258164
336.332606	2420.063877
336.725315	2434.642894
337.117960	2442.771755
337.510540	2450.434308
337.903056	2462.928808
338.295508	2473.084213
338.687896	2480.986221
339.080220	2486.758343
339.472480	2495.350989
339.864676	2496.666730
340.256807	2503.487412
340.648875	2504.921620
341.040879	2506.529748
341.432818	2511.422188
341.824694	2509.819101
342.216506	2513.771365
342.608253	2510.262722
342.999937	2513.410923
343.391557	2514.154493
343.783113	2512.947137
344.174605	2510.867661
344.566033	2507.495129
344.957397	2506.088647
345.348697	2503.608399
345.739934	2503.668893
346.131106	2500.374499
346.522215	2500.250991
346.913260	2498.133706
347.304241	2497.435506
347.695159	2496.787718
348.086012	2493.531133
348.476802	2490.403097
348.867528	2491.461739
349.258191	2488.658858
349.648789	2487.474186
350.039324	2486.992756
350.429796	2483.229535
350.820203	2483.471510
351.210548	2480.731643
351.600828	2481.475213
351.991045	2479.239462
352.381198	2477.890953
352.771288	2480.845069
353.161314	2479.446149
353.551276	2480.098978
353.941175	2478.004379
354.331010	2478.488330
354.720782	2477.210397
355.110490	2480.091417
355.500135	2478.029585
355.889717	2480.726602
356.279235	2476.880202
356.668689	2482.732981
357.058080	2479.118474
357.447408	2477.936323
357.836672	2474.730149
358.225873	2478.311889
358.615010	2475.214100
359.004084	2482.773310
359.393095	2480.671149
359.782043	2482.778352
360.170927	2482.339771
360.559748	2483.022848
360.948505	2485.795482
361.337199	2482.097796
361.725830	2483.161479
362.114398	2485.843373
362.502903	2483.829432
362.891344	2487.678353
363.279722	2486.574340
363.668037	2487.915287
364.056289	2490.481235
364.444478	2486.712972
364.832603	2488.747078
365.220665	2485.384628
365.608665	2488.404279
365.996601	2492.112048
366.384474	2487.575009
366.772284	2488.207674
367.160031	2492.759836
367.547715	2489.520895
367.935336	2492.744713
368.322893	2491.895278
368.710388	2490.929897
369.097820	2495.101452
369.485189	2489.031903
369.872495	2493.631956
370.259738	2490.030051
370.646918	2490.735813
371.034035	2491.209681
371.421090	2495.628253
371.808081	2490.234218
372.195010	2493.941987
372.581875	2493.722697
372.968678	2495.595485
373.355418	2493.344610
373.742096	2496.061792
374.128710	2494.380567
374.515262	2498.176556
374.901751	2497.506083
375.288177	2495.603047
375.674540	2497.329642
376.060841	2496.772595
376.447079	2495.663541
376.833254	2499.457009
377.219367	2494.844353
377.605417	2495.514827
377.991404	2494.398211
378.377329	2493.858808
378.763191	2492.780001
379.148991	2497.286792
379.534727	2498.206803
379.920402	2500.092194
380.306013	2498.630260
380.691563	2498.960455
381.077049	2498.567245
381.462474	2501.912051
381.847835	2497.284272
382.233134	2502.867350
382.618371	2500.387102
383.003545	2498.665548
383.388657	2499.184787
383.773706	2500.752586
384.158693	2500.573625
384.543618	2500.440034
384.928480	2500.785353
385.313280	2498.945332
385.698017	2502.522031
386.082692	2502.355672
386.467305	2502.295179
386.851856	2503.570591
387.236344	2501.478512
387.620770	2504.631753
388.005133	2506.862464
388.389435	2502.199397
388.773674	2502.411125
389.157851	2503.489932
389.541965	2503.600838
389.926018	2503.840292
390.310008	2503.721825
390.693936	2505.065293
391.077802	2503.152175
391.461606	2506.441528
391.845348	2506.307937
392.229027	2505.702999
392.612645	2507.396826
392.996200	2505.977742
393.379694	2506.761641
393.763125	2506.340705
394.146494	2505.357680
394.529801	2505.738287
394.913047	2507.623678
395.296230	2509.879595
395.679351	2504.682165
396.062410	2507.195180
396.445408	2508.548730
396.828343	2506.184429
397.211217	2505.440859
397.594028	2506.985972
397.976778	2504.777947
398.359466	2506.872546
398.742092	2504.490601
399.124656	2507.527896
399.507158	2509.630058
399.889598	2507.860612
400.271977	2508.016888
400.654294	2509.193998
401.036549	2506.378513
401.418742	2510.083761
401.800874	2509.793895
402.182944	2510.300531
402.564952	2509.118380
402.946898	2511.533093
403.328783	2510.093844
403.710606	2512.788340
404.092367	2509.735922
404.474067	2511.517970
404.855705	2509.995541
405.237282	2509.788854
405.618797	2512.117867
406.000250	2509.859430
406.381642	2511.568381
406.762972	2512.788340
407.144240	2512.198525
407.525447	2513.597446
407.906593	2515.954185
408.287677	2514.111643
408.668700	2510.534945
409.049661	2512.982425
409.430560	2512.546365
409.811399	2514.698938
410.192176	2512.838752
410.572891	2513.267250
410.953545	2513.975532
411.334138	2511.155007
411.714669	2511.099554
412.095139	2511.840603
412.475547	2513.763804
412.855894	2515.230779
413.236180	2514.870337
413.616405	2517.988291
413.996568	2514.885460
414.376670	2514.703979
414.756711	2516.241531
415.136691	2514.608197
415.516609	2514.830008
415.896466	2515.392096
416.276262	2516.513753
416.655997	2512.155676
417.035670	2510.169461
417.415283	2515.240862
417.794834	2511.898577
418.174324	2514.628362
418.553753	2517.968126
418.933121	2517.648013
419.312428	2515.104751
419.691674	2516.634741
420.070859	2516.372601
420.449983	2517.096006
420.829045	2517.857221
421.208047	2518.522653
421.586988	2517.511902
421.965867	2516.226407
422.344686	2519.011645
422.723444	2517.058198
423.102141	2517.680780
423.480777	2518.389062
423.859352	2517.980729
424.237866	2518.416789
424.616319	2518.116840
424.994712	2517.050636
425.373044	2516.770852
425.751314	2517.640451
426.129524	2519.346882
426.507673	2518.114319
426.885762	2519.160359
427.263789	2518.865451
427.641756	2518.905781
428.019662	2520.382839
428.397508	2518.434433
428.775292	2520.894516
429.153016	2520.221522
429.530679	2519.460307
429.908282	2520.302180
430.285824	2518.694052
430.663305	2518.978877
431.040726	2519.780421
431.418086	2519.354443
431.795385	2521.799403
432.172624	2517.103568
432.549802	2522.290915
432.926920	2520.723117
433.303977	2517.958044
433.680974	2521.537263
434.057910	2521.159176
434.434786	2520.034999
434.811601	2520.271933
435.188355	2520.352592
435.565050	2522.792510
435.941683	2521.927952
436.318257	2521.547345
436.694770	2516.808661
437.071222	2518.714217
437.447614	2520.219001
437.823946	2518.845287
438.200218	2521.839732
438.576429	2521.665812
438.952580	2522.111954
439.328670	2523.825947
439.704700	2520.445853
440.080670	2524.017511
440.456580	2522.225380
440.832429	2522.681605
441.208218	2523.528519
441.583947	2520.483662
441.959616	2526.906092
442.335224	2522.243024
442.710773	2522.154804
443.086261	2524.282171
443.461689	2523.969620
443.837057	2524.070443
444.212365	2522.711852
444.587612	2525.713859
444.962800	2522.800072
445.337927	2524.713190
445.712995	2524.481297
446.088002	2524.458612
446.462949	2522.860566
446.837837	2524.745957
447.212664	2524.438447
447.587431	2525.053468
447.962139	2524.786287
448.336786	2527.049765
448.711374	2524.919877
449.085901	2525.227388
449.460369	2525.008097
449.834776	2526.296112
450.209124	2524.070443
450.583412	2524.670340
450.957640	2527.067409
451.331808	2524.909795
451.705917	2524.506502
452.079965	2525.229908
452.453954	2525.474404
452.827883	2524.932480
453.201752	2527.836185
453.575562	2526.822913
453.949311	2527.228726
454.323001	2524.781245
454.696632	2526.679240
455.070202	2527.768129
455.443713	2526.399456
455.817164	2520.652540
456.190556	2521.559948
456.563888	2524.892151
456.937160	2524.612367
457.310373	2526.235618
457.683526	2528.037831
458.056619	2525.446678
458.429653	2527.379960
458.802628	2524.877027
459.175542	2527.836185
459.548398	2527.127903
459.921194	2527.082532
460.293930	2528.337779
460.666607	2528.476411
461.039224	2527.102697
461.411782	2524.040196
461.784280	2526.538088
462.156719	2527.006915
462.529099	2526.570855
462.901419	2525.590351
463.273680	2524.796369
463.645882	2528.788963
464.018024	2529.996319
464.390106	2526.427182
464.762130	2530.240815
465.134094	2528.761236
465.505999	2527.753006
465.877845	2526.822913
466.249631	2531.417924
466.621358	2527.085053
466.993026	2529.887934
467.364634	2533.472195
467.736184	2528.622605
468.107674	2528.095804
468.479105	2527.556401
468.850477	2530.359282
469.221790	2527.795855
469.593043	2529.245187
469.964238	2527.500948
470.335373	2529.822399
470.706449	2531.853984
471.077467	2529.590506
471.448425	2530.177801
471.819324	2529.958510
472.190164	2525.950793
472.560945	2528.660413
472.931667	2530.553367
473.302330	2526.863242
473.672934	2529.010773
474.043479	2530.588655
474.413965	2530.845753
474.784393	2526.185207
475.154761	2528.269724
475.525070	2527.011956
475.895321	2526.626308
476.265513	2526.286030
476.635645	2530.132430
477.005719	2529.189734
477.375734	2530.515558
477.745691	2532.504293
478.115588	2529.162008
478.485427	2532.101001
478.855207	2530.460105
479.224928	2531.891793
479.594591	2531.186031
479.964194	2529.494724
480.333739	2531.667462
480.703226	2529.414066
481.072653	2529.288037
481.442022	2529.116638
481.811333	2529.139323
482.180584	2533.078985
482.549777	2531.067564
482.918912	2531.039838
483.287988	2533.527647
483.657005	2531.528830
484.025964	2529.794673
484.394864	2532.058151
484.763706	2531.526309
485.132489	2529.567821
485.501213	2532.186700
485.869879	2532.204344
486.238487	2526.820392
486.607036	2531.120496
486.975527	2534.281300
487.343959	2528.957841
487.712333	2529.199817
488.080648	2530.833151
488.448905	2532.733666
488.817104	2532.108562
489.185244	2532.065713
489.553326	2530.538243
489.921350	2529.547656
490.289315	2530.190403
490.657222	2531.007070
491.025070	2532.287523
491.392861	2534.934129
491.760593	2532.779036
492.128267	2534.641742
492.495883	2533.046217
492.863440	2531.175949
493.230939	2532.791639
493.598380	2531.433048
493.965763	2529.174611
494.333088	2532.302647
494.700354	2527.475742
495.067563	2528.652852
495.434713	2530.613860
495.801805	2532.831968
496.168839	2531.299457
496.535815	2531.531350
496.902733	2530.926412
497.269593	2532.602596
497.636395	2533.540250
498.003139	2534.737524
498.369825	2530.855836
498.736453	2534.349355
499.103023	2533.474715
499.469535	2532.645445
499.835989	2531.039838
500.202385	2533.860363
500.568723	2533.812473
500.935003	2535.004705
501.301226	2531.491021
501.667390	2532.731145
502.033497	2534.036804
502.399546	2533.341125
502.765537	2531.884231
503.131470	2531.478418
503.497345	2533.371372
503.863163	2531.352389
504.228923	2532.968079
504.594625	2533.774664
504.960269	2531.314581
505.325856	2532.158974
505.691385	2533.842719
506.056856	2532.705939
506.422270	2535.072761
506.787625	2536.096115
507.152924	2533.641073
507.518164	2532.574869
507.883347	2532.320291
508.248472	2532.320291
508.613540	2535.042514
508.978550	2534.543440
509.343503	2530.840712
509.708398	2532.728624
510.073236	2534.213244
510.438016	2536.264994
510.802738	2533.845240
511.167403	2533.802390
511.532010	2535.700385
511.896561	2533.651156
512.261053	2532.179139
512.625488	2532.847092
512.989866	2527.808458
513.354186	2530.833151
513.718449	2527.904240
514.082655	2532.655528
514.446803	2534.087215
514.810894	2534.369520
515.174927	2535.319778
515.538904	2535.299613
515.902822	2532.756351
516.266684	2535.922195
516.630488	2533.520086
516.994235	2534.777853
517.357925	2531.765764
517.721558	2532.680733
518.085133	2536.519572
518.448651	2535.039993
518.812112	2533.394057
519.175516	2535.924716
519.538863	2533.532688
519.902152	2536.726259
520.265385	2533.194931
520.628560	2534.440096
520.991678	2533.603265
521.354739	2534.440096
521.717743	2537.134593
522.080690	2536.771630
522.443580	2533.439427
522.806413	2536.524613
523.169189	2535.476053
523.531908	2536.937988
523.894569	2534.021680
524.257174	2533.343645
524.619722	2534.389685
524.982213	2535.050076
525.344647	2536.600231
525.707025	2535.244160
526.069345	2532.199303
526.431608	2537.311033
526.793815	2535.279448
527.155964	2537.651311
527.518057	2533.920857
527.880093	2533.935981
528.242072	2536.257432
528.603995	2538.099974
528.965860	2535.602082
529.327669	2535.292051
529.689421	2534.689633
530.051117	2537.104346
530.412755	2533.918337
530.774337	2535.831455
531.135862	2533.552853
531.497331	2533.507483
531.858743	2529.109076
532.220098	2535.624767
532.581396	2532.678213
532.942638	2534.273738
533.303824	2534.435055
533.664953	2536.731301
534.026025	2534.503111
534.387040	2536.012936
534.747999	2534.596372
535.108902	2532.642925
535.469748	2534.795498
535.830537	2537.129552
536.191270	2534.634181
536.551947	2536.537216
536.912567	2534.024201
537.273131	2534.926567
537.633638	2533.071423
537.994089	2536.325488
538.354483	2534.064530
538.714821	2535.738193
539.075103	2535.556712
539.435328	2536.867412
539.795497	2536.887576
540.155609	2533.935981
540.515665	2536.186856
540.875665	2537.109387
541.235609	2536.446475
541.595496	2535.191228
541.955328	2533.883049
542.315102	2536.970755
542.674821	2538.152906
543.034483	2541.719522
543.394090	2534.699716
543.753640	2535.586959
544.113134	2534.505631
544.472571	2537.719367
544.831953	2535.861702
545.191278	2536.527134
545.550548	2534.886238
545.909761	2535.460930
546.268918	2536.345652
546.628019	2535.498738
546.987064	2536.388502
547.346053	2532.837009
547.704986	2534.142668
548.063863	2534.886238
548.422684	2536.456558
548.781449	2536.401105
549.140158	2535.997813
549.498811	2534.397246
549.857408	2534.974458
550.215949	2534.041845
550.574434	2530.203006
550.932864	2535.723070
551.291237	2531.296937
551.649555	2535.559232
552.007817	2536.421270
552.366022	2535.786084
552.724173	2534.351876
553.082267	2536.078471
553.440305	2533.694005
553.798288	2535.511341
554.156215	2536.310364
554.514086	2536.136444
554.871902	2535.549150
555.229661	2538.044521
555.587365	2539.370345
555.945014	2538.291538
556.302606	2537.495035
556.660143	2536.905220
557.017625	2537.109387
557.375050	2535.546629
557.732421	2535.821372
558.089735	2536.108718
558.446994	2537.953780
558.804197	2536.166691
559.161345	2535.667617
559.518437	2536.872453
559.875474	2537.432021
560.232455	2535.319778
560.589381	2536.857329
560.946251	2540.428987
561.303065	2538.261291
561.659825	2535.982689
562.016528	2536.002854
562.373177	2534.235929
562.729770	2535.299613
563.086307	2535.947401
563.442789	2537.109387
563.799216	2536.990920
564.155587	2539.461085
564.511904	2534.369520
564.868164	2536.660724
565.224370	2540.592824
565.580520	2535.866743
565.936615	2540.255067
566.292654	2535.334901
566.648638	2537.270704
567.004567	2534.956814
567.360441	2536.494366
567.716260	2534.571166
568.072023	2533.446989
568.427732	2529.192255
568.783385	2535.445806
569.138982	2530.439941
569.494525	2533.630991
569.850013	2532.660569
570.205445	2537.653832
570.560823	2535.133255
570.916145	2537.817669
571.271412	2538.145344
571.626625	2537.139634
571.981782	2534.833306
572.336884	2537.200128
572.691931	2535.763399
573.046923	2536.438914
573.401860	2535.347504
573.756743	2534.586290
574.111570	2533.734335
574.466342	2538.939326
574.821059	2536.023018
575.175722	2536.854809
575.530330	2535.370189
575.884882	2537.109387
576.239380	2537.547967
576.593823	2538.425128
576.948211	2535.773481
577.302544	2536.292720
577.656823	2536.973276
578.011047	2536.905220
578.365216	2539.042670
578.719330	2538.014274
579.073389	2536.529654
579.427394	2539.098122
579.781344	2536.789274
580.135239	2537.517721
580.489080	2539.209028
580.842866	2538.394881
581.196597	2538.813297
581.550273	2535.677699
581.903895	2535.667617
582.257463	2539.957639
582.610975	2535.826413
582.964434	2536.960673
583.317837	2537.762217
583.671186	2537.810108
584.024481	2538.883873
584.377721	2535.846578
584.730906	2538.654501
585.084037	2537.943698
585.437113	2539.955118
585.790135	2538.057124
586.143103	2536.756506
586.496016	2535.602082
586.848874	2532.970600
587.201679	2534.989582
587.554428	2530.235774
587.907124	2534.067051
588.259765	2532.035466
588.612352	2537.568132
588.964884	2537.832793
589.317362	2538.067206
589.669786	2536.330529
590.022155	2539.108205
590.374470	2538.410005
590.726731	2538.727598
591.078937	2536.277597
591.431090	2538.858668
591.783188	2537.653832
592.135232	2536.990920
592.487222	2536.252391
592.839157	2538.198276
593.191038	2537.530323
593.542866	2537.205169
593.894639	2537.366486
594.246358	2539.403112
594.598022	2537.338760
594.949633	2537.820190
595.301190	2536.433872
595.652692	2537.003523
596.004141	2537.752134
596.355535	2537.673996
596.706876	2536.209541
597.058162	2536.937988
597.409395	2535.244160
597.760573	2538.110056
598.111698	2538.493184
598.462768	2539.972763
598.813785	2535.944881
599.164748	2539.113246
599.515657	2534.687113
599.866511	2537.295910
600.217312	2535.665097
600.568060	2537.782381
600.918753	2536.350693
601.269392	2536.401105
601.619978	2536.708615
601.970510	2536.847247
602.320988	2535.849099
602.671412	2538.548637
603.021783	2537.157278
603.372100	2537.386651
603.722363	2537.704243
604.072572	2538.478060
604.422728	2541.964018
604.772830	2533.883049
605.122878	2534.344314
605.472872	2534.777853
605.822813	2530.838192
606.172701	2536.864891
606.522534	2537.361445
606.872314	2540.328164
607.222041	2537.043852
607.571714	2538.336908
607.921333	2537.641229
608.270899	2538.452855
608.620411	2537.154757
608.969870	2540.272711
609.319276	2538.780530
609.668627	2541.555685
610.017926	2543.531817
610.367171	2549.034237
610.716362	2545.926365
611.065500	2542.838658
611.414585	2539.685417
611.763616	2539.531662
612.112594	2539.778678
612.461518	2537.777340
612.810389	2536.486805
613.159207	2538.974614
613.507971	2537.893287
613.856682	2539.682896
614.205340	2538.581404
614.553945	2540.270191
614.902496	2536.408667
615.250994	2537.371527
615.599439	2538.306661
615.947830	2537.648791
616.296169	2534.009078
616.644454	2537.469830
616.992686	2535.065199
617.340864	2538.210879
617.688990	2537.810107
618.037063	2534.782895
618.385082	2538.467978
618.733048	2539.176260
619.080961	2536.373379
619.428821	2535.536547
619.776628	2538.921682
620.124382	2539.272042
620.472083	2539.869419
620.819731	2540.038297
621.167326	2537.807587
621.514868	2539.803884
621.862357	2536.219623
622.209793	2536.428831
622.557176	2536.781712
622.904506	2536.043183
623.251783	2535.808769
623.599007	2534.213244
623.946179	2534.293903
624.293297	2532.660569
624.640363	2538.500746
624.987376	2537.507638
625.334336	2538.052083
625.681243	2538.987217
626.028097	2537.646270
626.374899	2538.493184
626.721647	2536.701054
627.068343	2537.936136
627.414987	2540.345808
627.761577	2537.258101
628.108115	2537.195087
628.454600	2537.931095
628.801032	2535.864222
629.147412	2536.118800
629.493739	2539.050231
629.840014	2536.459078
630.186236	2535.995292
630.532405	2538.346990
630.878521	2538.619213
631.224585	2538.208359
631.570597	2537.232895
631.916556	2536.872453
632.262462	2537.739531
632.608316	2536.988399
632.954117	2534.054448
633.299866	2537.815149
633.645562	2535.108049
633.991206	2537.946219
634.336797	2537.704243
634.682336	2540.749100
635.027823	2535.914634
635.373257	2536.030580
635.718639	2535.670138
636.063968	2538.311702
636.409245	2534.735004
636.754470	2537.502597
637.099642	2534.803059
637.444762	2537.973945
637.789829	2537.845396
638.134845	2537.568132
638.479808	2535.521424
638.824719	2533.250384
639.169577	2535.826413
639.514383	2534.825744
639.859137	2534.611495
640.203839	2539.080478
640.548489	2534.621578
640.893086	2534.364479
641.237632	2533.275590
641.582125	2532.695857
641.926566	2531.556556
642.270955	2538.442772
642.615292	2536.723739
642.959576	2534.863553
643.303809	2538.142824
643.647990	2537.295910
643.992118	2536.017977
644.336195	2536.912782
