Dividing Wavelength (nm)	Counts (n)	Blue Motor Position (mm): 0.000000	Red Motor Position (mm): 46.300000	
326.493990	2130.694085
326.888308	2130.694085
327.282561	2130.694085
327.676750	2093.760071
328.070874	2095.171594
328.464933	2094.894331
328.858929	2103.872626
329.252859	2111.590632
329.646726	2124.740482
330.040528	2140.849489
330.434265	2154.662251
330.827938	2171.151865
331.221547	2191.336645
331.615091	2209.787268
332.008571	2228.247973
332.401986	2246.990983
332.795338	2266.288520
333.188625	2284.507250
333.581847	2306.436269
333.975006	2324.004691
334.368100	2341.908348
334.761129	2362.350227
335.154095	2377.166178
335.546996	2396.688047
335.939833	2424.268199
336.332606	2437.894438
336.725315	2450.751901
337.117960	2460.700618
337.510540	2468.532051
337.903056	2479.698207
338.295508	2485.573671
338.687896	2497.160763
339.080220	2503.658811
339.472480	2511.465038
339.864676	2515.349247
340.256807	2518.958713
340.648875	2521.781759
341.040879	2524.564476
341.432818	2527.221164
341.824694	2529.035979
342.216506	2528.526823
342.608253	2529.807276
342.999937	2528.892306
343.391557	2529.744261
343.783113	2527.148067
344.174605	2529.875331
344.566033	2524.854342
344.957397	2521.572551
345.348697	2521.265041
345.739934	2520.728158
346.131106	2516.228928
346.522215	2517.209432
346.913260	2513.287415
347.304241	2513.504184
347.695159	2515.520646
348.086012	2510.469410
348.476802	2507.792557
348.867528	2508.856240
349.258191	2504.820797
349.648789	2505.070334
350.039324	2502.665703
350.429796	2500.437513
350.820203	2501.506238
351.210548	2499.514982
351.600828	2499.240239
351.991045	2501.609582
352.381198	2498.514313
352.771288	2496.233191
353.161314	2496.797800
353.551276	2497.422903
353.941175	2496.621360
354.331010	2497.521206
354.720782	2495.855105
355.110490	2497.637152
355.500135	2496.530619
355.889717	2496.618839
356.279235	2497.654797
356.668689	2500.739983
357.058080	2498.138747
357.447408	2498.118583
357.836672	2499.537667
358.225873	2496.989364
358.615010	2493.268993
359.004084	2499.890548
359.393095	2501.344921
359.782043	2502.615292
360.170927	2501.604541
360.559748	2504.165447
360.948505	2505.365241
361.337199	2504.725015
361.725830	2506.086126
362.114398	2506.817094
362.502903	2507.142248
362.891344	2506.428925
363.279722	2509.123422
363.668037	2508.273987
364.056289	2508.823473
364.444478	2510.169461
364.832603	2511.424708
365.220665	2510.696262
365.608665	2514.923269
365.996601	2513.524349
366.384474	2513.506705
366.772284	2514.335975
367.160031	2515.253465
367.547715	2516.624658
367.935336	2520.697911
368.322893	2523.788138
368.710388	2526.913653
369.097820	2531.039838
369.485189	2534.089736
369.872495	2543.872095
370.259738	2549.755122
370.646918	2556.621173
371.034035	2562.315156
371.421090	2573.080540
371.808081	2585.978332
372.195010	2594.276072
372.581875	2604.179418
372.968678	2620.842952
373.355418	2627.081380
373.742096	2646.845224
374.128710	2662.858449
374.515262	2677.273629
374.901751	2691.661082
375.288177	2703.164995
375.674540	2730.288923
376.060841	2745.107395
376.447079	2768.117742
376.833254	2785.847480
377.219367	2795.607153
377.605417	2834.431600
377.991404	2844.942406
378.377329	2869.081971
378.763191	2884.167624
379.148991	2921.341092
379.534727	2946.430915
379.920402	2974.986531
380.306013	2985.993890
380.691563	3034.744368
381.077049	3059.536763
381.462474	3079.363621
381.847835	3114.634054
382.233134	3138.327477
382.618371	3134.082826
383.003545	3205.505893
383.388657	3211.557798
383.773706	3245.179774
384.158693	3264.174842
384.543618	3288.455559
384.928480	3324.648523
385.313280	3367.823485
385.698017	3365.562528
386.082692	3420.722833
386.467305	3427.664502
386.851856	3461.316725
387.236344	3480.846155
387.620770	3515.347812
388.005133	3539.482336
388.389435	3568.605081
388.773674	3577.837955
389.157851	3621.824542
389.541965	3635.181080
389.926018	3597.722786
390.310008	3671.903365
390.693936	3691.271478
391.077802	3732.992067
391.461606	3720.311045
391.845348	3784.326137
392.229027	3784.081641
392.612645	3797.334834
392.996200	3874.892986
393.379694	3915.156682
393.763125	3977.336794
394.146494	3946.363945
394.529801	4008.498687
394.913047	4053.483423
395.296230	4022.858413
395.679351	4076.496290
396.062410	4099.655351
396.445408	4083.543823
396.828343	4116.981797
397.211217	4140.339983
397.594028	4059.807550
397.976778	4125.198877
398.359466	4152.446314
398.742092	4182.625182
399.124656	4102.901854
399.507158	4183.769523
399.889598	4209.365982
400.271977	4270.300929
400.654294	4238.922267
401.036549	4248.235799
401.418742	4219.024833
401.800874	4321.272036
402.182944	4345.225078
402.564952	4411.123041
402.946898	4395.447573
403.328783	4392.826173
403.710606	4303.406187
404.092367	4498.113192
404.474067	4460.281853
404.855705	4471.805931
405.237282	4398.431937
405.618797	4505.432948
406.000250	4540.882341
406.381642	4621.311430
406.762972	4584.942026
407.144240	4591.321606
407.525447	4593.726237
407.906593	4653.713447
408.287677	4697.939489
408.668700	4620.376296
409.049661	4677.033824
409.430560	4717.690730
409.811399	4645.385461
410.192176	4808.406294
410.572891	4748.078806
410.953545	4846.162015
411.334138	4728.259509
411.714669	4794.084376
412.095139	4688.537737
412.475547	4834.292619
412.855894	4812.431655
413.236180	4820.865505
413.616405	4776.137868
413.996568	4864.882340
414.376670	4808.265141
414.756711	4758.203963
415.136691	4789.181853
415.516609	4870.009194
415.896466	4908.107714
416.276262	4944.676244
416.655997	4919.901493
417.035670	5107.084577
417.415283	5195.024985
417.794834	5140.091532
418.174324	5094.484213
418.553753	4999.962578
418.933121	5186.747410
419.312428	5252.758799
419.691674	5190.737484
420.070859	5316.657945
420.449983	5229.841714
420.829045	5345.979816
421.208047	5254.230816
421.586988	5323.314789
421.965867	5335.854659
422.344686	5468.747036
422.723444	5323.098019
423.102141	5142.281913
423.480777	5439.926759
423.859352	5210.133323
424.237866	5471.320545
424.616319	5459.564574
424.994712	5566.164813
425.373044	5446.323984
425.751314	5590.009471
426.129524	5389.001023
426.507673	5587.264563
426.885762	5667.925545
427.263789	5599.169248
427.641756	5484.470395
428.019662	5602.151090
428.397508	5611.565445
428.775292	5560.306993
429.153016	5660.147045
429.530679	5586.336991
429.908282	5663.408671
430.285824	5538.072984
430.663305	5809.743285
431.040726	5548.893820
431.418086	5545.629673
431.795385	5656.351056
432.172624	5665.750287
432.549802	5656.136807
432.926920	5676.069529
433.303977	5678.385939
433.680974	5719.030242
434.057910	5736.707048
434.434786	5743.973871
434.811601	5707.463315
435.188355	5951.550943
435.565050	5821.148896
435.941683	5804.596267
436.318257	6019.578793
436.694770	6000.122460
437.071222	6037.288367
437.447614	5965.068797
437.823946	5874.862390
438.200218	6028.252098
438.576429	5900.592439
438.952580	5995.895452
439.328670	6039.534201
439.704700	5947.412155
440.080670	5936.982008
440.456580	6210.704059
440.832429	6087.374751
441.208218	5933.143169
441.583947	6093.759372
441.959616	6096.635350
442.335224	6023.662128
442.710773	6158.825545
443.086261	6187.308064
443.461689	5978.485828
443.837057	6129.286904
444.212365	6284.352796
444.587612	6175.829357
444.962800	6332.362225
445.337927	6314.692981
445.712995	5920.779740
446.088002	6495.846844
446.462949	6324.931564
446.837837	6261.869250
447.212664	6431.554488
447.587431	6572.752167
447.962139	7117.743747
448.336786	8042.508132
448.711374	7788.509596
449.085901	6853.574683
449.460369	6779.855369
449.834776	6708.853238
450.209124	7104.820749
450.583412	7255.208451
450.957640	7407.456338
451.331808	7169.975142
451.705917	6719.543005
452.079965	6641.596684
452.453954	6855.089549
452.827883	6729.590024
453.201752	6823.839437
453.575562	6621.432069
453.949311	6830.791188
454.323001	6712.124947
454.696632	6786.476925
455.070202	6927.992196
455.443713	7082.949703
455.817164	7183.838315
456.190556	7264.330419
456.563888	7337.694331
456.937160	7386.906074
457.310373	7041.914711
457.683526	7065.837507
458.056619	6957.929088
458.429653	6940.907632
458.802628	6877.658795
459.175542	6987.639128
459.548398	7346.788572
459.921194	7505.710947
460.293930	7504.753128
460.666607	8038.064355
461.039224	8345.852003
461.411782	8479.709761
461.784280	8488.995567
462.156719	8381.331644
462.529099	8259.076101
462.901419	7849.507557
463.273680	7745.422854
463.645882	7757.698063
464.018024	7624.510779
464.390106	7789.013711
464.762130	8177.517794
465.134094	8648.558168
465.505999	9663.947376
465.877845	10886.389375
466.249631	11539.861545
466.621358	11152.133800
466.993026	10528.916114
467.364634	10279.837744
467.736184	9913.844934
468.107674	9577.436135
468.479105	9605.855639
468.850477	9370.489207
469.221790	9146.087285
469.593043	8817.051174
469.964238	8673.118670
470.335373	8687.869086
470.706449	8745.330678
471.077467	8728.402483
471.448425	10041.754130
471.819324	11119.419232
472.190164	11144.166256
472.560945	9895.492613
472.931667	9098.650027
473.302330	8966.823854
473.672934	8609.532076
474.043479	8969.903999
474.413965	8901.755161
474.784393	8789.788614
475.154761	8943.067417
475.525070	9037.208444
475.895321	8854.716155
476.265513	9035.499493
476.635645	9202.187766
477.005719	9203.654742
477.375734	9316.337133
477.745691	9552.805057
478.115588	9689.054842
478.485427	9931.030227
478.855207	10471.656168
479.224928	11281.656166
479.594591	11923.022005
479.964194	11726.810215
480.333739	11665.146821
480.703226	11581.357803
481.072653	11671.322234
481.442022	11906.113975
481.811333	12097.093047
482.180584	11909.161352
482.549777	11616.580345
482.918912	11435.126533
483.287988	11464.468569
483.657005	11475.155815
484.025964	11157.104377
484.394864	11284.574994
484.763706	11260.861406
485.132489	11017.945846
485.501213	10981.362193
485.869879	11048.459950
486.238487	10895.307176
486.607036	11005.146357
486.975527	10785.770465
487.343959	10972.096552
487.712333	11023.501198
488.080648	10949.338263
488.448905	10991.807463
488.817104	10933.703124
489.185244	11200.354957
489.553326	11353.711898
489.921350	11888.124617
490.289315	12961.479532
490.657222	13296.693578
491.025070	13212.811299
491.392861	13084.539139
491.760593	12709.540307
492.128267	12354.706091
492.495883	12027.411698
492.863440	11687.632888
493.230939	11347.377688
493.598380	11297.823146
493.965763	11156.025571
494.333088	11059.618544
494.700354	10976.487397
495.067563	11033.321365
495.434713	10866.063442
495.801805	10997.589667
496.168839	10920.165106
496.535815	10850.498880
496.902733	10850.851761
497.269593	10783.111256
497.636395	10888.917513
498.003139	10874.197344
498.369825	10738.880172
498.736453	10899.438402
499.103023	10824.443676
499.469535	10852.505259
499.835989	10843.295071
500.202385	10795.646085
500.568723	10657.279015
500.935003	10881.249918
501.301226	10683.591317
501.667390	10939.946593
502.033497	11040.689012
502.399546	10895.113092
502.765537	10800.805706
503.131470	10879.951821
503.497345	11053.879191
503.863163	10669.748309
504.228923	10980.946297
504.594625	11038.329752
504.960269	10789.803388
505.325856	11007.611481
505.691385	10801.932404
506.056856	10959.362597
506.422270	10982.793880
506.787625	10871.137364
507.152924	10988.543316
507.518164	10969.754936
507.883347	10894.014120
508.248472	10807.767539
508.613540	11041.283868
508.978550	10927.598287
509.343503	10904.358568
509.708398	11022.901300
510.073236	11134.575461
510.438016	11134.033537
510.802738	11087.780950
511.167403	11137.940431
511.532010	11036.719103
511.896561	11261.536921
512.261053	11339.268992
512.625488	11206.744619
512.989866	11185.241578
513.354186	11178.594816
513.718449	11082.218037
514.082655	11273.224836
514.446803	11170.445791
514.810894	11286.231013
515.174927	11156.322999
515.538904	11183.580517
515.902822	11335.478045
516.266684	11217.595703
516.630488	11163.907415
516.994235	11216.637884
517.357925	11282.457709
517.721558	11370.420802
518.085133	11388.039635
518.448651	11395.084648
518.812112	11273.733992
519.175516	11290.765531
519.538863	11415.284551
519.902152	11333.534680
520.265385	11488.920685
520.628560	11398.711758
520.991678	11379.081505
521.354739	11447.968872
521.717743	11375.111596
522.080690	11353.842968
522.443580	11491.544606
522.806413	11449.193873
523.169189	11477.535239
523.531908	11538.024044
523.894569	11347.203768
524.257174	11351.894562
524.619722	11481.048924
524.982213	11416.968297
525.344647	11479.975158
525.707025	11422.364852
526.069345	11515.656445
526.431608	11436.661564
526.793815	11545.984026
527.155964	11338.492655
527.518057	11391.051725
527.880093	11339.997439
528.242072	11406.374312
528.603995	11312.825620
528.965860	11233.934083
529.327669	11284.852257
529.689421	11229.883516
530.051117	11200.604494
530.412755	11307.101390
530.774337	11198.124246
531.135862	11179.275372
531.497331	11199.462673
531.858743	11059.119470
532.220098	11216.194262
532.581396	11092.665828
532.942638	11075.203272
533.303824	11038.932170
533.664953	11049.594210
534.026025	10965.485079
534.387040	11066.179606
534.747999	11069.920142
535.108902	11122.315375
535.469748	10882.905938
535.830537	10989.528862
536.191270	10964.043309
536.551947	10990.302679
536.912567	10984.621299
537.273131	10916.845506
537.633638	10896.383462
537.994089	10879.951821
538.354483	10826.576084
538.714821	10976.215175
539.075103	10981.019394
539.435328	10944.481111
539.795497	10771.221695
540.155609	10938.101531
540.515665	11025.689058
540.875665	10750.696637
541.235609	10827.314613
541.595496	10822.747328
541.955328	10976.560494
542.315102	10860.697134
542.674821	10806.716459
543.034483	10813.179218
543.394090	10813.564866
543.753640	10733.836498
544.113134	10966.052208
544.472571	10820.907307
544.831953	10962.783020
545.191278	10767.130798
545.550548	10795.149531
545.909761	10937.554566
546.268918	10912.986503
546.628019	10989.891825
546.987064	10849.200783
547.346053	10775.443661
547.704986	10874.862777
548.063863	10863.714265
548.422684	10854.163799
548.781449	10761.177196
549.140158	10868.851201
549.498811	10745.395863
549.857408	10608.432755
550.215949	10829.547845
550.574434	10688.803870
550.932864	10786.574529
551.291237	10841.497900
551.649555	10797.314707
552.007817	10802.859976
552.366022	10764.358164
552.724173	10764.978226
553.082267	10740.110214
553.440305	10885.577749
553.798288	10684.279435
554.156215	10833.288381
554.514086	10813.418673
554.871902	10656.018726
555.229661	10699.919615
555.587365	10675.964052
555.945014	10568.552187
556.302606	10694.649088
556.660143	10592.384241
557.017625	10746.131872
557.375050	10644.708898
557.732421	10777.954156
558.089735	10693.232524
558.446994	10688.889570
558.804197	10728.913811
559.161345	10732.452701
559.518437	10580.313198
559.875474	10662.935189
560.232455	10695.942144
560.589381	10645.386933
560.946251	10632.481579
561.303065	10744.463250
561.659825	10681.206852
562.016528	10613.879721
562.373177	10497.799592
562.729770	10608.936870
563.086307	10523.171720
563.442789	10611.888466
563.799216	10495.417647
564.155587	10544.372292
564.511904	10495.765487
564.868164	10486.134362
565.224370	10501.991312
565.580520	10423.498026
565.936615	10423.757645
566.292654	10299.934304
566.648638	10435.823647
567.004567	10383.047807
567.360441	10369.880313
567.716260	10282.774216
568.072023	10370.563390
568.427732	10324.104116
568.783385	10238.396939
569.138982	10302.323811
569.494525	10323.378190
569.850013	10197.210712
570.205445	10276.946642
570.560823	10180.731180
570.916145	10088.470503
571.271412	10168.720631
571.626625	10113.882959
571.981782	10092.321944
572.336884	10063.685670
572.691931	10070.362678
573.046923	10014.680613
573.401860	9973.990940
573.756743	9904.836392
574.111570	9949.168299
574.466342	9928.204660
574.821059	9961.448549
575.175722	9855.057518
575.530330	9864.585299
575.884882	9856.668167
576.239380	9781.242423
576.593823	9760.157797
576.948211	9771.170198
577.302544	9655.679883
577.656823	9668.358385
578.011047	9677.014047
578.365216	9646.210076
578.719330	9564.739989
579.073389	9573.173839
579.427394	9528.221870
579.781344	9508.775619
580.135239	9442.532337
580.489080	9463.758115
580.842866	9361.616777
581.196597	9373.377789
581.550273	9413.482688
581.903895	9377.415753
582.257463	9444.175753
582.610975	9321.597577
582.964434	9343.967697
583.317837	9267.193445
583.671186	9249.529242
584.024481	9246.864992
584.377721	9171.698867
584.730906	9143.906986
585.084037	9170.582252
585.437113	9104.404505
585.790135	9134.926171
586.143103	9029.601343
586.496016	9000.760902
586.848874	9061.532012
587.201679	9049.894508
587.554428	8934.242877
587.907124	8983.820105
588.259765	8954.588974
588.612352	8957.492679
588.964884	8829.349068
589.317362	8848.439918
589.669786	8851.676339
590.022155	8895.438595
590.374470	8908.041480
590.726731	8846.564609
591.078937	8702.375006
591.431090	8815.208632
591.783188	8688.413530
592.135232	8674.212600
592.487222	8679.490688
592.839157	8727.416938
593.191038	8659.825147
593.542866	8603.759954
593.894639	8506.584152
594.246358	8563.133296
594.598022	8576.116787
594.949633	8471.631312
595.301190	8443.393289
595.652692	8476.611972
596.004141	8587.804703
596.355535	8363.838840
596.706876	8344.173299
597.058162	8279.039071
597.409395	8351.964402
597.760573	8417.224659
598.111698	8323.055905
598.462768	8312.756828
598.813785	8275.621168
599.164748	8244.514728
599.515657	8231.412770
599.866511	8141.833986
600.217312	8270.859798
600.568060	8128.013663
600.918753	8234.245898
601.269392	8208.205818
601.619978	8112.078576
601.970510	8182.909308
602.320988	8177.893360
602.671412	8230.593582
603.021783	8161.393663
603.372100	8140.956826
603.722363	8146.232393
604.072572	8117.321376
604.422728	8129.977192
604.772830	8062.609733
605.122878	8064.784991
605.472872	8065.780619
605.822813	8091.583765
606.172701	8035.153089
606.522534	8108.658153
606.872314	8111.831559
607.222041	8080.576405
607.571714	8138.630333
607.921333	8094.878159
608.270899	8108.166640
608.620411	8190.012294
608.969870	8093.050741
609.319276	8091.858508
609.668627	8101.338397
610.017926	8141.549161
610.367171	8189.377108
610.716362	8163.316863
611.065500	8152.029720
611.414585	8181.810336
611.763616	8171.198707
612.112594	8153.521902
612.461518	8166.049169
612.810389	8228.264569
613.159207	8164.463726
613.507971	8115.972867
613.856682	8230.263387
614.205340	8186.448198
614.553945	8262.781349
614.902496	8166.127307
615.250994	8220.254176
615.599439	8198.030249
615.947830	8212.205973
616.296169	8184.860234
616.644454	8197.705094
616.992686	8194.183848
617.340864	8257.092407
617.688990	8157.199423
618.037063	8251.272395
618.385082	8193.954476
618.733048	8278.749204
619.080961	8221.436326
619.428821	8238.251095
619.776628	8247.796520
620.124382	8193.606636
620.472083	8179.544338
620.819731	8201.324643
621.167326	8099.851257
621.514868	8112.509594
621.862357	7997.321750
622.209793	8014.809512
622.557176	7948.294008
622.904506	7917.842918
623.251783	7849.290787
623.599007	7802.206411
623.946179	7811.852658
624.293297	7768.360104
624.640363	7680.137391
624.987376	7666.831265
625.334336	7615.640868
625.681243	7560.276396
626.028097	7550.824233
626.374899	7530.039556
626.721647	7523.501179
627.068343	7454.021476
627.414987	7420.286075
627.761577	7380.493727
628.108115	7415.373470
628.454600	7308.067469
628.801032	7356.560849
629.147412	7322.449881
629.493739	7307.044115
629.840014	7245.148828
630.186236	7302.035729
630.532405	7185.781680
630.878521	7240.127839
631.224585	7194.593617
631.570597	7115.003880
631.916556	7150.715414
632.262462	7142.959599
632.608316	7105.120698
632.954117	7078.841163
633.299866	7066.999492
633.645562	7061.406332
633.991206	6985.700804
634.336797	6927.674603
634.682336	6881.606019
635.027823	6846.539753
635.373257	6842.590008
635.718639	6775.721623
636.063968	6790.527492
636.409245	6682.319125
636.754470	6682.306522
637.099642	6636.174923
637.444762	6579.030924
637.789829	6588.886379
638.134845	6531.472678
638.479808	6517.294433
638.824719	6520.102356
639.169577	6451.265400
639.514383	6472.904553
639.859137	6398.406381
640.203839	6408.891981
640.548489	6395.764817
