Dividing Wavelength (nm)	Counts (n)	Blue Motor Position (mm): 0.000000	Red Motor Position (mm): 7.000000	
326.493990	2126.257869
326.888308	2126.257869
327.282561	2126.257869
327.676750	2096.991451
328.070874	2094.181007
328.464933	2097.114959
328.858929	2102.561926
329.252859	2110.950406
329.646726	2124.914402
330.040528	2138.638943
330.434265	2153.036478
330.827938	2170.952739
331.221547	2188.269103
331.615091	2210.324151
332.008571	2229.979610
332.401986	2247.666498
332.795338	2266.238109
333.188625	2284.862652
333.581847	2303.706485
333.975006	2322.454536
334.368100	2341.358863
334.761129	2359.275123
335.154095	2374.292721
335.546996	2394.711914
335.939833	2407.997875
336.332606	2421.394742
336.725315	2436.344283
337.117960	2443.699327
337.510540	2453.736264
337.903056	2465.575414
338.295508	2472.335601
338.687896	2478.279122
339.080220	2489.672129
339.472480	2495.126658
339.864676	2498.809221
340.256807	2502.706033
340.648875	2504.485560
341.040879	2510.603000
341.432818	2513.002589
341.824694	2513.448732
342.216506	2511.490243
342.608253	2509.791374
342.999937	2512.788340
343.391557	2512.904287
343.783113	2512.032167
344.174605	2508.349604
344.566033	2507.459841
344.957397	2507.371621
345.348697	2503.162257
345.739934	2502.721156
346.131106	2502.169150
346.522215	2500.389622
346.913260	2499.532626
347.304241	2495.565238
347.695159	2495.981133
348.086012	2491.857470
348.476802	2488.915956
348.867528	2490.297232
349.258191	2489.641882
349.648789	2486.440750
350.039324	2485.271202
350.429796	2486.518888
350.820203	2484.184833
351.210548	2482.415388
351.600828	2482.067549
351.991045	2480.144349
352.381198	2476.615541
352.771288	2478.828607
353.161314	2479.481437
353.551276	2478.193422
353.941175	2478.130408
354.331010	2478.422795
354.720782	2479.148721
355.110490	2478.730305
355.500135	2477.432208
355.889717	2478.140490
356.279235	2478.097640
356.668689	2478.939513
357.058080	2480.328351
357.447408	2478.374904
357.836672	2477.149903
358.225873	2475.962712
358.615010	2476.038329
359.004084	2481.964205
359.393095	2482.206181
359.782043	2482.891778
360.170927	2483.307673
360.559748	2485.593836
360.948505	2483.693321
361.337199	2487.297746
361.725830	2485.467807
362.114398	2485.848414
362.502903	2486.370174
362.891344	2485.823208
363.279722	2487.307828
363.668037	2490.183807
364.056289	2487.232211
364.444478	2489.483086
364.832603	2490.720689
365.220665	2490.294712
365.608665	2490.274547
365.996601	2492.351503
366.384474	2490.461070
366.772284	2495.345948
367.160031	2491.970896
367.547715	2496.792759
367.935336	2498.307626
368.322893	2500.858450
368.710388	2508.152999
369.097820	2512.737929
369.485189	2515.687004
369.872495	2518.346213
370.259738	2526.495238
370.646918	2531.428007
371.034035	2538.382278
371.421090	2546.919473
371.808081	2555.988508
372.195010	2566.731207
372.581875	2579.818042
372.968678	2589.693663
373.355418	2596.776484
373.742096	2613.069493
374.128710	2622.645165
374.515262	2632.271248
374.901751	2643.858340
375.288177	2650.512663
375.674540	2665.830209
376.060841	2673.948988
376.447079	2685.747808
376.833254	2694.138809
377.219367	2698.930426
377.605417	2717.895246
377.991404	2716.337530
378.377329	2722.273488
378.763191	2724.567213
379.148991	2743.630337
379.534727	2747.713671
379.920402	2754.574682
380.306013	2752.263313
380.691563	2766.043307
381.077049	2762.491814
381.462474	2762.794283
381.847835	2767.492638
382.233134	2764.110024
382.618371	2750.319948
383.003545	2766.912906
383.388657	2755.265320
383.773706	2750.846748
384.158693	2744.736870
384.543618	2733.227916
384.928480	2731.350086
385.313280	2730.392267
385.698017	2714.789896
386.082692	2714.197560
386.467305	2696.949252
386.851856	2687.970957
387.236344	2677.782785
387.620770	2670.707526
388.005133	2664.368275
388.389435	2650.731954
388.773674	2640.342136
389.157851	2632.319139
389.541965	2621.906636
389.926018	2608.509770
390.310008	2604.539861
390.693936	2592.952769
391.077802	2585.665781
391.461606	2576.518607
391.845348	2572.473081
392.229027	2562.143757
392.612645	2560.260886
392.996200	2550.382745
393.379694	2551.194371
393.763125	2542.831097
394.146494	2538.959491
394.529801	2536.842206
394.913047	2530.709642
395.296230	2529.252749
395.679351	2525.766791
396.062410	2525.217305
396.445408	2520.980215
396.828343	2520.249248
397.211217	2517.166582
397.594028	2515.109792
397.976778	2510.156858
398.359466	2514.983763
398.742092	2507.618637
399.124656	2515.326561
399.507158	2513.970491
399.889598	2514.116684
400.271977	2513.113495
400.654294	2516.866634
401.036549	2512.027126
401.418742	2512.546365
401.800874	2514.668691
402.182944	2514.333454
402.564952	2512.390089
402.946898	2513.272291
403.328783	2515.598784
403.710606	2511.233144
404.092367	2512.833711
404.474067	2514.378824
404.855705	2514.023423
405.237282	2513.773886
405.618797	2516.851510
406.000250	2514.015861
406.381642	2514.038547
406.762972	2513.499143
407.144240	2515.888650
407.525447	2513.526869
407.906593	2516.105420
408.287677	2512.571571
408.668700	2515.707168
409.049661	2514.797240
409.430560	2515.835718
409.811399	2514.822446
410.192176	2514.900584
410.572891	2515.704648
410.953545	2517.148938
411.334138	2516.826305
411.714669	2517.032992
412.095139	2514.802281
412.475547	2516.997704
412.855894	2516.155831
413.236180	2516.803619
413.616405	2518.497447
413.996568	2516.864113
414.376670	2518.678929
414.756711	2519.041892
415.136691	2517.451408
415.516609	2516.062570
415.896466	2518.759587
416.276262	2519.235976
416.655997	2514.577950
417.035670	2517.247241
417.415283	2514.898063
417.794834	2515.351767
418.174324	2516.118022
418.553753	2516.995183
418.933121	2518.293280
419.312428	2520.241686
419.691674	2516.014679
420.070859	2519.258661
420.449983	2521.491893
420.829045	2521.262520
421.208047	2516.806140
421.586988	2518.600791
421.965867	2521.360822
422.344686	2520.498785
422.723444	2518.686490
423.102141	2521.464166
423.480777	2520.871831
423.859352	2517.567354
424.237866	2519.674557
424.616319	2520.718075
424.994712	2520.765966
425.373044	2521.539783
425.751314	2524.632531
426.129524	2521.401152
426.507673	2523.848632
426.885762	2522.285874
427.263789	2522.439629
427.641756	2523.536080
428.019662	2520.796213
428.397508	2524.395597
428.775292	2523.223529
429.153016	2523.536080
429.530679	2523.039527
429.908282	2522.142201
430.285824	2522.469876
430.663305	2522.258148
431.040726	2522.784948
431.418086	2523.871317
431.795385	2524.372912
432.172624	2522.653878
432.549802	2522.205216
432.926920	2524.531708
433.303977	2523.684794
433.680974	2523.677233
434.057910	2524.899712
434.434786	2521.867458
434.811601	2525.723941
435.188355	2523.624301
435.565050	2522.341327
435.941683	2525.416431
436.318257	2523.205885
436.694770	2520.682787
437.071222	2520.758405
437.447614	2520.690349
437.823946	2520.405524
438.200218	2523.846111
438.576429	2527.929446
438.952580	2523.304187
439.328670	2526.850639
439.704700	2526.243180
440.080670	2524.037675
440.456580	2525.355937
440.832429	2526.502799
441.208218	2524.395597
441.583947	2524.924918
441.959616	2525.426513
442.335224	2526.399456
442.710773	2525.373581
443.086261	2526.364168
443.461689	2524.398118
443.837057	2524.413241
444.212365	2525.809641
444.587612	2526.495238
444.962800	2528.622605
445.337927	2526.001205
445.712995	2525.245032
446.088002	2526.424662
446.462949	2525.943231
446.837837	2527.377440
447.212664	2528.436082
447.587431	2529.918181
447.962139	2528.221833
448.336786	2528.594878
448.711374	2530.555887
449.085901	2527.536236
449.460369	2527.725279
449.834776	2526.270906
450.209124	2525.837367
450.583412	2526.396935
450.957640	2526.717048
451.331808	2529.227543
451.705917	2526.535567
452.079965	2530.838192
452.453954	2528.799045
452.827883	2525.920546
453.201752	2529.555218
453.575562	2528.007584
453.949311	2530.608819
454.323001	2530.659231
454.696632	2526.154960
455.070202	2526.409538
455.443713	2529.424148
455.817164	2527.037162
456.190556	2525.116482
456.563888	2528.035310
456.937160	2522.046419
457.310373	2531.576721
457.683526	2530.863398
458.056619	2529.197296
458.429653	2529.671165
458.802628	2529.598068
459.175542	2528.791483
459.548398	2528.388191
459.921194	2528.216792
460.293930	2530.818027
460.666607	2529.797193
461.039224	2531.793490
461.411782	2530.510517
461.784280	2532.070754
462.156719	2530.472708
462.529099	2532.206865
462.901419	2531.503624
463.273680	2531.990095
463.645882	2531.793490
464.018024	2531.803573
464.390106	2533.252904
464.762130	2534.538399
465.134094	2529.187214
465.505999	2533.636032
465.877845	2534.409849
466.249631	2535.733152
466.621358	2531.259128
466.993026	2538.049562
467.364634	2539.201466
467.736184	2533.167205
468.107674	2530.860877
468.479105	2532.302647
468.850477	2531.362472
469.221790	2533.021011
469.593043	2532.302647
469.964238	2531.531350
470.335373	2532.312729
470.706449	2533.288193
471.077467	2533.575538
471.448425	2533.930940
471.819324	2535.528985
472.190164	2533.862884
472.560945	2531.992616
472.931667	2533.157123
473.302330	2532.277441
473.672934	2531.390198
474.043479	2533.071423
474.413965	2536.338091
474.784393	2529.693850
475.154761	2529.403983
475.525070	2531.677544
475.895321	2532.058151
476.265513	2528.007584
476.635645	2531.523789
477.005719	2532.857174
477.375734	2535.304654
477.745691	2534.208203
478.115588	2533.389016
478.485427	2534.961856
478.855207	2535.516383
479.224928	2533.983872
479.594591	2537.147196
479.964194	2536.186856
480.333739	2537.731970
480.703226	2534.931609
481.072653	2535.975127
481.442022	2535.949922
481.811333	2534.659386
482.180584	2535.997813
482.549777	2534.452699
482.918912	2534.150230
483.287988	2537.396733
483.657005	2533.726773
484.025964	2537.041332
484.394864	2535.574356
484.763706	2535.647452
485.132489	2535.571835
485.501213	2536.998482
485.869879	2536.796836
486.238487	2537.089223
486.607036	2536.784233
486.975527	2534.845909
487.343959	2532.917668
487.712333	2533.716691
488.080648	2535.100487
488.448905	2534.180477
488.817104	2536.544778
489.185244	2536.113759
489.553326	2538.309182
489.921350	2537.026208
490.289315	2537.124511
490.657222	2536.708615
491.025070	2536.809438
491.392861	2539.488812
491.760593	2539.299768
492.128267	2539.937474
492.495883	2537.734490
492.863440	2535.513862
493.230939	2537.361445
493.598380	2535.350024
493.965763	2531.692667
494.333088	2534.661907
494.700354	2531.831299
495.067563	2535.196269
495.434713	2530.016484
495.801805	2535.571835
496.168839	2538.268853
496.535815	2536.751465
496.902733	2536.254912
497.269593	2536.154088
497.636395	2538.745242
498.003139	2535.370189
498.369825	2535.229037
498.736453	2534.205683
499.103023	2538.014274
499.469535	2534.137627
499.835989	2536.814480
500.202385	2538.702392
500.568723	2535.191228
500.935003	2535.559232
501.301226	2534.858512
501.667390	2536.476722
502.033497	2536.688451
502.399546	2537.547968
502.765537	2537.701723
503.131470	2536.053265
503.497345	2536.030580
503.863163	2537.742052
504.228923	2537.064017
504.594625	2537.918492
504.960269	2536.872453
505.325856	2535.823893
505.691385	2539.186342
506.056856	2535.763399
506.422270	2534.961856
506.787625	2538.697351
507.152924	2537.810108
507.518164	2535.314736
507.883347	2534.447658
508.248472	2537.900848
508.613540	2539.319933
508.978550	2537.837834
509.343503	2537.709284
509.708398	2539.955118
510.073236	2537.227854
510.438016	2538.803215
510.802738	2537.711805
511.167403	2536.577545
511.532010	2537.086702
511.896561	2537.762217
512.261053	2539.882022
512.625488	2531.342307
512.989866	2534.225847
513.354186	2535.357586
513.718449	2533.449509
514.082655	2538.004192
514.446803	2539.692978
514.810894	2539.642567
515.174927	2537.202648
515.538904	2537.716846
515.902822	2537.545447
516.266684	2535.120652
516.630488	2537.810107
516.994235	2540.038298
517.357925	2536.053265
517.721558	2538.452855
518.085133	2537.752134
518.448651	2540.141641
518.812112	2539.350180
519.175516	2538.861188
519.538863	2536.514531
519.902152	2538.518390
520.265385	2540.270191
520.628560	2541.999306
520.991678	2541.238092
521.354739	2538.939326
521.717743	2540.343287
522.080690	2538.036959
522.443580	2539.556867
522.806413	2539.030067
523.169189	2539.682896
523.531908	2538.528472
523.894569	2542.173226
524.257174	2538.825900
524.619722	2541.187681
524.982213	2538.334388
525.344647	2536.199459
525.707025	2537.885725
526.069345	2537.815149
526.431608	2539.375386
526.793815	2539.536703
527.155964	2538.634336
527.518057	2538.510828
527.880093	2541.094419
528.242072	2541.026364
528.603995	2540.010571
528.965860	2539.609799
529.327669	2536.088553
529.689421	2537.179963
530.051117	2539.390509
530.412755	2536.978317
530.774337	2540.986034
531.135862	2539.680376
531.497331	2535.826413
531.858743	2535.198790
532.220098	2538.180632
532.581396	2535.748276
532.942638	2540.134079
533.303824	2541.245654
533.664953	2542.440407
534.026025	2539.153575
534.387040	2541.759852
534.747999	2540.633154
535.108902	2539.372865
535.469748	2540.184491
535.830537	2539.496373
536.191270	2540.718853
536.551947	2537.931095
536.912567	2542.367311
537.273131	2540.144162
537.633638	2541.031405
537.994089	2540.512166
538.354483	2538.828421
538.714821	2540.227341
539.075103	2538.672145
539.435328	2539.403112
539.795497	2536.955632
540.155609	2540.436549
540.515665	2540.668442
540.875665	2542.052238
541.235609	2540.615510
541.595496	2541.303627
541.955328	2539.614841
542.315102	2540.827238
542.674821	2542.054759
543.034483	2543.027702
543.394090	2540.335726
543.753640	2542.594162
544.113134	2541.981662
544.472571	2538.553678
544.831953	2544.686241
545.191278	2539.214069
545.550548	2541.376724
545.909761	2540.020653
546.268918	2542.364790
546.628019	2541.061652
546.987064	2539.088040
547.346053	2538.599048
547.704986	2540.166847
548.063863	2539.965201
548.422684	2538.029398
548.781449	2538.664583
549.140158	2540.149203
549.498811	2540.403781
549.857408	2539.035108
550.215949	2538.412525
550.574434	2535.458409
550.932864	2537.731970
551.291237	2536.070909
551.649555	2542.541230
552.007817	2540.401261
552.366022	2543.274718
552.724173	2537.248019
553.082267	2541.321271
553.440305	2540.292876
553.798288	2539.861857
554.156215	2540.882691
554.514086	2539.256919
554.871902	2541.432177
555.229661	2542.626930
555.587365	2542.921838
555.945014	2543.630120
556.302606	2539.904707
556.660143	2543.645243
557.017625	2540.996117
557.375050	2543.725902
557.732421	2537.099305
558.089735	2539.579553
558.446994	2540.277752
558.804197	2545.210521
559.161345	2541.762372
559.518437	2541.704399
559.875474	2542.205994
560.232455	2541.840510
560.589381	2541.023843
560.946251	2544.277908
561.303065	2542.810932
561.659825	2542.785726
562.016528	2541.800181
562.373177	2540.557536
562.729770	2542.286652
563.086307	2541.865716
563.442789	2540.696168
563.799216	2543.055428
564.155587	2541.008720
564.511904	2540.466796
564.868164	2541.757331
565.224370	2540.454193
565.580520	2542.765562
565.936615	2543.156251
566.292654	2543.494008
566.648638	2541.447300
567.004567	2541.003678
567.360441	2540.676003
567.716260	2540.923020
568.072023	2540.733977
568.427732	2536.905220
568.783385	2539.874460
569.138982	2535.486136
569.494525	2540.340767
569.850013	2534.971938
570.205445	2542.117773
570.560823	2542.974770
570.916145	2539.395550
571.271412	2540.860006
571.626625	2544.640871
571.981782	2542.077444
572.336884	2543.718340
572.691931	2541.999306
573.046923	2540.025695
573.401860	2542.274049
573.756743	2540.749100
574.111570	2543.317568
574.466342	2540.708771
574.821059	2541.719522
575.175722	2543.105840
575.530330	2540.403781
575.884882	2541.953936
576.239380	2542.959646
576.593823	2543.186498
576.948211	2538.972093
577.302544	2540.960829
577.656823	2540.703730
578.011047	2542.725232
578.365216	2544.892929
578.719330	2542.543751
579.073389	2542.321940
579.427394	2538.329346
579.781344	2540.756662
580.135239	2543.156251
580.489080	2542.536189
580.842866	2540.771785
581.196597	2543.153731
581.550273	2541.432177
581.903895	2541.568288
582.257463	2540.517207
582.610975	2540.441590
582.964434	2541.028884
583.317837	2541.848072
583.671186	2540.214738
584.024481	2542.324461
584.377721	2542.853782
584.730906	2540.239944
585.084037	2538.525951
585.437113	2540.295396
585.790135	2542.725233
586.143103	2540.847403
586.496016	2543.332692
586.848874	2538.629295
587.201679	2541.139790
587.554428	2538.208359
587.907124	2537.346321
588.259765	2538.258770
588.612352	2541.709440
588.964884	2541.364121
589.317362	2542.410160
589.669786	2538.483102
590.022155	2543.882177
590.374470	2541.394368
590.726731	2539.899666
591.078937	2541.144831
591.431090	2540.575180
591.783188	2540.862526
592.135232	2537.784902
592.487222	2543.115922
592.839157	2541.389327
593.191038	2538.480581
593.542866	2543.317568
593.894639	2543.612476
594.246358	2540.144162
594.598022	2539.065355
594.949633	2539.501415
595.301190	2542.891591
595.652692	2539.408153
596.004141	2542.735315
596.355535	2543.451159
596.706876	2538.956970
597.058162	2537.895807
597.409395	2541.608617
597.760573	2541.041487
598.111698	2541.076775
598.462768	2540.882691
598.813785	2543.917465
599.164748	2542.372352
599.515657	2540.363452
599.866511	2540.381096
600.217312	2538.251208
600.568060	2537.784902
600.918753	2541.699358
601.269392	2540.857485
601.619978	2541.250695
601.970510	2539.491332
602.320988	2538.551157
602.671412	2540.411343
603.021783	2541.613658
603.372100	2540.015612
603.722363	2539.050231
604.072572	2540.721374
604.422728	2538.626774
604.772830	2534.843388
605.122878	2534.775333
605.472872	2539.100643
605.822813	2534.787936
606.172701	2538.457896
606.522534	2538.233564
606.872314	2543.685572
607.222041	2538.457896
607.571714	2538.793132
607.921333	2541.354039
608.270899	2538.888914
608.620411	2541.984183
608.969870	2543.494008
609.319276	2543.168854
609.668627	2545.455017
610.017926	2547.171530
610.367171	2549.308979
610.716362	2543.998124
611.065500	2547.025337
611.414585	2547.199257
611.763616	2544.557692
612.112594	2537.981507
612.461518	2543.083154
612.810389	2539.186343
613.159207	2541.099460
613.507971	2540.146682
613.856682	2543.224307
614.205340	2540.817156
614.553945	2543.010058
614.902496	2538.780530
615.250994	2540.958308
615.599439	2540.991076
615.947830	2539.236754
616.296169	2540.192053
616.644454	2539.453524
616.992686	2538.639377
617.340864	2541.364121
617.688990	2538.248688
618.037063	2540.277752
618.385082	2539.335057
618.733048	2542.430325
619.080961	2540.547454
619.428821	2539.950077
619.776628	2540.681045
620.124382	2543.219266
620.472083	2540.935623
620.819731	2538.727598
621.167326	2539.100643
621.514868	2540.000489
621.862357	2540.751621
622.209793	2540.701209
622.557176	2539.715664
622.904506	2539.390509
623.251783	2535.425642
623.599007	2537.875642
623.946179	2536.753986
624.293297	2539.007382
624.640363	2539.952598
624.987376	2539.206507
625.334336	2540.388658
625.681243	2541.013761
626.028097	2538.591486
626.374899	2540.653318
626.721647	2537.774819
627.068343	2539.889583
627.414987	2541.159954
627.761577	2539.768596
628.108115	2539.912269
628.454600	2540.663401
628.801032	2541.825387
629.147412	2540.512166
629.493739	2538.687268
629.840014	2541.510314
630.186236	2540.754141
630.532405	2539.698020
630.878521	2539.750952
631.224585	2541.356559
631.570597	2539.637526
631.916556	2539.761034
632.262462	2540.454193
632.608316	2537.774819
632.954117	2537.696682
633.299866	2540.522248
633.645562	2539.103163
633.991206	2543.214224
634.336797	2539.282124
634.682336	2539.478729
635.027823	2539.534182
635.373257	2539.377906
635.718639	2537.558050
636.063968	2539.519059
636.409245	2540.887732
636.754470	2537.731970
637.099642	2539.929913
637.444762	2539.791281
637.789829	2538.568801
638.134845	2537.779861
638.479808	2539.602238
638.824719	2538.767927
639.169577	2539.183822
639.514383	2538.110056
639.859137	2539.647608
640.203839	2536.559901
640.548489	2539.816487
640.893086	2535.687782
641.237632	2532.516896
641.582125	2537.583256
641.926566	2534.803059
642.270955	2540.431507
642.615292	2538.296579
642.959576	2539.330015
643.303809	2536.562422
643.647990	2541.190201
643.992118	2538.692309
644.336195	2537.986548
