Dividing Wavelength (nm)	Counts (n)	Blue Motor Position (mm): 0.000000	Red Motor Position (mm): 42.600000	
326.493990	2126.157046
326.888308	2126.157046
327.282561	2126.157046
327.676750	2094.727973
328.070874	2094.007088
328.464933	2096.273086
328.858929	2102.781216
329.252859	2113.392845
329.646726	2124.601850
330.040528	2136.274642
330.434265	2152.824750
330.827938	2167.355876
331.221547	2191.122396
331.615091	2206.883563
332.008571	2227.837119
332.401986	2246.093658
332.795338	2264.357758
333.188625	2284.464400
333.581847	2306.136321
333.975006	2322.678867
334.368100	2343.551765
334.761129	2358.231605
335.154095	2376.820859
335.546996	2395.218550
335.939833	2418.211253
336.332606	2432.570980
336.725315	2445.330140
337.117960	2454.956223
337.510540	2463.049796
337.903056	2473.696713
338.295508	2480.915645
338.687896	2492.427120
339.080220	2500.936588
339.472480	2506.108812
339.864676	2509.279697
340.256807	2516.697755
340.648875	2517.332941
341.040879	2518.930986
341.432818	2521.454084
341.824694	2520.370236
342.216506	2523.452901
342.608253	2524.095648
342.999937	2526.575896
343.391557	2525.784435
343.783113	2522.815195
344.174605	2520.234125
344.566033	2518.817560
344.957397	2517.748836
345.348697	2513.970491
345.739934	2516.055008
346.131106	2515.182888
346.522215	2511.427229
346.913260	2510.855058
347.304241	2511.318844
347.695159	2508.173164
348.086012	2505.798781
348.476802	2502.852226
348.867528	2500.762668
349.258191	2501.917092
349.648789	2499.209993
350.039324	2499.129334
350.429796	2498.075733
350.820203	2498.083295
351.210548	2494.342758
351.600828	2493.132882
351.991045	2492.318735
352.381198	2492.578355
352.771288	2492.018787
353.161314	2490.284630
353.551276	2492.275885
353.941175	2493.609271
354.331010	2493.082470
354.720782	2492.664054
355.110490	2490.861842
355.500135	2492.656492
355.889717	2490.438385
356.279235	2493.079949
356.668689	2493.778149
357.058080	2493.815958
357.447408	2491.933087
357.836672	2488.989053
358.225873	2493.962151
358.615010	2490.960144
359.004084	2495.860146
359.393095	2496.271000
359.782043	2496.180259
360.170927	2495.686226
360.559748	2499.804849
360.948505	2499.262925
361.337199	2501.400374
361.725830	2497.047337
362.114398	2501.970024
362.502903	2501.387771
362.891344	2501.465909
363.279722	2502.842144
363.668037	2501.773419
364.056289	2503.182422
364.444478	2503.888183
364.832603	2504.409943
365.220665	2506.343225
365.608665	2505.478667
365.996601	2506.832217
366.384474	2508.669718
366.772284	2509.173833
367.160031	2511.996879
367.547715	2510.655932
367.935336	2512.077538
368.322893	2515.276150
368.710388	2521.018024
369.097820	2527.574045
369.485189	2529.265352
369.872495	2538.399922
370.259738	2542.445448
370.646918	2553.883827
371.034035	2560.313818
371.421090	2569.564336
371.808081	2579.361818
372.195010	2589.088724
372.581875	2599.468460
372.968678	2613.220728
373.355418	2625.503499
373.742096	2641.690644
374.128710	2656.499034
374.515262	2672.545026
374.901751	2688.238138
375.288177	2698.968234
375.674540	2724.292471
376.060841	2739.549523
376.447079	2762.587596
376.833254	2781.988476
377.219367	2790.145063
377.605417	2829.458502
377.991404	2842.656242
378.377329	2863.582072
378.763191	2877.682179
379.148991	2918.921338
379.534727	2941.039401
379.920402	2971.626602
380.306013	2983.092706
380.691563	3034.527599
381.077049	3055.897050
381.462474	3072.429514
381.847835	3110.061728
382.233134	3133.694657
382.618371	3130.092752
383.003545	3202.188814
383.388657	3209.649722
383.773706	3240.683065
384.158693	3259.791558
384.543618	3282.282666
384.928480	3319.564520
385.313280	3367.722662
385.698017	3361.388453
386.082692	3420.558996
386.467305	3421.050508
386.851856	3453.792803
387.236344	3476.394816
387.620770	3511.004857
388.005133	3534.221892
388.389435	3560.987898
388.773674	3573.792429
389.157851	3618.015951
389.541965	3632.531953
389.926018	3595.524843
390.310008	3668.021676
390.693936	3684.168492
391.077802	3728.752457
391.461606	3718.980180
391.845348	3777.260960
392.229027	3778.720374
392.612645	3790.194040
392.996200	3866.771687
393.379694	3907.002616
393.763125	3971.582317
394.146494	3936.465639
394.529801	4002.827388
394.913047	4050.564595
395.296230	4015.435314
395.679351	4070.373809
396.062410	4095.448508
396.445408	4074.389088
396.828343	4109.435189
397.211217	4132.874034
397.594028	4052.543248
397.976778	4121.339874
398.359466	4145.537413
398.742092	4176.452289
399.124656	4100.353551
399.507158	4178.834234
399.889598	4204.592009
400.271977	4264.238942
400.654294	4238.259355
401.036549	4241.175663
401.418742	4213.245150
401.800874	4320.112570
402.182944	4339.740303
402.564952	4402.106938
402.946898	4388.301738
403.328783	4382.464082
403.710606	4300.331083
404.092367	4493.729909
404.474067	4456.473261
404.855705	4463.465342
405.237282	4393.826843
405.618797	4501.634438
406.000250	4538.069377
406.381642	4615.965287
406.762972	4576.177980
407.144240	4588.370011
407.525447	4589.471503
407.906593	4651.185308
408.287677	4693.909087
408.668700	4619.095843
409.049661	4671.778422
409.430560	4716.644691
409.811399	4639.245335
410.192176	4798.134943
410.572891	4742.732662
410.953545	4844.140513
411.334138	4722.973859
411.714669	4792.458603
412.095139	4686.095298
412.475547	4829.574099
412.855894	4811.781346
413.236180	4818.801153
413.616405	4770.970685
413.996568	4857.058469
414.376670	4801.809944
414.756711	4755.824538
415.136691	4783.782778
415.516609	4865.701528
415.896466	4901.642434
416.276262	4936.968320
416.655997	4915.732459
417.035670	5096.719964
417.415283	5187.407802
417.794834	5132.691118
418.174324	5088.807873
418.553753	4996.085931
418.933121	5180.319939
419.312428	5246.346452
419.691674	5188.201783
420.070859	5310.089322
420.449983	5227.742073
420.829045	5339.272561
421.208047	5248.914920
421.586988	5317.855219
421.965867	5328.499615
422.344686	5459.083144
422.723444	5316.665507
423.102141	5139.090863
423.480777	5433.000214
423.859352	5203.902457
424.237866	5459.698165
424.616319	5453.928564
424.994712	5565.138939
425.373044	5439.702428
425.751314	5583.168625
426.129524	5388.633019
426.507673	5579.546556
426.885762	5664.185009
427.263789	5593.064410
427.641756	5477.785825
428.019662	5600.941213
428.397508	5605.994970
428.775292	5556.352207
429.153016	5652.885262
429.530679	5572.546914
429.908282	5661.092261
430.285824	5533.593918
430.663305	5810.673378
431.040726	5544.568510
431.418086	5540.069281
431.795385	5645.598275
432.172624	5662.463455
432.549802	5652.373585
432.926920	5664.706768
433.303977	5680.319222
433.680974	5720.976128
434.057910	5727.643053
434.434786	5737.115382
434.811601	5708.534560
435.188355	5943.827895
435.565050	5813.698070
435.941683	5796.369104
436.318257	6014.744327
436.694770	5995.333364
437.071222	6029.925762
437.447614	5960.443538
437.823946	5874.345672
438.200218	6026.507859
438.576429	5893.842334
438.952580	5991.670966
439.328670	6035.665115
439.704700	5946.512309
440.080670	5933.995124
440.456580	6201.982863
440.832429	6085.638073
441.208218	5927.698723
441.583947	6085.655717
441.959616	6093.477068
442.335224	6017.864801
442.710773	6152.458567
443.086261	6178.917063
443.461689	5977.497762
443.837057	6126.511749
444.212365	6278.391632
444.587612	6170.788203
444.962800	6322.219423
445.337927	6305.833153
445.712995	5915.478966
446.088002	6494.100084
446.462949	6325.367624
446.837837	6252.858187
447.212664	6428.592811
447.587431	6569.215797
447.962139	7114.615711
448.336786	8039.561578
448.711374	7778.671784
449.085901	6857.748758
449.460369	6776.102230
449.834776	6705.296704
450.209124	7095.807166
450.583412	7249.330465
450.957640	7394.427476
451.331808	7163.043556
451.705917	6709.082611
452.079965	6640.454863
452.453954	6848.999836
452.827883	6727.094653
453.201752	6821.699467
453.575562	6614.742458
453.949311	6825.147616
454.323001	6708.628907
454.696632	6782.983405
455.070202	6920.042296
455.443713	7082.057419
455.817164	7179.533170
456.190556	7261.608196
456.563888	7341.369332
456.937160	7377.695886
457.310373	7039.235338
457.683526	7060.932464
458.056619	6950.352234
458.429653	6938.271108
458.802628	6872.176540
459.175542	6984.190979
459.548398	7336.388672
459.921194	7501.824218
460.293930	7499.938826
460.666607	8033.108901
461.039224	8340.014347
461.411782	8468.946898
461.784280	8487.069846
462.156719	8376.933237
462.529099	8252.598219
462.901419	7846.215684
463.273680	7734.496153
463.645882	7749.478462
464.018024	7612.850590
464.390106	7778.649099
464.762130	8169.406577
465.134094	8633.076785
465.505999	9662.613991
465.877845	10880.592048
466.249631	11530.883250
466.621358	11147.649693
466.993026	10519.456389
467.364634	10263.706052
467.736184	9898.998736
468.107674	9569.856760
468.479105	9600.078477
468.850477	9363.376139
469.221790	9136.700657
469.593043	8810.230493
469.964238	8670.986262
470.335373	8680.385493
470.706449	8737.002692
471.077467	8725.019869
471.448425	10030.880361
471.819324	11108.326173
472.190164	11134.819957
472.560945	9886.481551
472.931667	9090.642155
473.302330	8957.311197
473.672934	8602.608051
474.043479	8952.320455
474.413965	8900.167198
474.784393	8781.662274
475.154761	8936.178680
475.525070	9023.607411
475.895321	8850.151390
476.265513	9029.440026
476.635645	9196.208957
477.005719	9196.501344
477.375734	9310.224734
477.745691	9541.845588
478.115588	9684.517804
478.485427	9928.003014
478.855207	10461.866248
479.224928	11276.831781
479.594591	11908.400138
479.964194	11714.053575
480.333739	11656.914617
480.703226	11577.075343
481.072653	11665.807212
481.442022	11901.385372
481.811333	12083.688619
482.180584	11898.022923
482.549777	11614.251332
482.918912	11429.649319
483.287988	11451.611106
483.657005	11468.138529
484.025964	11141.222222
484.394864	11277.121648
484.763706	11253.864284
485.132489	11006.530153
485.501213	10964.819646
485.869879	11040.535257
486.238487	10884.715712
486.607036	11002.187199
486.975527	10773.076839
487.343959	10962.956940
487.712333	11016.332677
488.080648	10939.147570
488.448905	10995.311065
488.817104	10923.676269
489.185244	11188.631754
489.553326	11348.791732
489.921350	11886.645039
490.289315	12943.777521
490.657222	13289.222588
491.025070	13203.825442
491.392861	13074.623189
491.760593	12695.001620
492.128267	12343.040861
492.495883	12016.941222
492.863440	11674.737616
493.230939	11342.911226
493.598380	11278.681885
493.965763	11144.178859
494.333088	11039.300174
494.700354	10967.274688
495.067563	11026.218380
495.434713	10852.482574
495.801805	10984.704478
496.168839	10911.748899
496.535815	10846.637356
496.902733	10843.113590
497.269593	10775.993147
497.636395	10874.978723
498.003139	10863.396672
498.369825	10730.118647
498.736453	10884.829138
499.103023	10816.201390
499.469535	10846.206338
499.835989	10833.495068
500.202385	10791.363625
500.568723	10649.581173
500.935003	10866.978412
501.301226	10677.536892
501.667390	10926.274984
502.033497	11027.360201
502.399546	10887.387523
502.765537	10798.035592
503.131470	10871.462518
503.497345	11048.109590
503.863163	10654.702985
504.228923	10964.514657
504.594625	11034.937055
504.960269	10777.044227
505.325856	10998.802064
505.691385	10788.321288
506.056856	10947.810793
506.422270	10977.561163
506.787625	10863.242917
507.152924	10976.502520
507.518164	10962.714965
507.883347	10875.961748
508.248472	10802.315532
508.613540	11033.865810
508.978550	10919.426577
509.343503	10888.874664
509.708398	11007.177942
510.073236	11115.741710
510.438016	11128.127825
510.802738	11077.640669
511.167403	11130.252672
511.532010	11024.700992
511.896561	11261.269739
512.261053	11331.866058
512.625488	11195.268433
512.989866	11179.139261
513.354186	11166.062508
513.718449	11064.831097
514.082655	11259.424677
514.446803	11159.161168
514.810894	11278.250866
515.174927	11152.179170
515.538904	11176.298571
515.902822	11326.338433
516.266684	11212.589837
516.630488	11158.709985
516.994235	11209.711338
517.357925	11272.319949
517.721558	11364.222704
518.085133	11379.898172
518.448651	11382.880014
518.812112	11267.692169
519.175516	11287.861826
519.538863	11401.423899
519.902152	11319.074130
520.265385	11478.835857
520.628560	11397.932900
520.991678	11365.785462
521.354739	11433.704927
521.717743	11366.559279
522.080690	11338.059115
522.443580	11477.361320
522.806413	11427.718557
523.169189	11456.395161
523.531908	11517.647701
523.894569	11340.872079
524.257174	11346.233346
524.619722	11469.139198
524.982213	11408.423541
525.344647	11453.226796
525.707025	11413.394118
526.069345	11503.008190
526.431608	11416.799418
526.793815	11535.528673
527.155964	11322.209728
527.518057	11374.388191
527.880093	11324.037146
528.242072	11393.370655
528.603995	11297.939092
528.965860	11219.415560
529.327669	11269.627972
529.689421	11225.013761
530.051117	11189.219048
530.412755	11291.645212
530.774337	11182.337873
531.135862	11168.877992
531.497331	11186.484222
531.858743	11038.758250
532.220098	11203.140194
532.581396	11070.275544
532.942638	11061.466127
533.303824	11019.513645
533.664953	11036.930832
534.026025	10946.495052
534.387040	11047.174456
534.747999	11048.608664
535.108902	11106.783580
535.469748	10865.748370
535.830537	10977.409928
536.191270	10952.098295
536.551947	10965.527928
536.912567	10966.589091
537.273131	10891.077648
537.633638	10871.157528
537.994089	10863.449604
538.354483	10809.511779
538.714821	10946.863056
539.075103	10966.127826
539.435328	10924.470251
539.795497	10752.037584
540.155609	10912.119424
540.515665	10999.611170
540.875665	10737.927394
541.235609	10805.554473
541.595496	10796.455190
541.955328	10954.434869
542.315102	10836.529843
542.674821	10785.737697
543.034483	10790.468820
543.394090	10795.363780
543.753640	10718.201359
544.113134	10940.964906
544.472571	10800.339399
544.831953	10940.929618
545.191278	10744.929557
545.550548	10774.316963
545.909761	10909.634135
546.268918	10884.244364
546.628019	10965.162445
546.987064	10832.496920
547.346053	10757.010682
547.704986	10854.073058
548.063863	10841.341624
548.422684	10829.419295
548.781449	10754.837945
549.140158	10854.965342
549.498811	10725.480785
549.857408	10583.756307
550.215949	10808.987499
550.574434	10665.831332
550.932864	10760.718451
551.291237	10820.937554
551.649555	10767.975192
552.007817	10784.386668
552.366022	10740.258928
552.724173	10742.371171
553.082267	10721.475588
553.440305	10859.290652
553.798288	10657.311782
554.156215	10807.510441
554.514086	10788.964036
554.871902	10640.461726
555.229661	10682.073930
555.587365	10658.307410
555.945014	10545.642663
556.302606	10678.935812
556.660143	10559.629344
557.017625	10722.945085
557.375050	10621.121339
557.732421	10753.244940
558.089735	10667.759574
558.446994	10669.140850
558.804197	10704.423886
559.161345	10708.028311
559.518437	10559.014323
559.875474	10645.318877
560.232455	10675.964052
560.589381	10623.334405
560.946251	10617.579928
561.303065	10728.109747
561.659825	10660.180199
562.016528	10595.081259
562.373177	10470.786569
562.729770	10586.067676
563.086307	10499.379994
563.442789	10592.669067
563.799216	10472.392177
564.155587	10516.938333
564.511904	10473.332352
564.868164	10462.244334
565.224370	10483.086985
565.580520	10402.168904
565.936615	10407.653679
566.292654	10280.820769
566.648638	10411.275748
567.004567	10363.009221
567.360441	10346.380975
567.716260	10263.413665
568.072023	10358.303304
568.427732	10311.957456
568.783385	10217.398013
569.138982	10288.390062
569.494525	10299.934304
569.850013	10178.528196
570.205445	10263.554817
570.560823	10158.880299
570.916145	10077.039687
571.271412	10148.238423
571.626625	10090.078631
571.981782	10067.053161
572.336884	10038.507627
572.691931	10049.998937
573.046923	9999.194189
573.401860	9953.387744
573.756743	9885.647240
574.111570	9929.011245
574.466342	9914.596066
574.821059	9942.723183
575.175722	9832.916770
575.530330	9841.884983
575.884882	9834.159415
576.239380	9756.308876
576.593823	9740.628367
576.948211	9751.353422
577.302544	9637.778746
577.656823	9654.144852
578.011047	9656.549482
578.365216	9622.093196
578.719330	9549.886229
579.073389	9555.779338
579.427394	9504.904013
579.781344	9484.356270
580.135239	9431.277961
580.489080	9440.092419
580.842866	9345.301082
581.196597	9348.613120
581.550273	9388.569306
581.903895	9356.749543
582.257463	9418.831352
582.610975	9299.643352
582.964434	9328.544287
583.317837	9245.377851
583.671186	9233.616839
584.024481	9225.682063
584.377721	9146.866143
584.730906	9119.018810
585.084037	9150.120208
585.437113	9088.350950
585.790135	9114.743911
586.143103	9010.560905
586.496016	8984.074683
586.848874	9040.439824
587.201679	9029.147639
587.554428	8913.097757
587.907124	8961.936456
588.259765	8929.867156
588.612352	8933.055685
588.964884	8809.265112
589.317362	8824.491917
589.669786	8820.280033
590.022155	8869.587558
590.374470	8882.976863
590.726731	8823.072832
591.078937	8676.186212
591.431090	8788.669477
591.783188	8663.255652
592.135232	8657.231473
592.487222	8656.006473
592.839157	8704.827527
593.191038	8639.421077
593.542866	8588.407120
593.894639	8481.287642
594.246358	8535.364100
594.598022	8545.736274
594.949633	8445.934030
595.301190	8424.017614
595.652692	8448.583157
596.004141	8557.898057
596.355535	8335.260539
596.706876	8315.816808
597.058162	8246.405161
597.409395	8323.933066
597.760573	8386.670226
598.111698	8296.879714
598.462768	8279.974205
598.813785	8246.014472
599.164748	8214.461890
599.515657	8200.946556
599.866511	8116.323227
600.217312	8240.834686
600.568060	8095.752799
600.918753	8201.538892
601.269392	8175.382865
601.619978	8080.208401
601.970510	8147.822877
602.320988	8143.764748
602.671412	8193.962038
603.021783	8133.541288
603.372100	8103.710260
603.722363	8106.694623
604.072572	8082.741581
604.422728	8093.060823
604.772830	8023.626490
605.122878	8033.134107
605.472872	8018.434102
605.822813	8051.425933
606.172701	7992.386460
606.522534	8070.491577
606.872314	8069.460661
607.222041	8031.548664
607.571714	8088.876665
607.921333	8046.243627
608.270899	8050.899133
608.620411	8140.717371
608.969870	8046.349491
609.319276	8039.518728
609.668627	8057.979433
610.017926	8089.539577
610.367171	8130.171277
610.716362	8106.866023
611.065500	8095.551153
611.414585	8129.646997
611.763616	8114.765511
612.112594	8094.396729
612.461518	8104.486598
612.810389	8161.302922
613.159207	8102.719674
613.507971	8042.886219
613.856682	8159.898961
614.205340	8118.105275
614.553945	8190.642438
614.902496	8089.653003
615.250994	8145.894636
615.599439	8119.693239
615.947830	8129.830999
616.296169	8102.830579
616.644454	8117.588557
616.992686	8111.839121
617.340864	8160.778643
617.688990	8065.762975
618.037063	8144.838514
618.385082	8096.624919
618.733048	8181.729678
619.080961	8111.418185
619.428821	8138.625292
619.776628	8125.367057
620.124382	8081.877023
620.472083	8060.197541
620.819731	8089.716017
621.167326	7972.975497
621.514868	7990.256572
621.862357	7874.806588
622.209793	7884.576344
622.557176	7816.246024
622.904506	7786.493134
623.251783	7720.718679
623.599007	7674.813932
623.946179	7674.735794
624.293297	7627.132179
624.640363	7545.200826
624.987376	7527.234153
625.334336	7475.005279
625.681243	7415.678460
626.028097	7401.653970
626.374899	7378.353757
626.721647	7365.909669
627.068343	7300.374669
627.414987	7266.099864
627.761577	7213.775207
628.108115	7246.676298
628.454600	7138.601521
628.801032	7182.905702
629.147412	7145.991853
629.493739	7126.144830
629.840014	7056.569345
630.186236	7103.701613
630.532405	6992.551732
630.878521	7034.864657
631.224585	6987.147616
631.570597	6908.074597
631.916556	6929.824655
632.262462	6919.765033
632.608316	6885.487707
632.954117	6860.138265
633.299866	6837.271591
633.645562	6825.061917
633.991206	6745.434371
634.336797	6686.568818
634.682336	6640.633824
635.027823	6606.585871
635.373257	6594.547595
635.718639	6523.409353
636.063968	6533.680704
636.409245	6425.210196
636.754470	6420.940339
637.099642	6375.597681
637.444762	6317.871428
637.789829	6320.886038
638.134845	6263.782368
638.479808	6246.143371
638.824719	6243.012814
639.169577	6173.394479
639.514383	6182.408063
639.859137	6112.779646
640.203839	6117.548577
640.548489	6091.662252
