Dividing Wavelength (nm)	Counts (n)	Blue Motor Position (mm): 0.000000	Red Motor Position (mm): 8.700000	
326.493990	2127.258538
326.888308	2127.258538
327.282561	2127.258538
327.676750	2095.874835
328.070874	2092.928281
328.464933	2096.099166
328.858929	2102.251895
329.252859	2111.038626
329.646726	2120.369802
330.040528	2137.045938
330.434265	2154.226191
330.827938	2172.258398
331.221547	2190.182221
331.615091	2207.410364
332.008571	2226.854094
332.401986	2248.752867
332.795338	2267.142996
333.188625	2289.871038
333.581847	2305.244037
333.975006	2325.247335
334.368100	2342.336847
334.761129	2358.193796
335.154095	2376.594008
335.546996	2393.801986
335.939833	2406.470406
336.332606	2421.707293
336.725315	2435.716660
337.117960	2443.255705
337.510540	2448.992538
337.903056	2464.794035
338.295508	2468.872329
338.687896	2480.116622
339.080220	2487.854793
339.472480	2495.638335
339.864676	2496.669251
340.256807	2502.418687
340.648875	2505.418173
341.040879	2508.606703
341.432818	2508.518483
341.824694	2511.212980
342.216506	2512.742970
342.608253	2514.285563
342.999937	2515.452590
343.391557	2511.071828
343.783113	2508.677279
344.174605	2507.953874
344.566033	2507.346415
344.957397	2506.537310
345.348697	2502.975734
345.739934	2505.448420
346.131106	2501.191166
346.522215	2500.190497
346.913260	2496.250835
347.304241	2498.930208
347.695159	2493.538694
348.086012	2495.469456
348.476802	2493.649600
348.867528	2490.904692
349.258191	2490.123313
349.648789	2488.222798
350.039324	2483.993270
350.429796	2487.146511
350.820203	2483.521922
351.210548	2483.776500
351.600828	2483.342961
351.991045	2482.599391
352.381198	2483.622745
352.771288	2480.855151
353.161314	2479.637713
353.551276	2482.795996
353.941175	2481.994452
354.331010	2480.754328
354.720782	2480.129225
355.110490	2479.751139
355.500135	2480.214925
355.889717	2481.036633
356.279235	2477.911118
356.668689	2480.928248
357.058080	2481.686942
357.447408	2477.452372
357.836672	2476.484471
358.225873	2478.742908
358.615010	2478.347177
359.004084	2480.245172
359.393095	2485.341778
359.782043	2483.176603
360.170927	2483.733650
360.559748	2485.046871
360.948505	2484.963692
361.337199	2487.544763
361.725830	2483.345481
362.114398	2487.179279
362.502903	2490.234218
362.891344	2488.613487
363.279722	2485.959320
363.668037	2488.621049
364.056289	2488.106851
364.444478	2487.708600
364.832603	2488.530308
365.220665	2492.207830
365.608665	2489.190699
365.996601	2491.227325
366.384474	2490.327479
366.772284	2495.119096
367.160031	2495.071205
367.547715	2496.707060
367.935336	2500.498007
368.322893	2503.058913
368.710388	2504.636795
369.097820	2514.126767
369.485189	2514.121726
369.872495	2520.758405
370.259738	2525.403828
370.646918	2534.114942
371.034035	2538.384799
371.421090	2550.208825
371.808081	2561.616957
372.195010	2570.454099
372.581875	2582.051274
372.968678	2597.192379
373.355418	2604.073554
373.742096	2624.734723
374.128710	2638.751652
374.515262	2653.244969
374.901751	2667.602175
375.288177	2678.445697
375.674540	2700.437731
376.060841	2715.914073
376.447079	2734.483163
376.833254	2752.079311
377.219367	2760.611463
377.605417	2795.266876
377.991404	2798.735189
378.377329	2814.743373
378.763191	2823.610763
379.148991	2852.864579
379.534727	2864.134078
379.920402	2882.050339
380.306013	2884.817933
380.691563	2917.449321
381.077049	2926.014242
381.462474	2931.037752
381.847835	2948.016358
382.233134	2952.613890
382.618371	2939.910182
383.003545	2976.105667
383.388657	2967.669296
383.773706	2974.769761
384.158693	2966.575366
384.543618	2967.583596
384.928480	2975.692292
385.313280	2982.805360
385.698017	2960.939356
386.082692	2970.961169
386.467305	2954.499282
386.851856	2948.384362
387.236344	2938.768361
387.620770	2928.192020
388.005133	2916.814136
388.389435	2910.311048
388.773674	2891.169786
389.157851	2883.358518
389.541965	2866.667258
389.926018	2836.886642
390.310008	2832.279027
390.693936	2815.547437
391.077802	2806.979997
391.461606	2780.725667
391.845348	2774.013371
392.229027	2754.899836
392.612645	2737.767475
392.996200	2734.987278
393.379694	2722.747357
393.763125	2713.312837
394.146494	2692.187882
394.529801	2682.657581
394.913047	2669.341373
395.296230	2650.248003
395.679351	2639.165026
396.062410	2630.043058
396.445408	2614.561675
396.828343	2603.574480
397.211217	2590.835484
397.594028	2577.756211
397.976778	2569.907134
398.359466	2561.218705
398.742092	2552.983981
399.124656	2550.488609
399.507158	2546.611962
399.889598	2543.904862
400.271977	2537.621064
400.654294	2536.506969
401.036549	2531.246525
401.418742	2527.495907
401.800874	2525.320649
402.182944	2522.351409
402.564952	2524.579599
402.946898	2522.747140
403.328783	2522.394259
403.710606	2517.897550
404.092367	2520.155987
404.474067	2521.113806
404.855705	2518.525173
405.237282	2518.368898
405.618797	2517.453928
406.000250	2516.352436
406.381642	2515.014010
406.762972	2517.108609
407.144240	2519.296470
407.525447	2516.574247
407.906593	2517.166582
408.287677	2517.980729
408.668700	2515.971829
409.049661	2516.077693
409.430560	2517.642972
409.811399	2517.277488
410.192176	2517.587519
410.572891	2517.897550
410.953545	2516.410409
411.334138	2516.768331
411.714669	2514.212466
412.095139	2516.859072
412.475547	2518.358815
412.855894	2518.620955
413.236180	2517.907632
413.616405	2515.538290
413.996568	2520.718075
414.376670	2518.328568
414.756711	2518.386542
415.136691	2520.256810
415.516609	2517.844618
415.896466	2519.767818
416.276262	2520.539114
416.655997	2514.925790
417.035670	2516.975019
417.415283	2517.905112
417.794834	2516.544000
418.174324	2519.109947
418.553753	2521.411234
418.933121	2519.520801
419.312428	2519.583816
419.691674	2518.769669
420.070859	2519.407375
420.449983	2519.558610
420.829045	2520.791172
421.208047	2522.132119
421.586988	2522.180010
421.965867	2523.049609
422.344686	2523.208405
422.723444	2521.128929
423.102141	2520.476100
423.480777	2521.829650
423.859352	2523.117665
424.237866	2522.573220
424.616319	2521.156656
424.994712	2523.248735
425.373044	2522.830319
425.751314	2522.943745
426.129524	2522.321162
426.507673	2524.012469
426.885762	2521.829650
427.263789	2523.140350
427.641756	2522.961389
428.019662	2524.014990
428.397508	2523.619259
428.775292	2524.771163
429.153016	2524.332583
429.530679	2523.427696
429.908282	2523.914167
430.285824	2523.984743
430.663305	2522.716893
431.040726	2524.002387
431.418086	2523.644465
431.795385	2523.180679
432.172624	2522.979033
432.549802	2524.120854
432.926920	2524.990453
433.303977	2527.271575
433.680974	2524.665299
434.057910	2524.743437
434.434786	2526.459950
434.811601	2527.803417
435.188355	2525.008097
435.565050	2525.227388
435.941683	2527.269055
436.318257	2525.479445
436.694770	2521.015503
437.071222	2522.684125
437.447614	2520.803775
437.823946	2526.727131
438.200218	2523.682274
438.576429	2526.197810
438.952580	2526.338962
439.328670	2526.729651
439.704700	2527.193438
440.080670	2528.657893
440.456580	2527.372398
440.832429	2524.899713
441.208218	2526.636390
441.583947	2526.996832
441.959616	2526.656555
442.335224	2526.676719
442.710773	2529.051103
443.086261	2529.053623
443.461689	2527.566483
443.837057	2526.643952
444.212365	2528.335259
444.587612	2526.341482
444.962800	2527.112779
445.337927	2529.860208
445.712995	2528.675537
446.088002	2529.998840
446.462949	2528.869621
446.837837	2528.214271
447.212664	2528.264683
447.587431	2528.710825
447.962139	2529.734179
448.336786	2531.420445
448.711374	2529.547656
449.085901	2530.699560
449.460369	2527.634538
449.834776	2530.465146
450.209124	2526.517923
450.583412	2528.879703
450.957640	2529.013294
451.331808	2530.787780
451.705917	2530.248377
452.079965	2530.097142
452.453954	2529.618233
452.827883	2531.763243
453.201752	2527.594209
453.575562	2532.405991
453.949311	2530.608819
454.323001	2532.098480
454.696632	2531.049920
455.070202	2533.817514
455.443713	2532.025383
455.817164	2529.537574
456.190556	2527.248890
456.563888	2528.567152
456.937160	2526.464991
457.310373	2530.102183
457.683526	2530.356762
458.056619	2533.426824
458.429653	2530.611340
458.802628	2531.425486
459.175542	2529.378778
459.548398	2533.668800
459.921194	2532.612678
460.293930	2535.765920
460.666607	2533.139478
461.039224	2535.990251
461.411782	2532.864736
461.784280	2534.490508
462.156719	2534.868594
462.529099	2533.459592
462.901419	2532.106042
463.273680	2532.637884
463.645882	2534.200641
464.018024	2533.930940
464.390106	2533.144520
464.762130	2533.235260
465.134094	2536.665766
465.505999	2535.438245
465.877845	2536.416228
466.249631	2538.780530
466.621358	2539.975283
466.993026	2538.725077
467.364634	2539.405633
467.736184	2534.387164
468.107674	2538.530993
468.479105	2537.575694
468.850477	2535.145858
469.221790	2538.513348
469.593043	2533.767102
469.964238	2535.624767
470.335373	2533.515044
470.706449	2536.320447
471.077467	2535.211393
471.448425	2537.734490
471.819324	2539.047711
472.190164	2537.908410
472.560945	2536.675848
472.931667	2533.746937
473.302330	2535.249201
473.672934	2537.031249
474.043479	2535.589479
474.413965	2535.884387
474.784393	2529.474560
475.154761	2531.823737
475.525070	2533.426824
475.895321	2533.444468
476.265513	2531.110414
476.635645	2534.984541
477.005719	2531.790970
477.375734	2535.067720
477.745691	2538.394881
478.115588	2537.227854
478.485427	2535.344983
478.855207	2537.810107
479.224928	2538.261291
479.594591	2538.296579
479.964194	2540.439069
480.333739	2537.721887
480.703226	2538.397402
481.072653	2539.261960
481.442022	2539.181301
481.811333	2538.435211
482.180584	2540.033256
482.549777	2541.709440
482.918912	2536.829603
483.287988	2539.637526
483.657005	2532.990764
484.025964	2538.026877
484.394864	2537.467309
484.763706	2539.390509
485.132489	2537.888245
485.501213	2537.353883
485.869879	2537.159799
486.238487	2536.514531
486.607036	2538.946888
486.975527	2538.740200
487.343959	2540.917979
487.712333	2538.132741
488.080648	2537.053934
488.448905	2536.481763
488.817104	2540.766744
489.185244	2536.993441
489.553326	2541.051569
489.921350	2539.635005
490.289315	2541.401930
490.657222	2540.678524
491.025070	2539.377906
491.392861	2541.162475
491.760593	2543.078113
492.128267	2540.754141
492.495883	2540.023174
492.863440	2540.411343
493.230939	2541.288504
493.598380	2542.488298
493.965763	2537.033770
494.333088	2534.775333
494.700354	2537.888245
495.067563	2539.272042
495.434713	2537.870601
495.801805	2540.391178
496.168839	2539.796322
496.535815	2540.650798
496.902733	2539.685417
497.269593	2539.682896
497.636395	2538.152906
498.003139	2539.403112
498.369825	2538.510828
498.736453	2539.309851
499.103023	2540.121477
499.469535	2542.458051
499.835989	2541.507794
500.202385	2537.555529
500.568723	2537.061496
500.935003	2541.669111
501.301226	2541.437218
501.667390	2537.429500
502.033497	2539.077958
502.399546	2541.669111
502.765537	2539.786240
503.131470	2543.090716
503.497345	2540.459234
503.863163	2542.417722
504.228923	2540.242464
504.594625	2538.959491
504.960269	2539.082999
505.325856	2540.633154
505.691385	2538.132741
506.056856	2539.758513
506.422270	2541.389327
506.787625	2541.459903
507.152924	2540.441590
507.518164	2538.155427
507.883347	2537.726928
508.248472	2539.163657
508.613540	2539.715664
508.978550	2543.383103
509.343503	2540.469316
509.708398	2542.455531
510.073236	2540.333205
510.438016	2542.732794
510.802738	2540.058462
511.167403	2543.383103
511.532010	2540.363452
511.896561	2542.107691
512.261053	2540.615510
512.625488	2538.031918
512.989866	2535.365148
513.354186	2538.611651
513.718449	2538.220962
514.082655	2538.977135
514.446803	2541.008720
514.810894	2542.369831
515.174927	2542.246323
515.538904	2542.498381
515.902822	2539.841692
516.266684	2541.238092
516.630488	2541.182639
516.994235	2542.652136
517.357925	2542.354708
517.721558	2540.144162
518.085133	2544.461910
518.448651	2539.929913
518.812112	2542.301776
519.175516	2544.154400
519.538863	2541.689275
519.902152	2540.587783
520.265385	2542.727753
520.628560	2542.790767
520.991678	2542.886549
521.354739	2547.070707
521.717743	2544.560212
522.080690	2542.095088
522.443580	2543.002496
522.806413	2543.060469
523.169189	2542.563916
523.531908	2541.611137
523.894569	2544.151879
524.257174	2542.384955
524.619722	2541.774975
524.982213	2541.152392
525.344647	2540.587783
525.707025	2544.184647
526.069345	2543.529297
526.431608	2542.395037
526.793815	2543.584749
527.155964	2543.499050
527.518057	2540.292876
527.880093	2544.562733
528.242072	2542.712630
528.603995	2544.620706
528.965860	2540.822197
529.327669	2546.758156
529.689421	2541.926210
530.051117	2544.320758
530.412755	2541.890922
530.774337	2545.966694
531.135862	2544.547610
531.497331	2542.773123
531.858743	2539.524100
532.220098	2541.031405
532.581396	2541.802701
532.942638	2538.639377
533.303824	2542.397557
533.664953	2541.679193
534.026025	2543.804039
534.387040	2544.968546
534.747999	2541.044008
535.108902	2543.378062
535.469748	2542.626930
535.830537	2543.070552
536.191270	2543.458720
536.551947	2546.037271
536.912567	2542.778165
537.273131	2544.101468
537.633638	2545.427291
537.994089	2543.231868
538.354483	2543.607434
538.714821	2543.068031
539.075103	2544.754297
539.435328	2544.285470
539.795497	2541.467465
540.155609	2544.610624
540.515665	2542.856303
540.875665	2543.143648
541.235609	2543.821683
541.595496	2545.941489
541.955328	2544.061138
542.315102	2544.209852
542.674821	2543.040305
543.034483	2547.937786
543.394090	2544.822353
543.753640	2546.362425
544.113134	2547.189174
544.472571	2541.177598
544.831953	2544.784544
545.191278	2542.715150
545.550548	2543.236910
545.909761	2543.887218
546.268918	2541.079296
546.628019	2542.248843
546.987064	2542.904193
547.346053	2545.613814
547.704986	2545.260933
548.063863	2543.884698
548.422684	2544.877805
548.781449	2542.029553
549.140158	2545.160110
549.498811	2547.063145
549.857408	2545.011396
550.215949	2542.213555
550.574434	2541.616179
550.932864	2546.095244
551.291237	2541.016281
551.649555	2541.200283
552.007817	2543.335212
552.366022	2544.648433
552.724173	2542.702547
553.082267	2544.857641
553.440305	2542.906714
553.798288	2543.867054
554.156215	2544.444266
554.514086	2547.103475
554.871902	2544.028371
555.229661	2543.899821
555.587365	2540.834800
555.945014	2543.395706
556.302606	2544.966025
556.660143	2542.677342
557.017625	2546.443083
557.375050	2544.318237
557.732421	2544.061138
558.089735	2544.408978
558.446994	2542.921838
558.804197	2544.527445
559.161345	2544.686241
559.518437	2544.872764
559.875474	2545.512991
560.232455	2543.062990
560.589381	2545.071890
560.946251	2544.930737
561.303065	2545.286139
561.659825	2546.639688
562.016528	2542.027033
562.373177	2542.175747
562.729770	2545.777651
563.086307	2545.717157
563.442789	2543.657846
563.799216	2543.284801
564.155587	2546.707744
564.511904	2544.328319
564.868164	2543.446117
565.224370	2545.008875
565.580520	2543.582229
565.936615	2541.212886
566.292654	2546.473330
566.648638	2544.020809
567.004567	2543.201622
567.360441	2544.008206
567.716260	2543.854451
568.072023	2543.393185
568.427732	2540.290355
568.783385	2545.160110
569.138982	2542.218597
569.494525	2540.091230
569.850013	2537.913451
570.205445	2545.540717
570.560823	2542.894111
570.916145	2541.538041
571.271412	2544.703885
571.626625	2547.196736
571.981782	2543.980480
572.336884	2544.406457
572.691931	2542.233720
573.046923	2542.914276
573.401860	2542.309337
573.756743	2542.329502
574.111570	2541.832948
574.466342	2544.512322
574.821059	2545.381921
575.175722	2544.270346
575.530330	2544.169523
575.884882	2543.312527
576.239380	2542.427804
576.593823	2545.384441
576.948211	2543.917465
577.302544	2546.561551
577.656823	2544.837476
578.011047	2545.641540
578.365216	2544.945861
578.719330	2544.088865
579.073389	2543.836807
579.427394	2544.913093
579.781344	2546.228834
580.135239	2540.207176
580.489080	2544.590459
580.842866	2542.155582
581.196597	2544.214893
581.550273	2545.238248
581.903895	2544.353525
582.257463	2541.230530
582.610975	2541.424615
582.964434	2543.486447
583.317837	2545.636499
583.671186	2544.655994
584.024481	2543.925027
584.377721	2549.034237
584.730906	2545.303783
585.084037	2545.056766
585.437113	2542.770603
585.790135	2543.796478
586.143103	2544.766900
586.496016	2545.296221
586.848874	2536.945550
587.201679	2541.606096
587.554428	2541.918648
587.907124	2543.418391
588.259765	2541.255736
588.612352	2544.577857
588.964884	2544.799667
589.317362	2542.508463
589.669786	2542.561395
590.022155	2545.762528
590.374470	2542.846220
590.726731	2544.098947
591.078937	2544.487116
591.431090	2542.994934
591.783188	2540.212217
592.135232	2543.458720
592.487222	2542.977290
592.839157	2542.745397
593.191038	2543.919986
593.542866	2542.682383
593.894639	2541.354039
594.246358	2542.803370
594.598022	2540.842362
594.949633	2544.129194
595.301190	2541.946374
595.652692	2543.146169
596.004141	2544.736653
596.355535	2545.351674
596.706876	2539.652649
597.058162	2541.480068
597.409395	2541.129707
597.760573	2543.090716
598.111698	2543.509132
598.462768	2544.769420
598.813785	2543.418391
599.164748	2545.447456
599.515657	2543.509132
599.866511	2542.193391
600.217312	2542.145500
600.568060	2542.347146
600.918753	2544.681200
601.269392	2542.453010
601.619978	2542.480737
601.970510	2544.650953
602.320988	2541.341436
602.671412	2543.904862
603.021783	2542.057280
603.372100	2541.830428
603.722363	2541.459903
604.072572	2541.802701
604.422728	2545.359235
604.772830	2539.672814
605.122878	2537.275745
605.472872	2540.968390
605.822813	2538.349511
606.172701	2541.709440
606.522534	2540.701209
606.872314	2540.607948
607.222041	2542.495860
607.571714	2544.149358
607.921333	2541.129707
608.270899	2541.404450
608.620411	2544.570295
608.969870	2542.979811
609.319276	2541.822866
609.668627	2547.128680
610.017926	2547.589946
610.367171	2552.525236
610.716362	2549.193033
611.065500	2550.143290
611.414585	2546.438042
611.763616	2543.551982
612.112594	2546.528783
612.461518	2545.911242
612.810389	2545.001313
613.159207	2545.898639
613.507971	2543.703216
613.856682	2545.034081
614.205340	2543.917465
614.553945	2548.152035
614.902496	2541.835469
615.250994	2542.904193
615.599439	2545.049204
615.947830	2543.960315
616.296169	2543.123484
616.644454	2545.530635
616.992686	2544.023330
617.340864	2540.688606
617.688990	2542.407640
618.037063	2543.589790
618.385082	2545.432332
618.733048	2541.590973
619.080961	2542.750438
619.428821	2542.324461
619.776628	2542.853782
620.124382	2546.561551
620.472083	2543.567105
620.819731	2543.645243
621.167326	2544.991231
621.514868	2543.607434
621.862357	2543.942671
622.209793	2543.355377
622.557176	2544.560213
622.904506	2535.740714
623.251783	2537.472350
623.599007	2540.497042
623.946179	2539.534182
624.293297	2538.939326
624.640363	2544.903011
624.987376	2542.833617
625.334336	2543.693134
625.681243	2540.378575
626.028097	2542.107691
626.374899	2540.897814
626.721647	2540.426466
627.068343	2544.005686
627.414987	2542.347146
627.761577	2542.863864
628.108115	2541.026364
628.454600	2543.892260
628.801032	2540.265149
629.147412	2541.653987
629.493739	2540.958308
629.840014	2542.306817
630.186236	2542.178267
630.532405	2541.820345
630.878521	2541.401930
631.224585	2541.144831
631.570597	2539.372865
631.916556	2540.756662
632.262462	2540.444110
632.608316	2542.347146
632.954117	2540.136600
633.299866	2541.071734
633.645562	2541.543082
633.991206	2541.868236
634.336797	2538.873791
634.682336	2540.381096
635.027823	2541.303627
635.373257	2539.564429
635.718639	2538.962011
636.063968	2543.299924
636.409245	2539.297248
636.754470	2541.001158
637.099642	2537.520241
637.444762	2541.643905
637.789829	2538.921682
638.134845	2539.929913
638.479808	2541.994265
638.824719	2540.736497
639.169577	2535.728111
639.514383	2540.499563
639.859137	2538.861188
640.203839	2540.701209
640.548489	2540.761703
640.893086	2537.739531
641.237632	2535.017308
641.582125	2537.376568
641.926566	2535.423121
642.270955	2537.295910
642.615292	2541.633823
642.959576	2541.442259
643.303809	2539.554347
643.647990	2540.731456
643.992118	2540.363452
644.336195	2540.169368
