Dividing Wavelength (nm)	Counts (n)	Blue Motor Position (mm): 0.000000	Red Motor Position (mm): 35.600000	
326.493990	2129.025463
326.888308	2129.025463
327.282561	2129.025463
327.676750	2095.968096
328.070874	2092.277972
328.464933	2096.391553
328.858929	2103.134097
329.252859	2112.263626
329.646726	2124.780811
330.040528	2139.165744
330.434265	2152.386170
330.827938	2170.786381
331.221547	2189.536953
331.615091	2210.125025
332.008571	2227.532129
332.401986	2249.599780
332.795338	2265.829775
333.188625	2284.787034
333.581847	2304.913841
333.975006	2323.306491
334.368100	2342.719974
334.761129	2359.000381
335.154095	2371.283152
335.546996	2397.275341
335.939833	2415.234452
336.332606	2429.405135
336.725315	2442.928030
337.117960	2451.414813
337.510540	2459.843622
337.903056	2470.112453
338.295508	2479.579739
338.687896	2490.317397
339.080220	2493.233705
339.472480	2501.556650
339.864676	2503.845333
340.256807	2511.848165
340.648875	2514.862775
341.040879	2514.988804
341.432818	2519.659433
341.824694	2518.406706
342.216506	2519.974505
342.608253	2522.369053
342.999937	2520.345030
343.391557	2518.066428
343.783113	2516.458300
344.174605	2517.350585
344.566033	2513.882271
344.957397	2514.252796
345.348697	2514.139370
345.739934	2511.618793
346.131106	2511.215500
346.522215	2509.085613
346.913260	2506.602845
347.304241	2504.697288
347.695159	2501.276866
348.086012	2502.436331
348.476802	2496.699498
348.867528	2498.786536
349.258191	2495.676144
349.648789	2496.003819
350.039324	2493.412666
350.429796	2490.939980
350.820203	2489.079794
351.210548	2492.601040
351.600828	2492.369147
351.991045	2489.047026
352.381198	2488.754639
352.771288	2489.225987
353.161314	2486.155925
353.551276	2489.001656
353.941175	2489.473004
354.331010	2488.525267
354.720782	2488.467294
355.110490	2487.529639
355.500135	2488.832777
355.889717	2486.322283
356.279235	2489.861173
356.668689	2491.784373
357.058080	2485.871099
357.447408	2487.562407
357.836672	2486.987715
358.225873	2488.111892
358.615010	2486.841522
359.004084	2490.766060
359.393095	2494.183962
359.782043	2493.556338
360.170927	2490.025010
360.559748	2495.862666
360.948505	2494.816627
361.337199	2497.158243
361.725830	2495.600526
362.114398	2497.221257
362.502903	2496.399549
362.891344	2500.472802
363.279722	2496.530619
363.668037	2501.554129
364.056289	2500.130003
364.444478	2501.659993
364.832603	2499.336021
365.220665	2501.750734
365.608665	2504.009171
365.996601	2503.195025
366.384474	2505.692916
366.772284	2505.047649
367.160031	2508.503360
367.547715	2510.950840
367.935336	2508.818432
368.322893	2514.890502
368.710388	2519.382170
369.097820	2523.939373
369.485189	2526.212933
369.872495	2534.409849
370.259738	2537.545447
370.646918	2547.405944
371.034035	2553.281409
371.421090	2565.465878
371.808081	2572.969635
372.195010	2583.351891
372.581875	2601.069027
372.968678	2609.712085
373.355418	2618.027468
373.742096	2637.191414
374.128710	2654.817809
374.515262	2665.426917
374.901751	2684.520287
375.288177	2695.590661
375.674540	2719.677294
376.060841	2737.250757
376.447079	2756.240783
376.833254	2779.233486
377.219367	2789.580454
377.605417	2828.301557
377.991404	2836.521158
378.377329	2861.091742
378.763191	2877.656973
379.148991	2914.064187
379.534727	2938.591921
379.920402	2966.711477
380.306013	2982.472644
380.691563	3032.435520
381.077049	3047.979918
381.462474	3067.670665
381.847835	3107.268928
382.233134	3128.593009
382.618371	3127.337762
383.003545	3200.550439
383.388657	3206.378013
383.773706	3239.148033
384.158693	3252.338212
384.543618	3280.893828
384.928480	3319.090651
385.313280	3361.582537
385.698017	3364.256869
386.082692	3415.207811
386.467305	3419.429777
386.851856	3450.430353
387.236344	3476.387254
387.620770	3506.228364
388.005133	3529.647044
388.389435	3557.227197
388.773674	3570.876121
389.157851	3611.853140
389.541965	3628.073053
389.926018	3590.730706
390.310008	3662.738547
390.693936	3680.677493
391.077802	3725.044688
391.461606	3710.843758
391.845348	3775.804066
392.229027	3774.863891
392.612645	3790.509112
392.996200	3867.328735
393.379694	3905.744848
393.763125	3969.023931
394.146494	3938.872790
394.529801	3997.445957
394.913047	4046.806415
395.296230	4016.050335
395.679351	4067.586051
396.062410	4089.116819
396.445408	4071.543357
396.828343	4104.578038
397.211217	4132.405207
397.594028	4048.984193
397.976778	4118.589925
398.359466	4144.960201
398.742092	4172.920960
399.124656	4095.816512
399.507158	4174.264428
399.889598	4197.257131
400.271977	4262.966050
400.654294	4228.643354
401.036549	4240.754727
401.418742	4208.952608
401.800874	4315.295748
402.182944	4336.105631
402.564952	4404.032658
402.946898	4384.757807
403.328783	4382.630440
403.710606	4295.947799
404.092367	4490.425432
404.474067	4453.360349
404.855705	4468.085559
405.237282	4393.259713
405.618797	4498.801310
406.000250	4530.822719
406.381642	4613.066623
406.762972	4574.411056
407.144240	4584.364814
407.525447	4586.272891
407.906593	4645.902179
408.287677	4689.430022
408.668700	4618.609372
409.049661	4669.600643
409.430560	4709.226633
409.811399	4635.429182
410.192176	4800.106034
410.572891	4738.026745
410.953545	4840.110110
411.334138	4721.922779
411.714669	4790.033808
412.095139	4681.318805
412.475547	4821.677131
412.855894	4805.099297
413.236180	4810.221109
413.616405	4769.468421
413.996568	4859.934448
414.376670	4798.734840
414.756711	4749.601234
415.136691	4784.455772
415.516609	4862.011403
415.896466	4901.922218
416.276262	4935.080408
416.655997	4914.240278
417.035670	5094.627886
417.415283	5186.409653
417.794834	5129.666425
418.174324	5088.018933
418.553753	4991.004448
418.933121	5178.984033
419.312428	5242.598354
419.691674	5181.111400
420.070859	5308.619825
420.449983	5222.711002
420.829045	5333.671839
421.208047	5244.007356
421.586988	5316.335311
421.965867	5328.159338
422.344686	5454.883863
422.723444	5310.621163
423.102141	5133.442250
423.480777	5431.477786
423.859352	5199.859452
424.237866	5455.534172
424.616319	5449.144509
424.994712	5557.506632
425.373044	5438.127067
425.751314	5581.053861
426.129524	5384.882401
426.507673	5577.265434
426.885762	5659.879863
427.263789	5591.340336
427.641756	5472.250638
428.019662	5590.211117
428.397508	5599.872489
428.775292	5551.353903
429.153016	5645.946114
429.530679	5571.135391
429.908282	5663.181819
430.285824	5527.108474
430.663305	5803.814888
431.040726	5538.219177
431.418086	5537.906626
431.795385	5641.988808
432.172624	5660.991438
432.549802	5648.640611
432.926920	5662.861706
433.303977	5676.392163
433.680974	5707.296957
434.057910	5729.798147
434.434786	5732.432150
434.811601	5701.013158
435.188355	5938.522081
435.565050	5810.391073
435.941683	5792.621006
436.318257	6006.141598
436.694770	5992.548126
437.071222	6027.352253
437.447614	5957.650739
437.823946	5868.722264
438.200218	6018.694071
438.576429	5888.302106
438.952580	5987.756510
439.328670	6032.262336
439.704700	5939.200116
440.080670	5922.276962
440.456580	6197.897008
440.832429	6081.017856
441.208218	5925.016829
441.583947	6079.676909
441.959616	6086.938691
442.335224	6013.612588
442.710773	6151.268855
443.086261	6177.523184
443.461689	5968.963088
443.837057	6117.684688
444.212365	6274.971209
444.587612	6161.920813
444.962800	6321.158260
445.337927	6296.814528
445.712995	5908.156690
446.088002	6488.569938
446.462949	6317.909237
446.837837	6249.354586
447.212664	6424.287665
447.587431	6568.469706
447.962139	7111.840556
448.336786	8033.678551
448.711374	7775.009386
449.085901	6850.635690
449.460369	6769.153000
449.834776	6705.178237
450.209124	7096.444872
450.583412	7245.431133
450.957640	7396.126345
451.331808	7157.405025
451.705917	6713.909515
452.079965	6630.417925
452.453954	6842.728640
452.827883	6721.307409
453.201752	6815.002294
453.575562	6610.555779
453.949311	6818.445402
454.323001	6706.846859
454.696632	6777.324710
455.070202	6915.507778
455.443713	7071.158444
455.817164	7173.309865
456.190556	7257.174501
456.563888	7331.897004
456.937160	7375.606328
457.310373	7029.790736
457.683526	7055.621608
458.056619	6942.528363
458.429653	6936.927641
458.802628	6871.788372
459.175542	6977.035061
459.548398	7340.093920
459.921194	7498.986048
460.293930	7499.908579
460.666607	8029.088581
461.039224	8336.936723
461.411782	8464.619067
461.784280	8484.894588
462.156719	8375.398206
462.529099	8252.134433
462.901419	7838.018767
463.273680	7732.353662
463.645882	7743.497133
464.018024	7607.718695
464.390106	7780.186651
464.762130	8163.957090
465.134094	8630.601578
465.505999	9647.616558
465.877845	10874.948476
466.249631	11523.934019
466.621358	11143.526030
466.993026	10517.018991
467.364634	10260.215053
467.736184	9889.034895
468.107674	9566.771574
468.479105	9593.638403
468.850477	9361.251293
469.221790	9129.590109
469.593043	8806.653794
469.964238	8669.549533
470.335373	8673.524483
470.706449	8733.884738
471.077467	8713.170637
471.448425	10030.771977
471.819324	11101.215625
472.190164	11130.378700
472.560945	9877.583914
472.931667	9088.890354
473.302330	8950.384652
473.672934	8601.937577
474.043479	8954.097462
474.413965	8894.725272
474.784393	8776.328733
475.154761	8925.879603
475.525070	9015.521401
475.895321	8842.934978
476.265513	9023.821660
476.635645	9190.754429
477.005719	9187.790230
477.375734	9311.210279
477.745691	9536.496924
478.115588	9672.421555
478.485427	9919.435573
478.855207	10453.719743
479.224928	11268.173600
479.594591	11899.651216
479.964194	11714.542567
480.333739	11658.943681
480.703226	11568.064280
481.072653	11659.757828
481.442022	11890.662838
481.811333	12089.798497
482.180584	11898.481668
482.549777	11599.785741
482.918912	11417.399315
483.287988	11447.822679
483.657005	11460.246602
484.025964	11146.699436
484.394864	11276.010073
484.763706	11247.845147
485.132489	10999.646458
485.501213	10952.826741
485.869879	11031.546879
486.238487	10882.086750
486.607036	10986.322688
486.975527	10768.837229
487.343959	10958.631630
487.712333	11006.381439
488.080648	10941.345513
488.448905	10978.791204
488.817104	10923.424212
489.185244	11188.687206
489.553326	11336.135915
489.921350	11867.526463
490.289315	12933.468361
490.657222	13279.646916
491.025070	13193.642311
491.392861	13065.687744
491.760593	12686.325794
492.128267	12333.833193
492.495883	12005.094510
492.863440	11668.705876
493.230939	11330.822539
493.598380	11267.064546
493.965763	11135.437498
494.333088	11035.801613
494.700354	10958.679521
495.067563	11022.296362
495.434713	10846.501245
495.801805	10967.499020
496.168839	10889.245188
496.535815	10835.355254
496.902733	10827.213790
497.269593	10765.134501
497.636395	10864.016734
498.003139	10848.280772
498.369825	10720.933664
498.736453	10878.875535
499.103023	10802.774277
499.469535	10833.484986
499.835989	10816.997892
500.202385	10783.073447
500.568723	10633.497372
500.935003	10853.188336
501.301226	10654.506380
501.667390	10915.101267
502.033497	11008.569300
502.399546	10872.939576
502.765537	10781.286358
503.131470	10851.363438
503.497345	11030.553772
503.863163	10641.853084
504.228923	10952.476381
504.594625	11011.886379
504.960269	10759.601835
505.325856	10971.720986
505.691385	10765.931004
506.056856	10916.578325
506.422270	10953.938316
506.787625	10835.877013
507.152924	10954.845723
507.518164	10931.316138
507.883347	10852.270846
508.248472	10772.204720
508.613540	11000.458083
508.978550	10882.439631
509.343503	10858.557164
509.708398	10971.138733
510.073236	11075.044475
510.438016	11076.256873
510.802738	11019.097750
511.167403	11068.490975
511.532010	10969.966664
511.896561	11205.194465
512.261053	11262.499781
512.625488	11131.321396
512.989866	11110.080494
513.354186	11097.588515
513.718449	10995.701755
514.082655	11179.908037
514.446803	11079.279044
514.810894	11191.104440
515.174927	11053.727956
515.538904	11073.169166
515.902822	11222.863709
516.266684	11101.906263
516.630488	11037.644155
516.994235	11079.959600
517.357925	11143.543674
517.721558	11220.998482
518.085133	11227.297404
518.448651	11230.801006
518.812112	11106.168559
519.175516	11115.083840
519.538863	11217.890611
519.902152	11130.300562
520.265385	11278.346648
520.628560	11185.168481
520.991678	11149.572894
521.354739	11199.155162
521.717743	11125.219079
522.080690	11093.333781
522.443580	11215.281813
522.806413	11155.415591
523.169189	11175.391163
523.531908	11222.364635
523.894569	11031.083093
524.257174	11023.410457
524.619722	11119.590631
524.982213	11058.832124
525.344647	11090.293966
525.707025	11028.181909
526.069345	11104.310894
526.431608	10994.610345
526.793815	11092.451579
527.155964	10865.639986
527.518057	10905.361757
527.880093	10841.762560
528.242072	10884.929961
528.603995	10773.510378
528.965860	10683.193066
529.327669	10707.012518
529.689421	10645.303754
530.051117	10590.642523
530.412755	10657.664663
530.774337	10543.664010
531.135862	10491.732564
531.497331	10492.355146
531.858743	10333.621814
532.220098	10464.341454
532.581396	10318.621861
532.942638	10278.879925
533.303824	10224.788344
533.664953	10196.799858
534.026025	10100.050033
534.387040	10154.469289
534.747999	10122.692376
535.108902	10147.593155
535.469748	9903.129961
535.830537	9971.717380
536.191270	9916.385675
536.551947	9906.537781
536.912567	9871.174087
537.273131	9776.959963
537.633638	9726.296367
537.994089	9676.928347
538.354483	9597.142005
538.714821	9693.332262
539.075103	9664.816975
539.435328	9604.537378
539.795497	9416.630889
540.155609	9509.372996
540.515665	9546.417915
540.875665	9288.285632
541.235609	9297.886510
541.595496	9268.980534
541.955328	9346.929375
542.315102	9225.114933
542.674821	9135.989854
543.034483	9103.950801
543.394090	9065.050737
543.753640	8963.073236
544.113134	9092.537628
544.472571	8945.587994
544.831953	9006.482612
545.191278	8812.236872
545.550548	8805.847209
545.909761	8865.201755
546.268918	8793.093090
546.628019	8814.240730
546.987064	8664.168101
547.346053	8575.446314
547.704986	8586.877130
548.063863	8544.014720
548.422684	8497.822627
548.781449	8391.688694
549.140158	8412.375069
549.498811	8281.700800
549.857408	8141.392885
550.215949	8237.520127
550.574434	8100.746062
550.932864	8109.018595
551.291237	8116.789534
551.649555	8018.918053
552.007817	7993.495514
552.366022	7920.844925
552.724173	7867.522120
553.082267	7813.785941
553.440305	7839.891556
553.798288	7680.865838
554.156215	7713.078811
554.514086	7650.591188
554.871902	7512.602204
555.229661	7488.835685
555.587365	7424.114831
555.945014	7321.829819
556.302606	7334.475554
556.660143	7241.360401
557.017625	7261.464523
557.375050	7160.890983
557.732421	7193.628236
558.089735	7091.847340
558.446994	7048.957203
558.804197	7015.461256
559.161345	6965.387475
559.518437	6852.692481
559.875474	6830.163564
560.232455	6799.352032
560.589381	6743.097796
560.946251	6668.007289
561.303065	6698.259253
561.659825	6603.178051
562.016528	6524.805752
562.373177	6429.926196
562.729770	6419.722900
563.086307	6339.878585
563.442789	6344.506364
563.799216	6222.835596
564.155587	6208.896805
564.511904	6135.666484
564.868164	6086.444658
565.224370	6054.120779
565.580520	5959.972190
565.936615	5936.253561
566.292654	5821.973124
566.648638	5842.634293
567.004567	5777.633656
567.360441	5731.270164
567.716260	5646.959386
568.072023	5645.225229
568.427732	5573.973561
568.783385	5514.394684
569.138982	5484.112473
569.494525	5450.805569
569.850013	5366.996387
570.205445	5351.948543
570.560823	5288.359428
570.916145	5207.040575
571.271412	5193.212690
571.626625	5133.931242
571.981782	5087.444241
572.336884	5036.773083
572.691931	5012.411708
573.046923	4943.327735
573.401860	4892.923758
573.756743	4838.005428
574.111570	4812.040966
574.466342	4772.954379
574.821059	4742.667127
575.175722	4680.819731
575.530330	4639.285664
575.884882	4611.231643
576.239380	4552.250143
576.593823	4514.517107
576.948211	4481.396726
577.302544	4424.340947
577.656823	4383.676479
578.011047	4352.869988
578.365216	4314.642918
578.719330	4271.077267
579.073389	4240.159870
579.427394	4197.650341
579.781344	4162.637007
580.135239	4117.400213
580.489080	4098.415227
580.842866	4042.909603
581.196597	4020.310110
581.550273	4004.806041
581.903895	3967.231801
582.257463	3960.562355
582.610975	3904.706370
582.964434	3891.493506
583.317837	3845.278728
583.671186	3822.533042
584.024481	3795.918270
584.377721	3759.385028
584.730906	3727.575347
585.084037	3711.574725
585.437113	3681.673121
585.790135	3656.805109
586.143103	3621.365797
586.496016	3597.105245
586.848874	3580.938264
587.201679	3566.054258
587.554428	3517.964170
587.907124	3506.916482
588.259765	3486.507370
588.612352	3468.308805
588.964884	3436.728497
589.317362	3418.381217
589.669786	3401.896644
590.022155	3393.508164
590.374470	3370.477653
590.726731	3350.572657
591.078937	3315.357677
591.431090	3306.732263
591.783188	3278.554733
592.135232	3258.463214
592.487222	3247.090371
592.839157	3238.028897
593.191038	3212.649208
593.542866	3193.739840
593.894639	3166.905778
594.246358	3160.498472
594.598022	3147.860299
594.949633	3121.956330
595.301190	3107.170626
595.652692	3098.164604
596.004141	3090.920466
596.355535	3063.070612
596.706876	3045.048487
597.058162	3028.437885
597.409395	3023.961340
597.760573	3019.754498
598.111698	2998.324553
598.462768	2984.388283
598.813785	2973.471664
599.164748	2960.679736
599.515657	2952.991977
599.866511	2933.986827
600.217312	2935.852053
600.568060	2916.609969
600.918753	2916.282294
601.269392	2905.635377
601.619978	2888.729868
601.970510	2886.342882
602.320988	2879.673435
602.671412	2873.354349
603.021783	2861.694160
603.372100	2854.840711
603.722363	2844.710512
604.072572	2839.596262
604.422728	2834.108966
604.772830	2817.901656
605.122878	2811.118784
605.472872	2807.118628
605.822813	2798.180662
606.172701	2796.050775
606.522534	2791.911988
606.872314	2786.777572
607.222041	2779.233486
607.571714	2775.334153
607.921333	2770.325767
608.270899	2764.291506
608.620411	2764.694798
608.969870	2759.643562
609.319276	2751.035792
609.668627	2753.185844
610.017926	2751.739033
610.367171	2750.715678
610.716362	2741.815521
611.065500	2737.951477
611.414585	2732.985940
611.763616	2728.970661
612.112594	2725.890516
612.461518	2722.465052
612.810389	2719.526060
613.159207	2713.481716
613.507971	2708.107846
613.856682	2707.699513
614.205340	2702.212217
614.553945	2704.150540
614.902496	2697.329859
615.250994	2699.832792
615.599439	2694.050589
615.947830	2692.087059
616.296169	2687.643282
616.644454	2687.902902
616.992686	2682.773527
617.340864	2682.992818
617.688990	2680.280677
618.037063	2680.923424
618.385082	2674.818587
618.733048	2678.733043
619.080961	2673.611230
619.428821	2672.789522
619.776628	2668.980931
620.124382	2666.604027
620.472083	2667.362720
620.819731	2663.793583
621.167326	2658.916267
621.514868	2657.010711
621.862357	2652.672798
622.209793	2649.524597
622.557176	2650.850421
622.904506	2645.118629
623.251783	2640.407671
623.599007	2636.513379
623.946179	2636.720067
624.293297	2633.889459
624.640363	2633.743265
624.987376	2632.341824
625.334336	2632.566156
625.681243	2629.198665
626.028097	2628.001391
626.374899	2629.344858
626.721647	2624.296143
627.068343	2624.855711
627.414987	2624.991822
627.761577	2622.478807
628.108115	2619.718775
628.454600	2617.931686
628.801032	2618.632407
629.147412	2618.493775
629.493739	2616.903291
629.840014	2620.911008
630.186236	2616.409258
630.532405	2614.042436
630.878521	2614.894391
631.224585	2613.838269
631.570597	2609.492795
631.916556	2611.907507
632.262462	2610.886674
632.608316	2608.088833
632.954117	2610.206118
633.299866	2608.134204
633.645562	2609.391972
633.991206	2607.199070
634.336797	2603.390478
634.682336	2605.757300
635.027823	2603.708071
635.373257	2602.674634
635.718639	2601.079109
636.063968	2602.946856
636.409245	2599.002153
636.754470	2600.116248
637.099642	2598.830754
637.444762	2599.289499
637.789829	2595.793459
638.134845	2596.453850
638.479808	2595.521237
638.824719	2598.654314
639.169577	2592.370516
639.514383	2594.724734
639.859137	2591.810947
640.203839	2594.472677
640.548489	2591.831112
640.893086	2590.608632
641.237632	2586.860534
641.582125	2588.836667
641.926566	2583.964392
