Dividing Wavelength (nm)	Counts (n)	Blue Motor Position (mm): 0.000000	Red Motor Position (mm): 4.900000	
326.493990	2127.717283
326.888308	2127.717283
327.282561	2127.717283
327.676750	2096.502459
328.070874	2097.389702
328.464933	2096.068919
328.858929	2104.333891
329.252859	2113.213884
329.646726	2125.100924
330.040528	2138.906124
330.434265	2154.551345
330.827938	2171.197235
331.221547	2190.020904
331.615091	2209.746939
332.008571	2228.653786
332.401986	2249.766138
332.795338	2269.779519
333.188625	2287.557148
333.581847	2306.753862
333.975006	2322.522591
334.368100	2342.626713
334.761129	2360.096832
335.154095	2375.505118
335.546996	2394.351472
335.939833	2407.380334
336.332606	2420.888106
336.725315	2435.152051
337.117960	2442.101281
337.510540	2453.002776
337.903056	2465.401494
338.295508	2469.671352
338.687896	2479.935141
339.080220	2490.118272
339.472480	2492.059116
339.864676	2498.423572
340.256807	2502.625374
340.648875	2505.219048
341.040879	2509.660304
341.432818	2507.084275
341.824694	2510.623165
342.216506	2511.192815
342.608253	2509.801457
342.999937	2512.047291
343.391557	2511.359173
343.783113	2510.182064
344.174605	2508.803308
344.566033	2510.391272
344.957397	2506.877588
345.348697	2504.840961
345.739934	2503.202586
346.131106	2501.317195
346.522215	2501.286948
346.913260	2497.498521
347.304241	2494.617501
347.695159	2494.085660
348.086012	2494.131030
348.476802	2491.648262
348.867528	2489.508292
349.258191	2488.195071
349.648789	2486.660040
350.039324	2485.281284
350.429796	2486.276912
350.820203	2484.477220
351.210548	2481.220635
351.600828	2484.101654
351.991045	2478.518577
352.381198	2481.787765
352.771288	2477.699389
353.161314	2479.078145
353.551276	2479.171406
353.941175	2477.747280
354.331010	2477.051601
354.720782	2477.192753
355.110490	2477.429687
355.500135	2477.795171
355.889717	2478.614358
356.279235	2479.045377
356.668689	2481.850779
357.058080	2480.383803
357.447408	2478.236272
357.836672	2477.270891
358.225873	2477.129739
358.615010	2475.319964
359.004084	2480.991263
359.393095	2481.119812
359.782043	2483.002683
360.170927	2484.504947
360.559748	2485.228352
360.948505	2484.555358
361.337199	2485.571151
361.725830	2483.186685
362.114398	2485.384628
362.502903	2486.223980
362.891344	2488.827736
363.279722	2486.632314
363.668037	2488.384115
364.056289	2488.003508
364.444478	2486.050060
364.832603	2487.403610
365.220665	2489.062150
365.608665	2492.452326
365.996601	2490.796307
366.384474	2490.261944
366.772284	2493.135402
367.160031	2491.310504
367.547715	2495.250166
367.935336	2496.820486
368.322893	2498.874756
368.710388	2501.208810
369.097820	2507.585870
369.485189	2509.451097
369.872495	2513.955368
370.259738	2514.567868
370.646918	2520.216481
371.034035	2525.323169
371.421090	2528.239477
371.808081	2535.017308
372.195010	2539.624923
372.581875	2541.419574
372.968678	2549.162786
373.355418	2547.342929
373.742096	2555.749053
374.128710	2562.030331
374.515262	2562.146278
374.901751	2565.443192
375.288177	2568.344376
375.674540	2571.623647
376.060841	2572.982238
376.447079	2578.277970
376.833254	2575.366704
377.219367	2573.957701
377.605417	2582.721747
377.991404	2579.669328
378.377329	2578.885429
378.763191	2576.659760
379.148991	2582.091603
379.534727	2586.081676
379.920402	2579.951633
380.306013	2579.301324
380.691563	2580.027250
381.077049	2578.542631
381.462474	2576.397620
381.847835	2573.801425
382.233134	2568.863615
382.618371	2564.568552
383.003545	2564.003943
383.388657	2560.517985
383.773706	2558.292316
384.158693	2553.541028
384.543618	2546.788402
384.928480	2545.013916
385.313280	2543.698175
385.698017	2538.359593
386.082692	2537.870601
386.467305	2532.466484
386.851856	2530.011443
387.236344	2524.748478
387.620770	2526.966586
388.005133	2519.399814
388.389435	2518.363857
388.773674	2516.959895
389.157851	2514.991325
389.541965	2513.557116
389.926018	2511.049142
390.310008	2513.307579
390.693936	2511.160048
391.077802	2507.779954
391.461606	2510.482013
391.845348	2508.863802
392.229027	2509.103257
392.612645	2508.964625
392.996200	2509.957733
393.379694	2510.247599
393.763125	2507.255674
394.146494	2508.573936
394.529801	2509.042763
394.913047	2506.875067
395.296230	2512.541324
395.679351	2507.580828
396.062410	2507.600993
396.445408	2509.173833
396.828343	2506.786847
397.211217	2505.987824
397.594028	2508.394975
397.976778	2505.259377
398.359466	2507.588390
398.742092	2506.829697
399.124656	2509.423370
399.507158	2510.119049
399.889598	2508.788185
400.271977	2509.902280
400.654294	2510.829852
401.036549	2511.694410
401.418742	2511.311282
401.800874	2511.825480
402.182944	2511.492764
402.564952	2514.368742
402.946898	2511.084430
403.328783	2511.102074
403.710606	2513.211797
404.092367	2510.928155
404.474067	2511.396982
404.855705	2511.265912
405.237282	2511.893536
405.618797	2513.317662
406.000250	2513.053001
406.381642	2514.366222
406.762972	2511.883453
407.144240	2513.148783
407.525447	2513.005110
407.906593	2512.253978
408.287677	2513.249606
408.668700	2513.973012
409.049661	2514.532580
409.430560	2512.639626
409.811399	2513.567199
410.192176	2515.860924
410.572891	2516.170955
410.953545	2515.225738
411.334138	2515.495440
411.714669	2514.474606
412.095139	2518.220184
412.475547	2514.577950
412.855894	2515.744977
413.236180	2514.451921
413.616405	2517.363188
413.996568	2515.223218
414.376670	2517.877385
414.756711	2515.311438
415.136691	2515.341685
415.516609	2520.254289
415.896466	2515.888650
416.276262	2516.470903
416.655997	2514.174658
417.035670	2513.393279
417.415283	2517.194309
417.794834	2513.579802
418.174324	2518.709176
418.553753	2518.653723
418.933121	2519.924094
419.312428	2515.112312
419.691674	2517.620286
420.070859	2518.134484
420.449983	2518.762108
420.829045	2519.276305
421.208047	2520.798734
421.586988	2517.766480
421.965867	2517.579957
422.344686	2517.590039
422.723444	2519.692201
423.102141	2520.143384
423.480777	2521.950638
423.859352	2518.436953
424.237866	2521.925432
424.616319	2517.930317
424.994712	2520.995339
425.373044	2519.760256
425.751314	2520.589526
426.129524	2521.776718
426.507673	2520.428209
426.885762	2521.859897
427.263789	2518.356295
427.641756	2520.801254
428.019662	2521.025586
428.397508	2520.037520
428.775292	2522.905936
429.153016	2519.490554
429.530679	2522.958868
429.908282	2521.738909
430.285824	2523.508354
430.663305	2522.152284
431.040726	2521.126409
431.418086	2522.157325
431.795385	2521.086080
432.172624	2522.311080
432.549802	2520.811337
432.926920	2520.952489
433.303977	2523.916688
433.680974	2521.683456
434.057910	2521.572551
434.434786	2521.691018
434.811601	2520.927283
435.188355	2521.237314
435.565050	2522.308559
435.941683	2520.309742
436.318257	2520.811337
436.694770	2518.925945
437.071222	2523.830988
437.447614	2519.041892
437.823946	2519.293949
438.200218	2521.451563
438.576429	2524.377953
438.952580	2520.970133
439.328670	2523.468025
439.704700	2524.115813
440.080670	2521.869979
440.456580	2523.606657
440.832429	2525.144208
441.208218	2523.730165
441.583947	2526.356606
441.959616	2524.599764
442.335224	2523.152953
442.710773	2523.261337
443.086261	2524.393077
443.461689	2523.573889
443.837057	2525.867614
444.212365	2526.543129
444.587612	2526.230577
444.962800	2526.228057
445.337927	2526.114631
445.712995	2526.525485
446.088002	2527.982378
446.462949	2525.260155
446.837837	2525.444157
447.212664	2527.137985
447.587431	2525.759229
447.962139	2525.456760
448.336786	2527.798376
448.711374	2527.687471
449.085901	2524.014990
449.460369	2524.161183
449.834776	2527.082532
450.209124	2524.014990
450.583412	2528.337779
450.957640	2525.290402
451.331808	2529.156967
451.705917	2526.966586
452.079965	2528.839374
452.453954	2527.848787
452.827883	2527.125382
453.201752	2528.796524
453.575562	2527.175793
453.949311	2526.860721
454.323001	2527.942049
454.696632	2527.516071
455.070202	2528.080681
455.443713	2527.395084
455.817164	2524.433406
456.190556	2523.069774
456.563888	2524.166225
456.937160	2523.659589
457.310373	2524.357788
457.683526	2529.426669
458.056619	2529.091432
458.429653	2526.848118
458.802628	2528.433561
459.175542	2527.591689
459.548398	2527.276617
459.921194	2527.190917
460.293930	2529.272913
460.666607	2528.695701
461.039224	2528.897347
461.411782	2527.662265
461.784280	2529.335928
462.156719	2528.962882
462.529099	2529.315763
462.901419	2528.166380
463.273680	2529.898017
463.645882	2528.201668
464.018024	2530.586134
464.390106	2528.194107
464.762130	2531.982534
465.134094	2530.802904
465.505999	2532.728624
465.877845	2530.641587
466.249631	2532.970600
466.621358	2531.642256
466.993026	2530.991947
467.364634	2535.203831
467.736184	2528.990609
468.107674	2528.060516
468.479105	2529.225022
468.850477	2530.152595
469.221790	2532.204344
469.593043	2530.197965
469.964238	2530.780218
470.335373	2531.460774
470.706449	2532.408511
471.077467	2529.802235
471.448425	2531.932122
471.819324	2531.077647
472.190164	2532.968079
472.560945	2531.859025
472.931667	2529.928263
473.302330	2530.230733
473.672934	2530.792821
474.043479	2530.810465
474.413965	2531.627132
474.784393	2528.166380
475.154761	2528.882224
475.525070	2527.185876
475.895321	2529.741741
476.265513	2528.650331
476.635645	2529.918181
477.005719	2530.369364
477.375734	2530.024045
477.745691	2531.637215
478.115588	2534.059489
478.485427	2529.391381
478.855207	2530.893644
479.224928	2532.761392
479.594591	2531.478418
479.964194	2532.287523
480.333739	2532.877338
480.703226	2532.486649
481.072653	2535.629808
481.442022	2530.351720
481.811333	2530.288706
482.180584	2528.365506
482.549777	2532.680733
482.918912	2533.230219
483.287988	2537.870601
483.657005	2532.756351
484.025964	2534.487987
484.394864	2534.117462
484.763706	2535.145858
485.132489	2536.580066
485.501213	2532.305168
485.869879	2533.446989
486.238487	2534.666948
486.607036	2533.842719
486.975527	2533.449509
487.343959	2533.812473
487.712333	2532.569828
488.080648	2535.223996
488.448905	2532.584952
488.817104	2535.130734
489.185244	2531.727955
489.553326	2534.979500
489.921350	2533.724252
490.289315	2534.697195
490.657222	2532.685775
491.025070	2532.471526
491.392861	2534.760209
491.760593	2532.353058
492.128267	2534.054448
492.495883	2534.689633
492.863440	2531.939684
493.230939	2535.281969
493.598380	2534.412370
493.965763	2531.702750
494.333088	2529.456916
494.700354	2529.565300
495.067563	2533.141999
495.434713	2529.003212
495.801805	2536.020498
496.168839	2531.642256
496.535815	2534.896321
496.902733	2535.155940
497.269593	2536.423790
497.636395	2536.401105
498.003139	2531.899355
498.369825	2534.182997
498.736453	2536.073430
499.103023	2533.036135
499.469535	2533.736855
499.835989	2533.930940
500.202385	2534.046886
500.568723	2533.255425
500.935003	2534.858512
501.301226	2533.419263
501.667390	2534.535878
502.033497	2535.009747
502.399546	2534.523275
502.765537	2534.089736
503.131470	2532.350538
503.497345	2533.941022
503.863163	2536.413708
504.228923	2533.988913
504.594625	2536.285158
504.960269	2534.997144
505.325856	2535.808769
505.691385	2532.980682
506.056856	2537.399253
506.422270	2535.344983
506.787625	2538.992258
507.152924	2535.148378
507.518164	2535.637370
507.883347	2532.378264
508.248472	2534.906403
508.613540	2534.568646
508.978550	2535.307175
509.343503	2537.467309
509.708398	2537.530323
510.073236	2535.039993
510.438016	2535.166022
510.802738	2534.387164
511.167403	2534.044366
511.532010	2534.714839
511.896561	2539.067875
512.261053	2536.093595
512.625488	2534.152750
512.989866	2531.768285
513.354186	2531.622091
513.718449	2528.751154
514.082655	2533.182328
514.446803	2535.342463
514.810894	2537.830272
515.174927	2538.147865
515.538904	2535.876825
515.902822	2536.048224
516.266684	2536.320447
516.630488	2534.606454
516.994235	2536.920344
517.357925	2537.847916
517.721558	2535.123172
518.085133	2534.611495
518.448651	2534.850950
518.812112	2539.282124
519.175516	2535.778522
519.538863	2536.756506
519.902152	2535.506300
520.265385	2538.364634
520.628560	2537.220293
520.991678	2536.083512
521.354739	2534.939170
521.717743	2533.131917
522.080690	2536.998482
522.443580	2534.858512
522.806413	2538.977135
523.169189	2536.829603
523.531908	2538.795653
523.894569	2536.035621
524.257174	2537.200128
524.619722	2536.461599
524.982213	2539.561908
525.344647	2537.308513
525.707025	2536.101156
526.069345	2535.181146
526.431608	2536.035621
526.793815	2535.639891
527.155964	2536.827083
527.518057	2536.224665
527.880093	2536.506969
528.242072	2536.108718
528.603995	2538.397402
528.965860	2534.941691
529.327669	2537.159799
529.689421	2537.555529
530.051117	2536.373379
530.412755	2537.999151
530.774337	2537.855478
531.135862	2538.611651
531.497331	2534.485467
531.858743	2534.447658
532.220098	2535.229037
532.581396	2533.729293
532.942638	2534.155271
533.303824	2534.553522
533.664953	2540.053421
534.026025	2536.643080
534.387040	2537.956301
534.747999	2536.015457
535.108902	2535.944881
535.469748	2535.531506
535.830537	2535.740714
536.191270	2538.485622
536.551947	2539.345139
536.912567	2535.420601
537.273131	2539.347659
537.633638	2536.804397
537.994089	2538.306661
538.354483	2536.761548
538.714821	2537.507638
539.075103	2535.060158
539.435328	2535.055117
539.795497	2538.760365
540.155609	2536.905220
540.515665	2535.569315
540.875665	2536.174253
541.235609	2538.730118
541.595496	2534.160312
541.955328	2539.095602
542.315102	2538.573842
542.674821	2538.588966
543.034483	2539.146013
543.394090	2535.851619
543.753640	2537.376568
544.113134	2537.545447
544.472571	2537.744572
544.831953	2536.711136
545.191278	2538.896476
545.550548	2539.904707
545.909761	2539.992927
546.268918	2536.663245
546.628019	2538.238606
546.987064	2540.076106
547.346053	2538.102494
547.704986	2538.591486
548.063863	2538.271373
548.422684	2537.817669
548.781449	2537.137113
549.140158	2537.767258
549.498811	2538.425128
549.857408	2535.909593
550.215949	2537.580735
550.574434	2534.064530
550.932864	2535.765920
551.291237	2530.689478
551.649555	2536.983358
552.007817	2537.699202
552.366022	2539.090561
552.724173	2538.110056
553.082267	2537.091743
553.440305	2536.368338
553.798288	2538.130221
554.156215	2539.582073
554.514086	2541.343956
554.871902	2538.949408
555.229661	2536.403626
555.587365	2538.039480
555.945014	2540.847403
556.302606	2537.805066
556.660143	2538.178112
557.017625	2538.785571
557.375050	2540.426466
557.732421	2536.454037
558.089735	2538.765406
558.446994	2538.594007
558.804197	2539.408153
559.161345	2538.619213
559.518437	2539.909748
559.875474	2540.612989
560.232455	2539.836651
560.589381	2536.499407
560.946251	2539.549306
561.303065	2538.447813
561.659825	2540.262629
562.016528	2536.935467
562.373177	2539.198945
562.729770	2538.929244
563.086307	2539.967721
563.442789	2538.944367
563.799216	2539.206507
564.155587	2535.418080
564.511904	2537.805066
564.868164	2535.755837
565.224370	2539.859337
565.580520	2540.272711
565.936615	2537.429500
566.292654	2536.297761
566.648638	2540.489481
567.004567	2538.286497
567.360441	2538.321785
567.716260	2537.076620
568.072023	2538.415046
568.427732	2534.044366
568.783385	2534.021680
569.138982	2534.472864
569.494525	2535.329860
569.850013	2535.400436
570.205445	2538.891435
570.560823	2537.527803
570.916145	2538.228523
571.271412	2540.239944
571.626625	2540.786909
571.981782	2537.169881
572.336884	2539.783719
572.691931	2538.586445
573.046923	2537.500077
573.401860	2536.469161
573.756743	2539.637526
574.111570	2534.840868
574.466342	2537.943698
574.821059	2535.791125
575.175722	2538.188194
575.530330	2539.864378
575.884882	2538.258770
576.239380	2537.623585
576.593823	2540.549975
576.948211	2539.435880
577.302544	2540.146682
577.656823	2539.972762
578.011047	2538.873791
578.365216	2537.076620
578.719330	2536.471681
579.073389	2537.769778
579.427394	2538.687268
579.781344	2539.007382
580.135239	2539.695499
580.489080	2538.873791
580.842866	2536.801877
581.196597	2542.911755
581.550273	2538.914120
581.903895	2539.186343
582.257463	2536.973276
582.610975	2539.007382
582.964434	2537.787422
583.317837	2536.340611
583.671186	2540.718853
584.024481	2539.657690
584.377721	2539.844213
584.730906	2540.295396
585.084037	2537.870601
585.437113	2538.117618
585.790135	2537.411856
586.143103	2541.442259
586.496016	2538.984696
586.848874	2535.534027
587.201679	2537.956301
587.554428	2537.369007
587.907124	2537.212731
588.259765	2533.986392
588.612352	2538.389840
588.964884	2539.410674
589.317362	2534.273738
589.669786	2538.921682
590.022155	2541.774975
590.374470	2537.134593
590.726731	2538.561239
591.078937	2537.502597
591.431090	2539.715664
591.783188	2538.306661
592.135232	2538.518390
592.487222	2537.343801
592.839157	2540.895294
593.191038	2536.902700
593.542866	2540.060983
593.894639	2537.694161
594.246358	2540.020653
594.598022	2538.581404
594.949633	2537.013605
595.301190	2536.958152
595.652692	2536.728780
596.004141	2539.791281
596.355535	2540.486960
596.706876	2539.027546
597.058162	2537.046373
597.409395	2535.465971
597.760573	2539.299768
598.111698	2538.379758
598.462768	2539.635005
598.813785	2536.096115
599.164748	2540.187012
599.515657	2542.170706
599.866511	2537.815149
600.217312	2538.304141
600.568060	2538.641898
600.918753	2539.125849
601.269392	2539.239275
601.619978	2537.631147
601.970510	2540.068544
602.320988	2537.643749
602.671412	2536.083512
603.021783	2536.655683
603.372100	2539.725746
603.722363	2538.483102
604.072572	2538.352032
604.422728	2540.751621
604.772830	2534.724921
605.122878	2534.394726
605.472872	2535.060158
605.822813	2534.039324
606.172701	2536.567463
606.522534	2537.522762
606.872314	2538.243647
607.222041	2535.513862
607.571714	2541.417053
607.921333	2538.520910
608.270899	2538.709953
608.620411	2539.904707
608.969870	2538.838503
609.319276	2541.812784
609.668627	2542.934440
610.017926	2545.921324
610.367171	2545.273536
610.716362	2545.767569
611.065500	2546.417878
611.414585	2541.376724
611.763616	2544.519883
612.112594	2541.797660
612.461518	2540.290355
612.810389	2538.750283
613.159207	2539.012423
613.507971	2538.276414
613.856682	2541.633823
614.205340	2537.679037
614.553945	2536.572504
614.902496	2541.280942
615.250994	2541.177598
615.599439	2539.919830
615.947830	2537.626105
616.296169	2538.982176
616.644454	2539.839172
616.992686	2538.999820
617.340864	2537.172402
617.688990	2539.027546
618.037063	2537.265663
618.385082	2539.728267
618.733048	2536.852288
619.080961	2541.608617
619.428821	2537.079140
619.776628	2539.922351
620.124382	2538.556198
620.472083	2538.616692
620.819731	2537.341280
621.167326	2539.322454
621.514868	2537.963863
621.862357	2539.887063
622.209793	2539.284645
622.557176	2540.504604
622.904506	2534.878677
623.251783	2532.635363
623.599007	2534.414890
623.946179	2534.563604
624.293297	2537.283307
624.640363	2537.467309
624.987376	2539.380427
625.334336	2537.459747
625.681243	2540.786909
626.028097	2536.103677
626.374899	2537.895807
626.721647	2537.164840
627.068343	2538.611651
627.414987	2539.365303
627.761577	2539.191384
628.108115	2535.856660
628.454600	2539.022505
628.801032	2539.617361
629.147412	2540.345808
629.493739	2539.360262
629.840014	2540.179450
630.186236	2537.686599
630.532405	2540.305479
630.878521	2538.452855
631.224585	2537.459747
631.570597	2539.529141
631.916556	2536.149047
632.262462	2536.328008
632.608316	2537.139634
632.954117	2536.577545
633.299866	2539.065355
633.645562	2537.197607
633.991206	2539.791281
634.336797	2537.638708
634.682336	2538.354552
635.027823	2535.163502
635.373257	2540.534851
635.718639	2539.871939
636.063968	2538.614172
636.409245	2536.509490
636.754470	2537.386651
637.099642	2537.757175
637.444762	2539.514018
637.789829	2537.810108
638.134845	2540.693648
638.479808	2535.949922
638.824719	2538.689789
639.169577	2535.055117
639.514383	2537.293389
639.859137	2536.544778
640.203839	2536.592669
640.548489	2537.767258
640.893086	2535.312216
641.237632	2535.435724
641.582125	2535.027391
641.926566	2533.956145
642.270955	2536.413708
642.615292	2537.449665
642.959576	2538.142824
643.303809	2539.506456
643.647990	2539.236754
643.992118	2535.919675
644.336195	2534.913965
