Dividing Wavelength (nm)	Counts (n)	Blue Motor Position (mm): 0.000000	Red Motor Position (mm): 19.900000	
326.493990	2129.005298
326.888308	2129.005298
327.282561	2129.005298
327.676750	2096.948601
328.070874	2097.530854
328.464933	2098.092943
328.858929	2103.829776
329.252859	2113.571806
329.646726	2123.807868
330.040528	2138.250774
330.434265	2153.182672
330.827938	2172.820487
331.221547	2186.981088
331.615091	2206.883563
332.008571	2227.189331
332.401986	2247.643813
332.795338	2267.085023
333.188625	2287.597478
333.581847	2307.162196
333.975006	2325.378405
334.368100	2342.679645
334.761129	2361.410052
335.154095	2377.960160
335.546996	2394.109497
335.939833	2411.635068
336.332606	2425.440268
336.725315	2437.707916
337.117960	2449.582353
337.510540	2453.080914
337.903056	2466.283696
338.295508	2472.191928
338.687896	2482.309524
339.080220	2490.468632
339.472480	2494.778818
339.864676	2501.992709
340.256807	2504.326764
340.648875	2510.015706
341.040879	2508.783144
341.432818	2512.672394
341.824694	2513.257168
342.216506	2512.332116
342.608253	2514.696417
342.999937	2513.365553
343.391557	2515.061901
343.783113	2513.864627
344.174605	2511.190295
344.566033	2511.134842
344.957397	2508.268946
345.348697	2506.993534
345.739934	2507.396826
346.131106	2505.569408
346.522215	2504.901455
346.913260	2499.746875
347.304241	2498.486587
347.695159	2497.929539
348.086012	2498.126144
348.476802	2495.787049
348.867528	2492.507778
349.258191	2492.631287
349.648789	2490.672798
350.039324	2489.178096
350.429796	2487.799341
350.820203	2488.152222
351.210548	2484.358753
351.600828	2484.247848
351.991045	2481.379431
352.381198	2483.872282
352.771288	2485.503095
353.161314	2479.254585
353.551276	2483.035450
353.941175	2484.147025
354.331010	2481.329020
354.720782	2482.508650
355.110490	2485.530822
355.500135	2484.111737
355.889717	2484.663743
356.279235	2483.085862
356.668689	2486.551655
357.058080	2483.526963
357.447408	2482.513691
357.836672	2478.261478
358.225873	2484.706593
358.615010	2479.957826
359.004084	2486.551655
359.393095	2484.971253
359.782043	2488.394197
360.170927	2488.069042
360.559748	2486.753301
360.948505	2488.447129
361.337199	2487.098620
361.725830	2488.991574
362.114398	2493.752943
362.502903	2492.527943
362.891344	2492.162459
363.279722	2491.073570
363.668037	2491.865031
364.056289	2492.129692
364.444478	2492.550628
364.832603	2498.133706
365.220665	2495.875269
365.608665	2498.358037
365.996601	2496.996926
366.384474	2496.835609
366.772284	2500.039262
367.160031	2500.437513
367.547715	2502.879953
367.935336	2504.609068
368.322893	2507.875736
368.710388	2508.513442
369.097820	2520.145904
369.485189	2520.972654
369.872495	2525.625639
370.259738	2534.223327
370.646918	2541.217928
371.034035	2549.356870
371.421090	2558.204095
371.808081	2570.481826
372.195010	2578.613207
372.581875	2591.720207
372.968678	2604.713781
373.355418	2615.590070
373.742096	2634.149078
374.128710	2647.820687
374.515262	2662.689571
374.901751	2681.256140
375.288177	2690.118489
375.674540	2712.506253
376.060841	2731.841598
376.447079	2750.859351
376.833254	2775.687034
377.219367	2781.247427
377.605417	2823.111689
377.991404	2830.804490
378.377329	2853.230063
378.763191	2870.430479
379.148991	2910.505132
379.534727	2932.754264
379.920402	2960.291567
380.306013	2974.341263
380.691563	3025.582071
381.077049	3042.575801
381.462474	3059.665313
381.847835	3101.312805
382.233134	3124.076135
382.618371	3122.208388
383.003545	3191.645241
383.388657	3197.263607
383.773706	3230.832650
384.158693	3246.881163
384.543618	3274.705812
384.928480	3311.070175
385.313280	3354.076259
385.698017	3352.057277
386.082692	3407.414187
386.467305	3412.883839
386.851856	3442.397274
387.236344	3467.303095
387.620770	3497.446674
388.005133	3526.771066
388.389435	3551.439952
388.773674	3563.379925
389.157851	3601.995164
389.541965	3619.898822
389.926018	3586.526383
390.310008	3653.039367
390.693936	3676.231195
391.077802	3718.040005
391.461606	3705.172460
391.845348	3768.580093
392.229027	3768.678395
392.612645	3780.472175
392.996200	3860.172817
393.379694	3898.775452
393.763125	3960.637972
394.146494	3927.870472
394.529801	3990.826922
394.913047	4038.889282
395.296230	4006.303264
395.679351	4058.527097
396.062410	4083.014502
396.445408	4061.329979
396.828343	4094.067232
397.211217	4122.524545
397.594028	4040.308367
397.976778	4105.803038
398.359466	4135.820589
398.742092	4161.626255
399.124656	4087.138166
399.507158	4166.564065
399.889598	4191.777396
400.271977	4247.398967
400.654294	4220.630440
401.036549	4232.124271
401.418742	4198.227553
401.800874	4298.591885
402.182944	4323.485102
402.564952	4384.508270
402.946898	4372.903533
403.328783	4372.437227
403.710606	4282.044297
404.092367	4475.357424
404.474067	4439.759316
404.855705	4447.933547
405.237282	4377.228843
405.618797	4482.909072
406.000250	4519.056666
406.381642	4597.330662
406.762972	4564.419489
407.144240	4571.976178
407.525447	4567.721444
407.906593	4622.029795
408.287677	4669.494779
408.668700	4594.994087
409.049661	4645.191376
409.430560	4684.126728
409.811399	4611.531592
410.192176	4765.085138
410.572891	4700.608780
410.953545	4797.519922
411.334138	4677.056510
411.714669	4738.848453
412.095139	4628.210249
412.475547	4760.354015
412.855894	4734.704624
413.236180	4736.723607
413.616405	4681.666645
413.996568	4757.702368
414.376670	4690.478582
414.756711	4632.427175
415.136691	4653.484074
415.516609	4711.646387
415.896466	4733.156990
416.276262	4752.754476
416.655997	4716.672417
417.035670	4861.547617
417.415283	4928.652936
417.794834	4856.705589
418.174324	4795.072442
418.553753	4694.433367
418.933121	4828.812884
419.312428	4867.783524
419.691674	4785.995844
420.070859	4869.948700
420.449983	4764.477679
420.829045	4829.760621
421.208047	4721.993355
421.586988	4746.022015
421.965867	4722.200042
422.344686	4784.851502
422.723444	4640.898834
423.102141	4470.951455
423.480777	4653.728570
423.859352	4443.676292
424.237866	4587.321451
424.616319	4543.833937
424.994712	4576.727466
425.373044	4452.147951
425.751314	4497.422554
426.129524	4326.146832
426.507673	4395.641658
426.885762	4408.173966
427.263789	4310.005057
427.641756	4202.767112
428.019662	4218.286304
428.397508	4174.236702
428.775292	4090.646809
429.153016	4093.419444
429.530679	4008.662524
429.908282	3999.958972
430.285824	3895.100451
430.663305	3962.241059
431.040726	3795.651089
431.418086	3749.980756
431.795385	3746.058738
432.172624	3702.941749
432.549802	3653.641785
432.926920	3610.411370
433.303977	3570.195565
433.680974	3538.224568
434.057910	3495.054647
434.434786	3450.876495
434.811601	3400.222981
435.188355	3424.753236
435.565050	3347.462265
435.941683	3302.217909
436.318257	3308.970535
436.694770	3259.852052
437.071222	3230.063874
437.447614	3176.352901
437.823946	3127.453708
438.200218	3121.883233
438.576429	3064.673699
438.952580	3043.478167
439.328670	3019.479755
439.704700	2981.403920
440.080670	2946.783796
440.456580	2948.976698
440.832429	2909.630492
441.208218	2866.677340
441.583947	2861.265662
441.959616	2838.073833
442.335224	2808.245326
442.710773	2798.420117
443.086261	2776.168464
443.461689	2747.038157
443.837057	2738.294275
444.212365	2727.803634
444.587612	2707.076930
444.962800	2701.629963
445.337927	2686.687983
445.712995	2659.823675
446.088002	2669.953873
446.462949	2651.498209
446.837837	2642.761889
447.212664	2634.345683
447.587431	2631.061371
447.962139	2635.474902
448.336786	2647.523259
448.711374	2633.904582
449.085901	2608.441714
449.460369	2598.571135
449.834776	2593.744230
450.209124	2594.906216
450.583412	2594.303798
450.957640	2592.219281
451.331808	2584.967581
451.705917	2576.813515
452.079965	2573.322516
452.453954	2574.325705
452.827883	2570.277659
453.201752	2569.279510
453.575562	2565.801114
453.949311	2565.052503
454.323001	2563.338511
454.696632	2564.477811
455.070202	2565.042421
455.443713	2561.221226
455.817164	2559.726524
456.190556	2559.759291
456.563888	2558.022614
456.937160	2556.782490
457.310373	2557.934394
457.683526	2557.863818
458.056619	2555.741492
458.429653	2557.024465
458.802628	2556.185113
459.175542	2556.482541
459.548398	2559.164435
459.921194	2558.917419
460.293930	2556.976574
460.666607	2559.842470
461.039224	2563.903120
461.411782	2560.785166
461.784280	2564.001422
462.156719	2561.165773
462.529099	2563.570404
462.901419	2557.364743
463.273680	2557.750392
463.645882	2557.659651
464.018024	2555.817109
464.390106	2559.111503
464.762130	2562.345403
465.134094	2563.456978
465.505999	2567.867987
465.877845	2574.045921
466.249631	2578.638412
466.621358	2573.693041
466.993026	2576.498443
467.364634	2573.801425
467.736184	2568.757751
468.107674	2565.130641
468.479105	2565.932184
468.850477	2566.196845
469.221790	2566.789180
469.593043	2563.328428
469.964238	2563.245249
470.335373	2563.784653
470.706449	2563.898079
471.077467	2565.148285
471.448425	2572.357135
471.819324	2575.185222
472.190164	2579.417271
472.560945	2570.857392
472.931667	2568.041907
473.302330	2567.003429
473.672934	2566.411094
474.043479	2569.576938
474.413965	2565.909499
474.784393	2560.601164
475.154761	2563.877914
475.525070	2562.577296
475.895321	2564.530743
476.265513	2563.477142
476.635645	2568.382185
477.005719	2568.593913
477.375734	2571.719429
477.745691	2570.038204
478.115588	2571.076682
478.485427	2573.478792
478.855207	2576.952147
479.224928	2581.315265
479.594591	2583.871130
479.964194	2584.438260
480.333739	2580.987590
480.703226	2585.302818
481.072653	2581.252251
481.442022	2586.079156
481.811333	2583.288877
482.180584	2584.269381
482.549777	2586.212746
482.918912	2581.078331
483.287988	2582.772159
483.657005	2581.917683
484.025964	2582.157138
484.394864	2580.417940
484.763706	2583.553538
485.132489	2577.662949
485.501213	2579.260995
485.869879	2580.685121
486.238487	2578.971129
486.607036	2577.118505
486.975527	2578.119174
487.343959	2576.931982
487.712333	2579.999524
488.080648	2580.672518
488.448905	2579.810481
488.817104	2577.673032
489.185244	2579.034143
489.553326	2581.302662
489.921350	2585.081007
490.289315	2587.833477
490.657222	2586.487489
491.025070	2584.949937
491.392861	2586.227870
491.760593	2584.619742
492.128267	2582.789803
492.495883	2581.252251
492.863440	2578.698906
493.230939	2577.650346
493.598380	2576.823597
493.965763	2569.758420
494.333088	2573.284707
494.700354	2571.946281
495.067563	2576.024574
495.434713	2569.075344
495.801805	2575.427197
496.168839	2573.924934
496.535815	2573.675397
496.902733	2572.856209
497.269593	2576.201015
497.636395	2571.613565
498.003139	2574.161868
498.369825	2572.957032
498.736453	2574.267732
499.103023	2573.962742
499.469535	2574.852506
499.835989	2573.733370
500.202385	2574.413926
500.568723	2570.186918
500.935003	2574.756724
501.301226	2573.687999
501.667390	2572.936867
502.033497	2574.902918
502.399546	2575.031467
502.765537	2574.076168
503.131470	2572.858730
503.497345	2575.903587
503.863163	2575.447362
504.228923	2576.339646
504.594625	2575.487691
504.960269	2573.045252
505.325856	2574.857547
505.691385	2572.989800
506.056856	2574.567681
506.422270	2574.247567
506.787625	2573.289748
507.152924	2577.247054
507.518164	2578.308217
507.883347	2574.174471
508.248472	2578.139338
508.613540	2574.731518
508.978550	2575.520459
509.343503	2575.575912
509.708398	2576.047259
510.073236	2576.281673
510.438016	2576.884091
510.802738	2577.819225
511.167403	2577.625141
511.532010	2574.890315
511.896561	2578.343505
512.261053	2578.159503
512.625488	2575.865778
512.989866	2572.871332
513.354186	2575.853175
513.718449	2572.387382
514.082655	2574.557598
514.446803	2576.730336
514.810894	2580.992631
515.174927	2579.782754
515.538904	2576.309399
515.902822	2578.638412
516.266684	2580.203691
516.630488	2579.046746
516.994235	2576.528690
517.357925	2575.578432
517.721558	2580.506160
518.085133	2579.971798
518.448651	2583.246027
518.812112	2579.475244
519.175516	2578.330902
519.538863	2580.856520
519.902152	2576.261508
520.265385	2579.649164
520.628560	2580.569174
520.991678	2580.468351
521.354739	2581.486664
521.717743	2581.751325
522.080690	2582.651171
522.443580	2580.425502
522.806413	2581.267374
523.169189	2581.673187
523.531908	2580.841397
523.894569	2580.153279
524.257174	2581.259813
524.619722	2578.777044
524.982213	2580.024730
525.344647	2579.172775
525.707025	2579.046746
526.069345	2580.803588
526.431608	2582.840214
526.793815	2582.086562
527.155964	2583.341809
527.518057	2579.598752
527.880093	2582.832652
528.242072	2579.858372
528.603995	2577.592373
528.965860	2579.329051
529.327669	2579.792837
529.689421	2580.317117
530.051117	2580.541448
530.412755	2579.329051
530.774337	2578.560275
531.135862	2581.020358
531.497331	2577.816704
531.858743	2575.838052
532.220098	2577.178998
532.581396	2573.335119
532.942638	2575.003741
533.303824	2576.841241
533.664953	2578.119174
534.026025	2578.557754
534.387040	2579.051787
534.747999	2576.841241
535.108902	2579.177816
535.469748	2577.879719
535.830537	2580.123032
536.191270	2578.116653
536.551947	2580.985070
536.912567	2581.020358
537.273131	2578.156982
537.633638	2579.480285
537.994089	2581.224524
538.354483	2579.850810
538.714821	2576.521128
539.075103	2577.940213
539.435328	2581.479103
539.795497	2579.069431
540.155609	2580.793506
540.515665	2579.260995
540.875665	2579.611355
541.235609	2577.637743
541.595496	2579.850810
541.955328	2580.198650
542.315102	2583.190574
542.674821	2577.736046
543.034483	2580.606983
543.394090	2576.475757
543.753640	2581.363156
544.113134	2578.184709
544.472571	2580.733012
544.831953	2582.653692
545.191278	2578.842579
545.550548	2580.790985
545.909761	2577.262177
546.268918	2580.339802
546.628019	2578.071283
546.987064	2576.813515
547.346053	2579.991962
547.704986	2578.940882
548.063863	2580.914493
548.422684	2580.773341
548.781449	2579.293763
549.140158	2576.901735
549.498811	2579.981880
549.857408	2578.900552
550.215949	2575.780078
550.574434	2576.047259
550.932864	2576.695048
551.291237	2572.097515
551.649555	2581.083372
552.007817	2577.625141
552.366022	2581.179154
552.724173	2576.342167
553.082267	2577.796540
553.440305	2576.964749
553.798288	2580.584298
554.156215	2580.042374
554.514086	2579.833166
554.871902	2576.725295
555.229661	2577.874678
555.587365	2578.971129
555.945014	2577.247054
556.302606	2579.250913
556.660143	2577.254616
557.017625	2579.835687
557.375050	2580.697724
557.732421	2579.855851
558.089735	2580.402816
558.446994	2577.085737
558.804197	2579.999524
559.161345	2580.201170
559.518437	2577.617579
559.875474	2576.969791
560.232455	2576.304358
560.589381	2577.347877
560.946251	2580.254102
561.303065	2579.618917
561.659825	2580.085224
562.016528	2576.425346
562.373177	2576.211097
562.729770	2580.584298
563.086307	2581.342992
563.442789	2580.067580
563.799216	2578.739236
564.155587	2575.636405
564.511904	2576.183371
564.868164	2578.109091
565.224370	2578.751838
565.580520	2575.449883
565.936615	2576.198494
566.292654	2574.605489
566.648638	2582.585636
567.004567	2577.153793
567.360441	2578.114132
567.716260	2576.987435
568.072023	2576.795871
568.427732	2572.170612
568.783385	2575.205387
569.138982	2572.770509
569.494525	2572.924265
569.850013	2574.257650
570.205445	2575.046590
570.560823	2577.950295
570.916145	2574.318144
571.271412	2576.306879
571.626625	2576.316961
571.981782	2576.216138
572.336884	2574.474419
572.691931	2574.088771
573.046923	2573.554409
573.401860	2576.717733
573.756743	2574.028277
574.111570	2576.102712
574.466342	2575.538103
574.821059	2574.771848
575.175722	2576.750500
575.530330	2572.785633
575.884882	2574.698751
576.239380	2575.681776
576.593823	2577.569688
576.948211	2573.531724
577.302544	2574.439131
577.656823	2575.097002
578.011047	2573.839234
578.365216	2571.185067
578.719330	2573.317475
579.073389	2573.020047
579.427394	2574.471899
579.781344	2572.326888
580.135239	2574.645819
580.489080	2573.624985
580.842866	2573.619944
581.196597	2572.158009
581.550273	2571.578277
581.903895	2571.737073
582.257463	2575.747311
582.610975	2569.090467
582.964434	2574.081209
583.317837	2568.558625
583.671186	2574.665983
584.024481	2574.870150
584.377721	2570.333112
584.730906	2573.057855
585.084037	2574.242526
585.437113	2569.957546
585.790135	2572.016857
586.143103	2571.485015
586.496016	2572.556260
586.848874	2565.223902
587.201679	2567.419325
587.554428	2564.598799
587.907124	2566.363203
588.259765	2565.997719
588.612352	2570.688513
588.964884	2569.856722
589.317362	2567.731876
589.669786	2569.791188
590.022155	2574.986097
590.374470	2569.529048
590.726731	2570.438976
591.078937	2574.048442
591.431090	2567.394119
591.783188	2567.784808
592.135232	2568.246074
592.487222	2570.549881
592.839157	2570.325550
593.191038	2567.028635
593.542866	2567.023594
593.894639	2570.459140
594.246358	2568.898903
594.598022	2568.379664
594.949633	2567.089129
595.301190	2567.583162
595.652692	2571.416960
596.004141	2567.278172
596.355535	2568.059551
596.706876	2568.341856
597.058162	2566.370765
597.409395	2567.933522
597.760573	2568.596434
598.111698	2567.139541
598.462768	2569.206414
598.813785	2567.762123
599.164748	2567.033676
599.515657	2567.457133
599.866511	2566.068295
600.217312	2566.547205
600.568060	2568.392267
600.918753	2567.744479
601.269392	2565.985116
601.619978	2563.726679
601.970510	2567.152143
602.320988	2564.752554
602.671412	2566.524520
603.021783	2566.426217
603.372100	2567.038717
603.722363	2565.516289
604.072572	2566.262380
604.422728	2569.178687
604.772830	2566.300188
605.122878	2559.711400
605.472872	2562.889848
605.822813	2562.985630
606.172701	2563.923284
606.522534	2565.249108
606.872314	2566.184242
607.222041	2566.688357
607.571714	2565.362534
607.921333	2565.077709
608.270899	2564.104766
608.620411	2566.393450
608.969870	2566.983265
609.319276	2567.507545
609.668627	2570.698595
610.017926	2572.962073
610.367171	2575.253278
610.716362	2573.342680
611.065500	2570.834706
611.414585	2568.735066
611.763616	2569.443348
612.112594	2566.826989
612.461518	2569.029973
612.810389	2565.702812
613.159207	2567.835220
613.507971	2567.265569
613.856682	2569.584500
614.205340	2565.836402
614.553945	2567.784808
614.902496	2565.818758
615.250994	2566.464026
615.599439	2568.475446
615.947830	2565.667524
616.296169	2566.640466
616.644454	2568.588872
616.992686	2566.890003
617.340864	2565.982596
617.688990	2564.898748
618.037063	2566.191804
618.385082	2565.148285
618.733048	2566.552246
619.080961	2567.444530
619.428821	2564.941598
619.776628	2564.288768
620.124382	2568.414952
620.472083	2567.378995
620.819731	2569.995354
621.167326	2566.799263
621.514868	2564.848336
621.862357	2565.995199
622.209793	2564.878583
622.557176	2565.997719
622.904506	2562.184086
623.251783	2561.894220
623.599007	2559.887841
623.946179	2562.000084
624.293297	2561.811041
624.640363	2563.313305
624.987376	2564.850857
625.334336	2561.455640
625.681243	2561.538819
626.028097	2561.468242
626.374899	2562.443706
626.721647	2561.926987
627.068343	2559.524878
627.414987	2560.371792
627.761577	2561.478325
628.108115	2559.718962
628.454600	2561.238870
628.801032	2561.564024
629.147412	2561.470763
629.493739	2560.500341
629.840014	2561.964796
630.186236	2560.497820
630.532405	2558.461194
630.878521	2562.403377
631.224585	2559.449260
631.570597	2560.843139
631.916556	2558.564538
632.262462	2562.133675
632.608316	2559.950855
632.954117	2561.246432
633.299866	2561.138047
633.645562	2559.217367
633.991206	2561.773232
634.336797	2558.935063
634.682336	2560.868345
635.027823	2556.938766
635.373257	2559.746688
635.718639	2557.672254
636.063968	2559.146791
636.409245	2558.027655
636.754470	2557.662171
637.099642	2556.532953
637.444762	2557.510937
637.789829	2554.035061
638.134845	2557.672254
638.479808	2558.602347
638.824719	2558.209137
639.169577	2557.621842
639.514383	2557.112686
639.859137	2558.993036
640.203839	2556.212840
640.548489	2554.881975
640.893086	2554.995401
641.237632	2550.438198
641.582125	2551.587581
641.926566	2552.981460
642.270955	2555.096224
642.615292	2554.387942
642.959576	2555.073539
643.303809	2555.527243
643.647990	2556.767367
643.992118	2555.643189
644.336195	2556.268292
