Dividing Wavelength (nm)	Counts (n)	Blue Motor Position (mm): 0.000000	Red Motor Position (mm): 49.100000	
326.493990	2128.750720
326.888308	2128.750720
327.282561	2128.750720
327.676750	2096.255442
328.070874	2095.693353
328.464933	2097.538416
328.858929	2104.903542
329.252859	2114.383431
329.646726	2125.849536
330.040528	2140.300003
330.434265	2154.332055
330.827938	2171.701351
331.221547	2189.466377
331.615091	2210.845910
332.008571	2227.937942
332.401986	2247.442167
332.795338	2267.465630
333.188625	2285.399534
333.581847	2305.609520
333.975006	2323.213229
334.368100	2342.314161
334.761129	2360.419465
335.154095	2376.893956
335.546996	2396.569580
335.939833	2425.054619
336.332606	2437.549119
336.725315	2451.984463
337.117960	2460.171297
337.510540	2467.637246
337.903056	2481.213073
338.295508	2484.915801
338.687896	2497.979951
339.080220	2503.741990
339.472480	2511.752383
339.864676	2517.335461
340.256807	2520.650020
340.648875	2522.116996
341.040879	2524.617408
341.432818	2526.028931
341.824694	2530.802904
342.216506	2531.448171
342.608253	2527.415248
342.999937	2528.415917
343.391557	2530.591175
343.783113	2524.935001
344.174605	2527.637059
344.566033	2525.605474
344.957397	2524.176307
345.348697	2524.022552
345.739934	2522.341327
346.131106	2517.126253
346.522215	2518.434433
346.913260	2513.809174
347.304241	2513.388238
347.695159	2511.896056
348.086012	2510.613082
348.476802	2510.487054
348.867528	2505.902124
349.258191	2506.249964
349.648789	2504.719974
350.039324	2502.862308
350.429796	2502.181753
350.820203	2501.244098
351.210548	2500.402225
351.600828	2495.776967
351.991045	2498.214365
352.381198	2496.792759
352.771288	2497.606906
353.161314	2494.584734
353.551276	2495.827378
353.941175	2496.011380
354.331010	2499.078923
354.720782	2497.385095
355.110490	2499.608244
355.500135	2498.892400
355.889717	2495.126658
356.279235	2497.286792
356.668689	2500.739983
357.058080	2499.164622
357.447408	2494.645228
357.836672	2496.029024
358.225873	2498.652945
358.615010	2496.258397
359.004084	2501.012205
359.393095	2500.278717
359.782043	2499.106649
360.170927	2501.811228
360.559748	2501.743172
360.948505	2507.348935
361.337199	2505.559326
361.725830	2504.364572
362.114398	2504.331805
362.502903	2507.386744
362.891344	2507.366579
363.279722	2507.399347
363.668037	2508.894049
364.056289	2511.185253
364.444478	2509.294821
364.832603	2509.564522
365.220665	2512.735408
365.608665	2512.979904
365.996601	2512.334637
366.384474	2513.194153
366.772284	2513.012672
367.160031	2517.204391
367.547715	2516.334792
367.935336	2519.661954
368.322893	2524.357788
368.710388	2526.941380
369.097820	2534.286341
369.485189	2536.779192
369.872495	2543.688093
370.259738	2551.796789
370.646918	2556.815257
371.034035	2562.521844
371.421090	2575.916189
371.808081	2583.361974
372.195010	2592.272213
372.581875	2605.139758
372.968678	2615.794237
373.355418	2628.281175
373.742096	2644.496046
374.128710	2661.290650
374.515262	2675.221879
374.901751	2691.098993
375.288177	2702.917978
375.674540	2726.699622
376.060841	2747.005389
376.447079	2763.333687
376.833254	2788.368057
377.219367	2798.410035
377.605417	2836.899245
377.991404	2845.610358
378.377329	2868.018287
378.763191	2884.853221
379.148991	2920.544590
379.534727	2946.635082
379.920402	2979.379896
380.306013	2986.802995
380.691563	3037.877446
381.077049	3059.567010
381.462474	3076.326326
381.847835	3116.779065
382.233134	3135.295223
382.618371	3138.128352
383.003545	3206.751058
383.388657	3212.684496
383.773706	3246.157758
384.158693	3262.128133
384.543618	3287.013789
384.928480	3322.818584
385.313280	3371.175853
385.698017	3365.716283
386.082692	3418.446752
386.467305	3428.680295
386.851856	3462.476190
387.236344	3482.658449
387.620770	3513.631299
388.005133	3541.622305
388.389435	3565.119123
388.773674	3579.756114
389.157851	3620.927217
389.541965	3637.356337
389.926018	3604.180504
390.310008	3670.663241
390.693936	3689.882640
391.077802	3732.961820
391.461606	3722.471179
391.845348	3783.998462
392.229027	3784.547948
392.612645	3792.797796
392.996200	3875.061865
393.379694	3914.163575
393.763125	3980.452227
394.146494	3947.052062
394.529801	4009.010364
394.913047	4056.843352
395.296230	4021.998897
395.679351	4075.165426
396.062410	4099.725927
396.445408	4082.306220
396.828343	4118.448773
397.211217	4140.768481
397.594028	4059.341244
397.976778	4130.497130
398.359466	4155.221469
398.742092	4178.773740
399.124656	4103.063171
399.507158	4184.621478
399.889598	4210.346487
400.271977	4271.190693
400.654294	4239.706167
401.036549	4251.560440
401.418742	4221.069021
401.800874	4326.164476
402.182944	4341.282896
402.564952	4408.899892
402.946898	4394.295670
403.328783	4389.587232
403.710606	4306.062875
404.092367	4497.853573
404.474067	4460.435608
404.855705	4471.296774
405.237282	4396.460845
405.618797	4508.573586
406.000250	4541.784708
406.381642	4624.472234
406.762972	4584.374896
407.144240	4594.535342
407.525447	4589.773972
407.906593	4652.334691
408.287677	4695.597873
408.668700	4624.336123
409.049661	4679.919885
409.430560	4719.107294
409.811399	4648.606758
410.192176	4809.908557
410.572891	4744.391202
410.953545	4849.466492
411.334138	4726.893357
411.714669	4797.903050
412.095139	4692.414385
412.475547	4830.930169
412.855894	4814.261594
413.236180	4820.931040
413.616405	4776.069812
413.996568	4865.489799
414.376670	4805.956293
414.756711	4761.969705
415.136691	4788.014826
415.516609	4870.732599
415.896466	4906.328187
416.276262	4943.668013
416.655997	4922.164971
417.035670	5104.758084
417.415283	5197.792578
417.794834	5140.799814
418.174324	5093.786013
418.553753	5003.861911
418.933121	5182.853119
419.312428	5250.376854
419.691674	5195.017423
420.070859	5317.106608
420.449983	5231.235593
420.829045	5347.204817
421.208047	5250.754941
421.586988	5324.479295
421.965867	5333.165203
422.344686	5468.497499
422.723444	5321.167257
423.102141	5138.644720
423.480777	5440.995484
423.859352	5209.067119
424.237866	5467.277540
424.616319	5458.957115
424.994712	5571.768056
425.373044	5445.227533
425.751314	5591.814204
426.129524	5393.081837
426.507673	5586.941929
426.885762	5667.388662
427.263789	5600.212767
427.641756	5485.191280
428.019662	5601.720072
428.397508	5612.848419
428.775292	5555.417073
429.153016	5658.821221
429.530679	5584.121403
429.908282	5667.660884
430.285824	5538.962747
430.663305	5813.246887
431.040726	5546.907606
431.418086	5546.557246
431.795385	5658.117980
432.172624	5668.217932
432.549802	5658.806098
432.926920	5674.030382
433.303977	5681.158574
433.680974	5722.158278
434.057910	5741.765846
434.434786	5746.726341
434.811601	5708.721083
435.188355	5948.493483
435.565050	5820.067568
435.941683	5804.399662
436.318257	6017.738772
436.694770	5999.096585
437.071222	6031.828797
437.447614	5971.009797
437.823946	5878.915478
438.200218	6032.191760
438.576429	5901.310803
438.952580	5997.974928
439.328670	6041.084356
439.704700	5947.999450
440.080670	5932.341626
440.456580	6202.650816
440.832429	6083.646817
441.208218	5940.896464
441.583947	6091.649649
441.959616	6095.062510
442.335224	6021.978383
442.710773	6160.015257
443.086261	6185.710018
443.461689	5978.339634
443.837057	6130.837059
444.212365	6285.050996
444.587612	6180.192475
444.962800	6331.338871
445.337927	6310.302136
445.712995	5922.949956
446.088002	6503.305231
446.462949	6327.731925
446.837837	6262.292707
447.212664	6433.381907
447.587431	6575.086221
447.962139	7117.290043
448.336786	8048.834780
448.711374	7786.296529
449.085901	6856.624581
449.460369	6777.110461
449.834776	6713.717952
450.209124	7105.730677
450.583412	7260.688185
450.957640	7400.386120
451.331808	7165.836355
451.705917	6722.431586
452.079965	6644.502909
452.453954	6853.902358
452.827883	6732.602114
453.201752	6827.748852
453.575562	6620.496935
453.949311	6827.579973
454.323001	6716.921605
454.696632	6785.072964
455.070202	6928.292144
455.443713	7081.391987
455.817164	7186.552977
456.190556	7268.645646
456.563888	7343.993252
456.937160	7385.570169
457.310373	7039.389093
457.683526	7068.486633
458.056619	6955.186700
458.429653	6946.152953
458.802628	6879.612242
459.175542	6990.600806
459.548398	7340.968560
459.921194	7501.249526
460.293930	7506.860330
460.666607	8032.592182
461.039224	8347.664298
461.411782	8473.443607
461.784280	8495.549067
462.156719	8385.598981
462.529099	8266.390816
462.901419	7848.307762
463.273680	7745.279181
463.645882	7754.711180
464.018024	7619.242773
464.390106	7789.822816
464.762130	8173.784819
465.134094	8644.401737
465.505999	9664.869907
465.877845	10884.020033
466.249631	11536.221832
466.621358	11161.502784
466.993026	10532.530622
467.364634	10273.584193
467.736184	9905.642976
468.107674	9578.648532
468.479105	9614.982648
468.850477	9378.519766
469.221790	9147.345053
469.593043	8815.785844
469.964238	8679.185698
470.335373	8688.332872
470.706449	8746.984176
471.077467	8728.891475
471.448425	10036.879334
471.819324	11117.914447
472.190164	11136.866665
472.560945	9888.697138
472.931667	9102.062889
473.302330	8962.445612
473.672934	8613.441490
474.043479	8969.714956
474.413965	8906.652642
474.784393	8790.007904
475.154761	8948.794168
475.525070	9030.531436
475.895321	8856.639355
476.265513	9032.215182
476.635645	9209.068941
477.005719	9198.185090
477.375734	9318.252771
477.745691	9551.370849
478.115588	9690.055512
478.485427	9936.250342
478.855207	10466.226846
479.224928	11294.165789
479.594591	11918.510172
479.964194	11727.886501
480.333739	11666.210504
480.703226	11583.898544
481.072653	11676.330621
481.442022	11909.877196
481.811333	12103.034047
482.180584	11907.283523
482.549777	11620.930861
482.918912	11439.804723
483.287988	11461.663167
483.657005	11473.678757
484.025964	11152.854685
484.394864	11290.223607
484.763706	11253.060220
485.132489	11017.192194
485.501213	10973.369443
485.869879	11048.326360
486.238487	10891.740560
486.607036	11002.860193
486.975527	10781.215782
487.343959	10974.697787
487.712333	11027.087979
488.080648	10952.259612
488.448905	10992.974491
488.817104	10935.245717
489.185244	11195.379338
489.553326	11360.005779
489.921350	11893.097716
490.289315	12957.446609
490.657222	13298.561326
491.025070	13205.579763
491.392861	13082.668871
491.760593	12704.917569
492.128267	12357.266997
492.495883	12023.943384
492.863440	11687.428721
493.230939	11354.296672
493.598380	11288.839810
493.965763	11155.445838
494.333088	11059.220293
494.700354	10974.304577
495.067563	11033.724658
495.434713	10865.113185
495.801805	10992.059521
496.168839	10913.374671
496.535815	10853.067348
496.902733	10853.999961
497.269593	10781.036821
497.636395	10884.072965
498.003139	10871.649041
498.369825	10741.304967
498.736453	10895.082845
499.103023	10832.559934
499.469535	10849.783036
499.835989	10843.615184
500.202385	10805.226798
500.568723	10648.961111
500.935003	10876.559125
501.301226	10685.408653
501.667390	10941.363157
502.033497	11037.455112
502.399546	10895.498740
502.765537	10808.533795
503.131470	10878.847809
503.497345	11058.448997
503.863163	10665.891826
504.228923	10978.254321
504.594625	11043.123889
504.960269	10791.076279
505.325856	11014.142296
505.691385	10802.423916
506.056856	10956.393358
506.422270	10981.389919
506.787625	10869.866993
507.152924	10989.866619
507.518164	10959.521394
507.883347	10879.185566
508.248472	10802.935593
508.613540	11042.050123
508.978550	10922.007647
509.343503	10903.960317
509.708398	11015.929385
510.073236	11133.738629
510.438016	11138.615946
510.802738	11086.959242
511.167403	11138.830195
511.532010	11039.153980
511.896561	11263.674370
512.261053	11337.111378
512.625488	11208.773684
512.989866	11189.897083
513.354186	11178.309991
513.718449	11082.749879
514.082655	11273.434044
514.446803	11167.915132
514.810894	11292.847527
515.174927	11158.649491
515.538904	11183.351145
515.902822	11334.482417
516.266684	11221.371527
516.630488	11163.887250
516.994235	11217.542771
517.357925	11285.777309
517.721558	11371.010618
518.085133	11386.280273
518.448651	11398.744525
518.812112	11281.487287
519.175516	11293.994390
519.538863	11419.292268
519.902152	11333.907725
520.265385	11490.521252
520.628560	11405.771894
520.991678	11381.236598
521.354739	11445.934767
521.717743	11377.808613
522.080690	11354.089985
522.443580	11491.194246
522.806413	11443.905702
523.169189	11471.939559
523.531908	11533.822243
523.894569	11349.074037
524.257174	11355.032680
524.619722	11473.172121
524.982213	11418.379820
525.344647	11477.835188
525.707025	11428.489854
526.069345	11518.542505
526.431608	11436.769949
526.793815	11552.058617
527.155964	11336.524084
527.518057	11392.669935
527.880093	11336.680360
528.242072	11403.001780
528.603995	11320.379789
528.965860	11234.536501
529.327669	11286.127669
529.689421	11235.517005
530.051117	11205.794362
530.412755	11315.252935
530.774337	11202.131964
531.135862	11181.286793
531.497331	11207.125227
531.858743	11057.067721
532.220098	11226.838659
532.581396	11091.279511
532.942638	11081.555125
533.303824	11035.357992
533.664953	11051.557739
534.026025	10965.694287
534.387040	11066.996273
534.747999	11067.288660
535.108902	11124.266301
535.469748	10883.609178
535.830537	10985.667338
536.191270	10963.859307
536.551947	10996.808288
536.912567	10997.045222
537.273131	10910.685216
537.633638	10896.151569
537.994089	10881.010464
538.354483	10834.525984
538.714821	10982.191463
539.075103	10979.474281
539.435328	10946.255597
539.795497	10775.431058
540.155609	10940.196130
540.515665	11020.118583
540.875665	10765.003431
541.235609	10832.247382
541.595496	10818.263222
541.955328	10981.967131
542.315102	10860.424912
542.674821	10808.669906
543.034483	10813.176698
543.394090	10817.534775
543.753640	10743.485266
544.113134	10960.948040
544.472571	10823.770682
544.831953	10965.749739
545.191278	10772.814699
545.550548	10795.419233
545.909761	10938.288054
546.268918	10910.339897
546.628019	10990.085909
546.987064	10857.067503
547.346053	10777.470205
547.704986	10885.497091
548.063863	10863.739471
548.422684	10859.709068
548.781449	10778.065061
549.140158	10879.603982
549.498811	10749.622871
549.857408	10610.144226
550.215949	10839.239463
550.574434	10686.303458
550.932864	10787.587801
551.291237	10842.861532
551.649555	10792.265991
552.007817	10805.814092
552.366022	10770.722620
552.724173	10759.637123
553.082267	10750.454661
553.440305	10886.149920
553.798288	10685.111225
554.156215	10837.530512
554.514086	10812.798611
554.871902	10665.733030
555.229661	10701.689060
555.587365	10679.896152
555.945014	10574.609133
556.302606	10700.965654
556.660143	10589.170506
557.017625	10749.695968
557.375050	10642.624381
557.732421	10781.666965
558.089735	10696.894922
558.446994	10691.175733
558.804197	10725.432894
559.161345	10730.985725
559.518437	10580.522406
559.875474	10672.775522
560.232455	10701.406755
560.589381	10654.188788
560.946251	10641.303598
561.303065	10752.176215
561.659825	10691.478202
562.016528	10620.637388
562.373177	10501.209933
562.729770	10609.546850
563.086307	10527.040805
563.442789	10621.995979
563.799216	10500.768832
564.155587	10541.720645
564.511904	10504.887455
564.868164	10492.786165
565.224370	10508.794349
565.580520	10430.323748
565.936615	10430.858110
566.292654	10304.859511
566.648638	10430.631258
567.004567	10388.318334
567.360441	10378.480522
567.716260	10286.799578
568.072023	10375.463391
568.427732	10326.869189
568.783385	10239.248894
569.138982	10310.772785
569.494525	10328.124436
569.850013	10201.599036
570.205445	10284.405029
570.560823	10182.311582
570.916145	10096.148180
571.271412	10170.295992
571.626625	10112.272311
571.981782	10094.426626
572.336884	10061.429754
572.691931	10066.133150
573.046923	10020.656901
573.401860	9977.769285
573.756743	9906.923429
574.111570	9955.094175
574.466342	9937.203120
574.821059	9969.781577
575.175722	9856.847128
575.530330	9864.018169
575.884882	9858.258651
576.239380	9787.067476
576.593823	9761.748281
576.948211	9776.801166
577.302544	9651.692331
577.656823	9675.635291
578.011047	9680.126959
578.365216	9642.222523
578.719330	9568.906502
579.073389	9578.285569
579.427394	9524.561993
579.781344	9503.363941
580.135239	9452.483575
580.489080	9459.878948
580.842866	9363.718938
581.196597	9370.842088
581.550273	9410.886494
581.903895	9377.501453
582.257463	9447.828069
582.610975	9319.258482
582.964434	9346.153037
583.317837	9270.815514
583.671186	9249.688038
584.024481	9246.076051
584.377721	9165.528495
584.730906	9138.757448
585.084037	9171.436727
585.437113	9110.559753
585.790135	9133.991037
586.143103	9029.848360
586.496016	9006.780040
586.848874	9063.823216
587.201679	9054.431547
587.554428	8934.373947
587.907124	8983.260537
588.259765	8953.789951
588.612352	8951.128222
588.964884	8831.501641
589.317362	8845.271553
589.669786	8844.094443
590.022155	8896.277947
590.374470	8909.856295
590.726731	8849.601904
591.078937	8696.169346
591.431090	8814.782654
591.783188	8685.262809
592.135232	8675.803084
592.487222	8680.776182
592.839157	8732.619408
593.191038	8663.091815
593.542866	8609.143907
593.894639	8508.582970
594.246358	8563.536588
594.598022	8569.084378
594.949633	8473.189029
595.301190	8450.894526
595.652692	8476.801015
596.004141	8587.499713
596.355535	8370.853606
596.706876	8344.178340
597.058162	8276.548741
597.409395	8351.785441
597.760573	8415.619052
598.111698	8325.175711
598.462768	8310.994945
598.813785	8275.351467
599.164748	8247.788958
599.515657	8233.542657
599.866511	8146.071076
600.217312	8270.857278
600.568060	8129.808314
600.918753	8235.821259
601.269392	8205.150879
601.619978	8114.309286
601.970510	8176.577619
602.320988	8170.926485
602.671412	8235.359993
603.021783	8166.056731
603.372100	8139.295765
603.722363	8141.360118
604.072572	8116.431612
604.422728	8132.354097
604.772830	8056.724186
605.122878	8065.329436
605.472872	8061.321718
605.822813	8093.239784
606.172701	8038.177781
606.522534	8111.103112
606.872314	8106.059438
607.222041	8083.187723
607.571714	8137.516238
607.921333	8095.911595
608.270899	8097.118952
608.620411	8189.911471
608.969870	8095.231040
609.319276	8088.206192
609.668627	8104.153882
610.017926	8137.198645
610.367171	8186.670009
610.716362	8156.869228
611.065500	8151.170203
611.414585	8179.486364
611.763616	8174.503184
612.112594	8145.012434
612.461518	8163.684868
612.810389	8228.327583
613.159207	8167.327101
613.507971	8117.137374
613.856682	8229.169456
614.205340	8186.717900
614.553945	8266.121114
614.902496	8170.835744
615.250994	8226.762305
615.599439	8202.693316
615.947830	8211.931231
616.296169	8186.221346
616.644454	8198.085702
616.992686	8195.983540
617.340864	8257.271368
617.688990	8158.210175
618.037063	8245.573371
618.385082	8198.630146
618.733048	8278.792054
619.080961	8216.899288
619.428821	8241.419460
619.776628	8248.640913
620.124382	8191.943056
620.472083	8179.947630
620.819731	8207.747073
621.167326	8100.960311
621.514868	8112.149152
621.862357	8000.217892
622.209793	8014.716251
622.557176	7945.077752
622.904506	7923.592354
623.251783	7854.843618
623.599007	7807.270250
623.946179	7812.140004
624.293297	7766.210052
624.640363	7685.786004
624.987376	7671.965680
625.334336	7612.631300
625.681243	7565.446100
626.028097	7556.596354
626.374899	7532.313116
626.721647	7524.148967
627.068343	7456.642876
627.414987	7428.382168
627.761577	7381.955661
628.108115	7415.386073
628.454600	7304.697458
628.801032	7363.910851
629.147412	7320.955179
629.493739	7306.507232
629.840014	7249.189313
630.186236	7302.078579
630.532405	7183.240938
630.878521	7236.775472
631.224585	7190.679161
631.570597	7115.117306
631.916556	7154.576938
632.262462	7147.128633
632.608316	7105.415605
632.954117	7086.269303
633.299866	7071.334885
633.645562	7061.182001
633.991206	6982.923129
634.336797	6924.090343
634.682336	6882.578961
635.027823	6851.217943
635.373257	6841.967426
635.718639	6774.030316
636.063968	6787.737213
636.409245	6681.300812
636.754470	6682.135123
637.099642	6634.259285
637.444762	6581.675009
637.789829	6591.018787
638.134845	6527.865733
638.479808	6518.980699
638.824719	6515.923239
639.169577	6449.821109
639.514383	6469.567309
639.859137	6407.155304
640.203839	6407.843421
640.548489	6395.469909
