Dividing Wavelength (nm)	Counts (n)	Blue Motor Position (mm): 0.000000	Red Motor Position (mm): 1.000000	
326.493990	2128.654938
326.888308	2128.654938
327.282561	2128.654938
327.676750	2097.180494
328.070874	2092.404001
328.464933	2097.853488
328.858929	2103.958325
329.252859	2116.069697
329.646726	2126.116717
330.040528	2139.768162
330.434265	2157.313898
330.827938	2173.785868
331.221547	2190.162056
331.615091	2211.614686
332.008571	2230.944991
332.401986	2247.525346
332.795338	2267.004364
333.188625	2287.889864
333.581847	2305.627164
333.975006	2324.158446
334.368100	2343.639985
334.761129	2360.931143
335.154095	2376.740201
335.546996	2395.967162
335.939833	2409.913514
336.332606	2425.498241
336.725315	2436.316557
337.117960	2442.186981
337.510540	2454.978909
337.903056	2464.118521
338.295508	2470.082206
338.687896	2479.776344
339.080220	2489.057109
339.472480	2494.383088
339.864676	2497.400218
340.256807	2502.663183
340.648875	2506.484378
341.040879	2509.163751
341.432818	2510.809687
341.824694	2510.166940
342.216506	2514.222549
342.608253	2513.552075
342.999937	2515.253465
343.391557	2512.427898
343.783113	2508.324399
344.174605	2510.298010
344.566033	2511.344050
344.957397	2508.337002
345.348697	2504.934223
345.739934	2502.388440
346.131106	2504.379696
346.522215	2502.065806
346.913260	2501.917092
347.304241	2496.979282
347.695159	2495.184631
348.086012	2494.501555
348.476802	2493.248828
348.867528	2491.358395
349.258191	2488.210195
349.648789	2489.425113
350.039324	2484.845225
350.429796	2486.047540
350.820203	2481.878506
351.210548	2482.974957
351.600828	2482.672487
351.991045	2480.489668
352.381198	2481.634010
352.771288	2481.896150
353.161314	2481.497898
353.551276	2481.046715
353.941175	2479.753659
354.331010	2477.951447
354.720782	2477.036477
355.110490	2478.090078
355.500135	2480.996304
355.889717	2480.046046
356.279235	2478.236272
356.668689	2482.586788
357.058080	2481.800368
357.447408	2481.477734
357.836672	2475.534213
358.225873	2482.080152
358.615010	2478.740387
359.004084	2482.168372
359.393095	2483.010245
359.782043	2483.705924
360.170927	2483.814309
360.559748	2482.967395
360.948505	2487.073415
361.337199	2482.929586
361.725830	2485.404793
362.114398	2488.169866
362.502903	2486.498723
362.891344	2489.026862
363.279722	2487.791779
363.668037	2488.757160
364.056289	2488.767242
364.444478	2489.871255
364.832603	2489.639362
365.220665	2489.687253
365.608665	2492.704383
365.996601	2489.200782
366.384474	2493.042141
366.772284	2490.806389
367.160031	2491.751605
367.547715	2490.919815
367.935336	2491.587768
368.322893	2492.487614
368.710388	2493.876452
369.097820	2496.639004
369.485189	2492.986688
369.872495	2493.947028
370.259738	2494.153715
370.646918	2496.492811
371.034035	2493.319404
371.421090	2492.848056
371.808081	2493.546256
372.195010	2493.536174
372.581875	2495.489621
372.968678	2496.598675
373.355418	2494.373005
373.742096	2495.010711
374.128710	2495.028355
374.515262	2493.833602
374.901751	2499.013388
375.288177	2496.518016
375.674540	2496.288644
376.060841	2496.147492
376.447079	2497.695126
376.833254	2495.154384
377.219367	2493.820999
377.605417	2496.081957
377.991404	2492.966523
378.377329	2496.661689
378.763191	2492.941318
379.148991	2497.122955
379.534727	2499.139416
379.920402	2499.772081
380.306013	2498.090856
380.691563	2500.981958
381.077049	2499.025990
381.462474	2498.978099
381.847835	2500.795435
382.233134	2500.084633
382.618371	2499.920795
383.003545	2501.183604
383.388657	2501.687720
383.773706	2502.068327
384.158693	2501.914572
384.543618	2504.558657
384.928480	2501.599499
385.313280	2505.322392
385.698017	2500.021618
386.082692	2503.008502
386.467305	2501.828872
386.851856	2503.424397
387.236344	2502.695950
387.620770	2505.798781
388.005133	2503.736949
388.389435	2504.460354
388.773674	2503.290807
389.157851	2503.973883
389.541965	2504.828358
389.926018	2503.890704
390.310008	2503.784840
390.693936	2503.552947
391.077802	2502.469098
391.461606	2506.799450
391.845348	2506.875067
392.229027	2505.660149
392.612645	2506.617968
392.996200	2505.587052
393.379694	2506.905314
393.763125	2507.661487
394.146494	2507.162413
394.529801	2506.494460
394.913047	2507.464882
395.296230	2509.541837
395.679351	2508.165602
396.062410	2508.914214
396.445408	2507.303565
396.828343	2509.965294
397.211217	2502.401043
397.594028	2506.108812
397.976778	2505.927330
398.359466	2508.972187
398.742092	2503.736949
399.124656	2508.790705
399.507158	2510.570233
399.889598	2508.422701
400.271977	2510.197187
400.654294	2509.405726
401.036549	2510.429080
401.418742	2507.427073
401.800874	2512.697600
402.182944	2509.607372
402.564952	2507.825324
402.946898	2511.591066
403.328783	2508.342043
403.710606	2511.326406
404.092367	2511.530572
404.474067	2512.422857
404.855705	2511.437311
405.237282	2514.139370
405.618797	2511.114677
406.000250	2510.812208
406.381642	2512.778258
406.762972	2512.286746
407.144240	2516.435615
407.525447	2514.557785
407.906593	2512.798423
408.287677	2514.404030
408.668700	2511.664163
409.049661	2516.544000
409.430560	2511.780110
409.811399	2516.022241
410.192176	2514.698938
410.572891	2515.434946
410.953545	2512.516118
411.334138	2514.096520
411.714669	2513.680625
412.095139	2514.635923
412.475547	2513.484020
412.855894	2515.694566
413.236180	2515.767662
413.616405	2514.076355
413.996568	2516.344874
414.376670	2516.760770
414.756711	2517.244720
415.136691	2517.544669
415.516609	2517.670698
415.896466	2516.861593
416.276262	2517.665657
416.655997	2515.218177
417.035670	2513.685666
417.415283	2515.238341
417.794834	2513.118536
418.174324	2516.223887
418.553753	2517.456449
418.933121	2519.251100
419.312428	2516.596932
419.691674	2518.734381
420.070859	2515.036695
420.449983	2514.711541
420.829045	2516.329751
421.208047	2516.586850
421.586988	2514.963598
421.965867	2519.954341
422.344686	2519.785462
422.723444	2520.108096
423.102141	2517.353105
423.480777	2522.921060
423.859352	2517.201871
424.237866	2519.523322
424.616319	2519.024248
424.994712	2521.265041
425.373044	2517.032992
425.751314	2518.270595
426.129524	2518.310924
426.507673	2521.406193
426.885762	2518.202540
427.263789	2519.389731
427.641756	2519.135153
428.019662	2521.779238
428.397508	2520.213960
428.775292	2520.597088
429.153016	2520.884433
429.530679	2521.209588
429.908282	2521.761594
430.285824	2521.943076
430.663305	2519.772859
431.040726	2519.631707
431.418086	2522.442150
431.795385	2523.652027
432.172624	2519.238497
432.549802	2521.638086
432.926920	2520.158507
433.303977	2522.230422
433.680974	2522.558097
434.057910	2520.488703
434.434786	2523.863755
434.811601	2521.854856
435.188355	2519.651871
435.565050	2523.914167
435.941683	2523.094979
436.318257	2521.854856
436.694770	2518.820081
437.071222	2519.155318
437.447614	2519.092303
437.823946	2520.549197
438.200218	2521.771677
438.576429	2521.605318
438.952580	2522.361492
439.328670	2523.861235
439.704700	2523.410052
440.080670	2524.385515
440.456580	2522.421985
440.832429	2525.171935
441.208218	2522.306039
441.583947	2523.377284
441.959616	2522.767304
442.335224	2525.555062
442.710773	2522.064063
443.086261	2526.472553
443.461689	2523.273940
443.837057	2523.873838
444.212365	2525.834847
444.587612	2525.804600
444.962800	2523.357119
445.337927	2526.371729
445.712995	2525.164373
446.088002	2524.826616
446.462949	2525.038344
446.837837	2524.748478
447.212664	2524.874507
447.587431	2523.412572
447.962139	2527.029600
448.336786	2529.426669
448.711374	2524.022552
449.085901	2529.789632
449.460369	2527.974816
449.834776	2526.764939
450.209124	2525.098838
450.583412	2527.848787
450.957640	2526.785104
451.331808	2526.591020
451.705917	2526.573376
452.079965	2525.975999
452.453954	2527.062367
452.827883	2527.145547
453.201752	2523.271420
453.575562	2527.495907
453.949311	2527.034641
454.323001	2526.094466
454.696632	2527.596730
455.070202	2530.203006
455.443713	2528.700742
455.817164	2524.108251
456.190556	2523.462984
456.563888	2525.355937
456.937160	2525.204702
457.310373	2526.825433
457.683526	2526.369209
458.056619	2528.884745
458.429653	2526.648993
458.802628	2527.367357
459.175542	2527.609333
459.548398	2525.204702
459.921194	2528.572193
460.293930	2529.698891
460.666607	2527.853829
461.039224	2528.393232
461.411782	2526.291071
461.784280	2530.462626
462.156719	2528.496576
462.529099	2529.489683
462.901419	2530.790301
463.273680	2531.967410
463.645882	2528.602440
464.018024	2531.087729
464.390106	2528.093283
464.762130	2529.058664
465.134094	2530.697039
465.505999	2529.338448
465.877845	2528.118489
466.249631	2527.896678
466.621358	2528.597399
466.993026	2531.410363
467.364634	2533.058820
467.736184	2531.352389
468.107674	2530.013963
468.479105	2528.640249
468.850477	2529.406504
469.221790	2531.750641
469.593043	2530.326515
469.964238	2530.656710
470.335373	2531.075126
470.706449	2527.163191
471.077467	2530.311391
471.448425	2528.736031
471.819324	2529.676206
472.190164	2530.150074
472.560945	2530.187883
472.931667	2530.767616
473.302330	2529.472039
473.672934	2531.233922
474.043479	2531.790970
474.413965	2532.174098
474.784393	2526.686802
475.154761	2527.674868
475.525070	2529.771988
475.895321	2527.077491
476.265513	2529.363654
476.635645	2533.136958
477.005719	2530.805424
477.375734	2531.322143
477.745691	2532.723583
478.115588	2530.588655
478.485427	2530.906247
478.855207	2532.779036
479.224928	2530.308871
479.594591	2532.136289
479.964194	2531.740558
480.333739	2531.067564
480.703226	2530.548325
481.072653	2529.043541
481.442022	2531.669982
481.811333	2531.105373
482.180584	2530.513037
482.549777	2532.559746
482.918912	2532.731145
483.287988	2530.913809
483.657005	2530.571011
484.025964	2532.486649
484.394864	2533.094108
484.763706	2534.079654
485.132489	2532.688295
485.501213	2533.878008
485.869879	2533.174767
486.238487	2532.519417
486.607036	2530.686957
486.975527	2531.828778
487.343959	2533.510003
487.712333	2531.440610
488.080648	2532.665610
488.448905	2531.922040
488.817104	2531.238963
489.185244	2529.318284
489.553326	2531.962369
489.921350	2533.298275
490.289315	2533.706608
490.657222	2535.077802
491.025070	2532.743748
491.392861	2533.404139
491.760593	2529.764426
492.128267	2531.629653
492.495883	2531.644776
492.863440	2533.512524
493.230939	2532.025383
493.598380	2534.629139
493.965763	2527.521113
494.333088	2532.239633
494.700354	2528.289888
495.067563	2533.356248
495.434713	2528.010104
495.801805	2532.148892
496.168839	2533.784746
496.535815	2535.483615
496.902733	2533.865405
497.269593	2535.292051
497.636395	2533.709129
498.003139	2531.811134
498.369825	2535.259284
498.736453	2530.755013
499.103023	2533.628470
499.469535	2532.337935
499.835989	2533.512524
500.202385	2534.626619
500.568723	2532.842050
500.935003	2534.457740
501.301226	2533.338604
501.667390	2531.995137
502.033497	2537.371527
502.399546	2533.444468
502.765537	2534.966897
503.131470	2534.422452
503.497345	2533.149561
503.863163	2535.702905
504.228923	2533.406660
504.594625	2534.049407
504.960269	2534.140148
505.325856	2532.665610
505.691385	2533.164684
506.056856	2535.844058
506.422270	2533.731814
506.787625	2533.961187
507.152924	2535.037473
507.518164	2534.644263
507.883347	2534.041845
508.248472	2533.870446
508.613540	2532.816845
508.978550	2533.636032
509.343503	2534.069571
509.708398	2534.682072
510.073236	2535.801208
510.438016	2537.172402
510.802738	2533.711649
511.167403	2532.625281
511.532010	2532.627801
511.896561	2534.379602
512.261053	2534.004036
512.625488	2531.705270
512.989866	2530.235774
513.354186	2533.174767
513.718449	2531.554036
514.082655	2532.907585
514.446803	2539.297248
514.810894	2535.574356
515.174927	2537.187525
515.538904	2535.216434
515.902822	2537.863040
516.266684	2536.791794
516.630488	2534.997144
516.994235	2534.982020
517.357925	2535.970086
517.721558	2535.896990
518.085133	2534.735004
518.448651	2535.168543
518.812112	2536.201979
519.175516	2536.859850
519.538863	2535.632329
519.902152	2535.062679
520.265385	2534.336753
520.628560	2534.903882
520.991678	2534.530837
521.354739	2534.155271
521.717743	2533.648635
522.080690	2536.960673
522.443580	2537.537885
522.806413	2536.196938
523.169189	2536.063348
523.531908	2535.193749
523.894569	2533.618388
524.257174	2536.680889
524.619722	2535.778522
524.982213	2535.380271
525.344647	2531.148223
525.707025	2536.590148
526.069345	2536.264994
526.431608	2535.090405
526.793815	2536.494366
527.155964	2535.697864
527.518057	2534.621578
527.880093	2537.691640
528.242072	2538.228523
528.603995	2537.910931
528.965860	2536.257432
529.327669	2536.103677
529.689421	2535.468492
530.051117	2538.543595
530.412755	2536.552340
530.774337	2536.428831
531.135862	2536.900179
531.497331	2535.695343
531.858743	2534.896321
532.220098	2532.093439
532.581396	2533.315919
532.942638	2534.084695
533.303824	2535.289531
533.664953	2536.910262
534.026025	2534.407329
534.387040	2536.280117
534.747999	2535.750796
535.108902	2537.144675
535.469748	2535.922195
535.830537	2537.053934
536.191270	2538.896476
536.551947	2537.381609
536.912567	2537.300951
537.273131	2535.954963
537.633638	2533.918337
537.994089	2538.057124
538.354483	2537.006043
538.714821	2534.775333
539.075103	2534.762730
539.435328	2539.249357
539.795497	2534.314067
540.155609	2538.813297
540.515665	2535.130734
540.875665	2535.337422
541.235609	2539.264480
541.595496	2536.562422
541.955328	2534.782895
542.315102	2536.786753
542.674821	2536.254912
543.034483	2537.621064
543.394090	2535.468492
543.753640	2534.896321
544.113134	2539.483771
544.472571	2534.825744
544.831953	2539.193904
545.191278	2537.114428
545.550548	2537.580735
545.909761	2535.468492
546.268918	2535.995292
546.628019	2536.017977
546.987064	2534.724921
547.346053	2536.159130
547.704986	2536.585107
548.063863	2537.986548
548.422684	2535.982689
548.781449	2537.782381
549.140158	2537.774819
549.498811	2538.931764
549.857408	2536.118800
550.215949	2535.778522
550.574434	2532.549663
550.932864	2535.014788
551.291237	2532.935312
551.649555	2537.361445
552.007817	2535.057637
552.366022	2535.718029
552.724173	2538.964532
553.082267	2536.133924
553.440305	2539.065355
553.798288	2539.335057
554.156215	2537.132072
554.514086	2537.701723
554.871902	2537.845396
555.229661	2538.767927
555.587365	2536.937988
555.945014	2537.610982
556.302606	2534.545960
556.660143	2536.655683
557.017625	2537.807587
557.375050	2539.007382
557.732421	2537.132072
558.089735	2536.995961
558.446994	2534.515713
558.804197	2540.489481
559.161345	2536.839685
559.518437	2536.811959
559.875474	2540.194573
560.232455	2535.917154
560.589381	2535.967566
560.946251	2538.566281
561.303065	2537.691640
561.659825	2537.784902
562.016528	2537.374048
562.373177	2535.934798
562.729770	2536.060827
563.086307	2539.413194
563.442789	2534.240971
563.799216	2537.603420
564.155587	2536.766589
564.511904	2537.963863
564.868164	2539.884542
565.224370	2535.967566
565.580520	2538.036959
565.936615	2538.780530
566.292654	2535.987730
566.648638	2537.560570
567.004567	2537.348842
567.360441	2537.421939
567.716260	2538.077289
568.072023	2539.829090
568.427732	2535.410518
568.783385	2536.305323
569.138982	2533.668800
569.494525	2534.180477
569.850013	2535.960004
570.205445	2537.028729
570.560823	2537.893287
570.916145	2539.907227
571.271412	2536.179294
571.626625	2538.442772
571.981782	2537.671476
572.336884	2541.187681
572.691931	2537.704243
573.046923	2538.127700
573.401860	2535.970086
573.756743	2536.733821
574.111570	2536.738862
574.466342	2542.957126
574.821059	2536.244829
575.175722	2538.132741
575.530330	2535.395395
575.884882	2537.898328
576.239380	2535.740714
576.593823	2540.739018
576.948211	2537.132072
577.302544	2539.239275
577.656823	2535.733152
578.011047	2538.006713
578.365216	2538.294058
578.719330	2539.415715
579.073389	2535.869263
579.427394	2535.851619
579.781344	2533.938501
580.135239	2536.645601
580.489080	2540.960829
580.842866	2536.796836
581.196597	2538.367155
581.550273	2537.134593
581.903895	2538.112577
582.257463	2538.079809
582.610975	2539.687937
582.964434	2537.386651
583.317837	2538.160468
583.671186	2541.200283
584.024481	2538.415046
584.377721	2539.309851
584.730906	2540.106353
585.084037	2540.171888
585.437113	2536.501928
585.790135	2540.295396
586.143103	2536.917823
586.496016	2534.805580
586.848874	2534.888759
587.201679	2535.370189
587.554428	2535.738193
587.907124	2532.892462
588.259765	2532.763913
588.612352	2539.778678
588.964884	2537.946219
589.317362	2537.847916
589.669786	2538.205838
590.022155	2539.728267
590.374470	2537.426980
590.726731	2539.420756
591.078937	2539.471168
591.431090	2536.814480
591.783188	2537.343801
592.135232	2537.883204
592.487222	2537.374048
592.839157	2536.847247
593.191038	2541.749769
593.542866	2539.236754
593.894639	2538.309182
594.246358	2537.366486
594.598022	2538.883873
594.949633	2539.037628
595.301190	2536.385982
595.652692	2535.811290
596.004141	2539.082999
596.355535	2539.050231
596.706876	2535.738193
597.058162	2538.510828
597.409395	2536.779192
597.760573	2538.717515
598.111698	2537.532844
598.462768	2537.369007
598.813785	2538.558719
599.164748	2536.181815
599.515657	2538.362114
599.866511	2534.813142
600.217312	2536.451517
600.568060	2540.834800
600.918753	2536.048224
601.269392	2537.421939
601.619978	2537.505118
601.970510	2538.314223
602.320988	2536.380940
602.671412	2538.576363
603.021783	2539.272042
603.372100	2538.026877
603.722363	2538.825900
604.072572	2538.052083
604.422728	2538.687268
604.772830	2535.677699
605.122878	2534.205683
605.472872	2534.198121
605.822813	2532.685775
606.172701	2536.547298
606.522534	2535.748276
606.872314	2537.172402
607.222041	2535.584438
607.571714	2538.709953
607.921333	2539.191384
608.270899	2539.715664
608.620411	2538.498225
608.969870	2539.972762
609.319276	2540.824717
609.668627	2543.914945
610.017926	2543.446117
610.367171	2546.642209
610.716362	2544.572815
611.065500	2543.672969
611.414585	2541.913607
611.763616	2539.400592
612.112594	2538.846065
612.461518	2540.386137
612.810389	2541.210366
613.159207	2536.827082
613.507971	2540.300438
613.856682	2539.982845
614.205340	2540.996117
614.553945	2539.582073
614.902496	2538.538554
615.250994	2536.196938
615.599439	2538.566281
615.947830	2537.396733
616.296169	2536.748945
616.644454	2536.844727
616.992686	2538.604089
617.340864	2536.328008
617.688990	2539.536703
618.037063	2539.007382
618.385082	2537.250539
618.733048	2538.992258
619.080961	2538.215920
619.428821	2537.212731
619.776628	2537.522762
620.124382	2540.837320
620.472083	2536.920344
620.819731	2536.998482
621.167326	2539.415715
621.514868	2536.680889
621.862357	2537.963863
622.209793	2539.171219
622.557176	2535.748276
622.904506	2535.145858
623.251783	2533.762061
623.599007	2538.193235
623.946179	2534.563604
624.293297	2534.301464
624.640363	2537.109387
624.987376	2537.517721
625.334336	2537.303472
625.681243	2541.452341
626.028097	2539.950077
626.374899	2535.876825
626.721647	2536.244829
627.068343	2539.609799
627.414987	2538.793132
627.761577	2541.679193
628.108115	2538.341949
628.454600	2539.178781
628.801032	2539.874460
629.147412	2538.767927
629.493739	2539.821528
629.840014	2540.416384
630.186236	2539.692978
630.532405	2537.681558
630.878521	2537.903369
631.224585	2538.931764
631.570597	2536.307844
631.916556	2537.852957
632.262462	2534.182997
632.608316	2540.766744
632.954117	2535.869263
633.299866	2535.904551
633.645562	2538.077289
633.991206	2538.835982
634.336797	2538.800694
634.682336	2538.379758
635.027823	2540.925541
635.373257	2536.653163
635.718639	2536.519572
636.063968	2535.647453
636.409245	2538.130221
636.754470	2537.618544
637.099642	2536.489325
637.444762	2538.374717
637.789829	2536.993441
638.134845	2537.628626
638.479808	2537.134593
638.824719	2537.686599
639.169577	2537.235416
639.514383	2537.802546
639.859137	2536.743903
640.203839	2537.265663
640.548489	2537.749614
640.893086	2533.600744
641.237632	2534.563604
641.582125	2531.049920
641.926566	2530.908768
642.270955	2537.938657
642.615292	2535.279448
642.959576	2537.454706
643.303809	2534.510672
643.647990	2540.071065
643.992118	2536.295241
644.336195	2535.876825
