Dividing Wavelength (nm)	Counts (n)	Blue Motor Position (mm): 0.000000	Red Motor Position (mm): 40.200000	
326.493990	2128.070164
326.888308	2128.070164
327.282561	2128.070164
327.676750	2095.050606
328.070874	2093.644124
328.464933	2096.933477
328.858929	2103.376072
329.252859	2112.329161
329.646726	2121.985491
330.040528	2137.504683
330.434265	2154.445481
330.827938	2172.616320
331.221547	2190.504854
331.615091	2206.182843
332.008571	2227.423745
332.401986	2247.348905
332.795338	2263.523447
333.188625	2285.197888
333.581847	2303.497277
333.975006	2323.240956
334.368100	2341.116887
334.761129	2359.280165
335.154095	2375.500077
335.546996	2395.473129
335.939833	2416.560275
336.332606	2432.432348
336.725315	2446.272836
337.117960	2453.401028
337.510540	2461.976030
337.903056	2474.588997
338.295508	2483.012765
338.687896	2487.698518
339.080220	2495.756802
339.472480	2502.713594
339.864676	2507.805160
340.256807	2512.798423
340.648875	2517.612725
341.040879	2518.363857
341.432818	2520.282016
341.824694	2523.523477
342.216506	2519.856038
342.608253	2522.593385
342.999937	2521.123888
343.391557	2523.891482
343.783113	2520.115658
344.174605	2521.033148
344.566033	2518.467200
344.957397	2516.440656
345.348697	2517.930317
345.739934	2512.566530
346.131106	2514.514936
346.522215	2512.062414
346.913260	2509.052845
347.304241	2509.085613
347.695159	2504.808194
348.086012	2502.403563
348.476802	2502.456496
348.867528	2500.727380
349.258191	2500.409787
349.648789	2497.974910
350.039324	2493.231184
350.429796	2498.448778
350.820203	2494.282265
351.210548	2493.079949
351.600828	2492.356544
351.991045	2489.883858
352.381198	2492.011225
352.771288	2490.254383
353.161314	2490.410658
353.551276	2490.955103
353.941175	2489.757829
354.331010	2490.856801
354.720782	2490.592140
355.110490	2491.252531
355.500135	2490.798827
355.889717	2489.810761
356.279235	2491.625577
356.668689	2492.906030
357.058080	2492.240597
357.447408	2489.541059
357.836672	2489.072232
358.225873	2487.391007
358.615010	2489.543580
359.004084	2493.899137
359.393095	2496.704539
359.782043	2496.465084
360.170927	2495.166987
360.559748	2499.714108
360.948505	2498.794097
361.337199	2498.607575
361.725830	2499.033552
362.114398	2500.329129
362.502903	2502.083450
362.891344	2501.659993
363.279722	2500.860970
363.668037	2502.350631
364.056289	2502.930364
364.444478	2502.237205
364.832603	2504.455313
365.220665	2506.552433
365.608665	2505.398009
365.996601	2507.109481
366.384474	2506.620489
366.772284	2507.419512
367.160031	2509.740963
367.547715	2510.139214
367.935336	2512.977384
368.322893	2517.390914
368.710388	2518.794875
369.097820	2525.970958
369.485189	2529.323325
369.872495	2536.448996
370.259738	2541.291024
370.646918	2551.345606
371.034035	2555.096224
371.421090	2567.994016
371.808081	2579.399627
372.195010	2586.237952
372.581875	2600.201948
372.968678	2612.845162
373.355418	2622.904784
373.742096	2640.891621
374.128710	2656.254538
374.515262	2671.541837
374.901751	2685.314269
375.288177	2698.912782
375.674540	2718.840463
376.060841	2738.541292
376.447079	2758.637852
376.833254	2777.491767
377.219367	2792.627832
377.605417	2831.512772
377.991404	2839.303875
378.377329	2863.335055
378.763191	2879.139073
379.148991	2916.940165
379.534727	2939.527055
379.920402	2968.624595
380.306013	2984.252172
380.691563	3033.597506
381.077049	3053.709189
381.462474	3071.693506
381.847835	3111.790843
382.233134	3132.424286
382.618371	3133.213227
383.003545	3199.252342
383.388657	3206.350287
383.773706	3239.621902
384.158693	3255.146135
384.543618	3284.662091
384.928480	3319.375476
385.313280	3365.275182
385.698017	3365.081098
386.082692	3417.882143
386.467305	3421.206784
386.851856	3452.630817
387.236344	3476.921616
387.620770	3510.616689
388.005133	3532.613763
388.389435	3562.653999
388.773674	3571.564239
389.157851	3615.427318
389.541965	3633.174700
389.926018	3594.516612
390.310008	3666.053106
390.693936	3685.433822
391.077802	3727.179617
391.461606	3714.687638
391.845348	3779.380765
392.229027	3777.548305
392.612645	3787.396199
392.996200	3868.215978
393.379694	3909.266094
393.763125	3974.440651
394.146494	3939.079477
394.529801	4001.675485
394.913047	4049.518555
395.296230	4015.576467
395.679351	4071.646700
396.062410	4095.423302
396.445408	4073.857246
396.828343	4107.312864
397.211217	4131.633910
397.594028	4052.273546
397.976778	4118.007672
398.359466	4147.019512
398.742092	4176.094367
399.124656	4096.267696
399.507158	4178.672917
399.889598	4200.639745
400.271977	4268.163480
400.654294	4236.023604
401.036549	4242.015015
401.418742	4209.766754
401.800874	4315.941016
402.182944	4334.447091
402.564952	4402.636259
402.946898	4390.159403
403.328783	4383.570615
403.710606	4299.088438
404.092367	4489.122294
404.474067	4454.771872
404.855705	4465.136484
405.237282	4392.881626
405.618797	4501.115199
406.000250	4534.293553
406.381642	4618.001913
406.762972	4578.345676
407.144240	4590.026030
407.525447	4588.899332
407.906593	4649.425945
408.287677	4687.738715
408.668700	4616.842447
409.049661	4668.927649
409.430560	4711.006160
409.811399	4641.425634
410.192176	4797.489675
410.572891	4739.408021
410.953545	4843.681768
411.334138	4720.891863
411.714669	4788.619765
412.095139	4683.058003
412.475547	4828.407072
412.855894	4807.168690
413.236180	4815.973066
413.616405	4768.331641
413.996568	4856.965208
414.376670	4798.974295
414.756711	4753.840844
415.136691	4785.113642
415.516609	4865.875447
415.896466	4901.846601
416.276262	4936.202064
416.655997	4913.688271
417.035670	5095.512608
417.415283	5185.918141
417.794834	5135.572137
418.174324	5085.246298
418.553753	4992.947813
418.933121	5178.061502
419.312428	5245.612964
419.691674	5183.120300
420.070859	5312.171318
420.449983	5225.183688
420.829045	5340.676522
421.208047	5244.123303
421.586988	5316.526875
421.965867	5327.279656
422.344686	5459.171364
422.723444	5314.308767
423.102141	5133.868227
423.480777	5431.566006
423.859352	5202.586716
424.237866	5460.096416
424.616319	5450.414880
424.994712	5563.072066
425.373044	5440.267037
425.751314	5581.084108
426.129524	5384.106063
426.507673	5582.591413
426.885762	5660.515049
427.263789	5594.891829
427.641756	5473.974712
428.019662	5598.271922
428.397508	5604.240648
428.775292	5548.392226
429.153016	5648.320498
429.530679	5574.076904
429.908282	5659.700902
430.285824	5532.709196
430.663305	5806.282533
431.040726	5537.243714
431.418086	5546.597575
431.795385	5648.794366
432.172624	5659.113608
432.549802	5648.844778
432.926920	5668.187685
433.303977	5671.527449
433.680974	5712.043203
434.057910	5731.814608
434.434786	5736.142439
434.811601	5699.964598
435.188355	5941.501403
435.565050	5810.706145
435.941683	5794.100585
436.318257	6006.504561
436.694770	5994.045349
437.071222	6024.975348
437.447614	5959.672242
437.823946	5871.646134
438.200218	6028.247057
438.576429	5894.608589
438.952580	5991.663404
439.328670	6034.162851
439.704700	5940.631803
440.080670	5925.173105
440.456580	6201.299787
440.832429	6081.716056
441.208218	5930.302479
441.583947	6078.051137
441.959616	6091.193425
442.335224	6019.830851
442.710773	6152.443444
443.086261	6175.458832
443.461689	5976.741588
443.837057	6121.034535
444.212365	6279.969513
444.587612	6175.249624
444.962800	6325.546585
445.337927	6305.092103
445.712995	5914.080046
446.088002	6490.571277
446.462949	6322.277397
446.837837	6250.433392
447.212664	6428.023160
447.587431	6563.015178
447.962139	7107.540452
448.336786	8036.383130
448.711374	7775.826052
449.085901	6852.558890
449.460369	6773.190964
449.834776	6707.716458
450.209124	7093.079902
450.583412	7247.190496
450.957640	7396.184318
451.331808	7158.083060
451.705917	6712.455143
452.079965	6635.552341
452.453954	6848.909095
452.827883	6721.796401
453.201752	6819.519168
453.575562	6616.572396
453.949311	6820.471946
454.323001	6706.209153
454.696632	6781.269413
455.070202	6921.476504
455.443713	7075.236738
455.817164	7180.001997
456.190556	7257.950838
456.563888	7335.705595
456.937160	7376.977522
457.310373	7033.574122
457.683526	7059.989768
458.056619	6952.305681
458.429653	6937.129287
458.802628	6868.315017
459.175542	6981.168807
459.548398	7339.423446
459.921194	7496.024370
460.293930	7497.337591
460.666607	8025.053137
461.039224	8339.989141
461.411782	8473.257084
461.784280	8483.641861
462.156719	8378.064976
462.529099	8255.882530
462.901419	7841.023295
463.273680	7734.113025
463.645882	7744.699448
464.018024	7613.677339
464.390106	7782.767721
464.762130	8164.499014
465.134094	8635.766240
465.505999	9658.376901
465.877845	10884.748479
466.249631	11530.898373
466.621358	11145.565176
466.993026	10513.079330
467.364634	10260.424261
467.736184	9899.868335
468.107674	9558.592302
468.479105	9599.985216
468.850477	9358.501344
469.221790	9129.847208
469.593043	8796.226167
469.964238	8665.985437
470.335373	8681.562602
470.706449	8734.827434
471.077467	8716.303714
471.448425	10024.899032
471.819324	11105.480442
472.190164	11126.376024
472.560945	9875.375889
472.931667	9086.551258
473.302330	8952.000342
473.672934	8590.315197
474.043479	8950.354405
474.413965	8891.725786
474.784393	8779.469372
475.154761	8938.237992
475.525070	9022.775621
475.895321	8847.403961
476.265513	9025.676805
476.635645	9193.222074
477.005719	9192.425571
477.375734	9305.208786
477.745691	9544.620744
478.115588	9676.396505
478.485427	9924.867417
478.855207	10454.690165
479.224928	11271.352047
479.594591	11902.996021
479.964194	11713.045344
480.333739	11656.445789
480.703226	11569.793396
481.072653	11663.417705
481.442022	11904.841083
481.811333	12091.303282
482.180584	11892.202911
482.549777	11601.285484
482.918912	11427.272415
483.287988	11445.922164
483.657005	11460.312137
484.025964	11143.536112
484.394864	11272.957655
484.763706	11248.261042
485.132489	11001.385656
485.501213	10958.863523
485.869879	11031.652743
486.238487	10878.875535
486.607036	10985.768161
486.975527	10764.401013
487.343959	10958.545930
487.712333	11001.824236
488.080648	10940.491038
488.448905	10977.742644
488.817104	10917.337018
489.185244	11180.278562
489.553326	11342.825526
489.921350	11879.360571
490.289315	12943.911111
490.657222	13284.839305
491.025070	13198.577601
491.392861	13064.177919
491.760593	12689.121114
492.128267	12333.797905
492.495883	12006.533759
492.863440	11672.963130
493.230939	11339.803355
493.598380	11263.752508
493.965763	11139.840946
494.333088	11039.325380
494.700354	10958.419902
495.067563	11023.828873
495.434713	10853.211021
495.801805	10980.762295
496.168839	10903.579709
496.535815	10843.975627
496.902733	10833.255613
497.269593	10765.852866
497.636395	10867.878258
498.003139	10856.422236
498.369825	10724.555733
498.736453	10879.752696
499.103023	10808.397684
499.469535	10830.893833
499.835989	10820.398150
500.202385	10793.609459
500.568723	10637.051385
500.935003	10856.883501
501.301226	10664.712196
501.667390	10927.575602
502.033497	11024.917762
502.399546	10877.902592
502.765537	10785.906576
503.131470	10855.847544
503.497345	11041.573734
503.863163	10646.876594
504.228923	10959.284459
504.594625	11023.370128
504.960269	10775.902406
505.325856	11001.519246
505.691385	10787.648294
506.056856	10942.079001
506.422270	10964.978443
506.787625	10857.432987
507.152924	10969.583537
507.518164	10953.771958
507.883347	10872.639628
508.248472	10789.725250
508.613540	11028.295335
508.978550	10911.524568
509.343503	10883.604137
509.708398	11002.920687
510.073236	11115.464447
510.438016	11121.637340
510.802738	11071.399721
511.167403	11113.631987
511.532010	11022.664366
511.896561	11247.525033
512.261053	11322.776858
512.625488	11188.089830
512.989866	11173.639362
513.354186	11164.456900
513.718449	11063.827908
514.082655	11251.436969
514.446803	11155.571867
514.810894	11270.915987
515.174927	11135.898764
515.538904	11160.459265
515.902822	11318.587659
516.266684	11188.563698
516.630488	11142.623663
516.994235	11198.209946
517.357925	11254.575087
517.721558	11350.861126
518.085133	11361.964267
518.448651	11368.578261
518.812112	11261.347877
519.175516	11275.637028
519.538863	11398.603373
519.902152	11310.461319
520.265385	11471.379991
520.628560	11381.357586
520.991678	11364.764628
521.354739	11420.635736
521.717743	11349.686537
522.080690	11336.700524
522.443580	11466.288425
522.806413	11423.761251
523.169189	11446.181783
523.531908	11505.952224
523.894569	11327.989411
524.257174	11333.537200
524.619722	11451.666558
524.982213	11398.840307
525.344647	11440.860845
525.707025	11396.145811
526.069345	11493.394709
526.431608	11412.020404
526.793815	11522.189780
527.155964	11315.431896
527.518057	11365.341840
527.880093	11307.093828
528.242072	11382.708615
528.603995	11278.865887
528.965860	11207.457943
529.327669	11258.918041
529.689421	11199.646675
530.051117	11174.705566
530.412755	11281.482246
530.774337	11171.171717
531.135862	11153.812504
531.497331	11175.628097
531.858743	11026.157886
532.220098	11194.426560
532.581396	11063.081817
532.942638	11046.461133
533.303824	11007.543425
533.664953	11023.493636
534.026025	10941.756367
534.387040	11038.060050
534.747999	11041.392253
535.108902	11098.029616
535.469748	10845.072078
535.830537	10959.065169
536.191270	10930.806981
536.551947	10954.417225
536.912567	10956.864706
537.273131	10882.636236
537.633638	10864.137722
537.994089	10848.129538
538.354483	10790.494026
538.714821	10939.825606
539.075103	10944.337438
539.435328	10913.074723
539.795497	10741.922508
540.155609	10894.586291
540.515665	10987.978707
540.875665	10722.088089
541.235609	10789.412698
541.595496	10791.109047
541.955328	10935.669174
542.315102	10826.354274
542.674821	10769.908474
543.034483	10777.177818
543.394090	10782.823910
543.753640	10712.789680
544.113134	10929.294635
544.472571	10785.929261
544.831953	10929.213977
545.191278	10735.835315
545.550548	10758.066804
545.909761	10902.440409
546.268918	10871.838084
546.628019	10955.501073
546.987064	10821.383696
547.346053	10740.919319
547.704986	10841.674340
548.063863	10824.930148
548.422684	10815.485546
548.781449	10728.182844
549.140158	10833.817702
549.498811	10714.249094
549.857408	10568.070756
550.215949	10791.184664
550.574434	10649.823148
550.932864	10748.725546
551.291237	10797.022320
551.649555	10745.010215
552.007817	10761.456980
552.366022	10722.725795
552.724173	10714.909486
553.082267	10702.218381
553.440305	10842.785915
553.798288	10642.515996
554.156215	10794.201794
554.514086	10770.609194
554.871902	10620.899528
555.229661	10656.202728
555.587365	10629.678697
555.945014	10521.893787
556.302606	10652.585701
556.660143	10548.206090
557.017625	10695.427947
557.375050	10595.698800
557.732421	10732.046888
558.089735	10643.988013
558.446994	10649.235854
558.804197	10682.220123
559.161345	10680.067551
559.518437	10530.441063
559.875474	10619.787954
560.232455	10648.444393
560.589381	10591.318037
560.946251	10593.062277
561.303065	10703.816427
561.659825	10633.812444
562.016528	10560.362832
562.373177	10442.858577
562.729770	10558.061545
563.086307	10472.581220
563.442789	10564.287370
563.799216	10437.025962
564.155587	10480.198404
564.511904	10434.797772
564.868164	10426.484909
565.224370	10441.830182
565.580520	10362.595846
565.936615	10366.507782
566.292654	10238.553215
566.648638	10366.638852
567.004567	10323.975567
567.360441	10305.671137
567.716260	10210.673113
568.072023	10304.017638
568.427732	10255.597356
568.783385	10167.863635
569.138982	10231.505682
569.494525	10244.161498
569.850013	10127.267223
570.205445	10199.930414
570.560823	10091.797664
570.916145	10012.724646
571.271412	10083.893135
571.626625	10021.962560
571.981782	9996.643365
572.336884	9966.792173
572.691931	9968.065064
573.046923	9917.910624
573.401860	9868.671154
573.756743	9801.598602
574.111570	9842.366413
574.466342	9826.136418
574.821059	9860.219660
575.175722	9739.393284
575.530330	9747.960725
575.884882	9733.570752
576.239380	9664.562397
576.593823	9636.205906
576.948211	9644.927102
577.302544	9528.312611
577.656823	9537.162357
578.011047	9537.583293
578.365216	9502.796811
578.719330	9426.577085
579.073389	9432.407180
579.427394	9375.104384
579.781344	9349.661680
580.135239	9296.422055
580.489080	9299.923136
580.842866	9196.697949
581.196597	9198.381695
581.550273	9232.351510
581.903895	9193.232156
582.257463	9255.283719
582.610975	9132.309812
582.964434	9154.541300
583.317837	9064.188700
583.671186	9048.402327
584.024481	9035.854895
584.377721	8952.249879
584.730906	8923.820292
585.084037	8946.840721
585.437113	8875.737766
585.790135	8897.775170
586.143103	8785.906925
586.496016	8762.889017
586.848874	8805.199421
587.201679	8788.122512
587.554428	8665.241867
587.907124	8708.058907
588.259765	8674.053804
588.612352	8659.094180
588.964884	8539.462558
589.317362	8546.661325
589.669786	8535.447279
590.022155	8576.210049
590.374470	8578.707940
590.726731	8514.982715
591.078937	8364.710960
591.431090	8453.684804
591.783188	8337.173657
592.135232	8314.884195
592.487222	8308.436559
592.839157	8349.257303
593.191038	8280.742981
593.542866	8218.036068
593.894639	8112.623020
594.246358	8148.881519
594.598022	8150.361098
594.949633	8049.112044
595.301190	8011.936055
595.652692	8036.388171
596.004141	8124.774722
596.355535	7905.610558
596.706876	7875.719037
597.058162	7809.117833
597.409395	7867.564970
597.760573	7915.345026
598.111698	7819.631159
598.462768	7794.967314
598.813785	7749.249089
599.164748	7706.686628
599.515657	7687.762136
599.866511	7589.305881
600.217312	7702.351235
600.568060	7555.106693
600.918753	7638.328581
601.269392	7592.343176
601.619978	7504.112901
601.970510	7543.965743
602.320988	7527.443361
602.671412	7570.106646
603.021783	7495.810121
603.372100	7462.649411
603.722363	7444.523942
604.072572	7407.705875
604.422728	7413.074704
604.772830	7330.729977
605.122878	7317.038203
605.472872	7305.456152
605.822813	7315.019221
606.172701	7254.865652
606.522534	7301.264432
606.872314	7288.064171
607.222041	7243.119764
607.571714	7277.709641
607.921333	7223.857515
608.270899	7216.106741
608.620411	7277.704600
608.969870	7171.752149
609.319276	7155.900241
609.668627	7148.817419
610.017926	7169.997827
610.367171	7181.829415
610.716362	7155.940570
611.065500	7125.479398
611.414585	7126.722042
611.763616	7102.713547
612.112594	7066.679379
612.461518	7056.390384
612.810389	7089.467915
613.159207	7023.033069
613.507971	6964.159954
613.856682	7039.426902
614.205340	6990.600806
614.553945	7029.354676
614.902496	6931.415139
615.250994	6949.419620
615.599439	6922.015908
615.947830	6902.501601
616.296169	6866.626230
616.644454	6850.887748
616.992686	6834.372928
617.340864	6854.451843
617.688990	6762.939778
618.037063	6810.848383
618.385082	6748.552325
618.733048	6788.937008
619.080961	6724.609364
619.428821	6715.631069
619.776628	6694.738007
620.124382	6644.928887
620.472083	6609.534946
620.819731	6610.228104
621.167326	6515.204875
621.514868	6502.813719
621.862357	6405.065746
622.209793	6401.284880
622.557176	6336.881619
622.904506	6295.665145
623.251783	6236.161886
623.599007	6180.084091
623.946179	6166.246123
624.293297	6118.138392
624.640363	6049.976951
624.987376	6016.612074
625.334336	5965.656091
625.681243	5909.878244
626.028097	5884.579214
626.374899	5861.062231
626.721647	5830.996790
627.068343	5771.357419
627.414987	5737.070011
627.761577	5683.684192
628.108115	5693.433783
628.454600	5606.413386
628.801032	5614.499397
629.147412	5577.915743
629.493739	5547.978851
629.840014	5495.472713
630.186236	5506.722048
630.532405	5421.249284
630.878521	5432.120533
631.224585	5386.268718
631.570597	5325.759748
631.916556	5323.135828
632.262462	5304.856604
632.608316	5264.756746
632.954117	5232.765583
633.299866	5218.012647
633.645562	5188.930230
633.991206	5127.382783
634.336797	5077.855967
634.682336	5040.022107
635.027823	5003.229246
635.373257	4985.887677
635.718639	4927.609418
636.063968	4922.611113
636.409245	4849.196790
636.754470	4825.473120
637.099642	4792.012461
637.444762	4742.379781
637.789829	4732.602463
638.134845	4688.983880
638.479808	4660.793747
638.824719	4653.020288
639.169577	4602.815437
639.514383	4596.387966
639.859137	4541.769584
640.203839	4536.715828
640.548489	4512.667003
