Dividing Wavelength (nm)	Counts (n)	Blue Motor Position (mm): 0.000000	Red Motor Position (mm): 22.300000	
326.493990	2127.026645
326.888308	2127.026645
327.282561	2127.026645
327.676750	2096.134454
328.070874	2094.193610
328.464933	2098.201328
328.858929	2104.051587
329.252859	2113.463421
329.646726	2124.634618
330.040528	2138.477626
330.434265	2153.137302
330.827938	2171.706392
331.221547	2187.906140
331.615091	2207.743080
332.008571	2225.233363
332.401986	2247.422002
332.795338	2266.051586
333.188625	2284.257713
333.581847	2301.069961
333.975006	2323.646769
334.368100	2339.460868
334.761129	2359.675895
335.154095	2376.283977
335.546996	2391.793086
335.939833	2408.746487
336.332606	2424.391708
336.725315	2434.504262
337.117960	2448.062446
337.510540	2451.666871
337.903056	2466.114817
338.295508	2476.721405
338.687896	2480.817343
339.080220	2489.881337
339.472480	2498.030363
339.864676	2502.267452
340.256807	2505.821466
340.648875	2509.521673
341.040879	2510.040912
341.432818	2511.359173
341.824694	2516.435615
342.216506	2513.428567
342.608253	2514.341016
342.999937	2513.491581
343.391557	2514.751870
343.783113	2511.923783
344.174605	2512.309431
344.566033	2509.435973
344.957397	2511.351612
345.348697	2509.267094
345.739934	2503.240395
346.131106	2504.447751
346.522215	2502.703512
346.913260	2500.240908
347.304241	2498.564725
347.695159	2495.403921
348.086012	2497.211175
348.476802	2494.816627
348.867528	2490.909733
349.258191	2492.041472
349.648789	2489.619197
350.039324	2488.593323
350.429796	2488.472335
350.820203	2486.987715
351.210548	2487.121306
351.600828	2484.356233
351.991045	2484.429329
352.381198	2483.254741
352.771288	2481.485296
353.161314	2481.923876
353.551276	2483.673156
353.941175	2481.419761
354.331010	2483.216932
354.720782	2479.050418
355.110490	2482.803557
355.500135	2483.806747
355.889717	2483.917652
356.279235	2482.380100
356.668689	2485.853455
357.058080	2482.790954
357.447408	2481.661736
357.836672	2481.167703
358.225873	2483.831953
358.615010	2479.690645
359.004084	2486.004690
359.393095	2488.616008
359.782043	2489.094917
360.170927	2488.346306
360.559748	2486.944865
360.948505	2489.997284
361.337199	2489.299084
361.725830	2489.946872
362.114398	2491.166832
362.502903	2491.005515
362.891344	2492.772439
363.279722	2493.455515
363.668037	2493.775629
364.056289	2493.768067
364.444478	2493.689929
364.832603	2493.425268
365.220665	2497.468274
365.608665	2496.628922
365.996601	2495.766884
366.384474	2499.482215
366.772284	2496.023983
367.160031	2499.116731
367.547715	2504.780468
367.935336	2504.273832
368.322893	2508.490757
368.710388	2509.751045
369.097820	2521.012983
369.485189	2519.094824
369.872495	2524.761081
370.259738	2530.162677
370.646918	2541.336395
371.034035	2549.853424
371.421090	2559.648386
371.808081	2568.911506
372.195010	2578.300655
372.581875	2592.405804
372.968678	2605.815273
373.355418	2615.121243
373.742096	2631.497431
374.128710	2647.467807
374.515262	2662.724859
374.901751	2677.021571
375.288177	2689.223684
375.674540	2712.879298
376.060841	2730.440158
376.447079	2749.679721
376.833254	2771.568411
377.219367	2779.934206
377.605417	2816.636327
377.991404	2830.081084
378.377329	2852.791482
378.763191	2868.592979
379.148991	2906.779719
379.534727	2929.890889
379.920402	2960.326855
380.306013	2971.356900
380.691563	3021.707945
381.077049	3044.030174
381.462474	3058.828481
381.847835	3097.794080
382.233134	3118.258644
382.618371	3123.168728
383.003545	3190.727751
383.388657	3192.141794
383.773706	3228.717886
384.158693	3245.121801
384.543618	3271.771861
384.928480	3311.551606
385.313280	3354.978625
385.698017	3353.229345
386.082692	3407.557860
386.467305	3410.748910
386.851856	3439.788477
387.236344	3464.464925
387.620770	3497.474401
388.005133	3520.651105
388.389435	3550.772000
388.773674	3561.146694
389.157851	3600.616408
389.541965	3618.182309
389.926018	3583.103440
390.310008	3653.072135
390.693936	3670.622912
391.077802	3713.883573
391.461606	3699.904454
391.845348	3766.790483
392.229027	3763.314608
392.612645	3778.601907
392.996200	3856.165100
393.379694	3892.700862
393.763125	3959.518836
394.146494	3924.132456
394.529801	3989.843897
394.913047	4033.124723
395.296230	4001.766226
395.679351	4059.744536
396.062410	4082.071806
396.445408	4057.919638
396.828343	4095.269547
397.211217	4120.056901
397.594028	4037.760064
397.976778	4107.537195
398.359466	4133.622646
398.742092	4161.908560
399.124656	4084.184050
399.507158	4163.743540
399.889598	4186.592570
400.271977	4249.806118
400.654294	4215.959811
401.036549	4226.790730
401.418742	4196.044733
401.800874	4299.489210
402.182944	4320.964525
402.564952	4384.515831
402.946898	4374.219275
403.328783	4368.018655
403.710606	4282.087147
404.092367	4477.225171
404.474067	4440.649079
404.855705	4445.823824
405.237282	4372.197772
405.618797	4480.481757
406.000250	4514.933002
406.381642	4599.647072
406.762972	4561.094848
407.144240	4565.813368
407.525447	4571.406528
407.906593	4628.968943
408.287677	4669.462011
408.668700	4598.787555
409.049661	4652.511132
409.430560	4691.539745
409.811399	4616.887818
410.192176	4777.993012
410.572891	4721.423705
410.953545	4822.188808
411.334138	4702.221950
411.714669	4770.322897
412.095139	4664.693080
412.475547	4807.284637
412.855894	4786.930978
413.236180	4796.592350
413.616405	4749.361779
413.996568	4835.104244
414.376670	4776.720121
414.756711	4734.225715
415.136691	4764.490282
415.516609	4841.418290
415.896466	4880.915730
416.276262	4909.730965
416.655997	4890.995517
417.035670	5073.192899
417.415283	5165.917363
417.794834	5108.864104
418.174324	5058.255961
418.553753	4968.155418
418.933121	5150.572090
419.312428	5208.731882
419.691674	5151.401360
420.070859	5268.893012
420.449983	5177.633004
420.829045	5288.840858
421.208047	5198.455490
421.586988	5262.175675
421.965867	5261.295993
422.344686	5387.218975
422.723444	5242.391667
423.102141	5057.439294
423.480777	5340.520247
423.859352	5105.695739
424.237866	5351.242781
424.616319	5324.809491
424.994712	5420.881280
425.373044	5300.806037
425.751314	5417.299540
426.129524	5215.426535
426.507673	5381.537595
426.885762	5453.361434
427.263789	5367.697107
427.641756	5241.809413
428.019662	5332.088917
428.397508	5325.343853
428.775292	5250.865846
429.153016	5325.386703
429.530679	5235.346654
429.908282	5286.383296
430.285824	5149.992358
430.663305	5362.696282
431.040726	5102.300522
431.418086	5083.295372
431.795385	5141.828209
432.172624	5121.671155
432.549802	5086.362914
432.926920	5064.668308
433.303977	5040.213671
433.680974	5036.803330
434.057910	5012.207541
434.434786	4980.687726
434.811601	4922.195218
435.188355	5059.990118
435.565050	4922.653963
435.941683	4869.177403
436.318257	4975.702025
436.694770	4922.215383
437.071222	4896.293770
437.447614	4804.832116
437.823946	4707.628587
438.200218	4760.238069
438.576429	4624.429384
438.952580	4635.829953
439.328670	4613.381695
439.704700	4509.057537
440.080670	4458.688848
440.456580	4553.117222
440.832429	4435.250004
441.208218	4304.888286
441.583947	4338.590920
441.959616	4285.968835
442.335224	4200.196123
442.710773	4215.397723
443.086261	4167.206813
443.461689	4030.853683
443.837057	4040.595713
444.212365	4053.062487
444.587612	3963.289619
444.962800	3966.329435
445.337927	3910.110487
445.712995	3720.079152
446.088002	3866.302860
446.462949	3766.422479
446.837837	3692.418340
447.212664	3704.791852
447.587431	3686.739481
447.962139	3790.559523
448.336786	3995.457222
448.711374	3875.974314
449.085901	3585.167792
449.460369	3504.191738
449.834776	3449.616207
450.209124	3487.845797
450.583412	3468.034062
450.957640	3464.868218
451.331808	3366.994216
451.705917	3243.584249
452.079965	3195.496682
452.453954	3189.107020
452.827883	3138.912251
453.201752	3121.003552
453.575562	3060.756722
453.949311	3050.931513
454.323001	3012.326357
454.696632	2995.650220
455.070202	2982.931389
455.443713	2969.242136
455.817164	2949.521142
456.190556	2926.349478
456.563888	2909.670821
456.937160	2886.312635
457.310373	2842.419308
457.683526	2820.757470
458.056619	2793.109262
458.429653	2774.487239
458.802628	2754.690628
459.175542	2747.441449
459.548398	2745.462796
459.921194	2740.368710
460.293930	2732.252452
460.666607	2737.739748
461.039224	2738.997516
461.411782	2727.193655
461.784280	2712.662529
462.156719	2692.623942
462.529099	2679.726150
462.901419	2655.957110
463.273680	2644.427991
463.645882	2637.962711
464.018024	2630.385857
464.390106	2623.350927
464.762130	2626.915022
465.134094	2631.595734
465.505999	2642.779533
465.877845	2658.056750
466.249631	2659.569096
466.621358	2644.632157
466.993026	2633.042545
467.364634	2625.609363
467.736184	2615.519494
468.107674	2608.620675
468.479105	2606.281580
468.850477	2604.108842
469.221790	2598.558532
469.593043	2592.637697
469.964238	2589.290371
470.335373	2588.698035
470.706449	2588.566965
471.077467	2587.546131
471.448425	2596.685743
471.819324	2604.368462
472.190164	2604.691096
472.560945	2590.704414
472.931667	2586.865576
473.302330	2583.062025
473.672934	2578.550192
474.043479	2583.719896
474.413965	2583.581264
474.784393	2577.307548
475.154761	2578.867785
475.525070	2577.791499
475.895321	2575.107084
476.265513	2576.692527
476.635645	2582.578074
477.005719	2581.632858
477.375734	2580.138156
477.745691	2581.758887
478.115588	2582.993969
478.485427	2589.383632
478.855207	2588.282140
479.224928	2591.339600
479.594591	2599.801176
479.964194	2597.376381
480.333739	2595.463263
480.703226	2593.882862
481.072653	2596.910075
481.442022	2594.386977
481.811333	2597.575507
482.180584	2596.264807
482.549777	2594.591144
482.918912	2592.824219
483.287988	2594.654158
483.657005	2591.347161
484.025964	2589.391194
484.394864	2590.172572
484.763706	2591.362285
485.132489	2587.062181
485.501213	2590.464959
485.869879	2589.250041
486.238487	2585.012952
486.607036	2590.069229
486.975527	2588.808940
487.343959	2589.315576
487.712333	2587.873806
488.080648	2585.688466
488.448905	2587.604105
488.817104	2587.563775
489.185244	2588.584609
489.553326	2590.066708
489.921350	2589.547469
490.289315	2599.627257
490.657222	2602.805704
491.025070	2601.172370
491.392861	2598.314036
491.760593	2596.640373
492.128267	2591.959662
492.495883	2592.519230
492.863440	2592.660382
493.230939	2589.509661
493.598380	2587.407500
493.965763	2582.512539
494.333088	2581.854669
494.700354	2582.988928
495.067563	2584.864237
495.434713	2578.643454
495.801805	2584.833991
496.168839	2584.866758
496.535815	2583.180492
496.902733	2585.474217
497.269593	2584.531521
497.636395	2582.666294
498.003139	2581.002714
498.369825	2582.908270
498.736453	2581.625296
499.103023	2581.106057
499.469535	2579.898701
499.835989	2583.021696
500.202385	2581.446335
500.568723	2577.378124
500.935003	2585.222159
501.301226	2580.727971
501.667390	2582.628486
502.033497	2582.089082
502.399546	2580.029771
502.765537	2580.730491
503.131470	2581.451376
503.497345	2582.709144
503.863163	2582.179823
504.228923	2582.242837
504.594625	2582.447004
504.960269	2581.353074
505.325856	2584.133270
505.691385	2579.548341
506.056856	2580.768300
506.422270	2580.687642
506.787625	2581.325347
507.152924	2576.753021
507.518164	2581.650502
507.883347	2579.371900
508.248472	2583.074628
508.613540	2582.114288
508.978550	2582.136973
509.343503	2581.138825
509.708398	2580.634709
510.073236	2584.072776
510.438016	2581.703434
510.802738	2583.724937
511.167403	2581.582446
511.532010	2582.061356
511.896561	2582.888105
512.261053	2582.608321
512.625488	2578.671180
512.989866	2578.444328
513.354186	2578.237641
513.718449	2578.948443
514.082655	2581.998342
514.446803	2585.353229
514.810894	2584.350040
515.174927	2585.564958
515.538904	2582.184864
515.902822	2583.966912
516.266684	2584.024885
516.630488	2582.613362
516.994235	2583.508167
517.357925	2583.863568
517.721558	2585.706110
518.085133	2581.685790
518.448651	2586.595874
518.812112	2581.504308
519.175516	2584.362643
519.538863	2581.771490
519.902152	2586.923549
520.265385	2585.938003
520.628560	2585.116295
520.991678	2585.333065
521.354739	2586.031265
521.717743	2584.680235
522.080690	2586.989084
522.443580	2585.045719
522.806413	2585.620411
523.169189	2586.028744
523.531908	2587.984712
523.894569	2588.531677
524.257174	2586.643765
524.619722	2588.022520
524.982213	2586.152252
525.344647	2584.564289
525.707025	2588.710638
526.069345	2587.858683
526.431608	2585.900195
526.793815	2587.626790
527.155964	2585.733837
527.518057	2587.523446
527.880093	2586.207705
528.242072	2585.418764
528.603995	2588.932449
528.965860	2586.890781
529.327669	2589.255082
529.689421	2585.317941
530.051117	2584.072776
530.412755	2588.085535
530.774337	2585.474217
531.135862	2587.798189
531.497331	2585.290215
531.858743	2579.883577
532.220098	2584.755853
532.581396	2582.142014
532.942638	2583.924062
533.303824	2584.501274
533.664953	2587.011769
534.026025	2585.464135
534.387040	2584.927252
534.747999	2584.271902
535.108902	2587.778024
535.469748	2583.601428
535.830537	2583.155286
536.191270	2586.779876
536.551947	2588.055288
536.912567	2587.062181
537.273131	2584.281984
537.633638	2582.109247
537.994089	2586.293405
538.354483	2586.263158
538.714821	2587.780545
539.075103	2584.720565
539.435328	2585.207036
539.795497	2584.498754
540.155609	2589.804568
540.515665	2586.497571
540.875665	2584.536562
541.235609	2584.723085
541.595496	2589.469332
541.955328	2584.365163
542.315102	2586.195102
542.674821	2589.199630
543.034483	2585.839701
543.394090	2587.266347
543.753640	2586.684094
544.113134	2585.385997
544.472571	2587.677201
544.831953	2587.160483
545.191278	2587.157962
545.550548	2584.763414
545.909761	2588.327510
546.268918	2589.121492
546.628019	2587.034454
546.987064	2586.787438
547.346053	2587.273909
547.704986	2583.263671
548.063863	2587.183168
548.422684	2587.609146
548.781449	2588.075452
549.140158	2587.049578
549.498811	2587.989753
549.857408	2587.720051
550.215949	2582.719227
550.574434	2581.945409
550.932864	2584.450863
551.291237	2585.635534
551.649555	2588.239290
552.007817	2588.304825
552.366022	2588.468662
552.724173	2586.981522
553.082267	2589.970926
553.440305	2588.249372
553.798288	2585.166707
554.156215	2586.830288
554.514086	2589.809609
554.871902	2585.433888
555.229661	2587.601584
555.587365	2587.412541
555.945014	2584.813826
556.302606	2583.341809
556.660143	2585.373394
557.017625	2586.608477
557.375050	2586.593353
557.732421	2588.045206
558.089735	2584.574371
558.446994	2582.648650
558.804197	2586.018662
559.161345	2586.850452
559.518437	2586.129567
559.875474	2583.543455
560.232455	2586.459763
560.589381	2583.750143
560.946251	2590.071749
561.303065	2587.984712
561.659825	2585.179310
562.016528	2585.804413
562.373177	2586.689135
562.729770	2584.453383
563.086307	2585.920359
563.442789	2586.447160
563.799216	2587.084866
564.155587	2585.597725
564.511904	2587.616707
564.868164	2584.438260
565.224370	2589.343303
565.580520	2584.523960
565.936615	2586.865576
566.292654	2586.275761
566.648638	2585.643096
567.004567	2584.778538
567.360441	2587.551172
567.716260	2582.547827
568.072023	2585.882551
568.427732	2579.729822
568.783385	2583.490523
569.138982	2583.341809
569.494525	2581.829463
569.850013	2579.933989
570.205445	2585.819536
570.560823	2584.191243
570.916145	2580.909452
571.271412	2583.571182
571.626625	2583.672005
571.981782	2585.385997
572.336884	2585.995977
572.691931	2581.564802
573.046923	2584.770976
573.401860	2586.986563
573.756743	2583.714854
574.111570	2583.074628
574.466342	2582.164700
574.821059	2582.724268
575.175722	2583.576223
575.530330	2583.631675
575.884882	2581.640420
576.239380	2580.972467
576.593823	2582.169741
576.948211	2581.332909
577.302544	2581.209401
577.656823	2579.389544
578.011047	2582.061356
578.365216	2581.315265
578.719330	2584.637386
579.073389	2579.523135
579.427394	2581.277457
579.781344	2580.415419
580.135239	2580.833835
580.489080	2580.238979
580.842866	2578.923238
581.196597	2581.249730
581.550273	2579.676890
581.903895	2579.838207
582.257463	2583.291397
582.610975	2581.138825
582.964434	2580.599421
583.317837	2578.898032
583.671186	2582.815008
584.024481	2580.357446
584.377721	2580.934658
584.730906	2577.708320
585.084037	2578.338464
585.437113	2582.383990
585.790135	2579.021540
586.143103	2576.679924
586.496016	2578.474575
586.848874	2573.975345
587.201679	2573.481312
587.554428	2572.659604
587.907124	2576.543813
588.259765	2573.216652
588.612352	2576.165727
588.964884	2578.340984
589.317362	2577.050449
589.669786	2577.352918
590.022155	2581.317786
590.374470	2577.859554
590.726731	2576.377455
591.078937	2578.003227
591.431090	2574.398802
591.783188	2576.695048
592.135232	2576.982393
592.487222	2576.483319
592.839157	2576.879050
593.191038	2573.884604
593.542866	2576.874009
593.894639	2575.848134
594.246358	2576.823597
594.598022	2575.575912
594.949633	2574.701271
595.301190	2574.746642
595.652692	2573.778740
596.004141	2573.380489
596.355535	2576.974832
596.706876	2574.887794
597.058162	2574.640777
597.409395	2574.857547
597.760573	2574.585325
598.111698	2572.841086
598.462768	2573.067937
598.813785	2574.585325
599.164748	2576.611869
599.515657	2576.201015
599.866511	2572.347052
600.217312	2573.829152
600.568060	2572.427711
600.918753	2572.720098
601.269392	2573.168761
601.619978	2571.827814
601.970510	2574.915520
602.320988	2573.713205
602.671412	2571.858061
603.021783	2571.910993
603.372100	2572.523493
603.722363	2572.974676
604.072572	2573.428380
604.422728	2575.046590
604.772830	2569.057700
605.122878	2568.614078
605.472872	2568.341856
605.822813	2566.572411
606.172701	2568.432597
606.522534	2570.902762
606.872314	2571.800087
607.222041	2573.209090
607.571714	2573.554409
607.921333	2575.434759
608.270899	2571.868143
608.620411	2571.517783
608.969870	2573.887125
609.319276	2573.574573
609.668627	2575.386868
610.017926	2579.296283
610.367171	2581.458938
610.716362	2578.434246
611.065500	2577.829307
611.414585	2577.650346
611.763616	2574.885273
612.112594	2577.368042
612.461518	2575.838052
612.810389	2574.194635
613.159207	2575.303689
613.507971	2572.687330
613.856682	2574.134142
614.205340	2572.566343
614.553945	2570.978379
614.902496	2570.169274
615.250994	2572.737742
615.599439	2573.735890
615.947830	2576.367373
616.296169	2572.480643
616.644454	2573.085582
616.992686	2570.738924
617.340864	2572.957032
617.688990	2574.194635
618.037063	2572.732701
618.385082	2574.524831
618.733048	2571.048955
619.080961	2573.783781
619.428821	2572.767989
619.776628	2572.185736
620.124382	2576.072465
620.472083	2572.021898
620.819731	2575.391909
621.167326	2570.796898
621.514868	2574.744121
621.862357	2572.808318
622.209793	2570.907803
622.557176	2571.157340
622.904506	2568.901424
623.251783	2566.829510
623.599007	2566.635425
623.946179	2564.515620
624.293297	2567.000909
624.640363	2566.852195
624.987376	2569.055179
625.334336	2566.799263
625.681243	2567.830179
626.028097	2568.266238
626.374899	2568.977041
626.721647	2566.242215
627.068343	2569.115673
627.414987	2567.280693
627.761577	2568.548543
628.108115	2567.908317
628.454600	2567.943605
628.801032	2567.079047
629.147412	2567.005950
629.493739	2564.916392
629.840014	2568.256156
630.186236	2567.613409
630.532405	2566.587534
630.878521	2562.736093
631.224585	2567.061403
631.570597	2562.897410
631.916556	2565.417987
632.262462	2566.935374
632.608316	2565.990158
632.954117	2562.000084
633.299866	2564.218192
633.645562	2565.405384
633.991206	2565.070147
634.336797	2563.976217
634.682336	2564.699622
635.027823	2564.407235
635.373257	2563.116700
635.718639	2561.271637
636.063968	2563.222564
636.409245	2562.950342
636.754470	2562.524364
637.099642	2563.741803
637.444762	2561.468242
637.789829	2561.705177
638.134845	2563.393963
638.479808	2560.402038
638.824719	2561.468242
639.169577	2559.635783
639.514383	2560.517985
639.859137	2558.647717
640.203839	2561.493448
640.548489	2558.945145
640.893086	2558.466235
641.237632	2554.670247
641.582125	2558.758622
641.926566	2556.480021
642.270955	2558.824157
642.615292	2560.475135
642.959576	2559.824826
643.303809	2557.563869
643.647990	2558.919939
643.992118	2559.837429
644.336195	2562.965465
