Dividing Wavelength (nm)	Counts (n)	Blue Motor Position (mm): 0.000000	Red Motor Position (mm): 11.700000	
326.493990	2129.292644
326.888308	2129.292644
327.282561	2129.292644
327.676750	2095.564804
328.070874	2094.644793
328.464933	2096.827613
328.858929	2103.492018
329.252859	2115.459718
329.646726	2125.073198
330.040528	2137.585342
330.434265	2154.347178
330.827938	2170.466268
331.221547	2192.382684
331.615091	2209.089068
332.008571	2228.593292
332.401986	2247.464852
332.795338	2268.065527
333.188625	2288.197375
333.581847	2306.446352
333.975006	2322.840184
334.368100	2343.158555
334.761129	2361.422655
335.154095	2374.653163
335.546996	2391.914074
335.939833	2406.261198
336.332606	2421.167890
336.725315	2436.969387
337.117960	2446.139245
337.510540	2454.646192
337.903056	2462.694395
338.295508	2473.119501
338.687896	2478.432877
339.080220	2490.067860
339.472480	2494.133551
339.864676	2499.434324
340.256807	2505.241733
340.648875	2505.052690
341.040879	2510.139214
341.432818	2508.825993
341.824694	2511.339009
342.216506	2512.475789
342.608253	2513.920079
342.999937	2512.014523
343.391557	2512.352281
343.783113	2512.979904
344.174605	2512.679956
344.566033	2507.805160
344.957397	2508.483195
345.348697	2505.904645
345.739934	2503.641167
346.131106	2500.402225
346.522215	2500.916423
346.913260	2499.036073
347.304241	2497.783346
347.695159	2496.863335
348.086012	2493.679847
348.476802	2493.964672
348.867528	2488.263127
349.258191	2487.663230
349.648789	2490.307315
350.039324	2485.233393
350.429796	2486.352530
350.820203	2484.026037
351.210548	2485.301449
351.600828	2480.887919
351.991045	2481.797847
352.381198	2477.517908
352.771288	2482.420430
353.161314	2480.222487
353.551276	2482.259113
353.941175	2480.464462
354.331010	2480.993783
354.720782	2478.926910
355.110490	2481.112250
355.500135	2482.009576
355.889717	2481.520584
356.279235	2481.916314
356.668689	2482.034781
357.058080	2483.214411
357.447408	2480.797178
357.836672	2481.036633
358.225873	2480.421612
358.615010	2479.753659
359.004084	2483.605101
359.393095	2484.275574
359.782043	2485.291367
360.170927	2484.149545
360.559748	2486.589464
360.948505	2487.784217
361.337199	2487.340596
361.725830	2487.701038
362.114398	2489.142808
362.502903	2490.783704
362.891344	2489.392345
363.279722	2489.941831
363.668037	2492.636328
364.056289	2489.566265
364.444478	2493.084991
364.832603	2491.607932
365.220665	2493.636997
365.608665	2493.752943
365.996601	2495.048520
366.384474	2492.820330
366.772284	2496.606237
367.160031	2496.928870
367.547715	2497.944663
367.935336	2503.908348
368.322893	2507.109481
368.710388	2507.530417
369.097820	2513.423526
369.485189	2515.729854
369.872495	2525.154291
370.259738	2531.443130
370.646918	2535.178625
371.034035	2541.124666
371.421090	2552.116902
371.808081	2564.376988
372.195010	2572.770509
372.581875	2584.677715
372.968678	2598.273707
373.355418	2606.084975
373.742096	2627.527522
374.128710	2640.947074
374.515262	2657.199754
374.901751	2670.848678
375.288177	2684.958868
375.674540	2706.373689
376.060841	2724.191647
376.447079	2744.320975
376.833254	2767.207813
377.219367	2778.152158
377.605417	2816.454845
377.991404	2823.429282
378.377329	2845.418795
378.763191	2860.882534
379.148991	2899.782598
379.534727	2922.608942
379.920402	2951.172120
380.306013	2966.300623
380.691563	3017.037316
381.077049	3036.518855
381.462474	3052.458983
381.847835	3092.261413
382.233134	3111.354783
382.618371	3112.176492
383.003545	3179.422963
383.388657	3182.301462
383.773706	3215.326061
384.158693	3225.831826
384.543618	3252.439036
384.928480	3281.153448
385.313280	3319.012513
385.698017	3311.634785
386.082692	3357.211857
386.467305	3354.023327
386.851856	3372.514279
387.236344	3382.321844
387.620770	3399.764236
388.005133	3409.836462
388.389435	3422.290632
388.773674	3416.677307
389.157851	3436.027776
389.541965	3432.037703
389.926018	3386.979870
390.310008	3427.440171
390.693936	3420.180909
391.077802	3435.808486
391.461606	3400.827920
391.845348	3422.194850
392.229027	3402.756161
392.612645	3384.489540
392.996200	3410.995927
393.379694	3410.688417
393.763125	3421.814243
394.146494	3368.128475
394.529801	3372.756254
394.913047	3370.263404
395.296230	3317.076710
395.679351	3318.490754
396.062410	3293.176600
396.445408	3251.239241
396.828343	3233.101169
397.211217	3203.607899
397.594028	3138.176243
397.976778	3132.328504
398.359466	3108.899742
398.742092	3083.625917
399.124656	3026.451670
399.507158	3019.439425
399.889598	3000.242712
400.271977	2986.064466
400.654294	2948.528035
401.036549	2916.816657
401.418742	2882.882129
401.800874	2876.600852
402.182944	2853.797192
402.564952	2838.005778
402.946898	2813.591470
403.328783	2787.349743
403.710606	2750.811460
404.092367	2756.288674
404.474067	2730.861094
404.855705	2711.797971
405.237282	2688.379291
405.618797	2681.523321
406.000250	2667.571928
406.381642	2658.714621
406.762972	2642.391365
407.144240	2627.585496
407.525447	2617.616614
407.906593	2607.471292
408.287677	2599.644901
408.668700	2586.119485
409.049661	2582.575554
409.430560	2575.001220
409.811399	2565.594427
410.192176	2561.596792
410.572891	2555.945658
410.953545	2555.920453
411.334138	2547.405944
411.714669	2543.126004
412.095139	2536.025539
412.475547	2536.300282
412.855894	2534.341794
413.236180	2530.492873
413.616405	2533.315919
413.996568	2530.780218
414.376670	2531.874149
414.756711	2528.015146
415.136691	2529.613191
415.516609	2529.721576
415.896466	2528.262162
416.276262	2527.558921
416.655997	2520.776049
417.035670	2522.608508
417.415283	2524.950124
417.794834	2519.435102
418.174324	2522.127078
418.553753	2524.995494
418.933121	2525.139167
419.312428	2526.228057
419.691674	2527.321987
420.070859	2523.505833
420.449983	2526.139836
420.829045	2526.812830
421.208047	2526.810310
421.586988	2526.114631
421.965867	2525.436595
422.344686	2526.724610
422.723444	2527.180835
423.102141	2527.233767
423.480777	2525.539939
423.859352	2525.734023
424.237866	2526.061698
424.616319	2527.692512
424.994712	2525.590351
425.373044	2527.702594
425.751314	2528.998171
426.129524	2526.228057
426.507673	2526.472553
426.885762	2525.018180
427.263789	2529.300640
427.641756	2524.995494
428.019662	2530.621422
428.397508	2529.121679
428.775292	2530.525640
429.153016	2527.800897
429.530679	2526.548170
429.908282	2530.528161
430.285824	2526.459950
430.663305	2526.596061
431.040726	2529.028418
431.418086	2529.930784
431.795385	2528.723428
432.172624	2527.725279
432.549802	2528.433561
432.926920	2529.313243
433.303977	2527.163191
433.680974	2528.347862
434.057910	2528.723428
434.434786	2530.283665
434.811601	2529.580424
435.188355	2527.117820
435.565050	2529.900537
435.941683	2529.671165
436.318257	2527.354754
436.694770	2525.781914
437.071222	2527.649662
437.447614	2525.600433
437.823946	2526.422141
438.200218	2532.683254
438.576429	2530.376926
438.952580	2531.987575
439.328670	2531.443130
439.704700	2530.903727
440.080670	2528.239477
440.456580	2530.213089
440.832429	2530.507996
441.208218	2530.961700
441.583947	2530.127389
441.959616	2532.791639
442.335224	2530.205527
442.710773	2533.860363
443.086261	2531.780888
443.461689	2530.298788
443.837057	2531.566638
444.212365	2531.576721
444.587612	2529.293078
444.962800	2530.714683
445.337927	2532.756351
445.712995	2529.777029
446.088002	2532.534540
446.462949	2533.782226
446.837837	2532.405991
447.212664	2532.121165
447.587431	2532.453882
447.962139	2532.693336
448.336786	2538.530993
448.711374	2534.813142
449.085901	2534.714839
449.460369	2531.808614
449.834776	2534.747607
450.209124	2532.831968
450.583412	2535.287010
450.957640	2537.023687
451.331808	2535.153419
451.705917	2536.796836
452.079965	2535.196269
452.453954	2534.281300
452.827883	2534.230888
453.201752	2531.874149
453.575562	2535.559232
453.949311	2533.814993
454.323001	2534.485467
454.696632	2534.603934
455.070202	2537.981507
455.443713	2538.059645
455.817164	2533.898172
456.190556	2532.227030
456.563888	2532.300126
456.937160	2529.711494
457.310373	2537.076620
457.683526	2537.028729
458.056619	2535.135775
458.429653	2535.239119
458.802628	2537.565612
459.175542	2535.375230
459.548398	2537.043852
459.921194	2536.963194
460.293930	2535.450847
460.666607	2538.785571
461.039224	2539.622402
461.411782	2539.657690
461.784280	2540.849923
462.156719	2538.772968
462.529099	2540.499563
462.901419	2539.660211
463.273680	2538.404964
463.645882	2539.017464
464.018024	2540.655839
464.390106	2540.229861
464.762130	2540.643236
465.134094	2538.485622
465.505999	2544.119112
465.877845	2545.122301
466.249631	2549.664381
466.621358	2546.506098
466.993026	2548.704041
467.364634	2551.451470
467.736184	2544.774462
468.107674	2543.557023
468.479105	2543.292362
468.850477	2544.434184
469.221790	2546.405275
469.593043	2545.114739
469.964238	2544.504760
470.335373	2544.131714
470.706449	2542.919317
471.077467	2540.645757
471.448425	2545.807898
471.819324	2548.494833
472.190164	2549.213198
472.560945	2545.636499
472.931667	2544.313196
473.302330	2544.131714
473.672934	2544.464431
474.043479	2543.667928
474.413965	2544.076262
474.784393	2539.095602
475.154761	2541.212886
475.525070	2538.596528
475.895321	2538.455375
476.265513	2542.052238
476.635645	2542.921837
477.005719	2544.388813
477.375734	2545.107178
477.745691	2543.289842
478.115588	2544.734132
478.485427	2546.599359
478.855207	2544.524924
479.224928	2549.515667
479.594591	2549.888712
479.964194	2546.715306
480.333739	2550.695297
480.703226	2548.807385
481.072653	2547.887374
481.442022	2546.911911
481.811333	2551.143959
482.180584	2548.772097
482.549777	2547.884853
482.918912	2547.330327
483.287988	2549.745039
483.657005	2547.153886
484.025964	2546.372507
484.394864	2544.479554
484.763706	2548.394010
485.132489	2547.315203
485.501213	2545.278577
485.869879	2545.192877
486.238487	2546.122970
486.607036	2547.511808
486.975527	2547.733619
487.343959	2547.005172
487.712333	2547.327806
488.080648	2548.149514
488.448905	2546.170861
488.817104	2545.371838
489.185244	2548.406613
489.553326	2546.652291
489.921350	2550.801161
490.289315	2549.626572
490.657222	2551.030533
491.025070	2551.496840
491.392861	2550.803682
491.760593	2550.924669
492.128267	2549.467776
492.495883	2550.171017
492.863440	2550.375183
493.230939	2547.390820
493.598380	2549.697148
493.965763	2541.457382
494.333088	2546.289328
494.700354	2542.561395
495.067563	2546.196067
495.434713	2542.949564
495.801805	2548.658671
496.168839	2545.538196
496.535815	2547.549617
496.902733	2547.289997
497.269593	2547.683207
497.636395	2545.558361
498.003139	2548.520039
498.369825	2550.773435
498.736453	2547.534493
499.103023	2545.853268
499.469535	2549.545914
499.835989	2545.994421
500.202385	2550.786037
500.568723	2548.134391
500.935003	2548.888043
501.301226	2546.367466
501.667390	2549.054401
502.033497	2548.782179
502.399546	2548.976263
502.765537	2547.922662
503.131470	2547.466438
503.497345	2547.232024
503.863163	2550.453321
504.228923	2545.397044
504.594625	2548.225131
504.960269	2546.425439
505.325856	2546.874102
505.691385	2546.493495
506.056856	2549.447611
506.422270	2548.509957
506.787625	2549.069525
507.152924	2547.970553
507.518164	2551.239741
507.883347	2548.013403
508.248472	2549.591284
508.613540	2550.405430
508.978550	2547.869730
509.343503	2547.625234
509.708398	2548.986346
510.073236	2548.751932
510.438016	2551.113712
510.802738	2550.478527
511.167403	2549.114895
511.532010	2549.840821
511.896561	2549.941644
512.261053	2550.392828
512.625488	2544.860161
512.989866	2545.359235
513.354186	2548.343598
513.718449	2544.348484
514.082655	2547.458876
514.446803	2552.303425
514.810894	2548.978784
515.174927	2551.433826
515.538904	2550.231511
515.902822	2550.226469
516.266684	2550.433157
516.630488	2549.324103
516.994235	2550.523897
517.357925	2550.143290
517.721558	2551.451470
518.085133	2551.448949
518.448651	2551.922818
518.812112	2550.491130
519.175516	2551.201933
519.538863	2549.112374
519.902152	2549.450132
520.265385	2550.019782
520.628560	2547.521890
520.991678	2552.270657
521.354739	2550.176058
521.717743	2552.560524
522.080690	2550.266799
522.443580	2551.693445
522.806413	2551.083466
523.169189	2549.767724
523.531908	2552.310987
523.894569	2551.567416
524.257174	2552.782334
524.619722	2552.200081
524.982213	2552.280740
525.344647	2548.547765
525.707025	2550.430636
526.069345	2550.372663
526.431608	2549.629093
526.793815	2550.105482
527.155964	2550.622200
527.518057	2550.024823
527.880093	2552.641182
528.242072	2549.001469
528.603995	2552.752087
528.965860	2549.389638
529.327669	2551.317879
529.689421	2548.794782
530.051117	2552.071532
530.412755	2550.536500
530.774337	2552.063970
531.135862	2551.327962
531.497331	2551.527087
531.858743	2543.146169
532.220098	2549.049360
532.581396	2546.962322
532.942638	2544.797147
533.303824	2550.193702
533.664953	2552.462221
534.026025	2549.263609
534.387040	2550.922149
534.747999	2550.014741
535.108902	2549.424926
535.469748	2549.823177
535.830537	2549.624052
536.191270	2549.656819
536.551947	2552.431974
536.912567	2549.634134
537.273131	2551.713610
537.633638	2552.895760
537.994089	2551.106151
538.354483	2551.363250
538.714821	2553.064639
539.075103	2550.488609
539.435328	2551.073383
539.795497	2550.657488
540.155609	2550.959957
540.515665	2553.326779
540.875665	2552.525236
541.235609	2547.032898
541.595496	2549.719833
541.955328	2551.847200
542.315102	2552.429454
542.674821	2548.507436
543.034483	2553.535987
543.394090	2552.391645
543.753640	2552.021120
544.113134	2550.854093
544.472571	2553.699824
544.831953	2553.334341
545.191278	2552.991542
545.550548	2552.195040
545.909761	2552.719320
546.268918	2552.842828
546.628019	2551.769062
546.987064	2552.535318
547.346053	2551.345606
547.704986	2551.653116
548.063863	2550.644885
548.422684	2554.332489
548.781449	2550.967519
549.140158	2551.413661
549.498811	2554.002294
549.857408	2554.904660
550.215949	2549.354350
550.574434	2546.385110
550.932864	2551.116233
551.291237	2547.050542
551.649555	2551.932900
552.007817	2553.974567
552.366022	2552.434495
552.724173	2550.377704
553.082267	2549.659340
553.440305	2551.809392
553.798288	2550.738147
554.156215	2552.983981
554.514086	2551.829556
554.871902	2555.378529
555.229661	2551.176727
555.587365	2551.701007
555.945014	2553.294012
556.302606	2549.924000
556.660143	2548.580533
557.017625	2552.469783
557.375050	2551.022972
557.732421	2551.514484
558.089735	2552.419371
558.446994	2551.922818
558.804197	2551.622869
559.161345	2550.970040
559.518437	2550.261757
559.875474	2552.179917
560.232455	2555.043292
560.589381	2551.053219
560.946251	2556.580844
561.303065	2550.455842
561.659825	2551.249824
562.016528	2550.624721
562.373177	2550.995245
562.729770	2552.121943
563.086307	2553.362067
563.442789	2552.126984
563.799216	2553.069680
564.155587	2550.024823
564.511904	2552.290822
564.868164	2553.104968
565.224370	2550.032385
565.580520	2552.850390
565.936615	2552.033723
566.292654	2551.249824
566.648638	2551.466593
567.004567	2551.320400
567.360441	2552.550441
567.716260	2553.341903
568.072023	2550.108002
568.427732	2550.324772
568.783385	2549.432488
569.138982	2545.858310
569.494525	2548.893084
569.850013	2546.490974
570.205445	2553.440205
570.560823	2550.924669
570.916145	2552.689073
571.271412	2553.483055
571.626625	2552.467262
571.981782	2549.719833
572.336884	2551.698486
572.691931	2551.322920
573.046923	2550.377704
573.401860	2551.695966
573.756743	2550.891902
574.111570	2550.387786
574.466342	2550.372663
574.821059	2551.446429
575.175722	2552.805020
575.530330	2550.460883
575.884882	2551.648075
576.239380	2550.896943
576.593823	2553.467931
576.948211	2551.353167
577.302544	2550.057591
577.656823	2550.337375
578.011047	2553.379711
578.365216	2550.349978
578.719330	2552.379042
579.073389	2551.194371
579.427394	2551.312838
579.781344	2551.307797
580.135239	2550.748229
580.489080	2550.153373
580.842866	2549.555996
581.196597	2552.762170
581.550273	2552.742005
581.903895	2549.256047
582.257463	2554.133364
582.610975	2551.343085
582.964434	2550.745708
583.317837	2550.458362
583.671186	2551.327962
584.024481	2551.461552
584.377721	2549.621531
584.730906	2552.837787
585.084037	2549.011551
585.437113	2550.859134
585.790135	2550.647406
586.143103	2551.897612
586.496016	2550.823846
586.848874	2547.650440
587.201679	2548.056253
587.554428	2546.037271
587.907124	2550.896943
588.259765	2545.606252
588.612352	2552.101779
588.964884	2549.308979
589.317362	2550.881819
589.669786	2550.438198
590.022155	2551.867365
590.374470	2549.918959
590.726731	2552.742005
591.078937	2548.227652
591.431090	2551.524567
591.783188	2548.686397
592.135232	2547.244627
592.487222	2553.906512
592.839157	2550.970040
593.191038	2547.242106
593.542866	2553.160421
593.894639	2549.641696
594.246358	2549.694628
594.598022	2548.819987
594.949633	2548.625903
595.301190	2547.111036
595.652692	2552.583209
596.004141	2549.064483
596.355535	2550.168496
596.706876	2548.923331
597.058162	2548.814946
597.409395	2550.602035
597.760573	2550.211346
598.111698	2547.133722
598.462768	2549.689587
598.813785	2548.600697
599.164748	2549.460214
599.515657	2545.926365
599.866511	2548.570450
600.217312	2550.090358
600.568060	2549.845862
600.918753	2551.184289
601.269392	2546.750594
601.619978	2551.194371
601.970510	2550.080276
602.320988	2545.863351
602.671412	2549.767724
603.021783	2546.269164
603.372100	2548.441901
603.722363	2548.096582
604.072572	2551.053219
604.422728	2551.927859
604.772830	2543.622558
605.122878	2544.713968
605.472872	2549.208156
605.822813	2542.780685
606.172701	2548.767055
606.522534	2549.394679
606.872314	2549.122457
607.222041	2548.537683
607.571714	2550.400389
607.921333	2550.859134
608.270899	2546.294369
608.620411	2547.957950
608.969870	2551.002807
609.319276	2551.995914
609.668627	2554.720658
610.017926	2556.036399
610.367171	2557.674774
610.716362	2555.234856
611.065500	2554.839125
611.414585	2552.081614
611.763616	2553.596481
612.112594	2552.918446
612.461518	2551.900132
612.810389	2552.459701
613.159207	2548.210008
613.507971	2552.986501
613.856682	2549.543393
614.205340	2548.993907
614.553945	2548.570450
614.902496	2549.671943
615.250994	2550.927190
615.599439	2549.208156
615.947830	2551.978270
616.296169	2547.544576
616.644454	2549.500543
616.992686	2549.578681
617.340864	2551.098589
617.688990	2548.441901
618.037063	2548.588094
618.385082	2549.291335
618.733048	2549.344268
619.080961	2546.102806
619.428821	2548.499874
619.776628	2550.123126
620.124382	2549.714792
620.472083	2548.532642
620.819731	2548.015923
621.167326	2549.046839
621.514868	2549.530790
621.862357	2548.699000
622.209793	2548.807385
622.557176	2547.423588
622.904506	2546.874102
623.251783	2545.361756
623.599007	2545.220604
623.946179	2544.376210
624.293297	2545.339071
624.640363	2548.242775
624.987376	2549.210677
625.334336	2544.930737
625.681243	2546.879143
626.028097	2549.772766
626.374899	2548.101623
626.721647	2544.950902
627.068343	2546.357384
627.414987	2548.956099
627.761577	2546.813608
628.108115	2546.405275
628.454600	2544.517363
628.801032	2549.631613
629.147412	2547.617672
629.493739	2547.287477
629.840014	2548.709082
630.186236	2546.175902
630.532405	2546.291849
630.878521	2545.649102
631.224585	2548.172199
631.570597	2543.758669
631.916556	2547.584905
632.262462	2545.603731
632.608316	2546.916952
632.954117	2546.982487
633.299866	2545.760007
633.645562	2543.899821
633.991206	2549.634134
634.336797	2543.914945
634.682336	2547.927703
635.027823	2543.279759
635.373257	2543.194060
635.718639	2545.452497
636.063968	2545.018957
636.409245	2545.414688
636.754470	2543.572146
637.099642	2544.575336
637.444762	2545.807898
637.789829	2544.759338
638.134845	2543.531817
638.479808	2544.824873
638.824719	2545.414688
639.169577	2544.192208
639.514383	2544.804708
639.859137	2545.457538
640.203839	2544.177085
640.548489	2543.688093
640.893086	2542.959646
641.237632	2541.107022
641.582125	2541.956457
641.926566	2539.279604
642.270955	2544.698844
642.615292	2543.975439
642.959576	2541.931251
643.303809	2543.302445
643.647990	2540.539892
643.992118	2538.767927
644.336195	2544.552651
