Dividing Wavelength (nm)	Counts (n)	Blue Motor Position (mm): 0.000000	Red Motor Position (mm): 19.400000	
326.493990	2127.865997
326.888308	2127.865997
327.282561	2127.865997
327.676750	2095.927767
328.070874	2094.864084
328.464933	2096.459609
328.858929	2101.916658
329.252859	2112.697165
329.646726	2125.761316
330.040528	2136.710702
330.434265	2154.203506
330.827938	2169.657163
331.221547	2189.327745
331.615091	2209.101671
332.008571	2225.240925
332.401986	2247.162383
332.795338	2266.318767
333.188625	2285.364246
333.581847	2303.943419
333.975006	2323.568631
334.368100	2339.869202
334.761129	2358.264372
335.154095	2374.718698
335.546996	2392.876934
335.939833	2407.143400
336.332606	2423.582603
336.725315	2435.394026
337.117960	2444.596652
337.510540	2452.869186
337.903056	2464.970476
338.295508	2472.633029
338.687896	2479.965388
339.080220	2487.988384
339.472480	2496.245794
339.864676	2502.925323
340.256807	2506.537310
340.648875	2505.559326
341.040879	2506.887670
341.432818	2512.581653
341.824694	2512.024606
342.216506	2512.695079
342.608253	2513.612569
342.999937	2514.209946
343.391557	2513.244565
343.783113	2509.937568
344.174605	2512.006962
344.566033	2507.086795
344.957397	2508.079903
345.348697	2508.962105
345.739934	2509.009996
346.131106	2500.631598
346.522215	2500.820641
346.913260	2497.763181
347.304241	2498.819303
347.695159	2495.779487
348.086012	2493.742861
348.476802	2492.994250
348.867528	2495.010711
349.258191	2488.880668
349.648789	2487.617859
350.039324	2487.093579
350.429796	2484.741881
350.820203	2484.159628
351.210548	2485.921511
351.600828	2481.994452
351.991045	2482.899339
352.381198	2481.240800
352.771288	2483.786582
353.161314	2482.473362
353.551276	2483.834473
353.941175	2479.642754
354.331010	2479.005048
354.720782	2479.912456
355.110490	2482.526294
355.500135	2482.218783
355.889717	2481.707106
356.279235	2482.899339
356.668689	2483.234576
357.058080	2483.436222
357.447408	2479.801550
357.836672	2482.196098
358.225873	2480.502271
358.615010	2479.821715
359.004084	2486.332365
359.393095	2481.805409
359.782043	2486.612149
360.170927	2485.394710
360.559748	2489.135247
360.948505	2490.720689
361.337199	2488.305977
361.725830	2490.080463
362.114398	2490.065339
362.502903	2489.538539
362.891344	2489.301605
363.279722	2489.362098
363.668037	2492.578355
364.056289	2492.414517
364.444478	2493.722697
364.832603	2495.350989
365.220665	2494.239415
365.608665	2495.194713
365.996601	2496.689416
366.384474	2497.256545
366.772284	2498.683192
367.160031	2499.267966
367.547715	2501.740652
367.935336	2503.716784
368.322893	2509.677948
368.710388	2509.526714
369.097820	2518.691532
369.485189	2519.538445
369.872495	2524.718231
370.259738	2533.923378
370.646918	2537.978986
371.034035	2549.747560
371.421090	2556.391801
371.808081	2568.419994
372.195010	2576.019533
372.581875	2587.450349
372.968678	2604.991044
373.355418	2611.978083
373.742096	2631.356279
374.128710	2643.565953
374.515262	2661.635969
374.901751	2675.862106
375.288177	2691.986236
375.674540	2711.649257
376.060841	2731.259345
376.447079	2749.387334
376.833254	2769.463730
377.219367	2780.672735
377.605417	2822.040444
377.991404	2829.201403
378.377329	2851.546317
378.763191	2867.839326
379.148991	2907.435069
379.534727	2931.304933
379.920402	2960.215950
380.306013	2971.853454
380.691563	3023.283305
381.077049	3041.837272
381.462474	3060.698749
381.847835	3096.412803
382.233134	3120.995990
382.618371	3118.790485
383.003545	3189.616176
383.388657	3198.463401
383.773706	3228.576734
384.158693	3243.014598
384.543618	3269.077364
384.928480	3303.435348
385.313280	3352.939479
385.698017	3349.085517
386.082692	3406.756317
386.467305	3407.683889
386.851856	3441.903241
387.236344	3464.432158
387.620770	3496.287209
388.005133	3521.626569
388.389435	3551.848286
388.773674	3556.082855
389.157851	3606.297789
389.541965	3616.543934
389.926018	3582.712750
390.310008	3655.706137
390.693936	3671.631142
391.077802	3712.797205
391.461606	3700.360678
391.845348	3761.340996
392.229027	3763.493568
392.612645	3774.410187
392.996200	3855.829863
393.379694	3892.262282
393.763125	3957.464566
394.146494	3921.992487
394.529801	3988.054287
394.913047	4032.189589
395.296230	4001.405783
395.679351	4053.944688
396.062410	4079.619285
396.445408	4060.828384
396.828343	4091.972632
397.211217	4117.879122
397.594028	4033.870814
397.976778	4101.097121
398.359466	4127.764825
398.742092	4155.942354
399.124656	4077.343204
399.507158	4161.081811
399.889598	4183.492260
400.271977	4248.031632
400.654294	4216.136252
401.036549	4223.317375
401.418742	4193.269578
401.800874	4294.213643
402.182944	4313.806087
402.564952	4380.901324
402.946898	4371.844891
403.328783	4364.353737
403.710606	4275.427783
404.092367	4469.786949
404.474067	4432.779838
404.855705	4443.310809
405.237282	4370.808934
405.618797	4480.101149
406.000250	4511.406715
406.381642	4591.563582
406.762972	4551.980442
407.144240	4557.394641
407.525447	4557.011513
407.906593	4613.129638
408.287677	4653.776461
408.668700	4577.438268
409.049661	4628.525322
409.430560	4661.116381
409.811399	4583.517900
410.192176	4737.520109
410.572891	4667.785828
410.953545	4760.089355
411.334138	4636.618894
411.714669	4689.452707
412.095139	4578.348197
412.475547	4705.909554
412.855894	4676.196993
413.236180	4671.014687
413.616405	4610.205768
413.996568	4676.204555
414.376670	4609.782312
414.756711	4549.104463
415.136691	4565.105086
415.516609	4614.483188
415.896466	4630.093120
416.276262	4640.916478
416.655997	4598.278398
417.035670	4731.919387
417.415283	4784.165905
417.794834	4711.684195
418.174324	4644.909072
418.553753	4542.634142
418.933121	4664.176362
419.312428	4685.777706
419.691674	4601.754274
420.070859	4667.387577
420.449983	4563.491916
420.829045	4614.198362
421.208047	4507.787166
421.586988	4520.125390
421.965867	4490.727902
422.344686	4533.703738
422.723444	4395.697111
423.102141	4233.417327
423.480777	4386.360894
423.859352	4192.745298
424.237866	4306.604799
424.616319	4258.270216
424.994712	4276.393164
425.373044	4155.418074
425.751314	4185.034853
426.129524	4028.254968
426.507673	4080.214141
426.885762	4078.626178
427.263789	3988.046725
427.641756	3892.335378
428.019662	3892.726068
428.397508	3846.748224
428.775292	3769.938684
429.153016	3763.123044
429.530679	3687.994728
429.908282	3670.945546
430.285824	3583.733584
430.663305	3623.541055
431.040726	3491.414934
431.418086	3451.783903
431.795385	3436.126079
432.172624	3398.544277
432.549802	3353.405785
432.926920	3311.801143
433.303977	3276.301337
433.680974	3246.571132
434.057910	3213.959908
434.434786	3173.918023
434.811601	3132.154584
435.188355	3139.640698
435.565050	3084.863520
435.941683	3050.830690
436.318257	3044.259546
436.694770	3009.856192
437.071222	2984.637820
437.447614	2942.561829
437.823946	2907.543454
438.200218	2898.224881
438.576429	2859.503778
438.952580	2842.154647
439.328670	2824.866010
439.704700	2797.379119
440.080670	2775.240892
440.456580	2771.144954
440.832429	2744.026067
441.208218	2717.993549
441.583947	2714.802498
441.959616	2699.550487
442.335224	2683.640606
442.710773	2673.452434
443.086261	2662.039262
443.461689	2643.124852
443.837057	2638.633184
444.212365	2633.826444
444.587612	2621.654578
444.962800	2615.421192
445.337927	2608.824842
445.712995	2592.778849
446.088002	2601.903338
446.462949	2592.249528
446.837837	2587.765422
447.212664	2582.663774
447.587431	2582.850297
447.962139	2583.533373
448.336786	2589.759198
448.711374	2586.064032
449.085901	2572.684810
449.460369	2568.719942
449.834776	2564.906309
450.209124	2568.974521
450.583412	2566.751372
450.957640	2567.658779
451.331808	2565.276834
451.705917	2558.516647
452.079965	2557.710062
452.453954	2557.939435
452.827883	2557.851215
453.201752	2554.824002
453.575562	2555.408776
453.949311	2552.280740
454.323001	2552.368960
454.696632	2553.314176
455.070202	2553.846018
455.443713	2556.225443
455.817164	2550.680173
456.190556	2551.476676
456.563888	2551.481717
456.937160	2549.626572
457.310373	2553.798127
457.683526	2549.389638
458.056619	2551.867365
458.429653	2548.550286
458.802628	2550.982642
459.175542	2551.585060
459.548398	2555.156718
459.921194	2552.137067
460.293930	2552.994063
460.666607	2555.575134
461.039224	2557.105124
461.411782	2558.574620
461.784280	2555.854918
462.156719	2554.801317
462.529099	2558.264589
462.901419	2555.232335
463.273680	2553.629248
463.645882	2555.744012
464.018024	2552.878116
464.390106	2555.123950
464.762130	2557.513457
465.134094	2559.867676
465.505999	2565.501166
465.877845	2569.324881
466.249631	2571.510221
466.621358	2570.302865
466.993026	2568.972000
467.364634	2572.208421
467.736184	2565.894376
468.107674	2564.611402
468.479105	2565.642318
468.850477	2563.885476
469.221790	2564.578634
469.593043	2560.477656
469.964238	2560.833057
470.335373	2560.281051
470.706449	2560.409600
471.077467	2561.911864
471.448425	2567.956208
471.819324	2573.584656
472.190164	2573.866960
472.560945	2567.613409
472.931667	2564.808007
473.302330	2562.340362
473.672934	2565.143244
474.043479	2564.369427
474.413965	2562.405897
474.784393	2557.536143
475.154761	2559.308108
475.525070	2560.293654
475.895321	2559.371123
476.265513	2560.714590
476.635645	2567.265569
477.005719	2565.541495
477.375734	2563.459498
477.745691	2568.309088
478.115588	2570.406208
478.485427	2568.873697
478.855207	2571.868143
479.224928	2575.545665
479.594591	2578.905594
479.964194	2579.460121
480.333739	2580.286870
480.703226	2580.712847
481.072653	2578.903073
481.442022	2581.547158
481.811333	2582.194947
482.180584	2578.933320
482.549777	2579.639082
482.918912	2576.170768
483.287988	2578.398958
483.657005	2581.131263
484.025964	2575.827969
484.394864	2577.894842
484.763706	2578.303176
485.132489	2578.867785
485.501213	2578.613207
485.869879	2577.279822
486.238487	2574.355952
486.607036	2576.135480
486.975527	2574.769327
487.343959	2576.763103
487.712333	2575.137331
488.080648	2576.049780
488.448905	2573.052814
488.817104	2572.019378
489.185244	2576.874009
489.553326	2576.437949
489.921350	2580.002045
490.289315	2583.051943
490.657222	2586.265678
491.025070	2583.283836
491.392861	2582.109247
491.760593	2582.154617
492.128267	2577.849472
492.495883	2578.066242
492.863440	2578.595563
493.230939	2574.502146
493.598380	2574.388720
493.965763	2567.867987
494.333088	2569.213975
494.700354	2568.631722
495.067563	2574.028277
495.434713	2566.791701
495.801805	2572.611713
496.168839	2567.545353
496.535815	2571.840417
496.902733	2570.754048
497.269593	2571.676579
497.636395	2570.345714
498.003139	2569.881928
498.369825	2569.655076
498.736453	2570.844789
499.103023	2568.442679
499.469535	2571.573235
499.835989	2570.703636
500.202385	2572.314285
500.568723	2569.405539
500.935003	2571.038873
501.301226	2568.508214
501.667390	2570.320509
502.033497	2571.174984
502.399546	2571.830334
502.765537	2571.326219
503.131470	2572.223544
503.497345	2572.599110
503.863163	2571.570715
504.228923	2571.663976
504.594625	2570.996023
504.960269	2571.041394
505.325856	2571.323698
505.691385	2569.503842
506.056856	2573.025088
506.422270	2572.349573
506.787625	2573.730849
507.152924	2573.365366
507.518164	2575.220510
507.883347	2570.842268
508.248472	2573.357804
508.613540	2571.099367
508.978550	2570.501990
509.343503	2573.246898
509.708398	2574.262691
510.073236	2574.013154
510.438016	2577.325192
510.802738	2573.940057
511.167403	2574.713874
511.532010	2569.997875
511.896561	2574.363514
512.261053	2576.115315
512.625488	2572.510890
512.989866	2569.587021
513.354186	2572.321847
513.718449	2568.412432
514.082655	2572.054666
514.446803	2574.056004
514.810894	2575.568350
515.174927	2576.178329
515.538904	2575.638926
515.902822	2575.893504
516.266684	2575.936354
516.630488	2575.361663
516.994235	2575.689338
517.357925	2575.424677
517.721558	2577.529359
518.085133	2578.819894
518.448651	2575.742270
518.812112	2575.338977
519.175516	2575.626323
519.538863	2577.912486
519.902152	2577.022723
520.265385	2577.970460
520.628560	2576.455593
520.991678	2572.730180
521.354739	2577.489029
521.717743	2576.916858
522.080690	2576.843762
522.443580	2577.436097
522.806413	2576.102712
523.169189	2577.783937
523.531908	2578.731674
523.894569	2577.156313
524.257174	2577.698237
524.619722	2578.293093
524.982213	2579.495409
525.344647	2579.354256
525.707025	2578.847620
526.069345	2577.945254
526.431608	2576.170768
526.793815	2576.747980
527.155964	2574.882753
527.518057	2577.418453
527.880093	2578.792168
528.242072	2577.385686
528.603995	2577.829307
528.965860	2578.940882
529.327669	2576.319482
529.689421	2577.478947
530.051117	2580.637230
530.412755	2577.887281
530.774337	2576.964749
531.135862	2578.658577
531.497331	2575.318813
531.858743	2571.396795
532.220098	2577.083217
532.581396	2570.822103
532.942638	2576.614389
533.303824	2574.776889
533.664953	2575.848134
534.026025	2577.161354
534.387040	2576.011971
534.747999	2577.085737
535.108902	2575.270922
535.469748	2575.775037
535.830537	2575.558268
536.191270	2575.769996
536.551947	2578.603124
536.912567	2576.637074
537.273131	2578.013309
537.633638	2577.055490
537.994089	2577.388206
538.354483	2573.171281
538.714821	2577.773855
539.075103	2576.611869
539.435328	2575.643967
539.795497	2576.253947
540.155609	2578.981211
540.515665	2577.955336
540.875665	2575.752352
541.235609	2576.722774
541.595496	2579.462641
541.955328	2577.307548
542.315102	2578.041036
542.674821	2574.524831
543.034483	2576.009451
543.394090	2575.656570
543.753640	2575.091961
544.113134	2575.217990
544.472571	2577.012640
544.831953	2577.965418
545.191278	2576.357290
545.550548	2576.458113
545.909761	2573.932495
546.268918	2576.233782
546.628019	2575.235634
546.987064	2576.740418
547.346053	2575.825449
547.704986	2573.662794
548.063863	2574.713874
548.422684	2575.744790
548.781449	2575.764955
549.140158	2574.950808
549.498811	2578.308217
549.857408	2576.506004
550.215949	2570.038204
550.574434	2572.704974
550.932864	2573.935016
551.291237	2572.082392
551.649555	2575.643967
552.007817	2574.492063
552.366022	2578.686303
552.724173	2576.442990
553.082267	2576.997517
553.440305	2576.372414
553.798288	2574.426528
554.156215	2575.759914
554.514086	2577.136149
554.871902	2576.992476
555.229661	2577.758731
555.587365	2575.122208
555.945014	2572.863771
556.302606	2574.376117
556.660143	2577.073134
557.017625	2575.747311
557.375050	2576.279152
557.732421	2574.063565
558.089735	2576.551375
558.446994	2575.528021
558.804197	2574.885273
559.161345	2576.153124
559.518437	2578.887950
559.875474	2576.001889
560.232455	2576.145562
560.589381	2574.509707
560.946251	2576.921900
561.303065	2577.642785
561.659825	2575.570870
562.016528	2576.324523
562.373177	2575.154975
562.729770	2575.449883
563.086307	2574.938206
563.442789	2575.593556
563.799216	2574.456775
564.155587	2577.113463
564.511904	2577.305027
564.868164	2574.376117
565.224370	2578.840059
565.580520	2575.107084
565.936615	2575.961560
566.292654	2573.216652
566.648638	2576.392578
567.004567	2573.483833
567.360441	2572.311764
567.716260	2572.664645
568.072023	2571.979048
568.427732	2566.413614
568.783385	2571.802608
569.138982	2570.958215
569.494525	2570.018039
569.850013	2565.733059
570.205445	2575.079358
570.560823	2573.287228
570.916145	2575.318813
571.271412	2573.912331
571.626625	2574.471899
571.981782	2571.732032
572.336884	2574.671024
572.691931	2571.260684
573.046923	2571.278328
573.401860	2571.416960
573.756743	2573.229254
574.111570	2571.202711
574.466342	2571.422001
574.821059	2572.619275
575.175722	2573.471230
575.530330	2571.122052
575.884882	2573.017526
576.239380	2569.440827
576.593823	2572.818400
576.948211	2570.345714
577.302544	2570.247412
577.656823	2570.585169
578.011047	2571.283369
578.365216	2568.540981
578.719330	2571.273287
579.073389	2570.875036
579.427394	2570.217165
579.781344	2572.276476
580.135239	2571.232957
580.489080	2569.581980
580.842866	2570.373441
581.196597	2569.861764
581.550273	2569.745817
581.903895	2568.649366
582.257463	2569.269428
582.610975	2572.178174
582.964434	2570.691033
583.317837	2568.646846
583.671186	2569.773543
584.024481	2572.291600
584.377721	2569.876887
584.730906	2568.977041
585.084037	2568.377144
585.437113	2569.869325
585.790135	2568.664490
586.143103	2568.535940
586.496016	2570.481826
586.848874	2564.470250
587.201679	2566.358162
587.554428	2564.571073
587.907124	2566.133830
588.259765	2563.991340
588.612352	2565.274314
588.964884	2567.237843
589.317362	2566.106104
589.669786	2565.755744
590.022155	2568.525858
590.374470	2569.206414
590.726731	2568.331773
591.078937	2567.799932
591.431090	2568.714901
591.783188	2565.728017
592.135232	2565.806155
592.487222	2568.664490
592.839157	2567.003429
593.191038	2566.569890
593.542866	2566.789180
593.894639	2565.728018
594.246358	2567.230281
594.598022	2565.362534
594.949633	2563.104097
595.301190	2565.188614
595.652692	2564.858418
596.004141	2564.835733
596.355535	2565.284396
596.706876	2562.242060
597.058162	2566.322874
597.409395	2566.247256
597.760573	2565.980075
598.111698	2563.164591
598.462768	2562.363047
598.813785	2563.653583
599.164748	2563.948490
599.515657	2565.591906
599.866511	2564.392112
600.217312	2563.734241
600.568060	2564.162739
600.918753	2564.119889
601.269392	2564.187945
601.619978	2565.564180
601.970510	2562.433623
602.320988	2564.122410
602.671412	2563.933367
603.021783	2565.937225
603.372100	2563.527554
603.722363	2563.031000
604.072572	2562.751216
604.422728	2566.174160
604.772830	2561.324570
605.122878	2559.121585
605.472872	2561.634601
605.822813	2560.928839
606.172701	2564.180383
606.522534	2563.187276
606.872314	2559.658468
607.222041	2559.895403
607.571714	2561.614436
607.921333	2565.506207
608.270899	2562.879766
608.620411	2564.445044
608.969870	2564.833213
609.319276	2565.559139
609.668627	2566.741289
610.017926	2571.321178
610.367171	2571.243040
610.716362	2574.592887
611.065500	2568.256156
611.414585	2566.920250
611.763616	2566.259859
612.112594	2564.187945
612.461518	2565.475960
612.810389	2565.785991
613.159207	2563.383881
613.507971	2566.242215
613.856682	2565.818758
614.205340	2563.749365
614.553945	2564.802966
614.902496	2562.655434
615.250994	2563.653583
615.599439	2563.764488
615.947830	2563.996381
616.296169	2561.886658
616.644454	2566.146433
616.992686	2564.140054
617.340864	2564.145095
617.688990	2561.057388
618.037063	2565.899417
618.385082	2560.777604
618.733048	2564.319015
619.080961	2561.735424
619.428821	2563.845147
619.776628	2560.281051
620.124382	2564.976886
620.472083	2562.025290
620.819731	2565.102914
621.167326	2563.361196
621.514868	2562.819272
621.862357	2562.693243
622.209793	2563.151988
622.557176	2561.049827
622.904506	2560.896072
623.251783	2558.743499
623.599007	2562.231977
623.946179	2558.650237
624.293297	2557.803324
624.640363	2558.801472
624.987376	2558.622511
625.334336	2557.400031
625.681243	2560.034034
626.028097	2557.755433
626.374899	2559.227450
626.721647	2560.074363
627.068343	2560.384394
627.414987	2556.238045
627.761577	2561.027142
628.108115	2559.429096
628.454600	2557.470607
628.801032	2560.323901
629.147412	2558.146122
629.493739	2558.032696
629.840014	2559.290464
630.186236	2558.425906
630.532405	2558.640155
630.878521	2558.937583
631.224585	2558.468756
631.570597	2558.670402
631.916556	2555.398693
632.262462	2558.110834
632.608316	2557.561348
632.954117	2556.515309
633.299866	2558.504044
633.645562	2558.108313
633.991206	2558.388098
634.336797	2558.042778
634.682336	2553.447767
635.027823	2556.243087
635.373257	2555.865000
635.718639	2551.622869
636.063968	2554.203940
636.409245	2556.976574
636.754470	2555.655792
637.099642	2556.069167
637.444762	2558.531770
637.789829	2554.607232
638.134845	2553.467931
638.479808	2557.402552
638.824719	2556.427089
639.169577	2553.667057
639.514383	2558.385577
639.859137	2553.445246
640.203839	2554.902140
640.548489	2553.533466
640.893086	2552.926007
641.237632	2548.961140
641.582125	2549.515667
641.926566	2546.788403
642.270955	2555.469269
642.615292	2553.044474
642.959576	2556.243087
643.303809	2554.135884
643.647990	2553.719989
643.992118	2554.471121
644.336195	2554.599670
