Dividing Wavelength (nm)	Counts (n)	Blue Motor Position (mm): 0.000000	Red Motor Position (mm): 39.700000	
326.493990	2128.002108
326.888308	2128.002108
327.282561	2128.002108
327.676750	2095.010277
328.070874	2092.071284
328.464933	2095.940370
328.858929	2102.413212
329.252859	2111.613317
329.646726	2122.784514
330.040528	2136.582152
330.434265	2153.580923
330.827938	2171.585404
331.221547	2186.603001
331.615091	2207.841383
332.008571	2227.416183
332.401986	2249.181365
332.795338	2266.616195
333.188625	2286.337189
333.581847	2304.419808
333.975006	2322.172231
334.368100	2341.560509
334.761129	2358.806296
335.154095	2375.217773
335.546996	2395.543705
335.939833	2418.700245
336.332606	2431.325815
336.725315	2441.859306
337.117960	2452.438167
337.510540	2459.848663
337.903056	2474.583956
338.295508	2481.578557
338.687896	2490.773622
339.080220	2497.488438
339.472480	2504.140241
339.864676	2506.433966
340.256807	2514.237672
340.648875	2516.423012
341.040879	2516.133146
341.432818	2516.226407
341.824694	2519.926614
342.216506	2523.462984
342.608253	2520.897036
342.999937	2521.628004
343.391557	2522.943745
343.783113	2520.967612
344.174605	2518.457118
344.566033	2516.281860
344.957397	2518.384021
345.348697	2517.645492
345.739934	2511.328926
346.131106	2512.284225
346.522215	2510.829852
346.913260	2506.212155
347.304241	2507.094357
347.695159	2505.334994
348.086012	2501.922133
348.476802	2500.031701
348.867528	2498.529437
349.258191	2496.281082
349.648789	2499.545229
350.039324	2496.669251
350.429796	2496.868377
350.820203	2492.492655
351.210548	2496.286123
351.600828	2491.008035
351.991045	2493.450474
352.381198	2490.682881
352.771288	2492.411997
353.161314	2486.778507
353.551276	2490.105669
353.941175	2490.945021
354.331010	2488.991574
354.720782	2490.229177
355.110490	2489.770432
355.500135	2490.551811
355.889717	2491.587768
356.279235	2493.193375
356.668689	2492.175062
357.058080	2490.960144
357.447408	2489.760350
357.836672	2488.520226
358.225873	2490.801348
358.615010	2488.817654
359.004084	2495.948366
359.393095	2492.835453
359.782043	2494.146153
360.170927	2495.797131
360.559748	2494.589775
360.948505	2494.652789
361.337199	2497.254025
361.725830	2496.694457
362.114398	2497.722852
362.502903	2497.609426
362.891344	2499.015908
363.279722	2502.280055
363.668037	2501.864160
364.056289	2501.438183
364.444478	2501.493635
364.832603	2502.877432
365.220665	2504.041938
365.608665	2503.595796
365.996601	2506.088647
366.384474	2507.283400
366.772284	2510.260202
367.160031	2508.508401
367.547715	2511.454955
367.935336	2513.380676
368.322893	2515.626510
368.710388	2520.965092
369.097820	2527.669827
369.485189	2528.373068
369.872495	2536.068389
370.259738	2541.379244
370.646918	2552.069011
371.034035	2557.526060
371.421090	2563.681309
371.808081	2577.552044
372.195010	2584.710482
372.581875	2600.259921
372.968678	2611.821808
373.355418	2622.166255
373.742096	2639.843061
374.128710	2655.437871
374.515262	2669.860612
374.901751	2685.558765
375.288177	2698.796835
375.674540	2723.054867
376.060841	2739.269739
376.447079	2757.223808
376.833254	2779.409926
377.219367	2790.109775
377.605417	2829.576969
377.991404	2837.567197
378.377329	2861.444623
378.763191	2878.365256
379.148991	2916.315062
379.534727	2940.290789
379.920402	2969.048052
380.306013	2980.869557
380.691563	3032.765716
381.077049	3052.242213
381.462474	3067.718556
381.847835	3110.044083
382.233134	3132.386477
382.618371	3132.033597
383.003545	3200.235367
383.388657	3205.248794
383.773706	3241.003178
384.158693	3253.560692
384.543618	3282.892646
384.928480	3318.374807
385.313280	3364.017414
385.698017	3358.557845
386.082692	3414.552461
386.467305	3419.492792
386.851856	3453.187864
387.236344	3473.798622
387.620770	3505.739372
388.005133	3532.565872
388.389435	3559.803227
388.773674	3571.186152
389.157851	3611.981690
389.541965	3627.629431
389.926018	3591.680963
390.310008	3666.156449
390.693936	3680.985003
391.077802	3721.737691
391.461606	3712.598079
391.845348	3775.665434
392.229027	3774.695012
392.612645	3789.974750
392.996200	3867.416955
393.379694	3907.126124
393.763125	3972.893017
394.146494	3938.903037
394.529801	4000.798324
394.913047	4052.273546
395.296230	4016.027650
395.679351	4067.029003
396.062410	4091.735698
396.445408	4071.276175
396.828343	4108.063996
397.211217	4133.829333
397.594028	4051.416550
397.976778	4116.780151
398.359466	4140.287051
398.742092	4173.538502
399.124656	4094.813323
399.507158	4176.253163
399.889598	4200.675033
400.271977	4262.993777
400.654294	4229.180237
401.036549	4240.810179
401.418742	4211.190880
401.800874	4312.586128
402.182944	4332.226463
402.564952	4402.603491
402.946898	4388.205956
403.328783	4381.082806
403.710606	4293.611225
404.092367	4491.552130
404.474067	4451.908497
404.855705	4462.013489
405.237282	4390.703848
405.618797	4498.685363
406.000250	4532.559396
406.381642	4615.226758
406.762972	4576.944235
407.144240	4585.141152
407.525447	4585.451182
407.906593	4644.553670
408.287677	4689.608983
408.668700	4618.067448
409.049661	4668.446219
409.430560	4711.454823
409.811399	4637.382629
410.192176	4796.310045
410.572891	4735.170931
410.953545	4842.880224
411.334138	4721.310279
411.714669	4788.876864
412.095139	4681.938867
412.475547	4824.492616
412.855894	4804.060819
413.236180	4816.764527
413.616405	4765.942134
413.996568	4852.337429
414.376670	4801.260458
414.756711	4750.632150
415.136691	4782.845123
415.516609	4863.279253
415.896466	4895.804778
416.276262	4935.050161
416.655997	4912.816152
417.035670	5100.800778
417.415283	5186.452503
417.794834	5125.938492
418.174324	5085.407615
418.553753	4994.094675
418.933121	5174.227705
419.312428	5240.284464
419.691674	5180.932439
420.070859	5310.600999
420.449983	5219.436773
420.829045	5338.133260
421.208047	5241.973251
421.586988	5313.482018
421.965867	5329.505326
422.344686	5455.942505
422.723444	5310.858097
423.102141	5136.285460
423.480777	5431.762611
423.859352	5197.830387
424.237866	5459.340243
424.616319	5451.294561
424.994712	5557.869595
425.373044	5439.014311
425.751314	5575.410290
426.129524	5380.335280
426.507673	5574.959106
426.885762	5659.302651
427.263789	5591.088278
427.641756	5471.050843
428.019662	5590.954687
428.397508	5596.174802
428.775292	5546.617739
429.153016	5650.495756
429.530679	5575.070012
429.908282	5654.937012
430.285824	5526.972363
430.663305	5807.497451
431.040726	5537.951996
431.418086	5542.176483
431.795385	5646.235981
432.172624	5657.681920
432.549802	5648.333101
432.926920	5665.377242
433.303977	5676.727400
433.680974	5709.389035
434.057910	5727.887549
434.434786	5735.038426
434.811601	5702.124733
435.188355	5938.693480
435.565050	5812.190765
435.941683	5792.845337
436.318257	6007.462380
436.694770	5987.242312
437.071222	6024.975348
437.447614	5958.442200
437.823946	5868.893664
438.200218	6026.296131
438.576429	5887.190532
438.952580	5986.168546
439.328670	6031.559095
439.704700	5934.542090
440.080670	5921.823258
440.456580	6199.235434
440.832429	6079.873514
441.208218	5923.834679
441.583947	6081.648000
441.959616	6087.044555
442.335224	6010.204768
442.710773	6147.314070
443.086261	6173.840622
443.461689	5972.118850
443.837057	6118.501355
444.212365	6272.127998
444.587612	6163.191184
444.962800	6320.051727
445.337927	6303.282329
445.712995	5911.120889
446.088002	6486.031717
446.462949	6317.730276
446.837837	6249.926757
447.212664	6423.622233
447.587431	6561.102060
447.962139	7109.065401
448.336786	8033.058489
448.711374	7770.996627
449.085901	6849.037644
449.460369	6766.196363
449.834776	6704.711930
450.209124	7097.064934
450.583412	7248.241576
450.957640	7392.836992
451.331808	7158.546846
451.705917	6710.930193
452.079965	6631.887422
452.453954	6845.614701
452.827883	6722.542491
453.201752	6816.386091
453.575562	6608.856910
453.949311	6822.649724
454.323001	6707.880295
454.696632	6782.489372
455.070202	6919.835609
455.443713	7076.852428
455.817164	7175.447315
456.190556	7258.147443
456.563888	7328.060686
456.937160	7377.469034
457.310373	7031.497167
457.683526	7051.928963
458.056619	6947.698066
458.429653	6936.468896
458.802628	6871.319544
459.175542	6981.567058
459.548398	7337.888415
459.921194	7494.965728
460.293930	7501.526789
460.666607	8036.655352
461.039224	8333.740631
461.411782	8458.680588
461.784280	8482.855441
462.156719	8379.088330
462.529099	8243.703103
462.901419	7833.070875
463.273680	7733.434990
463.645882	7747.325889
464.018024	7614.683049
464.390106	7777.845035
464.762130	8163.662182
465.134094	8634.299264
465.505999	9655.241303
465.877845	10878.600792
466.249631	11526.000892
466.621358	11147.652214
466.993026	10510.997333
467.364634	10257.616338
467.736184	9896.216019
468.107674	9563.078928
468.479105	9596.809289
468.850477	9365.891675
469.221790	9133.590265
469.593043	8801.587434
469.964238	8659.999067
470.335373	8678.379114
470.706449	8735.888597
471.077467	8715.298004
471.448425	10024.871306
471.819324	11095.831673
472.190164	11121.158430
472.560945	9877.180622
472.931667	9092.242721
473.302330	8951.962533
473.672934	8595.202596
474.043479	8952.277605
474.413965	8891.375425
474.784393	8773.409905
475.154761	8932.302033
475.525070	9016.638016
475.895321	8846.856996
476.265513	9020.802009
476.635645	9187.828039
477.005719	9192.478503
477.375734	9309.798756
477.745691	9539.924909
478.115588	9678.062607
478.485427	9911.951980
478.855207	10454.619589
479.224928	11264.909452
479.594591	11896.578632
479.964194	11710.129037
480.333739	11651.074440
480.703226	11571.646020
481.072653	11653.910089
481.442022	11893.959753
481.811333	12078.753329
482.180584	11888.555636
482.549777	11598.165010
482.918912	11420.232444
483.287988	11444.182966
483.657005	11458.658639
484.025964	11138.215174
484.394864	11267.631676
484.763706	11244.472615
485.132489	10995.724440
485.501213	10954.308841
485.869879	11038.309587
486.238487	10867.245593
486.607036	10984.142389
486.975527	10772.242528
487.343959	10952.650301
487.712333	10997.549338
488.080648	10930.703638
488.448905	10975.829526
488.817104	10915.227295
489.185244	11179.066164
489.553326	11339.710093
489.921350	11873.028882
490.289315	12935.968773
490.657222	13283.243780
491.025070	13184.159901
491.392861	13059.512331
491.760593	12685.834281
492.128267	12327.047800
492.495883	12004.741629
492.863440	11671.649909
493.230939	11335.299084
493.598380	11259.901066
493.965763	11133.912549
494.333088	11027.932372
494.700354	10953.620723
495.067563	11011.029383
495.434713	10838.165697
495.801805	10974.528909
496.168839	10900.736499
496.535815	10837.422127
496.902733	10835.693011
497.269593	10763.579305
497.636395	10867.956396
498.003139	10849.956956
498.369825	10717.356966
498.736453	10874.451923
499.103023	10803.386777
499.469535	10834.770480
499.835989	10819.286576
500.202385	10785.397419
500.568723	10637.878134
500.935003	10860.389624
501.301226	10664.644141
501.667390	10923.399006
502.033497	11025.701661
502.399546	10880.420649
502.765537	10790.362956
503.131470	10857.864006
503.497345	11030.863803
503.863163	10650.196194
504.228923	10951.309354
504.594625	11020.368121
504.960269	10762.820612
505.325856	10986.572225
505.691385	10782.947418
506.056856	10937.763774
506.422270	10962.160438
506.787625	10847.028046
507.152924	10967.025151
507.518164	10951.886566
507.883347	10872.871521
508.248472	10791.817329
508.613540	11022.689572
508.978550	10904.814792
509.343503	10876.664989
509.708398	11003.744916
510.073236	11100.507343
510.438016	11112.346493
510.802738	11066.890409
511.167403	11115.514858
511.532010	11010.832778
511.896561	11243.756771
512.261053	11306.927470
512.625488	11185.362565
512.989866	11162.213587
513.354186	11151.344859
513.718449	11053.614530
514.082655	11247.283058
514.446803	11144.758592
514.810894	11264.909452
515.174927	11126.600356
515.538904	11159.062866
515.902822	11308.414610
516.266684	11197.937724
516.630488	11131.134873
516.994235	11200.599453
517.357925	11253.851682
517.721558	11347.682678
518.085133	11358.062414
518.448651	11368.575740
518.812112	11262.048598
519.175516	11264.579257
519.538863	11384.866229
519.902152	11308.475104
520.265385	11461.763990
520.628560	11362.312107
520.991678	11351.637463
521.354739	11407.896740
521.717743	11344.721000
522.080690	11329.584936
522.443580	11458.792229
522.806413	11415.067782
523.169189	11448.558687
523.531908	11502.408292
523.894569	11325.068062
524.257174	11331.510657
524.619722	11444.603902
524.982213	11397.806871
525.344647	11440.724734
525.707025	11386.292875
526.069345	11482.253759
526.431608	11403.964640
526.793815	11517.388081
527.155964	11294.821139
527.518057	11348.441372
527.880093	11301.740122
528.242072	11368.663960
528.603995	11270.593353
528.965860	11194.522342
529.327669	11247.734241
529.689421	11200.014679
530.051117	11174.163642
530.412755	11282.223295
530.774337	11168.043681
531.135862	11151.100363
531.497331	11172.890751
531.858743	11019.165805
532.220098	11186.574963
532.581396	11061.342619
532.942638	11039.637931
533.303824	10998.776859
533.664953	11024.857268
534.026025	10929.188771
534.387040	11029.298525
534.747999	11028.658298
535.108902	11088.171640
535.469748	10841.807931
535.830537	10947.079826
536.191270	10927.835221
536.551947	10949.650814
536.912567	10948.788777
537.273131	10867.636282
537.633638	10847.133910
537.994089	10837.621253
538.354483	10791.706423
538.714821	10930.174317
539.075103	10936.410224
539.435328	10910.145812
539.795497	10734.005376
540.155609	10885.766792
540.515665	10973.177879
540.875665	10712.885462
541.235609	10787.625609
541.595496	10776.124217
541.955328	10935.757394
542.315102	10813.670731
542.674821	10764.849676
543.034483	10770.178176
543.394090	10772.098855
543.753640	10704.741478
544.113134	10919.696278
544.472571	10771.728331
544.831953	10921.286762
545.191278	10724.981711
545.550548	10750.689075
545.909761	10885.474405
546.268918	10861.337361
546.628019	10944.292068
546.987064	10808.745523
547.346053	10726.357946
547.704986	10833.563124
548.063863	10814.247943
548.422684	10809.259721
548.781449	10727.502288
549.140158	10822.812863
549.498811	10703.030007
549.857408	10555.422501
550.215949	10783.050762
550.574434	10632.274892
550.932864	10731.903215
551.291237	10786.791298
551.649555	10737.478731
552.007817	10753.746535
552.366022	10716.129445
552.724173	10703.738289
553.082267	10690.976608
553.440305	10820.415794
553.798288	10627.140477
554.156215	10782.239136
554.514086	10754.951371
554.871902	10604.276323
555.229661	10640.219750
555.587365	10615.752510
555.945014	10510.460450
556.302606	10630.548297
556.660143	10525.173058
557.017625	10680.410349
557.375050	10583.693292
557.732421	10710.264062
558.089735	10618.250402
558.446994	10621.980856
558.804197	10652.109312
559.161345	10655.643160
559.518437	10502.523153
559.875474	10585.374517
560.232455	10621.262491
560.589381	10569.273072
560.946251	10568.544625
561.303065	10667.152115
561.659825	10599.850190
562.016528	10532.702021
562.373177	10408.137630
562.729770	10516.348518
563.086307	10434.623852
563.442789	10521.954281
563.799216	10401.352237
564.155587	10444.779257
564.511904	10396.643799
564.868164	10386.700123
565.224370	10395.693542
565.580520	10316.509618
565.936615	10322.309465
566.292654	10187.561943
566.648638	10321.858282
567.004567	10265.475497
567.360441	10250.825904
567.716260	10158.696297
568.072023	10255.128528
568.427732	10188.862561
568.783385	10104.244273
569.138982	10164.312142
569.494525	10188.159320
569.850013	10057.706862
570.205445	10131.302667
570.560823	10027.228045
570.916145	9940.447102
571.271412	10006.284572
571.626625	9941.036918
571.981782	9923.216439
572.336884	9888.150172
572.691931	9891.774762
573.046923	9825.959978
573.401860	9782.283421
573.756743	9711.278769
574.111570	9748.853009
574.466342	9733.253159
574.821059	9746.324871
575.175722	9647.051949
575.530330	9638.287903
575.884882	9630.360688
576.239380	9556.820336
576.593823	9531.402838
576.948211	9540.877687
577.302544	9410.818438
577.656823	9415.032843
578.011047	9413.845651
578.365216	9385.758862
578.719330	9298.647724
579.073389	9301.274165
579.427394	9244.162933
579.781344	9215.284683
580.135239	9151.100713
580.489080	9159.610180
580.842866	9053.178820
581.196597	9042.002582
581.550273	9077.583046
581.903895	9030.256693
582.257463	9092.129295
582.610975	8959.829253
582.964434	8977.261563
583.317837	8888.925425
583.671186	8869.211992
584.024481	8851.434363
584.377721	8768.298175
584.730906	8736.130572
585.084037	8750.691945
585.437113	8681.537397
585.790135	8694.352010
586.143103	8582.912263
586.496016	8542.724184
586.848874	8586.932583
587.201679	8563.493738
587.554428	8449.167931
587.907124	8479.001479
588.259765	8442.120398
588.612352	8424.113396
588.964884	8298.623953
589.317362	8297.802245
589.669786	8283.301366
590.022155	8312.905542
590.374470	8317.276223
590.726731	8251.136284
591.078937	8098.880835
591.431090	8184.376284
591.783188	8055.350472
592.135232	8033.202162
592.487222	8029.645628
592.839157	8055.184113
593.191038	7982.150397
593.542866	7920.134122
593.894639	7809.145559
594.246358	7843.586722
594.598022	7843.190991
594.949633	7735.519507
595.301190	7698.721604
595.652692	7709.673511
596.004141	7786.392311
596.355535	7577.050836
596.706876	7542.917183
597.058162	7467.027653
597.409395	7515.707555
597.760573	7552.409676
598.111698	7462.485573
598.462768	7432.281500
598.813785	7386.291054
599.164748	7338.064855
599.515657	7325.328380
599.866511	7219.151598
600.217312	7316.748336
600.568060	7181.219436
600.918753	7249.154025
601.269392	7204.481840
601.619978	7118.174766
601.970510	7150.969992
602.320988	7130.283617
602.671412	7154.768502
603.021783	7091.912875
603.372100	7052.748151
603.722363	7027.088678
604.072572	6995.984758
604.422728	6990.336145
604.772830	6912.301604
605.122878	6894.702936
605.472872	6887.063068
605.822813	6879.697942
606.172701	6826.675086
606.522534	6861.673296
606.872314	6840.397107
607.222041	6794.063862
607.571714	6813.159752
607.921333	6768.492609
608.270899	6748.181800
608.620411	6800.725746
608.969870	6703.665891
609.319276	6675.072466
609.668627	6671.480644
610.017926	6678.276119
610.367171	6684.302819
610.716362	6650.133878
611.065500	6622.248736
611.414585	6614.213136
611.763616	6594.187153
612.112594	6547.690070
612.461518	6540.519029
612.810389	6563.904942
613.159207	6499.741135
613.507971	6439.335509
613.856682	6495.045301
614.205340	6448.490245
614.553945	6481.497200
614.902496	6388.659310
615.250994	6402.615745
615.599439	6374.521394
615.947830	6359.171081
616.296169	6311.542259
616.644454	6304.519932
616.992686	6275.785355
617.340864	6293.547861
617.688990	6206.333379
618.037063	6245.354430
618.385082	6184.177507
618.733048	6212.319749
619.080961	6160.085833
619.428821	6148.634852
619.776628	6122.960256
620.124382	6071.845476
620.472083	6034.074631
620.819731	6036.184354
621.167326	5945.932577
621.514868	5928.313744
621.862357	5840.143963
622.209793	5831.034598
622.557176	5771.337254
622.904506	5730.335030
623.251783	5673.690104
623.599007	5621.862002
623.946179	5609.911947
624.293297	5558.739194
624.640363	5495.351725
624.987376	5464.099092
625.334336	5419.789870
625.681243	5367.016551
626.028097	5340.333724
626.374899	5314.865815
626.721647	5282.163850
627.068343	5229.977825
627.414987	5192.907700
627.761577	5153.697606
628.108115	5153.158202
628.454600	5078.859156
628.801032	5081.150361
629.147412	5047.150299
629.493739	5012.893138
629.840014	4967.986539
630.186236	4980.463395
630.532405	4904.485645
630.878521	4912.241460
631.224585	4868.771590
631.570597	4818.017253
631.916556	4809.560718
632.262462	4795.828615
632.608316	4755.534672
632.954117	4728.491402
633.299866	4711.984144
633.645562	4684.613199
633.991206	4632.913646
634.336797	4585.887242
634.682336	4549.777457
635.027823	4515.515255
635.373257	4494.665043
635.718639	4447.716777
636.063968	4435.229839
636.409245	4381.831417
636.754470	4356.769321
637.099642	4328.392666
637.444762	4290.621820
637.789829	4275.163122
638.134845	4236.003439
638.479808	4210.754820
638.824719	4201.685784
639.169577	4161.006193
639.514383	4145.444151
639.859137	4110.917289
640.203839	4104.701546
640.548489	4074.560487
