Dividing Wavelength (nm)	Counts (n)	Blue Motor Position (mm): 0.000000	Red Motor Position (mm): 41.400000	
326.493990	2128.627212
326.888308	2128.627212
327.282561	2128.627212
327.676750	2098.266863
328.070874	2095.186718
328.464933	2095.736203
328.858929	2103.484457
329.252859	2114.897629
329.646726	2123.964144
330.040528	2139.450569
330.434265	2155.562097
330.827938	2171.797133
331.221547	2187.545697
331.615091	2210.319110
332.008571	2227.862325
332.401986	2248.568864
332.795338	2267.329518
333.188625	2287.637807
333.581847	2303.356124
333.975006	2324.791111
334.368100	2341.532783
334.761129	2358.733199
335.154095	2375.789943
335.546996	2394.575803
335.939833	2418.851480
336.332606	2430.720876
336.725315	2444.377362
337.117960	2455.530915
337.510540	2462.260855
337.903056	2475.952629
338.295508	2481.596201
338.687896	2491.255052
339.080220	2498.413490
339.472480	2506.489419
339.864676	2508.092506
340.256807	2513.307579
340.648875	2517.897550
341.040879	2520.471059
341.432818	2517.945441
341.824694	2523.533560
342.216506	2525.340813
342.608253	2524.269568
342.999937	2524.781245
343.391557	2526.510361
343.783113	2523.478107
344.174605	2520.324865
344.566033	2520.282016
344.957397	2519.893847
345.348697	2513.927641
345.739934	2514.890502
346.131106	2512.478309
346.522215	2510.129132
346.913260	2508.788185
347.304241	2505.501353
347.695159	2507.643843
348.086012	2502.927843
348.476802	2502.070847
348.867528	2500.218223
349.258191	2500.492966
349.648789	2497.677482
350.039324	2496.066833
350.429796	2495.330825
350.820203	2495.350989
351.210548	2495.449292
351.600828	2494.269662
351.991045	2494.045330
352.381198	2493.284116
352.771288	2493.707573
353.161314	2491.885196
353.551276	2492.306132
353.941175	2490.869403
354.331010	2493.195896
354.720782	2492.482573
355.110490	2494.602378
355.500135	2492.081801
355.889717	2492.916112
356.279235	2491.388642
356.668689	2495.696308
357.058080	2491.325628
357.447408	2491.353354
357.836672	2490.960144
358.225873	2491.013076
358.615010	2489.152891
359.004084	2496.061792
359.393095	2496.961638
359.782043	2494.889724
360.170927	2494.990547
360.559748	2499.020949
360.948505	2499.865343
361.337199	2498.771412
361.725830	2500.656804
362.114398	2498.920126
362.502903	2501.647390
362.891344	2500.109838
363.279722	2502.070847
363.668037	2501.871722
364.056289	2501.808707
364.444478	2504.742659
364.832603	2504.886332
365.220665	2505.458503
365.608665	2507.537979
365.996601	2507.238030
366.384474	2507.941271
366.772284	2510.600480
367.160031	2510.310613
367.547715	2512.601818
367.935336	2514.043588
368.322893	2519.452746
368.710388	2521.612880
369.097820	2529.653521
369.485189	2528.436082
369.872495	2536.577545
370.259738	2542.881508
370.646918	2550.932231
371.034035	2558.191492
371.421090	2569.297154
371.808081	2579.210583
372.195010	2588.554362
372.581875	2601.295878
372.968678	2615.280039
373.355418	2624.001235
373.742096	2644.337250
374.128710	2658.545742
374.515262	2671.284738
374.901751	2690.415917
375.288177	2701.738348
375.674540	2724.282388
376.060841	2740.489698
376.447079	2762.360744
376.833254	2782.936213
377.219367	2791.934673
377.605417	2830.055878
377.991404	2842.903259
378.377329	2861.043851
378.763191	2880.767365
379.148991	2919.143149
379.534727	2944.641305
379.920402	2972.304637
380.306013	2983.579178
380.691563	3032.117927
381.077049	3057.442164
381.462474	3072.048907
381.847835	3112.264712
382.233134	3134.639873
382.618371	3133.543422
383.003545	3204.018753
383.388657	3213.143241
383.773706	3244.022829
384.158693	3258.682505
384.543618	3281.700413
384.928480	3320.182061
385.313280	3367.163094
385.698017	3364.854246
386.082692	3420.117895
386.467305	3426.323555
386.851856	3456.260447
387.236344	3481.730877
387.620770	3510.410001
388.005133	3533.828682
388.389435	3563.032086
388.773674	3572.312850
389.157851	3614.988738
389.541965	3632.542036
389.926018	3596.049123
390.310008	3668.062006
390.693936	3686.200077
391.077802	3726.625090
391.461606	3714.443142
391.845348	3778.140641
392.229027	3782.087864
392.612645	3790.708238
392.996200	3871.240670
393.379694	3909.482863
393.763125	3972.741782
394.146494	3944.773461
394.529801	4003.094570
394.913047	4053.135583
395.296230	4016.554450
395.679351	4076.483687
396.062410	4097.762398
396.445408	4081.111467
396.828343	4112.762351
397.211217	4134.151967
397.594028	4055.580543
397.976778	4121.937251
398.359466	4152.037981
398.742092	4174.977751
399.124656	4101.896144
399.507158	4180.563350
399.889598	4206.416907
400.271977	4268.561731
400.654294	4236.711721
401.036549	4245.788319
401.418742	4214.807908
401.800874	4317.450841
402.182944	4340.819110
402.564952	4406.288575
402.946898	4390.474475
403.328783	4388.528590
403.710606	4300.593223
404.092367	4496.552955
404.474067	4455.802788
404.855705	4469.310560
405.237282	4394.179723
405.618797	4507.202392
406.000250	4541.648597
406.381642	4615.569556
406.762972	4578.401129
407.144240	4588.475875
407.525447	4591.107357
407.906593	4650.194721
408.287677	4695.635682
408.668700	4625.097337
409.049661	4677.142209
409.430560	4715.031522
409.811399	4644.636849
410.192176	4804.990912
410.572891	4744.048403
410.953545	4850.197459
411.334138	4721.864806
411.714669	4794.580929
412.095139	4686.455741
412.475547	4832.261034
412.855894	4811.408301
413.236180	4821.798119
413.616405	4773.970172
413.996568	4864.763873
414.376670	4801.197444
414.756711	4758.529117
415.136691	4788.186226
415.516609	4866.966857
415.896466	4902.796858
416.276262	4938.523516
416.655997	4920.700516
417.035670	5095.474799
417.415283	5194.382238
417.794834	5134.800841
418.174324	5091.474644
418.553753	4995.712885
418.933121	5184.988048
419.312428	5247.692440
419.691674	5187.788409
420.070859	5311.405063
420.449983	5226.063369
420.829045	5342.206513
421.208047	5249.449282
421.586988	5320.416125
421.965867	5330.964740
422.344686	5464.646057
422.723444	5318.611392
423.102141	5136.053567
423.480777	5434.220173
423.859352	5200.114030
424.237866	5464.126818
424.616319	5460.915603
424.994712	5569.214712
425.373044	5441.547490
425.751314	5583.934881
426.129524	5386.692175
426.507673	5584.809521
426.885762	5668.588457
427.263789	5597.558599
427.641756	5482.574921
428.019662	5599.877530
428.397508	5609.427996
428.775292	5554.754162
429.153016	5654.518596
429.530679	5582.982103
429.908282	5666.778682
430.285824	5533.891347
430.663305	5811.608512
431.040726	5542.239497
431.418086	5543.716555
431.795385	5651.866949
432.172624	5663.201984
432.549802	5655.705788
432.926920	5672.263458
433.303977	5676.654303
433.680974	5718.301795
434.057910	5735.275360
434.434786	5739.068829
434.811601	5707.743099
435.188355	5942.207164
435.565050	5817.592362
435.941683	5801.148118
436.318257	6013.496641
436.694770	5994.877139
437.071222	6029.396440
437.447614	5962.323888
437.823946	5874.769128
438.200218	6026.906110
438.576429	5895.389968
438.952580	5993.614330
439.328670	6035.004724
439.704700	5946.303102
440.080670	5932.180309
440.456580	6204.087545
440.832429	6082.096663
441.208218	5932.303817
441.583947	6088.244350
441.959616	6096.358087
442.335224	6020.420666
442.710773	6154.321274
443.086261	6184.011149
443.461689	5977.485159
443.837057	6127.620802
444.212365	6280.156036
444.587612	6178.465880
444.962800	6332.926834
445.337927	6306.680067
445.712995	5913.142392
446.088002	6498.105281
446.462949	6327.989024
446.837837	6256.245843
447.212664	6429.331340
447.587431	6571.907773
447.962139	7114.280474
448.336786	8044.595170
448.711374	7788.751571
449.085901	6851.906061
449.460369	6774.547034
449.834776	6713.039916
450.209124	7102.355625
450.583412	7256.481342
450.957640	7401.590956
451.331808	7167.444483
451.705917	6718.179373
452.079965	6641.657178
452.453954	6855.056782
452.827883	6727.671865
453.201752	6824.285579
453.575562	6620.474249
453.949311	6825.810528
454.323001	6713.733075
454.696632	6788.992461
455.070202	6922.661176
455.443713	7086.624704
455.817164	7180.470824
456.190556	7261.454440
456.563888	7339.710792
456.937160	7382.311063
457.310373	7036.939092
457.683526	7063.982362
458.056619	6956.031093
458.429653	6941.250430
458.802628	6874.631582
459.175542	6984.604353
459.548398	7336.590318
459.921194	7499.026377
460.293930	7506.152048
460.666607	8034.795167
461.039224	8346.063732
461.411782	8467.190056
461.784280	8485.398703
462.156719	8382.241572
462.529099	8257.929239
462.901419	7845.867844
463.273680	7741.820949
463.645882	7752.561128
464.018024	7615.905529
464.390106	7786.568751
464.762130	8171.317175
465.134094	8641.644226
465.505999	9663.355040
465.877845	10884.806452
466.249631	11538.102182
466.621358	11153.963739
466.993026	10526.382935
467.364634	10269.521023
467.736184	9909.549871
468.107674	9571.873221
468.479105	9604.355896
468.850477	9367.683805
469.221790	9140.466399
469.593043	8814.268457
469.964238	8676.834000
470.335373	8686.450001
470.706449	8737.204338
471.077467	8720.833191
471.448425	10037.111228
471.819324	11112.026380
472.190164	11135.626542
472.560945	9886.602538
472.931667	9099.113814
473.302330	8958.684912
473.672934	8607.876057
474.043479	8958.445457
474.413965	8897.618894
474.784393	8784.608828
475.154761	8948.791647
475.525070	9025.606229
475.895321	8860.387453
476.265513	9030.811220
476.635645	9202.535605
477.005719	9201.484525
477.375734	9315.487698
477.745691	9551.809429
478.115588	9690.564668
478.485427	9933.628942
478.855207	10468.137443
479.224928	11284.456527
479.594591	11903.893347
479.964194	11724.660163
480.333739	11664.458703
480.703226	11586.507342
481.072653	11674.293995
481.442022	11916.087898
481.811333	12098.837286
482.180584	11902.940568
482.549777	11611.604726
482.918912	11437.536204
483.287988	11460.226438
483.657005	11468.773714
484.025964	11151.390230
484.394864	11284.819490
484.763706	11251.638615
485.132489	11005.264824
485.501213	10984.122224
485.869879	11046.017511
486.238487	10891.022195
486.607036	11007.188024
486.975527	10783.534713
487.343959	10974.138219
487.712333	11017.038438
488.080648	10947.541092
488.448905	10990.164047
488.817104	10933.123392
489.185244	11196.805985
489.553326	11350.203255
489.921350	11892.926316
490.289315	12953.295219
490.657222	13298.218527
491.025070	13203.787633
491.392861	13083.669540
491.760593	12699.629399
492.128267	12349.440606
492.495883	12024.840710
492.863440	11685.840758
493.230939	11354.687361
493.598380	11282.518203
493.965763	11150.349231
494.333088	11046.040197
494.700354	10966.871396
495.067563	11028.673422
495.434713	10860.392144
495.801805	10986.231947
496.168839	10911.827037
496.535815	10844.535195
496.902733	10847.363282
497.269593	10781.626636
497.636395	10873.668023
498.003139	10867.691735
498.369825	10730.968081
498.736453	10896.506971
499.103023	10817.065948
499.469535	10843.421100
499.835989	10835.156128
500.202385	10800.241097
500.568723	10651.332974
500.935003	10870.892868
501.301226	10676.768116
501.667390	10938.550194
502.033497	11037.747498
502.399546	10896.829604
502.765537	10799.280757
503.131470	10877.542150
503.497345	11047.726463
503.863163	10660.177678
504.228923	10973.298867
504.594625	11039.842098
504.960269	10785.538572
505.325856	11005.874803
505.691385	10797.748246
506.056856	10952.378079
506.422270	10982.204065
506.787625	10862.857269
507.152924	10985.180867
507.518164	10969.414658
507.883347	10888.806608
508.248472	10807.414659
508.613540	11040.182376
508.978550	10917.268963
509.343503	10897.245500
509.708398	11012.549291
510.073236	11129.262085
510.438016	11128.079934
510.802738	11080.630074
511.167403	11132.347271
511.532010	11029.434636
511.896561	11259.671694
512.261053	11335.916625
512.625488	11199.699607
512.989866	11186.756444
513.354186	11171.257417
513.718449	11075.679661
514.082655	11270.686615
514.446803	11161.651498
514.810894	11283.067689
515.174927	11145.950825
515.538904	11177.558859
515.902822	11329.567292
516.266684	11216.068233
516.630488	11154.823255
516.994235	11211.032121
517.357925	11280.456371
517.721558	11370.239321
518.085133	11383.668955
518.448651	11392.584235
518.812112	11270.583271
519.175516	11286.609099
519.538863	11407.395145
519.902152	11326.741725
520.265385	11481.366516
520.628560	11394.832590
520.991678	11372.338962
521.354739	11426.778382
521.717743	11365.218332
522.080690	11340.423417
522.443580	11478.724952
522.806413	11434.546800
523.169189	11463.162910
523.531908	11516.594099
523.894569	11338.084321
524.257174	11348.892555
524.619722	11465.544855
524.982213	11408.839436
525.344647	11463.067128
525.707025	11410.266083
526.069345	11504.066832
526.431608	11429.941706
526.793815	11540.136288
527.155964	11324.460603
527.518057	11379.527647
527.880093	11326.978659
528.242072	11392.082641
528.603995	11300.265585
528.965860	11229.563402
529.327669	11269.033116
529.689421	11220.421270
530.051117	11194.915552
530.412755	11298.775924
530.774337	11181.538850
531.135862	11164.288022
531.497331	11184.399705
531.858743	11038.291943
532.220098	11205.393590
532.581396	11080.201576
532.942638	11057.279449
533.303824	11024.748883
533.664953	11032.950841
534.026025	10949.285331
534.387040	11045.263859
534.747999	11051.701412
535.108902	11104.709145
535.469748	10868.447908
535.830537	10967.854421
536.191270	10945.534712
536.551947	10968.083793
536.912567	10972.535132
537.273131	10897.129553
537.633638	10864.036899
537.994089	10855.232523
538.354483	10814.676441
538.714821	10949.436565
539.075103	10962.667074
539.435328	10921.712740
539.795497	10751.472974
540.155609	10912.328632
540.515665	10998.630665
540.875665	10734.136446
541.235609	10798.080962
541.595496	10802.466766
541.955328	10952.241968
542.315102	10838.705101
542.674821	10791.000662
543.034483	10783.194435
543.394090	10797.886878
543.753640	10720.419467
544.113134	10941.849629
544.472571	10798.315376
544.831953	10944.695360
545.191278	10743.928888
545.550548	10776.774526
545.909761	10910.786039
546.268918	10881.975845
546.628019	10972.951027
546.987064	10829.192443
547.346053	10751.246123
547.704986	10854.488953
548.063863	10839.793990
548.422684	10835.435912
548.781449	10746.787222
549.140158	10849.767913
549.498811	10726.453728
549.857408	10587.012892
550.215949	10814.502521
550.574434	10666.030458
550.932864	10765.663823
551.291237	10818.971504
551.649555	10767.219018
552.007817	10779.932808
552.366022	10749.610268
552.724173	10734.491848
553.082267	10725.957174
553.440305	10856.966680
553.798288	10653.694754
554.156215	10812.468415
554.514086	10794.673142
554.871902	10636.645572
555.229661	10677.368013
555.587365	10654.236678
555.945014	10544.495800
556.302606	10669.876858
556.660143	10566.901209
557.017625	10719.174302
557.375050	10624.889601
557.732421	10753.239899
558.089735	10662.476444
558.446994	10671.064050
558.804197	10701.016066
559.161345	10708.466891
559.518437	10553.113653
559.875474	10640.759154
560.232455	10672.561273
560.589381	10619.049425
560.946251	10620.491195
561.303065	10734.088555
561.659825	10661.281691
562.016528	10590.486247
562.373177	10473.758330
562.729770	10587.189332
563.086307	10497.459314
563.442789	10586.433159
563.799216	10467.373708
564.155587	10515.141162
564.511904	10473.055089
564.868164	10457.704775
565.224370	10474.433844
565.580520	10399.096321
565.936615	10399.567668
566.292654	10278.476633
566.648638	10410.126365
567.004567	10364.299756
567.360441	10343.452064
567.716260	10255.345298
568.072023	10347.701757
568.427732	10305.214912
568.783385	10212.165295
569.138982	10283.243043
569.494525	10298.454725
569.850013	10176.632722
570.205445	10260.426781
570.560823	10147.457044
570.916145	10067.070805
571.271412	10139.575200
571.626625	10085.465975
571.981782	10063.526874
572.336884	10032.135609
572.691931	10041.086177
573.046923	9987.382765
573.401860	9946.120921
573.756743	9876.459737
574.111570	9919.949771
574.466342	9907.041897
574.821059	9937.576165
575.175722	9822.905039
575.530330	9836.024642
575.884882	9825.750770
576.239380	9756.704607
576.593823	9733.835412
576.948211	9745.571218
577.302544	9626.542014
577.656823	9638.769333
578.011047	9646.247885
578.365216	9605.137275
578.719330	9532.315287
579.073389	9542.178305
579.427394	9488.227876
579.781344	9466.248445
580.135239	9420.240355
580.489080	9424.449718
580.842866	9327.004214
581.196597	9333.587961
581.550273	9364.848156
581.903895	9338.467798
582.257463	9398.157580
582.610975	9275.292058
582.964434	9302.932705
583.317837	9225.671981
583.671186	9208.763951
584.024481	9193.038072
584.377721	9117.728274
584.730906	9094.453267
585.084037	9125.894943
585.437113	9064.589472
585.790135	9075.591790
586.143103	8975.925658
586.496016	8954.162997
586.848874	9005.421449
587.201679	8996.468360
587.554428	8878.250781
587.907124	8925.935056
588.259765	8895.047906
588.612352	8888.111278
588.964884	8770.044935
589.317362	8785.007079
589.669786	8779.476933
590.022155	8830.954676
590.374470	8840.595883
590.726731	8787.003376
591.078937	8630.447823
591.431090	8742.963856
591.783188	8614.895863
592.135232	8610.066438
592.487222	8600.604192
592.839157	8652.086976
593.191038	8582.806398
593.542866	8526.988223
593.894639	8425.900485
594.246358	8480.218918
594.598022	8491.528746
594.949633	8383.847180
595.301190	8356.289712
595.652692	8379.221921
596.004141	8487.168148
596.355535	8272.805684
596.706876	8254.281964
597.058162	8179.894698
597.409395	8252.517560
597.760573	8312.411509
598.111698	8217.151345
598.462768	8193.321811
598.813785	8160.640011
599.164748	8127.348231
599.515657	8117.515460
599.866511	8024.690174
600.217312	8147.268350
600.568060	8002.743511
600.918753	8100.607430
601.269392	8068.064262
601.619978	7980.685942
601.970510	8038.528141
602.320988	8027.649331
602.671412	8081.776200
603.021783	8021.567179
603.372100	7983.856828
603.722363	7991.053075
604.072572	7953.204092
604.422728	7959.553425
604.772830	7889.506592
605.122878	7890.320739
605.472872	7883.729430
605.822813	7904.632574
606.172701	7850.667022
606.522534	7919.529184
606.872314	7912.116167
607.222041	7878.484109
607.571714	7925.777694
607.921333	7875.953450
608.270899	7875.431691
608.620411	7962.535268
608.969870	7862.065071
609.319276	7846.508071
609.668627	7857.951490
610.017926	7894.683857
610.367171	7918.523474
610.716362	7893.718476
611.065500	7879.721713
611.414585	7890.749237
611.763616	7882.307825
612.112594	7849.868000
612.461518	7856.998712
612.810389	7904.534272
613.159207	7838.192687
613.507971	7777.676156
613.856682	7885.297229
614.205340	7831.550967
614.553945	7897.761482
614.902496	7787.100593
615.250994	7835.977100
615.599439	7809.178326
615.947830	7812.490364
616.296169	7771.898994
616.644454	7776.912421
616.992686	7759.628825
617.340864	7802.279507
617.688990	7700.218827
618.037063	7776.622555
618.385082	7712.582257
618.733048	7771.760362
619.080961	7709.807102
619.428821	7715.382618
619.776628	7701.290072
620.124382	7647.672360
620.472083	7622.597661
620.819731	7637.126266
621.167326	7530.566356
621.514868	7533.948970
621.862357	7422.869666
622.209793	7428.740090
622.557176	7360.205603
622.904506	7321.534912
623.251783	7255.299192
623.599007	7208.776903
623.946179	7200.259874
624.293297	7145.802809
624.640363	7073.973929
624.987376	7041.607201
625.334336	6987.414797
625.681243	6933.234996
626.028097	6914.270175
626.374899	6877.411779
626.721647	6860.607092
627.068343	6796.007226
627.414987	6761.215703
627.761577	6705.402568
628.108115	6727.447534
628.454600	6621.369054
628.801032	6645.969885
629.147412	6609.124092
629.493739	6584.046872
629.840014	6517.899372
630.186236	6546.734772
630.532405	6438.816271
630.878521	6471.041847
631.224585	6420.718528
631.570597	6349.842426
631.916556	6356.398446
632.262462	6344.213977
632.608316	6298.011803
632.954117	6267.969046
633.299866	6245.152784
633.645562	6226.639146
633.991206	6150.111910
634.336797	6093.484629
634.682336	6047.834461
635.027823	6009.683008
635.373257	5993.979814
635.718639	5929.505977
636.063968	5926.289721
636.409245	5837.885526
636.754470	5824.113094
637.099642	5777.311022
637.444762	5719.052927
637.789829	5721.104677
638.134845	5655.065562
638.479808	5633.282736
638.824719	5631.772910
639.169577	5564.423095
639.514383	5571.526081
639.859137	5503.417572
640.203839	5494.663608
640.548489	5473.218539
