Dividing Wavelength (nm)	Counts (n)	Blue Motor Position (mm): 0.000000	Red Motor Position (mm): 19.800000	
326.493990	2128.236522
326.888308	2128.236522
327.282561	2128.236522
327.676750	2094.286872
328.070874	2091.415934
328.464933	2096.545308
328.858929	2103.602924
329.252859	2112.576178
329.646726	2127.404732
330.040528	2135.745321
330.434265	2152.436581
330.827938	2172.449962
331.221547	2190.325893
331.615091	2208.413553
332.008571	2228.724362
332.401986	2247.290932
332.795338	2267.258942
333.188625	2287.345420
333.581847	2305.911989
333.975006	2323.694660
334.368100	2341.373986
334.761129	2360.449712
335.154095	2377.115767
335.546996	2393.509599
335.939833	2406.954357
336.332606	2424.263158
336.725315	2435.111721
337.117960	2446.466920
337.510540	2455.172993
337.903056	2465.560291
338.295508	2472.078503
338.687896	2479.859523
339.080220	2489.281440
339.472480	2495.358551
339.864676	2500.664365
340.256807	2506.738956
340.648875	2505.231651
341.040879	2511.391941
341.432818	2513.852024
341.824694	2513.259688
342.216506	2515.462673
342.608253	2515.455111
342.999937	2513.128618
343.391557	2513.521828
343.783113	2512.017044
344.174605	2515.182888
344.566033	2509.234327
344.957397	2507.391785
345.348697	2506.686024
345.739934	2504.903976
346.131106	2501.876763
346.522215	2504.364572
346.913260	2500.329129
347.304241	2499.898110
347.695159	2497.349807
348.086012	2497.352327
348.476802	2492.381750
348.867528	2493.647079
349.258191	2487.806902
349.648789	2492.124651
350.039324	2486.453353
350.429796	2488.673981
350.820203	2487.842191
351.210548	2484.396562
351.600828	2482.743063
351.991045	2486.256748
352.381198	2481.664257
352.771288	2481.999493
353.161314	2480.184678
353.551276	2483.910091
353.941175	2482.438074
354.331010	2482.995121
354.720782	2484.870430
355.110490	2481.389514
355.500135	2482.604432
355.889717	2485.669453
356.279235	2481.510501
356.668689	2483.582416
357.058080	2485.303970
357.447408	2482.483444
357.836672	2481.707106
358.225873	2484.290698
358.615010	2480.177116
359.004084	2488.192551
359.393095	2487.091059
359.782043	2487.547283
360.170927	2486.939824
360.559748	2487.464104
360.948505	2490.793786
361.337199	2489.576348
361.725830	2490.977788
362.114398	2491.885196
362.502903	2489.699856
362.891344	2494.914929
363.279722	2491.370998
363.668037	2493.546256
364.056289	2492.555669
364.444478	2495.650938
364.832603	2497.513644
365.220665	2497.705208
365.608665	2496.260917
365.996601	2499.877945
366.384474	2498.531957
366.772284	2501.486073
367.160031	2502.486743
367.547715	2503.232833
367.935336	2503.394150
368.322893	2506.905314
368.710388	2510.053514
369.097820	2518.484844
369.485189	2520.939886
369.872495	2526.747295
370.259738	2536.688451
370.646918	2539.508976
371.034035	2545.230686
371.421090	2556.621173
371.808081	2568.372103
372.195010	2577.299986
372.581875	2590.764908
372.968678	2601.507607
373.355418	2613.313989
373.742096	2634.388533
374.128710	2644.493526
374.515262	2659.954745
374.901751	2677.896211
375.288177	2691.600588
375.674540	2712.889381
376.060841	2730.140209
376.447079	2750.022520
376.833254	2771.749893
377.219367	2782.661470
377.605417	2821.203612
377.991404	2829.322390
378.377329	2852.675536
378.763191	2870.871580
379.148991	2908.203845
379.534727	2930.752926
379.920402	2959.641258
380.306013	2971.671972
380.691563	3022.648120
381.077049	3044.196532
381.462474	3063.055488
381.847835	3100.733072
382.233134	3121.046402
382.618371	3120.771659
383.003545	3186.830939
383.388657	3198.307126
383.773706	3229.567321
384.158693	3246.253540
384.543618	3275.235133
384.928480	3311.009682
385.313280	3352.831094
385.698017	3352.818491
386.082692	3403.560225
386.467305	3413.261926
386.851856	3443.085392
387.236344	3465.775625
387.620770	3496.017507
388.005133	3521.941641
388.389435	3549.970456
388.773674	3561.701221
389.157851	3606.209568
389.541965	3619.765231
389.926018	3583.935230
390.310008	3652.646157
390.693936	3671.847912
391.077802	3713.051783
391.461606	3704.144064
391.845348	3763.992643
392.229027	3768.310391
392.612645	3776.371196
392.996200	3856.054194
393.379694	3894.530801
393.763125	3959.213846
394.146494	3926.796706
394.529801	3987.673680
394.913047	4038.566649
395.296230	4005.393336
395.679351	4056.316551
396.062410	4079.286569
396.445408	4063.943817
396.828343	4092.451542
397.211217	4118.216879
397.594028	4039.012791
397.976778	4103.121144
398.359466	4128.410092
398.742092	4158.762880
399.124656	4081.245057
399.507158	4161.137263
399.889598	4186.469061
400.271977	4250.889966
400.654294	4219.992734
401.036549	4229.858273
401.418742	4199.230742
401.800874	4300.341165
402.182944	4318.257426
402.564952	4383.237899
402.946898	4371.696177
403.328783	4364.893140
403.710606	4279.511117
404.092367	4469.761743
404.474067	4430.617183
404.855705	4445.952373
405.237282	4371.103842
405.618797	4479.425635
406.000250	4513.287065
406.381642	4593.068366
406.762972	4554.853899
407.144240	4567.630704
407.525447	4565.226073
407.906593	4624.784785
408.287677	4660.808871
408.668700	4590.600721
409.049661	4642.620388
409.430560	4677.021222
409.811399	4603.871559
410.192176	4758.145990
410.572891	4689.853479
410.953545	4789.907780
411.334138	4669.910674
411.714669	4728.183892
412.095139	4620.514928
412.475547	4747.577211
412.855894	4720.866657
413.236180	4720.675093
413.616405	4665.555117
413.996568	4739.798710
414.376670	4669.913195
414.756711	4618.732880
415.136691	4633.871465
415.516609	4691.529662
415.896466	4714.345925
416.276262	4726.752204
416.655997	4691.128891
417.035670	4842.469370
417.415283	4902.043206
417.794834	4828.462524
418.174324	4763.565230
418.553753	4662.152338
418.933121	4804.257424
419.312428	4832.921425
419.691674	4750.370010
420.070859	4827.361032
420.449983	4724.090475
420.829045	4788.095485
421.208047	4683.541954
421.586988	4703.444429
421.965867	4675.778577
422.344686	4738.172938
422.723444	4597.867544
423.102141	4425.069393
423.480777	4603.911888
423.859352	4396.274323
424.237866	4535.548801
424.616319	4487.955267
424.994712	4519.149927
425.373044	4392.309455
425.751314	4435.938121
426.129524	4262.958489
426.507673	4337.519675
426.885762	4342.739789
427.263789	4241.281527
427.641756	4138.913337
428.019662	4149.088906
428.397508	4108.777319
428.775292	4023.695245
429.153016	4023.322199
429.530679	3942.646094
429.908282	3927.767128
430.285824	3828.897498
430.663305	3892.511819
431.040726	3732.203127
431.418086	3685.459028
431.795385	3680.748069
432.172624	3638.788025
432.549802	3587.963112
432.926920	3548.851320
433.303977	3506.603930
433.680974	3471.262921
434.057910	3433.602981
434.434786	3389.954151
434.811601	3341.249043
435.188355	3362.704194
435.565050	3289.035292
435.941683	3248.494333
436.318257	3252.411309
436.694770	3206.191490
437.071222	3175.304341
437.447614	3124.421454
437.823946	3076.797674
438.200218	3067.688309
438.576429	3018.146369
438.952580	2998.105262
439.328670	2974.822693
439.704700	2935.184101
440.080670	2906.759555
440.456580	2909.040677
440.832429	2867.645242
441.208218	2832.246260
441.583947	2823.041113
441.959616	2802.258956
442.335224	2775.918927
442.710773	2766.527257
443.086261	2747.980852
443.461689	2721.461863
443.837057	2711.924000
444.212365	2705.418391
444.587612	2688.515402
444.962800	2680.575584
445.337927	2666.772905
445.712995	2641.917496
446.088002	2651.049546
446.462949	2637.887094
446.837837	2625.924436
447.212664	2620.790020
447.587431	2618.907149
447.962139	2622.090638
448.336786	2634.804428
448.711374	2620.669033
449.085901	2602.921651
449.460369	2591.016966
449.834776	2589.875144
450.209124	2587.546131
450.583412	2585.489341
450.957640	2587.374732
451.331808	2579.230748
451.705917	2573.385530
452.079965	2569.992834
452.453954	2569.864284
452.827883	2566.448902
453.201752	2566.872359
453.575562	2560.613767
453.949311	2565.138203
454.323001	2557.437840
454.696632	2560.694425
455.070202	2562.607543
455.443713	2558.625032
455.817164	2558.541853
456.190556	2555.635628
456.563888	2557.689898
456.937160	2556.144784
457.310373	2559.008159
457.683526	2555.653272
458.056619	2552.268137
458.429653	2554.493806
458.802628	2557.082439
459.175542	2553.793086
459.548398	2555.292829
459.921194	2556.177552
460.293930	2557.836091
460.666607	2559.035886
461.039224	2560.331462
461.411782	2561.168294
461.784280	2560.865825
462.156719	2560.951524
462.529099	2559.804662
462.901419	2558.249466
463.273680	2554.287119
463.645882	2558.050340
464.018024	2557.967161
464.390106	2558.622511
464.762130	2559.204764
465.134094	2563.767009
465.505999	2569.450910
465.877845	2574.300500
466.249631	2576.049780
466.621358	2573.662794
466.993026	2573.299831
467.364634	2574.368555
467.736184	2566.025446
468.107674	2567.825137
468.479105	2567.081567
468.850477	2565.259190
469.221790	2567.363872
469.593043	2563.482183
469.964238	2562.852039
470.335373	2564.757595
470.706449	2568.636763
471.077467	2561.027142
471.448425	2569.576938
471.819324	2576.115315
472.190164	2578.091447
472.560945	2571.003585
472.931667	2567.434448
473.302330	2565.889334
473.672934	2565.967472
474.043479	2565.692729
474.413965	2565.712894
474.784393	2561.851370
475.154761	2561.518654
475.525070	2564.402194
475.895321	2563.537636
476.265513	2563.986299
476.635645	2568.525858
477.005719	2566.390929
477.375734	2568.430076
477.745691	2570.317988
478.115588	2572.044583
478.485427	2572.616754
478.855207	2574.907959
479.224928	2579.906263
479.594591	2582.502457
479.964194	2581.733681
480.333739	2581.862230
480.703226	2581.958012
481.072653	2583.450194
481.442022	2584.571851
481.811333	2584.902046
482.180584	2584.869279
482.549777	2579.674370
482.918912	2580.533886
483.287988	2580.843917
483.657005	2582.189905
484.025964	2579.369380
484.394864	2579.404668
484.763706	2579.679411
485.132489	2577.068093
485.501213	2578.023392
485.869879	2579.460121
486.238487	2576.425346
486.607036	2579.087075
486.975527	2579.409709
487.343959	2576.753021
487.712333	2579.664287
488.080648	2577.355439
488.448905	2578.484657
488.817104	2576.937023
489.185244	2578.446849
489.553326	2579.485326
489.921350	2582.830132
490.289315	2585.383476
490.657222	2589.592840
491.025070	2587.692325
491.392861	2585.781727
491.760593	2584.246696
492.128267	2583.757704
492.495883	2580.952302
492.863440	2577.219328
493.230939	2576.001889
493.598380	2574.844944
493.965763	2569.599624
494.333088	2574.494584
494.700354	2572.016857
495.067563	2574.562640
495.434713	2569.455951
495.801805	2572.402505
496.168839	2576.526169
496.535815	2573.950139
496.902733	2573.135993
497.269593	2575.578432
497.636395	2573.088102
498.003139	2572.062227
498.369825	2572.001733
498.736453	2572.566343
499.103023	2573.798905
499.469535	2574.209759
499.835989	2572.331929
500.202385	2573.193966
500.568723	2572.495767
500.935003	2572.899059
501.301226	2571.747155
501.667390	2571.706826
502.033497	2572.896538
502.399546	2569.637432
502.765537	2573.635067
503.131470	2576.541292
503.497345	2574.131621
503.863163	2571.162381
504.228923	2575.129769
504.594625	2573.864440
504.960269	2573.687999
505.325856	2573.826631
505.691385	2571.416960
506.056856	2577.113463
506.422270	2575.467527
506.787625	2576.596745
507.152924	2574.988617
507.518164	2573.877043
507.883347	2573.738411
508.248472	2574.134142
508.613540	2573.453586
508.978550	2574.348391
509.343503	2574.759245
509.708398	2575.144893
510.073236	2575.064234
510.438016	2576.495922
510.802738	2577.418453
511.167403	2577.894842
511.532010	2576.863926
511.896561	2576.874009
512.261053	2580.783423
512.625488	2576.085068
512.989866	2571.386713
513.354186	2576.158165
513.718449	2572.155489
514.082655	2576.919379
514.446803	2575.860737
514.810894	2577.756211
515.174927	2575.588514
515.538904	2579.233269
515.902822	2577.849472
516.266684	2578.099009
516.630488	2580.087744
516.994235	2578.973649
517.357925	2578.913155
517.721558	2577.801581
518.085133	2578.267888
518.448651	2575.265881
518.812112	2578.509863
519.175516	2577.347877
519.538863	2576.402661
519.902152	2579.573547
520.265385	2577.148752
520.628560	2580.801067
520.991678	2578.507343
521.354739	2578.255285
521.717743	2578.300655
522.080690	2577.615058
522.443580	2580.445666
522.806413	2580.874164
523.169189	2579.205542
523.531908	2579.402147
523.894569	2578.860223
524.257174	2580.435584
524.619722	2580.201170
524.982213	2579.830645
525.344647	2578.204873
525.707025	2579.974318
526.069345	2580.838876
526.431608	2578.346026
526.793815	2579.999524
527.155964	2580.876685
527.518057	2581.285018
527.880093	2580.944740
528.242072	2580.397775
528.603995	2581.804257
528.965860	2579.802919
529.327669	2578.567836
529.689421	2580.072621
530.051117	2577.441138
530.412755	2579.016499
530.774337	2581.103537
531.135862	2578.638412
531.497331	2576.967270
531.858743	2575.306210
532.220098	2579.079513
532.581396	2576.551375
532.942638	2577.398289
533.303824	2578.194791
533.664953	2577.526838
534.026025	2581.166551
534.387040	2579.986921
534.747999	2578.076324
535.108902	2576.526169
535.469748	2580.259143
535.830537	2576.813515
536.191270	2576.800912
536.551947	2576.775706
536.912567	2579.747466
537.273131	2577.547003
537.633638	2578.542631
537.994089	2578.719071
538.354483	2575.903587
538.714821	2577.272260
539.075103	2581.859710
539.435328	2578.517425
539.795497	2578.761921
540.155609	2580.881726
540.515665	2578.053639
540.875665	2577.047928
541.235609	2575.896025
541.595496	2579.071952
541.955328	2579.092116
542.315102	2580.221335
542.674821	2579.029102
543.034483	2580.659915
543.394090	2579.472723
543.753640	2575.926272
544.113134	2580.685121
544.472571	2578.313258
544.831953	2580.455748
545.191278	2577.567167
545.550548	2578.577919
545.909761	2579.513053
546.268918	2578.570357
546.628019	2580.354925
546.987064	2576.750500
547.346053	2578.497260
547.704986	2578.492219
548.063863	2580.007086
548.422684	2579.427353
548.781449	2579.870975
549.140158	2578.963567
549.498811	2580.173444
549.857408	2575.427198
550.215949	2576.805953
550.574434	2575.180181
550.932864	2575.117167
551.291237	2572.916703
551.649555	2579.631520
552.007817	2578.046077
552.366022	2577.194122
552.724173	2578.567836
553.082267	2579.893660
553.440305	2577.025243
553.798288	2579.099678
554.156215	2578.973649
554.514086	2579.571026
554.871902	2575.344018
555.229661	2577.010120
555.587365	2578.703947
555.945014	2578.439287
556.302606	2573.592217
556.660143	2579.621437
557.017625	2579.250913
557.375050	2578.076324
557.732421	2577.851993
558.089735	2577.204204
558.446994	2579.853331
558.804197	2579.959195
559.161345	2579.031622
559.518437	2578.696386
559.875474	2581.307703
560.232455	2578.285532
560.589381	2577.063052
560.946251	2578.789647
561.303065	2578.346026
561.659825	2577.615058
562.016528	2577.292424
562.373177	2576.014492
562.729770	2578.499781
563.086307	2579.450038
563.442789	2576.503484
563.799216	2578.610686
564.155587	2578.943402
564.511904	2578.908114
564.868164	2578.424163
565.224370	2577.952816
565.580520	2578.696386
565.936615	2578.041036
566.292654	2579.732343
566.648638	2575.041549
567.004567	2575.638926
567.360441	2574.867629
567.716260	2576.858885
568.072023	2576.619430
568.427732	2573.020047
568.783385	2573.864440
569.138982	2572.571384
569.494525	2574.918041
569.850013	2572.662125
570.205445	2578.477096
570.560823	2575.457444
570.916145	2577.194122
571.271412	2574.340829
571.626625	2577.990624
571.981782	2575.044070
572.336884	2575.747311
572.691931	2574.582804
573.046923	2575.517938
573.401860	2576.226220
573.756743	2578.872826
574.111570	2575.812846
574.466342	2575.399471
574.821059	2574.660942
575.175722	2572.878894
575.530330	2575.235634
575.884882	2575.321333
576.239380	2574.459296
576.593823	2575.515418
576.948211	2574.870150
577.302544	2575.487691
577.656823	2574.464337
578.011047	2573.869481
578.365216	2572.077351
578.719330	2572.833524
579.073389	2572.745304
579.427394	2575.623802
579.781344	2573.758576
580.135239	2570.514593
580.489080	2571.376630
580.842866	2573.786302
581.196597	2576.982393
581.550273	2571.326219
581.903895	2573.985427
582.257463	2571.573235
582.610975	2569.014850
582.964434	2570.212124
583.317837	2570.975859
583.671186	2572.586507
584.024481	2571.419480
584.377721	2572.735221
584.730906	2571.943760
585.084037	2570.101218
585.437113	2571.429562
585.790135	2570.975859
586.143103	2569.836558
586.496016	2572.674727
586.848874	2566.118707
587.201679	2570.184398
587.554428	2566.040569
587.907124	2567.991496
588.259765	2567.411763
588.612352	2571.540468
588.964884	2568.104922
589.317362	2568.477967
589.669786	2568.767833
590.022155	2571.553071
590.374470	2568.399829
590.726731	2572.155489
591.078937	2566.625343
591.431090	2567.920919
591.783188	2568.213306
592.135232	2567.550395
592.487222	2567.447051
592.839157	2567.936043
593.191038	2566.884962
593.542866	2566.990827
593.894639	2565.702812
594.246358	2569.103070
594.598022	2566.660631
594.949633	2567.121897
595.301190	2568.916547
595.652692	2567.089129
596.004141	2568.069633
596.355535	2570.474264
596.706876	2569.826476
597.058162	2566.393450
597.409395	2567.842782
597.760573	2568.140210
598.111698	2564.871021
598.462768	2569.491239
598.813785	2568.127607
599.164748	2565.503686
599.515657	2565.942267
599.866511	2564.190466
600.217312	2566.083419
600.568060	2565.962431
600.918753	2566.285065
601.269392	2565.450754
601.619978	2563.557801
601.970510	2565.236505
602.320988	2565.586865
602.671412	2566.156516
603.021783	2564.697102
603.372100	2567.373954
603.722363	2566.602658
604.072572	2565.982596
604.422728	2565.881773
604.772830	2564.503017
605.122878	2560.477656
605.472872	2564.140054
605.822813	2561.616957
606.172701	2561.354817
606.522534	2563.953531
606.872314	2564.553429
607.222041	2565.614592
607.571714	2564.192986
607.921333	2564.913871
608.270899	2565.196176
608.620411	2567.265569
608.969870	2565.818758
609.319276	2570.060889
609.668627	2568.674572
610.017926	2570.010478
610.367171	2573.985427
610.716362	2570.655745
611.065500	2570.688513
611.414585	2570.325550
611.763616	2568.225909
612.112594	2569.748338
612.461518	2570.522155
612.810389	2568.518296
613.159207	2571.127093
613.507971	2567.416804
613.856682	2563.325908
614.205340	2566.103583
614.553945	2565.400342
614.902496	2567.096691
615.250994	2567.759603
615.599439	2565.707853
615.947830	2567.187432
616.296169	2564.210630
616.644454	2563.933367
616.992686	2564.959242
617.340864	2565.672565
617.688990	2564.719787
618.037063	2564.503017
618.385082	2566.300188
618.733048	2566.756413
619.080961	2566.063254
619.428821	2565.206258
619.776628	2565.087791
620.124382	2564.641649
620.472083	2564.192986
620.819731	2565.460836
621.167326	2564.697102
621.514868	2564.555949
621.862357	2562.083263
622.209793	2563.935887
622.557176	2565.312122
622.904506	2563.192317
623.251783	2560.371792
623.599007	2558.960268
623.946179	2561.783315
624.293297	2559.076215
624.640363	2561.380022
624.987376	2561.652245
625.334336	2560.850701
625.681243	2564.331618
626.028097	2561.821123
626.374899	2563.709035
626.721647	2559.638304
627.068343	2560.603685
627.414987	2560.155022
627.761577	2560.079405
628.108115	2561.102759
628.454600	2561.929508
628.801032	2561.677450
629.147412	2561.349775
629.493739	2558.562017
629.840014	2563.174673
630.186236	2560.941442
630.532405	2559.318190
630.878521	2559.096380
631.224585	2562.821792
631.570597	2563.514951
631.916556	2559.933211
632.262462	2556.757284
632.608316	2559.066133
632.954117	2557.221070
633.299866	2561.241391
633.645562	2560.142419
633.991206	2560.810372
634.336797	2559.267779
634.682336	2557.213509
635.027823	2558.728375
635.373257	2560.893551
635.718639	2555.784342
636.063968	2557.115206
636.409245	2555.229815
636.754470	2559.827347
637.099642	2555.643189
637.444762	2555.113868
637.789829	2554.937428
638.134845	2557.815927
638.479808	2557.442881
638.824719	2557.705021
639.169577	2554.788714
639.514383	2555.118909
639.859137	2554.569423
640.203839	2559.093859
640.548489	2557.095042
640.893086	2552.933569
641.237632	2552.439536
641.582125	2549.871068
641.926566	2551.012889
642.270955	2557.074877
642.615292	2556.550597
642.959576	2556.003632
643.303809	2557.082439
643.647990	2555.723848
643.992118	2555.091183
644.336195	2556.313663
