Dividing Wavelength (nm)	Counts (n)	Blue Motor Position (mm): 0.000000	Red Motor Position (mm): 45.200000	
326.493990	2126.759464
326.888308	2126.759464
327.282561	2126.759464
327.676750	2093.850812
328.070874	2090.939545
328.464933	2094.246542
328.858929	2102.055290
329.252859	2110.060642
329.646726	2124.740482
330.040528	2134.379168
330.434265	2154.087559
330.827938	2170.584735
331.221547	2189.136181
331.615091	2207.307020
332.008571	2227.915257
332.401986	2247.169944
332.795338	2266.520413
333.188625	2284.005655
333.581847	2304.636578
333.975006	2319.966726
334.368100	2339.561691
334.761129	2359.570031
335.154095	2376.467979
335.546996	2396.665362
335.939833	2421.455236
336.332606	2435.779674
336.725315	2444.757969
337.117960	2455.757767
337.510540	2463.518623
337.903056	2476.965901
338.295508	2484.905718
338.687896	2489.306646
339.080220	2498.105980
339.472480	2509.562002
339.864676	2509.441014
340.256807	2517.174144
340.648875	2521.053312
341.040879	2522.648837
341.432818	2522.779907
341.824694	2524.551873
342.216506	2524.869466
342.608253	2524.705628
342.999937	2525.333252
343.391557	2525.784435
343.783113	2525.113962
344.174605	2523.412572
344.566033	2519.805627
344.957397	2520.977695
345.348697	2517.774042
345.739934	2520.095493
346.131106	2513.748680
346.522215	2513.110974
346.913260	2511.628875
347.304241	2511.006293
347.695159	2507.351456
348.086012	2507.283400
348.476802	2506.451610
348.867528	2505.062772
349.258191	2503.585714
349.648789	2502.504387
350.039324	2500.613954
350.429796	2498.108500
350.820203	2495.338386
351.210548	2497.770743
351.600828	2495.814775
351.991045	2494.446102
352.381198	2495.154384
352.771288	2494.877121
353.161314	2495.260248
353.551276	2494.062974
353.941175	2493.664723
354.331010	2493.195896
354.720782	2494.398211
355.110490	2494.715804
355.500135	2493.175731
355.889717	2491.005515
356.279235	2492.822851
356.668689	2496.429796
357.058080	2492.853097
357.447408	2496.026504
357.836672	2490.987871
358.225873	2495.396360
358.615010	2492.066678
359.004084	2495.650938
359.393095	2497.758140
359.782043	2495.164467
360.170927	2500.714777
360.559748	2499.509941
360.948505	2502.625374
361.337199	2502.902638
361.725830	2501.775940
362.114398	2503.580673
362.502903	2505.113184
362.891344	2503.071516
363.279722	2506.146620
363.668037	2503.540344
364.056289	2506.446569
364.444478	2506.139058
364.832603	2507.749707
365.220665	2508.803308
365.608665	2508.435304
365.996601	2510.981087
366.384474	2509.831704
366.772284	2510.799605
367.160031	2513.355470
367.547715	2514.209946
367.935336	2517.746315
368.322893	2520.438291
368.710388	2523.629342
369.097820	2531.750641
369.485189	2534.092257
369.872495	2537.641229
370.259738	2546.450645
370.646918	2555.560010
371.034035	2559.164435
371.421090	2571.280848
371.808081	2578.802250
372.195010	2589.595360
372.581875	2600.426279
372.968678	2618.342540
373.355418	2625.463170
373.742096	2643.165182
374.128710	2658.565907
374.515262	2673.918741
374.901751	2689.904240
375.288177	2703.676672
375.674540	2723.508571
376.060841	2740.867784
376.447079	2765.571959
376.833254	2783.367232
377.219367	2795.009777
377.605417	2834.524861
377.991404	2841.801767
378.377329	2866.216075
378.763191	2883.227448
379.148991	2921.593150
379.534727	2944.742128
379.920402	2974.812611
380.306013	2986.981956
380.691563	3036.662527
381.077049	3058.515929
381.462474	3073.846078
381.847835	3113.638426
382.233134	3136.046355
382.618371	3137.094915
383.003545	3205.044628
383.388657	3213.032336
383.773706	3246.429980
384.158693	3261.495468
384.543618	3285.987914
384.928480	3319.897236
385.313280	3367.838609
385.698017	3368.191490
386.082692	3419.268460
386.467305	3425.073349
386.851856	3457.984522
387.236344	3478.784323
387.620770	3510.281452
388.005133	3537.780946
388.389435	3566.598702
388.773674	3573.099270
389.157851	3620.249182
389.541965	3633.809886
389.926018	3599.136830
390.310008	3671.268179
390.693936	3692.188968
391.077802	3727.487127
391.461606	3718.929768
391.845348	3784.386631
392.229027	3781.266156
392.612645	3793.206129
392.996200	3873.063047
393.379694	3911.801794
393.763125	3977.364520
394.146494	3944.075261
394.529801	4005.292513
394.913047	4053.609452
395.296230	4018.848175
395.679351	4074.411773
396.062410	4100.920681
396.445408	4080.078030
396.828343	4113.730253
397.211217	4136.226402
397.594028	4056.994587
397.976778	4128.077376
398.359466	4151.425480
398.742092	4179.260211
399.124656	4098.238787
399.507158	4184.215666
399.889598	4207.833471
400.271977	4269.433851
400.654294	4238.294643
401.036549	4247.343515
401.418742	4216.957960
401.800874	4318.564936
402.182944	4342.540664
402.564952	4403.606681
402.946898	4394.688880
403.328783	4388.105133
403.710606	4303.544818
404.092367	4495.756453
404.474067	4460.463335
404.855705	4469.819716
405.237282	4397.491761
405.618797	4505.937063
406.000250	4539.301940
406.381642	4618.826142
406.762972	4584.405143
407.144240	4594.726906
407.525447	4592.904528
407.906593	4656.183612
408.287677	4693.475548
408.668700	4624.454590
409.049661	4675.556766
409.430560	4715.215524
409.811399	4642.527126
410.192176	4801.704080
410.572891	4745.848095
410.953545	4846.671172
411.334138	4730.207915
411.714669	4793.640754
412.095139	4684.351059
412.475547	4829.816074
412.855894	4811.189011
413.236180	4823.489426
413.616405	4769.433133
413.996568	4860.995611
414.376670	4804.007887
414.756711	4761.110188
415.136691	4790.232934
415.516609	4870.730079
415.896466	4906.776849
416.276262	4936.315490
416.655997	4921.020629
417.035670	5100.833546
417.415283	5194.626734
417.794834	5137.336541
418.174324	5089.932051
418.553753	5001.079194
418.933121	5186.124828
419.312428	5251.095219
419.691674	5189.814953
420.070859	5312.914888
420.449983	5231.230552
420.829045	5340.709290
421.208047	5248.798973
421.586988	5323.869316
421.965867	5334.705276
422.344686	5467.781655
422.723444	5322.145241
423.102141	5141.109845
423.480777	5435.190595
423.859352	5208.426892
424.237866	5466.327282
424.616319	5456.751610
424.994712	5564.309669
425.373044	5447.720383
425.751314	5588.570222
426.129524	5392.265170
426.507673	5584.421352
426.885762	5668.069218
427.263789	5598.241675
427.641756	5476.454960
428.019662	5600.636223
428.397508	5612.457729
428.775292	5553.650149
429.153016	5654.251415
429.530679	5580.872380
429.908282	5665.362118
430.285824	5538.786307
430.663305	5810.570034
431.040726	5547.946083
431.418086	5548.157812
431.795385	5651.929964
432.172624	5661.936654
432.549802	5659.312734
432.926920	5668.964023
433.303977	5678.771587
433.680974	5718.851281
434.057910	5732.928703
434.434786	5744.762812
434.811601	5713.759716
435.188355	5944.831085
435.565050	5816.826106
435.941683	5801.329599
436.318257	6019.064596
436.694770	5997.833776
437.071222	6034.543458
437.447614	5963.269105
437.823946	5876.052102
438.200218	6032.617738
438.576429	5891.946860
438.952580	5994.826728
439.328670	6040.272730
439.704700	5948.576662
440.080670	5933.014620
440.456580	6202.711310
440.832429	6091.758034
441.208218	5932.641575
441.583947	6090.220482
441.959616	6097.152069
442.335224	6021.373444
442.710773	6159.556512
443.086261	6182.244225
443.461689	5982.218802
443.837057	6128.813035
444.212365	6287.337159
444.587612	6178.985119
444.962800	6330.665877
445.337927	6308.242824
445.712995	5919.070788
446.088002	6497.732236
446.462949	6323.346121
446.837837	6256.520586
447.212664	6434.306958
447.587431	6573.641930
447.962139	7113.020186
448.336786	8042.392186
448.711374	7780.998276
449.085901	6856.793459
449.460369	6782.277644
449.834776	6716.109979
450.209124	7101.997703
450.583412	7257.968482
450.957640	7405.434835
451.331808	7168.946747
451.705917	6719.953859
452.079965	6646.088352
452.453954	6852.505958
452.827883	6732.425673
453.201752	6820.025804
453.575562	6621.853005
453.949311	6825.528223
454.323001	6717.133333
454.696632	6785.267048
455.070202	6926.560508
455.443713	7083.620177
455.817164	7185.219591
456.190556	7262.681961
456.563888	7341.853282
456.937160	7381.020527
457.310373	7040.470420
457.683526	7064.519245
458.056619	6949.452388
458.429653	6942.442663
458.802628	6877.240379
459.175542	6989.758933
459.548398	7341.560896
459.921194	7504.032243
460.293930	7510.923500
460.666607	8033.151751
461.039224	8342.323195
461.411782	8472.251374
461.784280	8491.879107
462.156719	8381.540852
462.529099	8264.712111
462.901419	7848.693411
463.273680	7738.839107
463.645882	7751.605829
464.018024	7619.424254
464.390106	7790.425234
464.762130	8177.507712
465.134094	8639.915110
465.505999	9662.493003
465.877845	10888.504139
466.249631	11538.197964
466.621358	11157.401806
466.993026	10531.908039
467.364634	10277.735583
467.736184	9906.764633
468.107674	9576.196011
468.479105	9601.114434
468.850477	9374.388540
469.221790	9142.815576
469.593043	8821.368922
469.964238	8674.920882
470.335373	8685.265330
470.706449	8748.882171
471.077467	8728.621773
471.448425	10034.532677
471.819324	11110.932449
472.190164	11138.754577
472.560945	9891.298373
472.931667	9101.178166
473.302330	8962.586765
473.672934	8607.936550
474.043479	8961.376888
474.413965	8907.580214
474.784393	8786.348026
475.154761	8947.216287
475.525070	9028.986322
475.895321	8861.700673
476.265513	9036.076705
476.635645	9204.862098
477.005719	9203.039721
477.375734	9318.867792
477.745691	9549.896311
478.115588	9685.430253
478.485427	9927.322458
478.855207	10470.537032
479.224928	11280.345466
479.594591	11913.267372
479.964194	11730.374311
480.333739	11666.704538
480.703226	11584.253946
481.072653	11672.753922
481.442022	11916.171077
481.811333	12107.515633
482.180584	11910.860221
482.549777	11617.386929
482.918912	11443.283120
483.287988	11453.627567
483.657005	11473.600619
484.025964	11153.358800
484.394864	11287.642536
484.763706	11258.716395
485.132489	11016.113387
485.501213	10978.133334
485.869879	11054.930271
486.238487	10894.853472
486.607036	11009.393529
486.975527	10787.978490
487.343959	10971.844494
487.712333	11023.236537
488.080648	10951.329519
488.448905	10998.789462
488.817104	10931.986611
489.185244	11201.479134
489.553326	11360.043587
489.921350	11890.751058
490.289315	12954.694139
490.657222	13297.167447
491.025070	13208.145711
491.392861	13083.916557
491.760593	12706.840769
492.128267	12351.913292
492.495883	12025.511183
492.863440	11684.386385
493.230939	11355.365397
493.598380	11290.105139
493.965763	11153.142031
494.333088	11054.685775
494.700354	10978.433282
495.067563	11031.302383
495.434713	10867.515295
495.801805	10991.676393
496.168839	10920.936402
496.535815	10848.381595
496.902733	10852.994251
497.269593	10781.462799
497.636395	10888.524303
498.003139	10877.587520
498.369825	10740.155584
498.736453	10897.265664
499.103023	10823.992493
499.469535	10857.513646
499.835989	10838.679895
500.202385	10800.704883
500.568723	10655.285238
500.935003	10876.478466
501.301226	10680.735504
501.667390	10933.614904
502.033497	11032.960923
502.399546	10894.397248
502.765537	10801.718155
503.131470	10881.128931
503.497345	11046.960207
503.863163	10659.141721
504.228923	10970.659823
504.594625	11043.023066
504.960269	10793.201125
505.325856	11004.501089
505.691385	10800.662033
506.056856	10959.959974
506.422270	10982.264559
506.787625	10873.718435
507.152924	10986.017698
507.518164	10971.027827
507.883347	10893.406661
508.248472	10808.422889
508.613540	11040.764629
508.978550	10929.458473
509.343503	10899.871941
509.708398	11012.755978
510.073236	11133.489092
510.438016	11137.544701
510.802738	11079.528582
511.167403	11135.634103
511.532010	11032.189626
511.896561	11262.081365
512.261053	11331.692138
512.625488	11210.608664
512.989866	11188.730056
513.354186	11177.634477
513.718449	11080.912378
514.082655	11271.634352
514.446803	11165.979329
514.810894	11289.926178
515.174927	11151.783440
515.538904	11185.634788
515.902822	11330.898156
516.266684	11221.225334
516.630488	11161.238124
516.994235	11216.413552
517.357925	11282.830754
517.721558	11369.546162
518.085133	11390.315716
518.448651	11392.128011
518.812112	11284.232195
519.175516	11294.213680
519.538863	11411.009653
519.902152	11334.285812
520.265385	11500.270843
520.628560	11396.211346
520.991678	11377.201154
521.354739	11447.371495
521.717743	11378.879859
522.080690	11358.705161
522.443580	11489.056797
522.806413	11445.791094
523.169189	11479.607154
523.531908	11531.442818
523.894569	11348.683347
524.257174	11359.302538
524.619722	11478.709828
524.982213	11420.723956
525.344647	11468.158693
525.707025	11424.119173
526.069345	11515.293482
526.431608	11432.278281
526.793815	11538.860876
527.155964	11334.895791
527.518057	11382.499407
527.880093	11337.731440
528.242072	11410.122410
528.603995	11303.423868
528.965860	11233.515667
529.327669	11284.000302
529.689421	11236.096738
530.051117	11198.555265
530.412755	11303.436471
530.774337	11196.871520
531.135862	11181.067502
531.497331	11199.805471
531.858743	11054.267360
532.220098	11225.578370
532.581396	11094.432753
532.942638	11080.141082
533.303824	11037.487879
533.664953	11049.251412
534.026025	10965.525408
534.387040	11064.594163
534.747999	11061.057794
535.108902	11122.131373
535.469748	10874.008301
535.830537	10981.117697
536.191270	10969.109668
536.551947	10986.806639
536.912567	10987.688841
537.273131	10910.849053
537.633638	10884.776206
537.994089	10872.770698
538.354483	10825.598101
538.714821	10970.095214
539.075103	10974.440688
539.435328	10941.970617
539.795497	10770.163052
540.155609	10923.426732
540.515665	11013.043324
540.875665	10744.803528
541.235609	10816.057717
541.595496	10819.009313
541.955328	10971.446243
542.315102	10855.872750
542.674821	10806.232508
543.034483	10802.912908
543.394090	10807.301233
543.753640	10737.453526
544.113134	10957.646084
544.472571	10811.276182
544.831953	10959.072731
545.191278	10762.198029
545.550548	10788.091916
545.909761	10928.964440
546.268918	10905.810420
546.628019	10989.133131
546.987064	10850.362769
547.346053	10772.913002
547.704986	10870.497137
548.063863	10858.718481
548.422684	10847.517038
548.781449	10763.097875
549.140158	10861.042453
549.498811	10737.672816
549.857408	10605.319842
550.215949	10826.896198
550.574434	10681.421101
550.932864	10779.290061
551.291237	10838.032107
551.649555	10790.753645
552.007817	10795.091558
552.366022	10760.421023
552.724173	10755.079920
553.082267	10742.262786
553.440305	10871.475121
553.798288	10678.280462
554.156215	10827.238996
554.514086	10808.521192
554.871902	10655.033181
555.229661	10690.802688
555.587365	10663.288070
555.945014	10564.753677
556.302606	10688.108191
556.660143	10580.603065
557.017625	10737.456046
557.375050	10642.785698
557.732421	10768.827147
558.089735	10685.786740
558.446994	10682.328508
558.804197	10719.005423
559.161345	10724.999355
559.518437	10568.532022
559.875474	10664.291260
560.232455	10695.768224
560.589381	10643.335183
560.946251	10643.854422
561.303065	10745.065668
561.659825	10678.078816
562.016528	10607.316139
562.373177	10489.511935
562.729770	10606.101221
563.086307	10517.175267
563.442789	10609.524164
563.799216	10486.157047
564.155587	10537.874245
564.511904	10487.288787
564.868164	10473.871756
565.224370	10493.557461
565.580520	10421.095916
565.936615	10424.574312
566.292654	10292.085227
566.648638	10418.880329
567.004567	10388.928313
567.360441	10362.905877
567.716260	10272.951528
568.072023	10371.979954
568.427732	10318.634464
568.783385	10230.633562
569.138982	10305.716507
569.494525	10317.890894
569.850013	10196.157111
570.205445	10281.904617
570.560823	10175.926960
570.916145	10088.921686
571.271412	10164.319704
571.626625	10102.326114
571.981782	10077.266538
572.336884	10054.513291
572.691931	10059.546883
573.046923	10006.735755
573.401860	9965.915012
573.756743	9898.512264
574.111570	9945.957084
574.466342	9921.623434
574.821059	9953.264236
575.175722	9849.086271
575.530330	9851.531231
575.884882	9845.025622
576.239380	9776.390312
576.593823	9756.087065
576.948211	9775.540878
577.302544	9649.547320
577.656823	9660.973095
578.011047	9666.727572
578.365216	9637.204055
578.719330	9559.741685
579.073389	9574.134179
579.427394	9522.129636
579.781344	9499.540225
580.135239	9445.761196
580.489080	9460.597312
580.842866	9357.152835
581.196597	9363.817240
581.550273	9402.175380
581.903895	9373.750834
582.257463	9432.593702
582.610975	9309.695413
582.964434	9338.188014
583.317837	9263.215974
583.671186	9246.302903
584.024481	9241.062624
584.377721	9163.965737
584.730906	9135.158064
585.084037	9167.250049
585.437113	9101.352086
585.790135	9120.868913
586.143103	9021.772431
586.496016	8996.009615
586.848874	9053.501454
587.201679	9036.464874
587.554428	8924.823481
587.907124	8975.971028
588.259765	8947.387686
588.612352	8951.103016
588.964884	8824.746495
589.317362	8831.481477
589.669786	8834.755706
590.022155	8892.187051
590.374470	8903.696005
590.726731	8840.416922
591.078937	8693.837812
591.431090	8808.705543
591.783188	8677.950616
592.135232	8676.849123
592.487222	8672.909462
592.839157	8725.299653
593.191038	8661.178697
593.542866	8603.996889
593.894639	8502.813369
594.246358	8552.965288
594.598022	8573.694513
594.949633	8464.235939
595.301190	8441.220552
595.652692	8468.147875
596.004141	8581.904032
596.355535	8358.217953
596.706876	8339.716919
597.058162	8270.441383
597.409395	8348.707817
597.760573	8402.398626
598.111698	8319.254875
598.462768	8304.035632
598.813785	8262.925022
599.164748	8240.259995
599.515657	8229.310608
599.866511	8136.341649
600.217312	8261.299250
600.568060	8122.027293
600.918753	8220.828867
601.269392	8198.630146
601.619978	8106.135055
601.970510	8169.925816
602.320988	8167.929519
602.671412	8227.543684
603.021783	8159.644383
603.372100	8133.690002
603.722363	8137.291907
604.072572	8111.967670
604.422728	8117.006304
604.772830	8053.031541
605.122878	8058.004639
605.472872	8053.515492
605.822813	8085.804082
606.172701	8030.505145
606.522534	8101.083819
606.872314	8108.338040
607.222041	8072.752535
607.571714	8124.973847
607.921333	8087.318949
608.270899	8089.995801
608.620411	8180.363525
608.969870	8087.853311
609.319276	8084.823577
609.668627	8095.152902
610.017926	8127.323025
610.367171	8176.033174
610.716362	8156.130699
611.065500	8143.953792
611.414585	8170.475302
611.763616	8161.439034
612.112594	8135.603120
612.461518	8158.026172
612.810389	8218.499854
613.159207	8157.063312
613.507971	8106.281249
613.856682	8223.472952
614.205340	8178.969646
614.553945	8257.818333
614.902496	8156.796131
615.250994	8205.148358
615.599439	8192.507665
615.947830	8200.074437
616.296169	8174.651898
616.644454	8189.989608
616.992686	8188.573044
617.340864	8240.214624
617.688990	8143.805077
618.037063	8242.271415
618.385082	8187.584978
618.733048	8270.607741
619.080961	8210.454173
619.428821	8231.538798
619.776628	8236.214469
620.124382	8187.521964
620.472083	8164.849374
620.819731	8199.129220
621.167326	8091.578724
621.514868	8096.816482
621.862357	7984.459246
622.209793	8004.581011
622.557176	7934.496370
622.904506	7912.998369
623.251783	7846.558482
623.599007	7794.138044
623.946179	7799.670710
624.293297	7753.362671
624.640363	7673.233531
624.987376	7657.172414
625.334336	7609.296576
625.681243	7556.624080
626.028097	7539.166565
626.374899	7520.642845
626.721647	7510.736978
627.068343	7438.676204
627.414987	7412.605877
627.761577	7366.779268
628.108115	7413.556134
628.454600	7303.066645
628.801032	7352.689243
629.147412	7310.008314
629.493739	7297.380223
629.840014	7235.444607
630.186236	7293.410315
630.532405	7175.802716
630.878521	7225.392546
631.224585	7181.302615
631.570597	7109.723271
631.916556	7140.441542
632.262462	7134.072044
632.608316	7097.511076
632.954117	7068.433701
633.299866	7058.545477
633.645562	7048.090124
633.991206	6970.973073
634.336797	6918.315701
634.682336	6871.037240
635.027823	6838.536921
635.373257	6830.261867
635.718639	6759.133707
636.063968	6776.092148
636.409245	6666.164747
636.754470	6667.679614
637.099642	6622.901565
637.444762	6568.353760
637.789829	6573.893988
638.134845	6522.970772
638.479808	6505.276322
638.824719	6515.139340
639.169577	6439.338030
639.514383	6456.727490
639.859137	6388.371965
640.203839	6397.388068
640.548489	6383.623198
