Dividing Wavelength (nm)	Counts (n)	Blue Motor Position (mm): 0.000000	Red Motor Position (mm): 43.400000	
326.493990	2126.489762
326.888308	2126.489762
327.282561	2126.489762
327.676750	2094.375092
328.070874	2093.714701
328.464933	2095.995823
328.858929	2102.486308
329.252859	2111.162134
329.646726	2123.661675
330.040528	2138.167595
330.434265	2156.726603
330.827938	2173.508604
331.221547	2194.457119
331.615091	2209.527648
332.008571	2230.287120
332.401986	2249.307393
332.795338	2267.599220
333.188625	2285.671757
333.581847	2303.560291
333.975006	2323.934114
334.368100	2341.757114
334.761129	2359.300329
335.154095	2375.064017
335.546996	2394.716956
335.939833	2421.576223
336.332606	2435.061310
336.725315	2446.792075
337.117960	2453.824484
337.510540	2463.727831
337.903056	2477.021354
338.295508	2484.018475
338.687896	2495.915598
339.080220	2501.745693
339.472480	2507.217865
339.864676	2509.798936
340.256807	2517.688342
340.648875	2517.441325
341.040879	2518.194978
341.432818	2526.008766
341.824694	2524.178828
342.216506	2524.877027
342.608253	2527.150588
342.999937	2526.608664
343.391557	2524.705628
343.783113	2525.272758
344.174605	2521.305370
344.566033	2521.935514
344.957397	2517.559793
345.348697	2515.974350
345.739934	2515.918897
346.131106	2516.637261
346.522215	2515.387055
346.913260	2510.633247
347.304241	2510.418998
347.695159	2508.757938
348.086012	2507.994203
348.476802	2505.216527
348.867528	2503.621002
349.258191	2501.511279
349.648789	2502.335508
350.039324	2500.455158
350.429796	2499.678820
350.820203	2498.514313
351.210548	2498.831906
351.600828	2493.304281
351.991045	2494.801503
352.381198	2494.133551
352.771288	2492.059116
353.161314	2493.755464
353.551276	2493.485762
353.941175	2495.030876
354.331010	2493.689929
354.720782	2493.490803
355.110490	2494.309991
355.500135	2492.822851
355.889717	2494.965341
356.279235	2494.604898
356.668689	2495.519868
357.058080	2493.999960
357.447408	2494.035248
357.836672	2492.331338
358.225873	2493.115237
358.615010	2492.860659
359.004084	2499.124293
359.393095	2497.014570
359.782043	2498.269817
360.170927	2495.424086
360.559748	2500.530775
360.948505	2501.758296
361.337199	2500.956752
361.725830	2503.278204
362.114398	2503.510097
362.502903	2502.516989
362.891344	2504.929182
363.279722	2504.178050
363.668037	2507.399347
364.056289	2504.636795
364.444478	2504.609068
364.832603	2507.079234
365.220665	2507.505211
365.608665	2509.085613
365.996601	2510.045953
366.384474	2509.993021
366.772284	2511.480161
367.160031	2511.956550
367.547715	2513.708351
367.935336	2517.337982
368.322893	2519.246058
368.710388	2523.052130
369.097820	2529.925743
369.485189	2532.927750
369.872495	2539.362783
370.259738	2544.124153
370.646918	2555.010524
371.034035	2559.003118
371.421090	2569.145920
371.808081	2579.197981
372.195010	2589.184506
372.581875	2604.986003
372.968678	2617.525873
373.355418	2625.556431
373.742096	2641.488998
374.128710	2657.106493
374.515262	2672.842454
374.901751	2688.444826
375.288177	2701.151054
375.674540	2725.101576
376.060841	2742.554050
376.447079	2763.857967
376.833254	2782.757252
377.219367	2794.677061
377.605417	2832.599140
377.991404	2842.575584
378.377329	2865.394367
378.763191	2879.030688
379.148991	2919.375042
379.534727	2942.445883
379.920402	2976.128352
380.306013	2981.640854
380.691563	3033.932743
381.077049	3056.282698
381.462474	3073.667117
381.847835	3111.047273
382.233134	3135.169194
382.618371	3133.871097
383.003545	3204.732076
383.388657	3210.174002
383.773706	3244.194228
384.158693	3261.543359
384.543618	3284.838531
384.928480	3319.695590
385.313280	3365.106303
385.698017	3364.922301
386.082692	3417.035229
386.467305	3424.667536
386.851856	3457.460242
387.236344	3476.745176
387.620770	3508.378416
388.005133	3535.656100
388.389435	3560.824060
388.773674	3572.375864
389.157851	3618.661218
389.541965	3629.897950
389.926018	3596.570882
390.310008	3668.568642
390.693936	3686.225283
391.077802	3725.253896
391.461606	3716.590673
391.845348	3780.026033
392.229027	3776.935805
392.612645	3791.943320
392.996200	3871.182697
393.379694	3911.164088
393.763125	3974.428048
394.146494	3940.639715
394.529801	4004.375023
394.913047	4051.358577
395.296230	4018.018906
395.679351	4072.105445
396.062410	4096.101338
396.445408	4077.756579
396.828343	4111.330663
397.211217	4136.533912
397.594028	4054.118608
397.976778	4121.612097
398.359466	4147.863905
398.742092	4174.145961
399.124656	4099.080659
399.507158	4179.214841
399.889598	4205.890107
400.271977	4266.741875
400.654294	4235.859766
401.036549	4241.019387
401.418742	4214.548288
401.800874	4315.371365
402.182944	4339.092515
402.564952	4402.343872
402.946898	4386.595307
403.328783	4383.588259
403.710606	4301.614056
404.092367	4491.872244
404.474067	4459.986946
404.855705	4465.267554
405.237282	4395.200557
405.618797	4505.896734
406.000250	4534.689284
406.381642	4616.842447
406.762972	4581.756017
407.144240	4589.504270
407.525447	4587.341615
407.906593	4651.412160
408.287677	4694.750960
408.668700	4617.633909
409.049661	4672.990819
409.430560	4713.194021
409.811399	4635.756857
410.192176	4798.525632
410.572891	4740.078494
410.953545	4842.257642
411.334138	4723.256164
411.714669	4791.306700
412.095139	4687.211914
412.475547	4830.098379
412.855894	4811.524247
413.236180	4816.023477
413.616405	4771.011014
413.996568	4858.064180
414.376670	4803.821364
414.756711	4756.240434
415.136691	4787.997182
415.516609	4865.396538
415.896466	4900.833329
416.276262	4934.374646
416.655997	4916.171039
417.035670	5100.064770
417.415283	5190.061969
417.794834	5135.945183
418.174324	5088.031536
418.553753	4997.154655
418.933121	5179.649466
419.312428	5246.782512
419.691674	5186.016443
420.070859	5311.364733
420.449983	5225.715530
420.829045	5341.919167
421.208047	5246.951390
421.586988	5318.145085
421.965867	5329.205377
422.344686	5464.983815
422.723444	5318.717256
423.102141	5134.173217
423.480777	5434.580616
423.859352	5203.466397
424.237866	5458.639522
424.616319	5452.675837
424.994712	5559.354215
425.373044	5437.438950
425.751314	5579.851546
426.129524	5388.519593
426.507673	5579.387760
426.885762	5662.932282
427.263789	5601.228559
427.641756	5473.634435
428.019662	5603.968426
428.397508	5607.381287
428.775292	5550.733842
429.153016	5651.022556
429.530679	5574.707049
429.908282	5662.375235
430.285824	5533.069638
430.663305	5807.759591
431.040726	5544.777718
431.418086	5544.301329
431.795385	5644.605167
432.172624	5662.924720
432.549802	5652.910468
432.926920	5665.659546
433.303977	5670.090721
433.680974	5715.163677
434.057910	5734.330144
434.434786	5738.083283
434.811601	5709.872986
435.188355	5942.529798
435.565050	5813.244366
435.941683	5799.131656
436.318257	6014.169635
436.694770	5994.418394
437.071222	6030.414753
437.447614	5961.199711
437.823946	5874.968254
438.200218	6025.146748
438.576429	5893.698661
438.952580	5991.189535
439.328670	6034.500609
439.704700	5941.473676
440.080670	5925.374751
440.456580	6204.206012
440.832429	6081.101035
441.208218	5930.315082
441.583947	6085.885090
441.959616	6090.011274
442.335224	6013.501682
442.710773	6153.996119
443.086261	6181.919071
443.461689	5978.037165
443.837057	6122.791377
444.212365	6275.495489
444.587612	6169.560682
444.962800	6325.942315
445.337927	6310.602084
445.712995	5918.004584
446.088002	6493.122100
446.462949	6322.398384
446.837837	6251.010605
447.212664	6429.066679
447.587431	6567.123718
447.962139	7111.238138
448.336786	8038.777678
448.711374	7782.019110
449.085901	6850.713828
449.460369	6775.018382
449.834776	6707.204781
450.209124	7100.336643
450.583412	7251.556135
450.957640	7397.832775
451.331808	7160.865777
451.705917	6708.510440
452.079965	6637.077290
452.453954	6851.212902
452.827883	6724.475774
453.201752	6817.875752
453.575562	6621.353931
453.949311	6825.916392
454.323001	6710.189144
454.696632	6787.591020
455.070202	6926.048831
455.443713	7078.311842
455.817164	7178.156935
456.190556	7258.817917
456.563888	7337.918662
456.937160	7380.135805
457.310373	7033.294338
457.683526	7059.457926
458.056619	6947.451050
458.429653	6941.830163
458.802628	6877.578137
459.175542	6986.741803
459.548398	7337.606110
459.921194	7494.882549
460.293930	7501.015112
460.666607	8032.690485
461.039224	8341.042742
461.411782	8467.941188
461.784280	8488.529260
462.156719	8380.986325
462.529099	8253.172910
462.901419	7839.216042
463.273680	7732.535144
463.645882	7753.115654
464.018024	7616.570961
464.390106	7784.698483
464.762130	8167.347266
465.134094	8641.959298
465.505999	9662.124999
465.877845	10886.585980
466.249631	11537.232583
466.621358	11154.553554
466.993026	10525.072235
467.364634	10263.688408
467.736184	9900.054857
468.107674	9568.805679
468.479105	9603.352707
468.850477	9360.096869
469.221790	9136.569587
469.593043	8802.018453
469.964238	8666.300509
470.335373	8682.966564
470.706449	8739.661900
471.077467	8721.506185
471.448425	10027.790134
471.819324	11102.375091
472.190164	11132.498506
472.560945	9877.200786
472.931667	9092.255324
473.302330	8954.583933
473.672934	8604.564018
474.043479	8958.987381
474.413965	8891.514057
474.784393	8783.222511
475.154761	8940.987941
475.525070	9020.451649
475.895321	8853.770938
476.265513	9029.997074
476.635645	9197.590233
477.005719	9196.929842
477.375734	9315.081886
477.745691	9542.458089
478.115588	9683.111322
478.485427	9930.261451
478.855207	10463.360950
479.224928	11277.101483
479.594591	11910.346023
479.964194	11717.340407
480.333739	11657.375882
480.703226	11568.938920
481.072653	11673.159735
481.442022	11909.272258
481.811333	12096.604055
482.180584	11896.598797
482.549777	11603.985022
482.918912	11427.529514
483.287988	11449.914757
483.657005	11466.356481
484.025964	11148.105918
484.394864	11276.176431
484.763706	11246.131154
485.132489	11004.569144
485.501213	10970.793414
485.869879	11037.019052
486.238487	10882.663962
486.607036	10998.867599
486.975527	10774.785790
487.343959	10967.748557
487.712333	11014.916113
488.080648	10937.209247
488.448905	10990.516928
488.817104	10924.059397
489.185244	11194.260202
489.553326	11345.469612
489.921350	11889.432797
490.289315	12946.701390
490.657222	13295.080409
491.025070	13197.486191
491.392861	13079.361874
491.760593	12698.595962
492.128267	12343.635717
492.495883	12020.797704
492.863440	11677.694253
493.230939	11340.776297
493.598380	11280.070723
493.965763	11147.412759
494.333088	11044.779908
494.700354	10962.513318
495.067563	11025.968842
495.434713	10856.684376
495.801805	10976.767181
496.168839	10907.627756
496.535815	10841.381953
496.902733	10838.737868
497.269593	10778.407859
497.636395	10876.213806
498.003139	10865.725685
498.369825	10735.474873
498.736453	10886.941381
499.103023	10810.144443
499.469535	10844.598209
499.835989	10830.016672
500.202385	10794.466455
500.568723	10644.061109
500.935003	10870.731551
501.301226	10672.074801
501.667390	10926.237175
502.033497	11035.491582
502.399546	10890.167720
502.765537	10798.524584
503.131470	10871.361695
503.497345	11042.062726
503.863163	10652.852882
504.228923	10971.103445
504.594625	11029.739626
504.960269	10779.552201
505.325856	11004.566624
505.691385	10791.988728
506.056856	10947.387336
506.422270	10970.717796
506.787625	10859.951043
507.152924	10981.974693
507.518164	10960.383431
507.883347	10874.852694
508.248472	10801.922322
508.613540	11035.736078
508.978550	10915.189487
509.343503	10886.979190
509.708398	11009.378405
510.073236	11121.899480
510.438016	11123.051383
510.802738	11068.584237
511.167403	11124.687238
511.532010	11026.798112
511.896561	11255.608524
512.261053	11329.900008
512.625488	11196.949657
512.989866	11177.876452
513.354186	11169.074597
513.718449	11074.628580
514.082655	11262.477096
514.446803	11163.461273
514.810894	11286.959459
515.174927	11145.935701
515.538904	11168.394042
515.902822	11325.294914
516.266684	11216.584952
516.630488	11154.306537
516.994235	11209.335772
517.357925	11265.237127
517.721558	11365.798064
518.085133	11372.401976
518.448651	11385.123328
518.812112	11269.552355
519.175516	11285.464757
519.538863	11403.082438
519.902152	11319.484984
520.265385	11485.071764
520.628560	11391.099616
520.991678	11372.447346
521.354739	11433.410020
521.717743	11367.688497
522.080690	11339.122799
522.443580	11485.253246
522.806413	11430.707961
523.169189	11458.547733
523.531908	11519.830520
523.894569	11342.286123
524.257174	11343.193531
524.619722	11463.888836
524.982213	11412.776577
525.344647	11453.874584
525.707025	11408.574775
526.069345	11506.786535
526.431608	11415.851681
526.793815	11530.953826
527.155964	11320.236116
527.518057	11379.888089
527.880093	11321.539254
528.242072	11385.876980
528.603995	11302.801285
528.965860	11216.900024
529.327669	11269.302818
529.689421	11220.302803
530.051117	11191.585870
530.412755	11292.794595
530.774337	11189.400530
531.135862	11165.475213
531.497331	11192.712568
531.858743	11041.891327
532.220098	11206.270751
532.581396	11079.372306
532.942638	11062.499564
533.303824	11021.890549
533.664953	11030.510922
534.026025	10951.435383
534.387040	11044.948787
534.747999	11046.871987
535.108902	11110.473704
535.469748	10862.814419
535.830537	10963.456014
536.191270	10947.364651
536.551947	10968.736623
536.912567	10966.944493
537.273131	10897.948741
537.633638	10870.991170
537.994089	10863.517660
538.354483	10811.692078
538.714821	10957.295724
539.075103	10961.442073
539.435328	10929.513925
539.795497	10755.876422
540.155609	10913.349466
540.515665	11000.538742
540.875665	10735.127033
541.235609	10810.341048
541.595496	10803.845522
541.955328	10956.632813
542.315102	10841.540750
542.674821	10791.580394
543.034483	10788.482605
543.394090	10799.076590
543.753640	10720.124559
544.113134	10949.766761
544.472571	10804.460543
544.831953	10941.128744
545.191278	10749.955587
545.550548	10775.262179
545.909761	10916.787532
546.268918	10886.419622
546.628019	10971.713424
546.987064	10831.564306
547.346053	10757.464386
547.704986	10856.825528
548.063863	10845.009063
548.422684	10831.644965
548.781449	10746.106666
549.140158	10856.550785
549.498811	10726.045394
549.857408	10583.315206
550.215949	10815.346914
550.574434	10661.773203
550.932864	10764.277505
551.291237	10828.330406
551.649555	10769.933680
552.007817	10782.521441
552.366022	10750.709240
552.724173	10738.343289
553.082267	10719.973325
553.440305	10860.581188
553.798288	10667.063894
554.156215	10817.267594
554.514086	10790.577205
554.871902	10639.151026
555.229661	10674.701243
555.587365	10654.776082
555.945014	10541.602178
556.302606	10671.815182
556.660143	10568.637886
557.017625	10723.398789
557.375050	10620.125711
557.732421	10758.984294
558.089735	10667.724286
558.446994	10666.791672
558.804197	10703.403052
559.161345	10706.067302
559.518437	10553.476616
559.875474	10650.722994
560.232455	10671.419451
560.589381	10626.044026
560.946251	10620.836514
561.303065	10726.098327
561.659825	10658.478809
562.016528	10593.430281
562.373177	10472.661879
562.729770	10593.546227
563.086307	10500.065591
563.442789	10594.224262
563.799216	10480.531120
564.155587	10522.680207
564.511904	10475.764709
564.868164	10461.863727
565.224370	10482.053548
565.580520	10401.153111
565.936615	10413.027549
566.292654	10282.562488
566.648638	10410.575028
567.004567	10368.594819
567.360441	10351.964053
567.716260	10263.269992
568.072023	10357.912614
568.427732	10310.863525
568.783385	10221.269619
569.138982	10288.327047
569.494525	10302.863214
569.850013	10186.384834
570.205445	10263.711093
570.560823	10156.405092
570.916145	10081.085213
571.271412	10148.619030
571.626625	10094.746739
571.981782	10065.107275
572.336884	10046.417198
572.691931	10050.613958
573.046923	9996.643365
573.401860	9952.802971
573.756743	9882.594821
574.111570	9925.958826
574.466342	9918.071941
574.821059	9943.217217
575.175722	9833.405762
575.530330	9848.284728
575.884882	9843.099901
576.239380	9758.378270
576.593823	9746.246733
576.948211	9754.282332
577.302544	9642.759406
577.656823	9650.941199
578.011047	9654.893463
578.365216	9623.918094
578.719330	9557.135408
579.073389	9559.315707
579.427394	9510.217389
579.781344	9485.866096
580.135239	9438.978324
580.489080	9448.082648
580.842866	9346.999951
581.196597	9346.581535
581.550273	9387.296414
581.903895	9355.375828
582.257463	9431.633362
582.610975	9298.138568
582.964434	9333.164504
583.317837	9250.071166
583.671186	9234.592303
584.024481	9222.059994
584.377721	9151.927462
584.730906	9123.245817
585.084037	9154.674891
585.437113	9093.190458
585.790135	9106.524310
586.143103	9010.787757
586.496016	8985.690373
586.848874	9044.966780
587.201679	9032.716776
587.554428	8913.049866
587.907124	8962.359913
588.259765	8936.652549
588.612352	8937.852343
588.964884	8812.211666
589.317362	8823.461001
589.669786	8824.607863
590.022155	8873.970842
590.374470	8895.534377
590.726731	8828.779418
591.078937	8687.591822
591.431090	8794.567627
591.783188	8665.947628
592.135232	8657.609560
592.487222	8661.032503
592.839157	8709.626706
593.191038	8644.220255
593.542866	8588.129857
593.894639	8490.696956
594.246358	8541.012713
594.598022	8559.924601
594.949633	8455.209753
595.301190	8430.011546
595.652692	8454.123385
596.004141	8569.114625
596.355535	8338.461672
596.706876	8325.402562
597.058162	8256.948734
597.409395	8334.877411
597.760573	8393.233808
598.111698	8306.536044
598.462768	8292.700598
598.813785	8252.260461
599.164748	8228.531750
599.515657	8213.373001
599.866511	8122.758260
600.217312	8256.285823
600.568060	8108.048173
600.918753	8214.650933
601.269392	8180.983587
601.619978	8095.767922
601.970510	8161.431472
602.320988	8155.740009
602.671412	8213.473824
603.021783	8144.190726
603.372100	8122.309597
603.722363	8122.468394
604.072572	8093.580062
604.422728	8108.998431
604.772830	8035.052266
605.122878	8044.627937
605.472872	8038.339098
605.822813	8066.912358
606.172701	8016.279009
606.522534	8089.103517
606.872314	8088.034792
607.222041	8057.523209
607.571714	8114.856252
607.921333	8069.785816
608.270899	8076.619100
608.620411	8161.252511
608.969870	8074.902587
609.319276	8067.292965
609.668627	8082.769307
610.017926	8110.341898
610.367171	8161.315525
610.716362	8138.872308
611.065500	8124.976368
611.414585	8153.877303
611.763616	8145.322465
612.112594	8125.157849
612.461518	8135.169581
612.810389	8201.677524
613.159207	8135.557750
613.507971	8083.953978
613.856682	8200.467647
614.205340	8157.388467
614.553945	8234.437462
614.902496	8129.962069
615.250994	8189.190586
615.599439	8169.900610
615.947830	8177.028802
616.296169	8146.925552
616.644454	8165.887852
616.992686	8162.227974
617.340864	8220.208805
617.688990	8118.526212
618.037063	8217.136222
618.385082	8154.474680
618.733048	8242.644460
619.080961	8183.766304
619.428821	8199.429169
619.776628	8197.077471
620.124382	8151.288670
620.472083	8133.810990
620.819731	8166.326432
621.167326	8055.519350
621.514868	8066.158705
621.862357	7949.624872
622.209793	7970.260836
622.557176	7902.225423
622.904506	7875.524952
623.251783	7804.669014
623.599007	7759.109586
623.946179	7764.773323
624.293297	7719.347485
624.640363	7636.425546
624.987376	7621.332331
625.334336	7564.332005
625.681243	7516.904829
626.028097	7502.560226
626.374899	7482.004921
626.721647	7467.035215
627.068343	7400.335708
627.414987	7367.485029
627.761577	7320.241856
628.108115	7358.509255
628.454600	7252.702997
628.801032	7304.906666
629.147412	7260.723473
629.493739	7248.279385
629.840014	7183.883686
630.186236	7240.458035
630.532405	7116.929601
630.878521	7171.061511
631.224585	7126.333873
631.570597	7049.728499
631.916556	7080.482058
632.262462	7074.379742
632.608316	7029.279059
632.954117	7006.679566
633.299866	6994.873184
633.645562	6974.247303
633.991206	6901.294245
634.336797	6841.664957
634.682336	6799.866230
635.027823	6767.244923
635.373257	6758.246463
635.718639	6682.150246
636.063968	6695.151382
636.409245	6598.537668
636.754470	6592.243788
637.099642	6546.051695
637.444762	6492.320557
637.789829	6497.034036
638.134845	6439.461538
638.479808	6418.127375
638.824719	6425.245484
639.169577	6351.458116
639.514383	6370.793461
639.859137	6297.348891
640.203839	6305.079500
640.548489	6289.782119
