Dividing Wavelength (nm)	Counts (n)	Blue Motor Position (mm): 0.000000	Red Motor Position (mm): 7.300000	
326.493990	2128.284413
326.888308	2128.284413
327.282561	2128.284413
327.676750	2094.695205
328.070874	2097.016656
328.464933	2098.725608
328.858929	2102.645105
329.252859	2113.851590
329.646726	2126.633435
330.040528	2137.736577
330.434265	2154.402631
330.827938	2171.608089
331.221547	2191.855884
331.615091	2209.981352
332.008571	2227.847202
332.401986	2250.290418
332.795338	2267.821031
333.188625	2286.047323
333.581847	2305.659932
333.975006	2323.722386
334.368100	2343.912207
334.761129	2355.433764
335.154095	2376.828421
335.546996	2393.423900
335.939833	2406.389747
336.332606	2423.358271
336.725315	2434.814293
337.117960	2445.955243
337.510540	2453.373301
337.903056	2466.734879
338.295508	2471.002216
338.687896	2478.821046
339.080220	2487.396048
339.472480	2494.541884
339.864676	2497.097749
340.256807	2504.102432
340.648875	2507.883298
341.040879	2508.929337
341.432818	2510.260202
341.824694	2514.401510
342.216506	2514.368742
342.608253	2513.665501
342.999937	2513.557116
343.391557	2513.209277
343.783113	2512.029647
344.174605	2512.473268
344.566033	2507.953874
344.957397	2508.004285
345.348697	2504.997237
345.739934	2503.132010
346.131106	2500.104797
346.522215	2500.654283
346.913260	2499.593120
347.304241	2496.959117
347.695159	2493.084991
348.086012	2492.207830
348.476802	2491.330669
348.867528	2491.066008
349.258191	2488.290853
349.648789	2487.779176
350.039324	2484.978815
350.429796	2487.300267
350.820203	2483.156438
351.210548	2482.780872
351.600828	2481.666777
351.991045	2477.278453
352.381198	2481.581078
352.771288	2480.898001
353.161314	2482.690131
353.551276	2480.950933
353.941175	2482.622076
354.331010	2480.567806
354.720782	2480.973618
355.110490	2477.749801
355.500135	2479.713330
355.889717	2480.595532
356.279235	2480.507312
356.668689	2479.925058
357.058080	2481.848259
357.447408	2479.383134
357.836672	2480.096458
358.225873	2477.492702
358.615010	2479.514204
359.004084	2480.966057
359.393095	2482.606952
359.782043	2484.260451
360.170927	2483.335399
360.559748	2482.475882
360.948505	2488.505102
361.337199	2482.296921
361.725830	2486.077787
362.114398	2486.665081
362.502903	2485.798003
362.891344	2486.292036
363.279722	2486.450832
363.668037	2489.384784
364.056289	2491.365957
364.444478	2489.654485
364.832603	2489.473004
365.220665	2487.295225
365.608665	2491.365957
365.996601	2492.240597
366.384474	2490.491317
366.772284	2493.072388
367.160031	2494.005001
367.547715	2495.499703
367.935336	2497.435506
368.322893	2502.527072
368.710388	2505.917248
369.097820	2513.473937
369.485189	2512.193484
369.872495	2520.077849
370.259738	2526.054137
370.646918	2532.564787
371.034035	2539.292207
371.421090	2549.324103
371.808081	2556.734599
372.195010	2566.922771
372.581875	2579.455079
372.968678	2591.468149
373.355418	2599.337390
373.742096	2615.151490
374.128710	2628.344189
374.515262	2638.993627
374.901751	2650.971408
375.288177	2658.031544
375.674540	2675.209276
376.060841	2686.992973
376.447079	2698.486804
376.833254	2710.318392
377.219367	2708.488453
377.605417	2735.040211
377.991404	2731.450909
378.377329	2742.559092
378.763191	2745.974473
379.148991	2764.664551
379.534727	2769.662855
379.920402	2780.297169
380.306013	2775.732404
380.691563	2796.368368
381.077049	2795.289561
381.462474	2794.004067
381.847835	2798.450364
382.233134	2799.635035
382.618371	2784.783796
383.003545	2800.257618
383.388657	2790.578602
383.773706	2790.273613
384.158693	2781.234824
384.543618	2774.255346
384.928480	2768.788215
385.313280	2769.153699
385.698017	2755.197264
386.082692	2751.300452
386.467305	2736.751682
386.851856	2727.105434
387.236344	2720.136039
387.620770	2707.465099
388.005133	2696.309026
388.389435	2687.270237
388.773674	2671.738442
389.157851	2663.314674
389.541965	2652.680360
389.926018	2637.503966
390.310008	2631.583131
390.693936	2621.692387
391.077802	2612.351129
391.461606	2601.500045
391.845348	2596.917636
392.229027	2585.154104
392.612645	2579.465162
392.996200	2574.371076
393.379694	2567.096691
393.763125	2560.575958
394.146494	2552.903322
394.529801	2548.449463
394.913047	2545.286139
395.296230	2538.420087
395.679351	2534.510672
396.062410	2531.589324
396.445408	2528.763757
396.828343	2526.820392
397.211217	2519.220853
397.594028	2517.209432
397.976778	2516.838907
398.359466	2515.566016
398.742092	2512.569050
399.124656	2518.313445
399.507158	2517.443846
399.889598	2517.791686
400.271977	2515.084586
400.654294	2516.271778
401.036549	2515.838238
401.418742	2514.061232
401.800874	2513.035357
402.182944	2512.959740
402.564952	2516.385204
402.946898	2517.673218
403.328783	2515.445028
403.710606	2514.991325
404.092367	2515.520646
404.474067	2513.831859
404.855705	2514.469565
405.237282	2515.588701
405.618797	2515.750018
406.000250	2515.934020
406.381642	2514.053670
406.762972	2516.609535
407.144240	2515.170286
407.525447	2517.428723
407.906593	2515.094668
408.287677	2516.095337
408.668700	2518.240348
409.049661	2516.193640
409.430560	2514.499812
409.811399	2515.868485
410.192176	2516.140708
410.572891	2515.036695
410.953545	2515.555934
411.334138	2515.656757
411.714669	2519.442663
412.095139	2515.603825
412.475547	2516.100378
412.855894	2516.760770
413.236180	2516.728002
413.616405	2518.936028
413.996568	2521.174300
414.376670	2517.655574
414.756711	2516.717920
415.136691	2520.967613
415.516609	2517.741274
415.896466	2519.752694
416.276262	2519.430061
416.655997	2516.390245
417.035670	2514.038547
417.415283	2517.748836
417.794834	2513.763804
418.174324	2518.749505
418.553753	2519.127591
418.933121	2521.421316
419.312428	2522.225380
419.691674	2521.217150
420.070859	2521.287726
420.449983	2521.703621
420.829045	2519.508198
421.208047	2522.739578
421.586988	2521.580113
421.965867	2520.508867
422.344686	2520.312262
422.723444	2521.302849
423.102141	2519.679598
423.480777	2520.193795
423.859352	2518.903260
424.237866	2522.421985
424.616319	2523.042047
424.994712	2521.670853
425.373044	2522.641276
425.751314	2522.222860
426.129524	2522.779907
426.507673	2523.281502
426.885762	2521.996008
427.263789	2522.548014
427.641756	2524.163704
428.019662	2522.787469
428.397508	2523.523477
428.775292	2523.488189
429.153016	2523.783097
429.530679	2523.999867
429.908282	2525.605474
430.285824	2524.360309
430.663305	2523.074815
431.040726	2525.769312
431.418086	2524.284692
431.795385	2526.618746
432.172624	2523.082377
432.549802	2524.070443
432.926920	2525.229908
433.303977	2523.223529
433.680974	2525.156811
434.057910	2523.896523
434.434786	2523.500792
434.811601	2524.443488
435.188355	2524.135978
435.565050	2523.349558
435.941683	2525.643283
436.318257	2521.408713
436.694770	2519.672036
437.071222	2525.204702
437.447614	2523.125226
437.823946	2523.513395
438.200218	2527.352234
438.576429	2524.410721
438.952580	2526.613705
439.328670	2523.609177
439.704700	2524.952645
440.080670	2526.359127
440.456580	2526.717048
440.832429	2526.936339
441.208218	2523.185720
441.583947	2529.136802
441.959616	2526.235618
442.335224	2526.835516
442.710773	2527.740403
443.086261	2524.879548
443.461689	2528.428520
443.837057	2526.943900
444.212365	2526.217974
444.587612	2528.083201
444.962800	2527.274096
445.337927	2529.530012
445.712995	2526.719569
446.088002	2529.535053
446.462949	2528.204189
446.837837	2528.703263
447.212664	2525.860052
447.587431	2528.423479
447.962139	2529.598068
448.336786	2533.031094
448.711374	2529.376257
449.085901	2527.561442
449.460369	2528.720907
449.834776	2528.849457
450.209124	2530.084539
450.583412	2528.269724
450.957640	2530.513037
451.331808	2530.039169
451.705917	2527.563962
452.079965	2530.296268
452.453954	2525.141688
452.827883	2531.281813
453.201752	2528.599919
453.575562	2529.812317
453.949311	2527.657224
454.323001	2528.216792
454.696632	2528.945238
455.070202	2530.969262
455.443713	2529.837523
455.817164	2529.658562
456.190556	2527.112779
456.563888	2529.270393
456.937160	2526.742254
457.310373	2532.262318
457.683526	2529.605630
458.056619	2527.596730
458.429653	2531.806093
458.802628	2531.286854
459.175542	2526.606143
459.548398	2532.327853
459.921194	2531.591844
460.293930	2533.194931
460.666607	2533.893131
461.039224	2532.224509
461.411782	2532.758871
461.784280	2531.816176
462.156719	2532.630322
462.529099	2534.278779
462.901419	2533.210055
463.273680	2532.242153
463.645882	2531.382636
464.018024	2532.789118
464.390106	2531.990095
464.762130	2531.836340
465.134094	2534.664427
465.505999	2532.794159
465.877845	2533.434386
466.249631	2537.800025
466.621358	2533.842719
466.993026	2537.038811
467.364634	2541.031405
467.736184	2536.035621
468.107674	2531.881711
468.479105	2534.717360
468.850477	2531.770805
469.221790	2535.455889
469.593043	2534.850950
469.964238	2534.036804
470.335373	2536.796836
470.706449	2534.377082
471.077467	2535.672658
471.448425	2534.394726
471.819324	2535.264325
472.190164	2534.518234
472.560945	2532.040507
472.931667	2535.528985
473.302330	2534.303985
473.672934	2531.664941
474.043479	2534.203162
474.413965	2533.164684
474.784393	2528.481452
475.154761	2531.833820
475.525070	2531.309540
475.895321	2529.595547
476.265513	2529.272913
476.635645	2534.271217
477.005719	2533.265507
477.375734	2533.396577
477.745691	2535.909593
478.115588	2535.234078
478.485427	2534.843388
478.855207	2535.942360
479.224928	2536.020498
479.594591	2539.241795
479.964194	2536.965714
480.333739	2535.634850
480.703226	2534.722401
481.072653	2538.470499
481.442022	2535.496218
481.811333	2537.331198
482.180584	2536.088553
482.549777	2538.039480
482.918912	2538.878832
483.287988	2537.278266
483.657005	2535.992772
484.025964	2537.797505
484.394864	2538.316743
484.763706	2536.943029
485.132489	2536.154088
485.501213	2538.407484
485.869879	2536.638039
486.238487	2537.774819
486.607036	2540.232382
486.975527	2537.573173
487.343959	2539.430838
487.712333	2540.219779
488.080648	2536.885056
488.448905	2534.795498
488.817104	2535.153419
489.185244	2537.759696
489.553326	2536.388502
489.921350	2539.423277
490.289315	2539.292207
490.657222	2538.495704
491.025070	2538.871270
491.392861	2540.111394
491.760593	2537.424459
492.128267	2540.492001
492.495883	2535.760878
492.863440	2540.144162
493.230939	2538.735159
493.598380	2538.014274
493.965763	2532.194262
494.333088	2534.795498
494.700354	2535.312216
495.067563	2535.839016
495.434713	2533.600744
495.801805	2537.623585
496.168839	2534.679551
496.535815	2537.432021
496.902733	2538.548637
497.269593	2538.843544
497.636395	2536.123842
498.003139	2536.335570
498.369825	2540.494522
498.736453	2539.713143
499.103023	2537.351362
499.469535	2537.114428
499.835989	2538.238606
500.202385	2536.499408
500.568723	2537.550488
500.935003	2539.403112
501.301226	2539.055272
501.667390	2540.318082
502.033497	2538.336908
502.399546	2539.287166
502.765537	2538.982176
503.131470	2538.664583
503.497345	2539.143493
503.863163	2543.057949
504.228923	2537.686599
504.594625	2538.301620
504.960269	2539.075437
505.325856	2538.765406
505.691385	2536.312885
506.056856	2537.908410
506.422270	2537.547968
506.787625	2537.817669
507.152924	2538.127700
507.518164	2538.999820
507.883347	2537.885725
508.248472	2539.077958
508.613540	2538.213400
508.978550	2537.595858
509.343503	2541.492670
509.708398	2540.181970
510.073236	2542.130376
510.438016	2538.099974
510.802738	2539.067875
511.167403	2539.874460
511.532010	2539.478729
511.896561	2541.414533
512.261053	2541.023843
512.625488	2536.391023
512.989866	2539.128369
513.354186	2536.532175
513.718449	2538.495704
514.082655	2538.480581
514.446803	2540.073586
514.810894	2538.142824
515.174927	2537.764737
515.538904	2538.069727
515.902822	2539.428318
516.266684	2540.537372
516.630488	2539.743390
516.994235	2539.594676
517.357925	2537.968904
517.721558	2540.033256
518.085133	2539.786240
518.448651	2540.519728
518.812112	2540.081147
519.175516	2538.919161
519.538863	2540.486960
519.902152	2541.298586
520.265385	2541.275901
520.628560	2541.394368
520.991678	2539.191384
521.354739	2540.681045
521.717743	2539.887063
522.080690	2541.495191
522.443580	2541.626261
522.806413	2542.319420
523.169189	2541.986703
523.531908	2540.759182
523.894569	2540.529810
524.257174	2541.149872
524.619722	2542.500901
524.982213	2540.292876
525.344647	2539.393030
525.707025	2540.728936
526.069345	2542.228679
526.431608	2538.568801
526.793815	2540.834800
527.155964	2540.696168
527.518057	2543.778834
527.880093	2539.680376
528.242072	2539.272042
528.603995	2542.954605
528.965860	2542.107691
529.327669	2543.468803
529.689421	2540.786909
530.051117	2542.516025
530.412755	2542.266488
530.774337	2541.117104
531.135862	2539.791281
531.497331	2539.103163
531.858743	2536.214582
532.220098	2537.752134
532.581396	2536.514531
532.942638	2538.059645
533.303824	2540.960829
533.664953	2538.974614
534.026025	2542.122815
534.387040	2540.703730
534.747999	2541.911086
535.108902	2540.590304
535.469748	2540.522248
535.830537	2544.164482
536.191270	2540.270191
536.551947	2542.901673
536.912567	2540.265149
537.273131	2542.316899
537.633638	2541.704399
537.994089	2542.435366
538.354483	2541.444779
538.714821	2540.310520
539.075103	2542.841179
539.435328	2541.681714
539.795497	2540.335726
540.155609	2537.472350
540.515665	2543.173895
540.875665	2540.302958
541.235609	2539.186342
541.595496	2543.539379
541.955328	2542.682383
542.315102	2542.702547
542.674821	2543.748587
543.034483	2543.060469
543.394090	2541.870757
543.753640	2541.850592
544.113134	2542.231199
544.472571	2541.785057
544.831953	2542.498381
545.191278	2543.241951
545.550548	2542.115253
545.909761	2540.915458
546.268918	2542.389996
546.628019	2541.142310
546.987064	2543.214224
547.346053	2543.005017
547.704986	2541.447300
548.063863	2542.334543
548.422684	2542.021992
548.781449	2541.429656
549.140158	2541.855633
549.498811	2542.090047
549.857408	2542.132897
550.215949	2541.722043
550.574434	2535.067720
550.932864	2537.484953
551.291237	2535.670138
551.649555	2541.646426
552.007817	2543.758669
552.366022	2542.097609
552.724173	2544.434184
553.082267	2541.671631
553.440305	2542.432846
553.798288	2542.939482
554.156215	2540.983514
554.514086	2543.332692
554.871902	2543.594832
555.229661	2543.620037
555.587365	2544.071221
555.945014	2543.042825
556.302606	2541.180119
556.660143	2544.877805
557.017625	2542.939482
557.375050	2540.058462
557.732421	2542.518545
558.089735	2544.116591
558.446994	2542.858823
558.804197	2541.870757
559.161345	2542.831097
559.518437	2543.660367
559.875474	2542.735315
560.232455	2543.705737
560.589381	2543.352856
560.946251	2546.942158
561.303065	2541.732125
561.659825	2545.780172
562.016528	2543.083154
562.373177	2541.338915
562.729770	2541.890922
563.086307	2541.190201
563.442789	2543.405788
563.799216	2542.296734
564.155587	2544.189688
564.511904	2542.142979
564.868164	2541.802701
565.224370	2542.579039
565.580520	2542.989893
565.936615	2543.864533
566.292654	2541.026364
566.648638	2541.439738
567.004567	2541.044008
567.360441	2542.722712
567.716260	2543.647764
568.072023	2540.925541
568.427732	2538.115097
568.783385	2539.791281
569.138982	2540.744059
569.494525	2538.868750
569.850013	2538.354552
570.205445	2543.574667
570.560823	2539.670293
570.916145	2543.461241
571.271412	2542.153062
571.626625	2540.396219
571.981782	2542.067362
572.336884	2539.236754
572.691931	2541.754810
573.046923	2542.720191
573.401860	2541.583411
573.756743	2543.735984
574.111570	2542.223638
574.466342	2543.415871
574.821059	2539.448482
575.175722	2543.254554
575.530330	2539.758513
575.884882	2541.091899
576.239380	2542.127856
576.593823	2542.611807
576.948211	2542.546272
577.302544	2541.807742
577.656823	2542.637012
578.011047	2543.541899
578.365216	2545.026519
578.719330	2541.825387
579.073389	2541.452341
579.427394	2540.076106
579.781344	2541.101981
580.135239	2543.178936
580.489080	2543.370500
580.842866	2541.238092
581.196597	2542.301776
581.550273	2542.692465
581.903895	2541.626261
582.257463	2541.701878
582.610975	2543.325130
582.964434	2541.177598
583.317837	2542.442928
583.671186	2543.085675
584.024481	2541.263298
584.377721	2542.989893
584.730906	2540.376055
585.084037	2544.368649
585.437113	2541.457382
585.790135	2541.918648
586.143103	2539.836651
586.496016	2541.245654
586.848874	2539.171219
587.201679	2540.912938
587.554428	2536.575025
587.907124	2539.645088
588.259765	2537.966383
588.612352	2541.785057
588.964884	2542.571477
589.317362	2539.841692
589.669786	2542.873947
590.022155	2543.302445
590.374470	2542.967208
590.726731	2541.427135
591.078937	2541.810263
591.431090	2543.153731
591.783188	2542.974770
592.135232	2544.172044
592.487222	2540.154244
592.839157	2539.556867
593.191038	2540.796991
593.542866	2540.681045
593.894639	2543.413350
594.246358	2541.285983
594.598022	2540.660880
594.949633	2541.288504
595.301190	2542.100129
595.652692	2542.455531
596.004141	2541.107022
596.355535	2543.849410
596.706876	2544.061138
597.058162	2539.324974
597.409395	2543.695655
597.760573	2543.655325
598.111698	2541.991745
598.462768	2542.047197
598.813785	2540.887732
599.164748	2544.199770
599.515657	2539.451003
599.866511	2540.880170
600.217312	2541.386806
600.568060	2541.326312
600.918753	2545.260933
601.269392	2540.008051
601.619978	2540.444110
601.970510	2541.119625
602.320988	2541.598535
602.671412	2539.221631
603.021783	2542.846220
603.372100	2540.494522
603.722363	2541.664070
604.072572	2539.345139
604.422728	2540.290355
604.772830	2539.377906
605.122878	2534.770292
605.472872	2538.445293
605.822813	2537.459747
606.172701	2541.890922
606.522534	2539.793802
606.872314	2541.709440
607.222041	2544.240099
607.571714	2540.865047
607.921333	2540.948226
608.270899	2538.921682
608.620411	2542.647095
608.969870	2540.799512
609.319276	2544.567774
609.668627	2548.562889
610.017926	2547.342929
610.367171	2548.336037
610.716362	2549.475337
611.065500	2545.031560
611.414585	2546.490974
611.763616	2543.667928
612.112594	2547.358053
612.461518	2542.614327
612.810389	2544.111550
613.159207	2542.389996
613.507971	2542.276570
613.856682	2542.921838
614.205340	2540.547454
614.553945	2545.944009
614.902496	2544.981149
615.250994	2545.240768
615.599439	2540.802032
615.947830	2541.482588
616.296169	2539.206507
616.644454	2542.513504
616.992686	2540.852444
617.340864	2543.733463
617.688990	2541.522917
618.037063	2541.217927
618.385082	2538.745242
618.733048	2540.789429
619.080961	2541.447300
619.428821	2542.037115
619.776628	2541.217927
620.124382	2545.626417
620.472083	2542.460572
620.819731	2543.995603
621.167326	2543.408309
621.514868	2544.103988
621.862357	2540.537372
622.209793	2541.611137
622.557176	2538.465458
622.904506	2541.739687
623.251783	2536.552340
623.599007	2538.044521
623.946179	2539.188863
624.293297	2537.860519
624.640363	2540.560057
624.987376	2539.778678
625.334336	2540.108874
625.681243	2542.145500
626.028097	2539.241795
626.374899	2540.345808
626.721647	2540.789429
627.068343	2539.950077
627.414987	2541.941333
627.761577	2538.841023
628.108115	2542.309337
628.454600	2542.974770
628.801032	2540.076106
629.147412	2538.548637
629.493739	2541.164995
629.840014	2542.105171
630.186236	2538.914120
630.532405	2539.569470
630.878521	2539.408153
631.224585	2540.043339
631.570597	2539.077958
631.916556	2539.282124
632.262462	2541.427135
632.608316	2538.624254
632.954117	2539.395550
633.299866	2539.226672
633.645562	2541.404450
633.991206	2541.442259
634.336797	2541.023843
634.682336	2538.016795
635.027823	2538.667104
635.373257	2539.740869
635.718639	2543.005017
636.063968	2537.963863
636.409245	2536.945550
636.754470	2541.482588
637.099642	2537.938657
637.444762	2542.639533
637.789829	2536.670807
638.134845	2541.611138
638.479808	2540.660880
638.824719	2539.647608
639.169577	2536.297761
639.514383	2539.985365
639.859137	2541.046528
640.203839	2539.042670
640.548489	2538.016795
640.893086	2537.921013
641.237632	2536.237268
641.582125	2536.688451
641.926566	2536.857329
642.270955	2539.158616
642.615292	2537.653832
642.959576	2541.313709
643.303809	2538.334388
643.647990	2538.213400
643.992118	2539.483771
644.336195	2541.916127
