Dividing Wavelength (nm)	Counts (n)	Blue Motor Position (mm): 0.000000	Red Motor Position (mm): 9.000000	
326.493990	2128.498662
326.888308	2128.498662
327.282561	2128.498662
327.676750	2100.081678
328.070874	2094.359968
328.464933	2098.670155
328.858929	2102.302306
329.252859	2113.881837
329.646726	2124.221243
330.040528	2138.858233
330.434265	2154.274082
330.827938	2171.749242
331.221547	2191.477797
331.615091	2208.741228
332.008571	2227.252345
332.401986	2249.453587
332.795338	2268.027718
333.188625	2285.946500
333.581847	2305.720426
333.975006	2323.724907
334.368100	2343.818946
334.761129	2360.404342
335.154095	2376.178112
335.546996	2393.827192
335.939833	2407.634912
336.332606	2420.721748
336.725315	2436.188008
337.117960	2444.528597
337.510540	2452.286932
337.903056	2464.975517
338.295508	2469.623461
338.687896	2481.298773
339.080220	2490.967706
339.472480	2496.268479
339.864676	2500.099756
340.256807	2501.770899
340.648875	2506.280211
341.040879	2509.287259
341.432818	2510.214831
341.824694	2513.932682
342.216506	2513.385717
342.608253	2515.104751
342.999937	2514.971160
343.391557	2514.338495
343.783113	2512.984945
344.174605	2510.504698
344.566033	2510.504698
344.957397	2507.343894
345.348697	2504.334325
345.739934	2504.437669
346.131106	2503.641167
346.522215	2504.286434
346.913260	2499.212513
347.304241	2498.698315
347.695159	2496.868377
348.086012	2493.221102
348.476802	2491.396204
348.867528	2490.531646
349.258191	2490.874445
349.648789	2487.262458
350.039324	2484.552838
350.429796	2487.728765
350.820203	2483.741212
351.210548	2484.472179
351.600828	2484.003352
351.991045	2481.361787
352.381198	2481.354226
352.771288	2482.299442
353.161314	2479.262147
353.551276	2479.572178
353.941175	2482.884216
354.331010	2479.831797
354.720782	2481.525625
355.110490	2480.658546
355.500135	2479.801550
355.889717	2481.510501
356.279235	2480.426653
356.668689	2483.673156
357.058080	2483.521922
357.447408	2480.151910
357.836672	2479.594863
358.225873	2480.000676
358.615010	2480.172075
359.004084	2483.907570
359.393095	2481.177785
359.782043	2485.944196
360.170927	2486.060143
360.559748	2484.951089
360.948505	2485.891264
361.337199	2486.962509
361.725830	2488.613487
362.114398	2485.230873
362.502903	2490.813951
362.891344	2487.340596
363.279722	2488.053919
363.668037	2489.984681
364.056289	2490.687922
364.444478	2490.486276
364.832603	2490.672798
365.220665	2490.929897
365.608665	2490.864362
365.996601	2496.139930
366.384474	2494.307470
366.772284	2496.084477
367.160031	2497.614467
367.547715	2499.104128
367.935336	2502.194356
368.322893	2499.575476
368.710388	2506.648215
369.097820	2513.284894
369.485189	2516.607014
369.872495	2521.670853
370.259738	2528.489014
370.646918	2533.275590
371.034035	2539.531662
371.421090	2551.975750
371.808081	2564.082081
372.195010	2569.967628
372.581875	2584.559248
372.968678	2597.784715
373.355418	2607.574636
373.742096	2627.751854
374.128710	2638.439100
374.515262	2653.126502
374.901751	2670.122752
375.288177	2680.565502
375.674540	2704.737835
376.060841	2722.906153
376.447079	2738.672362
376.833254	2757.617018
377.219367	2769.052876
377.605417	2802.735345
377.991404	2809.130049
378.377329	2824.825681
378.763191	2837.559636
379.148991	2868.761858
379.534727	2883.469424
379.920402	2902.313257
380.306013	2908.312230
380.691563	2939.711057
381.077049	2948.321348
381.462474	2954.345526
381.847835	2977.733960
382.233134	2982.235710
382.618371	2970.714153
383.003545	3011.408867
383.388657	3004.084071
383.773706	3012.787623
384.158693	3008.132117
384.543618	3007.902745
384.928480	3018.690814
385.313280	3028.677340
385.698017	3005.848475
386.082692	3021.284488
386.467305	3003.582476
386.851856	2998.380005
387.236344	2992.191989
387.620770	2984.973057
388.005133	2974.200111
388.389435	2963.190231
388.773674	2947.802109
389.157851	2936.383895
389.541965	2922.147677
389.926018	2887.272974
390.310008	2887.066287
390.693936	2870.627084
391.077802	2861.893285
391.461606	2834.045952
391.845348	2826.937925
392.229027	2808.880512
392.612645	2788.826802
392.996200	2784.342695
393.379694	2771.676796
393.763125	2762.080960
394.146494	2734.752865
394.529801	2725.209961
394.913047	2712.594473
395.296230	2690.229394
395.679351	2678.642302
396.062410	2665.411794
396.445408	2650.016110
396.828343	2634.980868
397.211217	2622.375463
397.594028	2604.161774
397.976778	2592.894796
398.359466	2586.752150
398.742092	2578.948443
399.124656	2569.163564
399.507158	2564.286247
399.889598	2558.418344
400.271977	2553.725030
400.654294	2548.479710
401.036549	2542.203473
401.418742	2535.934798
401.800874	2536.743903
402.182944	2532.164015
402.564952	2528.945238
402.946898	2527.485824
403.328783	2526.633869
403.710606	2521.852335
404.092367	2521.890144
404.474067	2520.554238
404.855705	2521.010462
405.237282	2521.151615
405.618797	2519.810668
406.000250	2522.588343
406.381642	2517.564834
406.762972	2519.107427
407.144240	2518.048784
407.525447	2519.419978
407.906593	2520.282016
408.287677	2520.266892
408.668700	2518.366377
409.049661	2516.738084
409.430560	2518.331089
409.811399	2520.828981
410.192176	2516.957375
410.572891	2518.623476
410.953545	2517.610204
411.334138	2521.139012
411.714669	2520.017355
412.095139	2517.280008
412.475547	2521.136491
412.855894	2519.684639
413.236180	2518.389062
413.616405	2520.725637
413.996568	2518.502488
414.376670	2520.687828
414.756711	2518.472241
415.136691	2518.527694
415.516609	2518.205060
415.896466	2516.811181
416.276262	2523.838550
416.655997	2517.234638
417.035670	2516.483506
417.415283	2521.050792
417.794834	2515.651716
418.174324	2520.367715
418.553753	2521.305370
418.933121	2519.982067
419.312428	2520.982736
419.691674	2521.426358
420.070859	2523.886441
420.449983	2521.058353
420.829045	2524.249404
421.208047	2522.583302
421.586988	2520.425688
421.965867	2522.782428
422.344686	2523.841070
422.723444	2521.680936
423.102141	2520.219001
423.480777	2521.706142
423.859352	2523.901564
424.237866	2521.522139
424.616319	2522.333765
424.994712	2525.136647
425.373044	2523.838550
425.751314	2525.154291
426.129524	2523.097500
426.507673	2522.338806
426.885762	2526.533046
427.263789	2525.930628
427.641756	2523.107582
428.019662	2526.041534
428.397508	2524.687984
428.775292	2524.287212
429.153016	2523.778056
429.530679	2526.830474
429.908282	2524.471214
430.285824	2523.818385
430.663305	2524.924918
431.040726	2522.941224
431.418086	2524.128416
431.795385	2526.916174
432.172624	2525.514733
432.549802	2526.769981
432.926920	2525.872655
433.303977	2526.298633
433.680974	2524.395597
434.057910	2526.946421
434.434786	2525.045906
434.811601	2528.983047
435.188355	2525.726462
435.565050	2526.152439
435.941683	2525.983561
436.318257	2526.613705
436.694770	2522.197654
437.071222	2525.335772
437.447614	2524.307377
437.823946	2522.411903
438.200218	2527.132944
438.576429	2530.346679
438.952580	2528.617563
439.328670	2530.762574
439.704700	2526.875845
440.080670	2528.632687
440.456580	2526.860721
440.832429	2531.435568
441.208218	2526.742254
441.583947	2527.233767
441.959616	2529.035979
442.335224	2526.525485
442.710773	2524.914836
443.086261	2528.410876
443.461689	2527.488345
443.837057	2531.130579
444.212365	2527.715197
444.587612	2530.336597
444.962800	2528.000022
445.337927	2530.208048
445.712995	2527.742923
446.088002	2531.730476
446.462949	2529.346010
446.837837	2530.936494
447.212664	2531.289375
447.587431	2529.782070
447.962139	2528.166380
448.336786	2534.858512
448.711374	2534.465302
449.085901	2532.723583
449.460369	2532.126207
449.834776	2531.027235
450.209124	2527.901720
450.583412	2530.593696
450.957640	2530.024045
451.331808	2532.201824
451.705917	2530.739889
452.079965	2530.578572
452.453954	2531.218799
452.827883	2532.589993
453.201752	2532.811803
453.575562	2532.451361
453.949311	2530.686957
454.323001	2530.835671
454.696632	2531.339787
455.070202	2537.003523
455.443713	2532.234591
455.817164	2529.436751
456.190556	2528.781401
456.563888	2531.909437
456.937160	2532.615198
457.310373	2533.063861
457.683526	2533.008408
458.056619	2531.380116
458.429653	2534.054448
458.802628	2532.917668
459.175542	2530.815507
459.548398	2537.121990
459.921194	2532.332894
460.293930	2532.408511
460.666607	2532.605116
461.039224	2536.925385
461.411782	2537.157278
461.784280	2534.588810
462.156719	2535.728111
462.529099	2535.367668
462.901419	2536.464119
463.273680	2537.298430
463.645882	2532.204344
464.018024	2536.630477
464.390106	2538.215920
464.762130	2535.455889
465.134094	2536.035621
465.505999	2538.964532
465.877845	2540.882691
466.249631	2539.929913
466.621358	2540.582742
466.993026	2541.628782
467.364634	2543.942671
467.736184	2538.904038
468.107674	2538.175591
468.479105	2537.374048
468.850477	2537.500077
469.221790	2538.190715
469.593043	2536.728780
469.964238	2538.808256
470.335373	2536.872453
470.706449	2537.091743
471.077467	2538.558719
471.448425	2541.848072
471.819324	2537.038811
472.190164	2539.108205
472.560945	2538.417567
472.931667	2538.825900
473.302330	2536.396064
473.672934	2536.670807
474.043479	2538.425128
474.413965	2538.515869
474.784393	2532.232071
475.154761	2536.869932
475.525070	2532.957997
475.895321	2534.949253
476.265513	2534.561084
476.635645	2535.851619
477.005719	2538.273894
477.375734	2536.320447
477.745691	2536.970755
478.115588	2537.371527
478.485427	2539.231713
478.855207	2540.202135
479.224928	2540.471837
479.594591	2539.335057
479.964194	2538.596527
480.333739	2541.724563
480.703226	2538.112577
481.072653	2542.180788
481.442022	2539.864378
481.811333	2538.031918
482.180584	2539.322454
482.549777	2540.945705
482.918912	2539.675334
483.287988	2543.582229
483.657005	2538.762886
484.025964	2541.003678
484.394864	2538.578883
484.763706	2540.323123
485.132489	2538.203317
485.501213	2539.607279
485.869879	2540.529810
486.238487	2537.121990
486.607036	2540.658359
486.975527	2540.973432
487.343959	2540.681045
487.712333	2539.927392
488.080648	2539.715664
488.448905	2542.029553
488.817104	2541.827907
489.185244	2541.769934
489.553326	2542.979811
489.921350	2541.769934
490.289315	2542.702547
490.657222	2542.800850
491.025070	2543.983000
491.392861	2544.552651
491.760593	2543.025181
492.128267	2541.283462
492.495883	2544.605583
492.863440	2540.295396
493.230939	2543.773792
493.598380	2541.774975
493.965763	2536.643080
494.333088	2538.944367
494.700354	2537.946219
495.067563	2540.040818
495.434713	2535.957483
495.801805	2543.352856
496.168839	2540.285314
496.535815	2541.101981
496.902733	2542.289173
497.269593	2542.029553
497.636395	2541.112063
498.003139	2543.436035
498.369825	2541.094419
498.736453	2540.003009
499.103023	2541.583411
499.469535	2541.855633
499.835989	2542.609286
500.202385	2537.800025
500.568723	2543.889739
500.935003	2540.633154
501.301226	2540.595345
501.667390	2543.002496
502.033497	2543.733463
502.399546	2540.822197
502.765537	2539.735828
503.131470	2543.367980
503.497345	2540.401261
503.863163	2542.503422
504.228923	2540.547454
504.594625	2541.505273
504.960269	2542.309337
505.325856	2543.277239
505.691385	2541.850592
506.056856	2543.037784
506.422270	2543.798998
506.787625	2541.628782
507.152924	2541.500232
507.518164	2543.186498
507.883347	2541.593493
508.248472	2538.707433
508.613540	2545.291180
508.978550	2543.715819
509.343503	2543.078113
509.708398	2541.880839
510.073236	2543.287321
510.438016	2543.297403
510.802738	2543.201622
511.167403	2545.916283
511.532010	2543.390665
511.896561	2542.490819
512.261053	2544.771941
512.625488	2538.432690
512.989866	2539.206507
513.354186	2541.081816
513.718449	2536.590148
514.082655	2541.888401
514.446803	2543.128525
514.810894	2541.790098
515.174927	2546.226314
515.538904	2543.713299
515.902822	2545.157589
516.266684	2544.981149
516.630488	2543.930068
516.994235	2543.322609
517.357925	2544.043494
517.721558	2547.463917
518.085133	2544.103988
518.448651	2546.158258
518.812112	2543.746066
519.175516	2545.210521
519.538863	2543.294883
519.902152	2543.433515
520.265385	2544.265305
520.628560	2544.822353
520.991678	2546.516180
521.354739	2545.747404
521.717743	2544.787064
522.080690	2544.829914
522.443580	2541.946374
522.806413	2545.785213
523.169189	2545.860830
523.531908	2543.599873
523.894569	2546.836293
524.257174	2544.068700
524.619722	2545.747404
524.982213	2545.414688
525.344647	2544.804708
525.707025	2541.996786
526.069345	2545.192877
526.431608	2546.496016
526.793815	2543.602393
527.155964	2545.265974
527.518057	2544.991231
527.880093	2547.330327
528.242072	2546.183464
528.603995	2545.636499
528.965860	2545.427291
529.327669	2544.098947
529.689421	2543.448638
530.051117	2544.771941
530.412755	2544.174564
530.774337	2544.850079
531.135862	2543.320089
531.497331	2544.421581
531.858743	2539.609799
532.220098	2544.252702
532.581396	2540.393699
532.942638	2542.314378
533.303824	2542.672300
533.664953	2546.821170
534.026025	2543.367980
534.387040	2545.104657
534.747999	2547.383259
535.108902	2547.428629
535.469748	2544.701365
535.830537	2547.448794
536.191270	2546.085162
536.551947	2548.409133
536.912567	2543.365459
537.273131	2546.606921
537.633638	2544.406457
537.994089	2544.814791
538.354483	2544.592980
538.714821	2544.915614
539.075103	2543.554502
539.435328	2544.678680
539.795497	2542.130376
540.155609	2547.199257
540.515665	2544.235058
540.875665	2546.793444
541.235609	2543.254554
541.595496	2545.066848
541.955328	2550.778476
542.315102	2544.766900
542.674821	2546.818649
543.034483	2543.738504
543.394090	2543.599873
543.753640	2545.666746
544.113134	2547.584905
544.472571	2548.562889
544.831953	2547.582384
545.191278	2546.269164
545.550548	2546.135573
545.909761	2549.041798
546.268918	2545.966694
546.628019	2546.306972
546.987064	2546.286808
547.346053	2545.208001
547.704986	2544.172044
548.063863	2544.532486
548.422684	2546.246478
548.781449	2543.297403
549.140158	2544.368649
549.498811	2549.422405
549.857408	2544.282949
550.215949	2544.724050
550.574434	2544.444266
550.932864	2541.369162
551.291237	2540.728936
551.649555	2545.840666
552.007817	2544.335881
552.366022	2546.354863
552.724173	2544.719009
553.082267	2546.332178
553.440305	2546.536345
553.798288	2546.425439
554.156215	2547.758825
554.514086	2545.172713
554.871902	2547.458876
555.229661	2546.420398
555.587365	2545.669266
555.945014	2547.032898
556.302606	2546.775800
556.660143	2547.983156
557.017625	2542.952084
557.375050	2544.230017
557.732421	2547.151366
558.089735	2548.925852
558.446994	2545.089534
558.804197	2546.301931
559.161345	2544.504760
559.518437	2545.873433
559.875474	2545.240768
560.232455	2546.241437
560.589381	2546.082641
560.946251	2547.758825
561.303065	2546.932075
561.659825	2547.852086
562.016528	2545.490305
562.373177	2547.262271
562.729770	2545.379400
563.086307	2545.175233
563.442789	2545.850748
563.799216	2547.947868
564.155587	2544.514842
564.511904	2544.774462
564.868164	2545.064328
565.224370	2544.466951
565.580520	2545.465100
565.936615	2550.234031
566.292654	2545.694472
566.648638	2546.405275
567.004567	2547.768907
567.360441	2545.139945
567.716260	2544.943340
568.072023	2547.166489
568.427732	2541.787578
568.783385	2542.957126
569.138982	2539.682896
569.494525	2543.120963
569.850013	2543.257074
570.205445	2548.184802
570.560823	2545.089534
570.916145	2546.460728
571.271412	2546.483413
571.626625	2546.944678
571.981782	2545.702034
572.336884	2546.359904
572.691931	2546.901828
573.046923	2542.483257
573.401860	2547.486602
573.756743	2546.193546
574.111570	2547.660522
574.466342	2546.869061
574.821059	2546.337219
575.175722	2547.148845
575.530330	2544.386293
575.884882	2547.282436
576.239380	2544.809750
576.593823	2545.570964
576.948211	2543.209183
577.302544	2545.886036
577.656823	2546.843855
578.011047	2545.356715
578.365216	2544.696324
578.719330	2544.867723
579.073389	2546.082641
579.427394	2545.570964
579.781344	2543.446118
580.135239	2542.755479
580.489080	2543.078113
580.842866	2542.906714
581.196597	2549.828218
581.550273	2544.091385
581.903895	2541.845551
582.257463	2546.823691
582.610975	2546.264123
582.964434	2547.539534
583.317837	2547.211859
583.671186	2547.715975
584.024481	2545.328988
584.377721	2547.048022
584.730906	2544.224976
585.084037	2545.971736
585.437113	2543.430994
585.790135	2546.095244
586.143103	2543.801519
586.496016	2544.804708
586.848874	2540.434028
587.201679	2543.052907
587.554428	2541.462423
587.907124	2542.344625
588.259765	2538.016795
588.612352	2544.587939
588.964884	2546.967363
589.317362	2544.981149
589.669786	2543.995603
590.022155	2542.833617
590.374470	2541.820345
590.726731	2546.889226
591.078937	2544.920655
591.431090	2545.399565
591.783188	2545.134904
592.135232	2545.724719
592.487222	2545.074410
592.839157	2545.240768
593.191038	2543.491488
593.542866	2545.470141
593.894639	2544.560213
594.246358	2543.062990
594.598022	2544.764379
594.949633	2546.001982
595.301190	2543.816642
595.652692	2544.905532
596.004141	2546.564071
596.355535	2546.564071
596.706876	2543.806560
597.058162	2543.481406
597.409395	2543.970398
597.760573	2544.451828
598.111698	2543.136087
598.462768	2547.345450
598.813785	2545.081972
599.164748	2543.433515
599.515657	2543.796478
599.866511	2543.763710
600.217312	2545.260933
600.568060	2543.136087
600.918753	2546.866540
601.269392	2542.493339
601.619978	2545.475182
601.970510	2541.986703
602.320988	2543.005017
602.671412	2544.361087
603.021783	2542.573998
603.372100	2547.652960
603.722363	2540.779347
604.072572	2544.688762
604.422728	2545.449976
604.772830	2540.552495
605.122878	2541.570808
605.472872	2544.315717
605.822813	2539.503935
606.172701	2541.807742
606.522534	2544.088865
606.872314	2545.616334
607.222041	2542.173226
607.571714	2544.212373
607.921333	2544.560213
608.270899	2544.471992
608.620411	2545.003834
608.969870	2542.858823
609.319276	2545.369318
609.668627	2552.184958
610.017926	2551.143959
610.367171	2554.297201
610.716362	2552.767211
611.065500	2550.365101
611.414585	2549.172868
611.763616	2548.492313
612.112594	2547.476520
612.461518	2546.770758
612.810389	2545.724719
613.159207	2547.259750
613.507971	2546.417878
613.856682	2543.741025
614.205340	2545.228165
614.553945	2545.286139
614.902496	2541.843031
615.250994	2545.059287
615.599439	2541.903524
615.947830	2545.218083
616.296169	2545.772610
616.644454	2546.269164
616.992686	2544.053577
617.340864	2545.124822
617.688990	2542.967208
618.037063	2546.014585
618.385082	2546.193546
618.733048	2542.508463
619.080961	2544.126673
619.428821	2546.685059
619.776628	2543.428473
620.124382	2545.870912
620.472083	2542.253885
620.819731	2544.996272
621.167326	2545.349153
621.514868	2543.758669
621.862357	2544.996272
622.209793	2543.148689
622.557176	2542.669780
622.904506	2543.168854
623.251783	2541.028884
623.599007	2542.024512
623.946179	2539.755993
624.293297	2538.795653
624.640363	2543.090716
624.987376	2542.634492
625.334336	2543.347815
625.681243	2543.640202
626.028097	2542.823535
626.374899	2543.564585
626.721647	2544.368649
627.068343	2542.332022
627.414987	2543.637681
627.761577	2544.507280
628.108115	2541.069213
628.454600	2544.265305
628.801032	2542.125335
629.147412	2541.500232
629.493739	2544.492157
629.840014	2543.738504
630.186236	2543.609955
630.532405	2543.335212
630.878521	2542.412681
631.224585	2544.356046
631.570597	2542.949564
631.916556	2544.708927
632.262462	2542.604245
632.608316	2542.440407
632.954117	2539.082999
633.299866	2542.178267
633.645562	2543.047866
633.991206	2542.747918
634.336797	2540.638195
634.682336	2542.876467
635.027823	2539.146013
635.373257	2541.520397
635.718639	2541.454862
636.063968	2541.434697
636.409245	2542.528628
636.754470	2543.304965
637.099642	2542.833617
637.444762	2541.790098
637.789829	2540.234902
638.134845	2541.207845
638.479808	2540.444110
638.824719	2540.055942
639.169577	2540.093750
639.514383	2543.783875
639.859137	2540.784388
640.203839	2541.296065
640.548489	2541.618699
640.893086	2536.675848
641.237632	2537.759696
641.582125	2538.397402
641.926566	2534.850950
642.270955	2540.741538
642.615292	2539.826569
642.959576	2540.287835
643.303809	2541.285983
643.647990	2541.230530
643.992118	2540.665921
644.336195	2542.203473
