Dividing Wavelength (nm)	Counts (n)	Blue Motor Position (mm): 0.000000	Red Motor Position (mm): 27.500000	
326.493990	2127.384567
326.888308	2127.384567
327.282561	2127.384567
327.676750	2093.339135
328.070874	2095.272417
328.464933	2097.929105
328.858929	2104.389344
329.252859	2112.540890
329.646726	2123.492796
330.040528	2135.405043
330.434265	2152.406334
330.827938	2171.915600
331.221547	2189.176510
331.615091	2208.360621
332.008571	2226.881821
332.401986	2248.674729
332.795338	2268.181473
333.188625	2285.689401
333.581847	2305.304530
333.975006	2321.151398
334.368100	2337.809890
334.761129	2359.852336
335.154095	2375.177443
335.546996	2391.367109
335.939833	2413.492733
336.332606	2423.159146
336.725315	2435.822524
337.117960	2448.017075
337.510540	2454.694083
337.903056	2463.503500
338.295508	2472.585138
338.687896	2479.967908
339.080220	2490.304794
339.472480	2495.817296
339.864676	2501.125631
340.256807	2504.901455
340.648875	2509.756086
341.040879	2509.962774
341.432818	2513.204236
341.824694	2516.440656
342.216506	2515.760101
342.608253	2514.550224
342.999937	2510.146776
343.391557	2518.094155
343.783113	2511.976715
344.174605	2514.245234
344.566033	2511.097033
344.957397	2510.010665
345.348697	2508.944461
345.739934	2504.442710
346.131106	2505.249295
346.522215	2506.849861
346.913260	2501.609582
347.304241	2501.997751
347.695159	2496.402070
348.086012	2498.786536
348.476802	2493.445433
348.867528	2494.350320
349.258191	2491.313025
349.648789	2492.825371
350.039324	2487.738847
350.429796	2486.281953
350.820203	2483.862200
351.210548	2483.695842
351.600828	2485.069556
351.991045	2486.503764
352.381198	2483.441263
352.771288	2483.126191
353.161314	2484.356233
353.551276	2481.780203
353.941175	2483.259782
354.331010	2486.034937
354.720782	2481.530666
355.110490	2482.281798
355.500135	2482.773310
355.889717	2485.460245
356.279235	2482.387662
356.668689	2486.634834
357.058080	2484.625934
357.447408	2483.126191
357.836672	2480.023361
358.225873	2485.309011
358.615010	2481.505460
359.004084	2488.424444
359.393095	2487.451501
359.782043	2489.730103
360.170927	2488.749598
360.559748	2489.916625
360.948505	2490.876965
361.337199	2491.376039
361.725830	2489.478045
362.114398	2492.727069
362.502903	2491.305463
362.891344	2492.951400
363.279722	2495.464415
363.668037	2494.660351
364.056289	2495.930722
364.444478	2496.820486
364.832603	2492.462408
365.220665	2496.898623
365.608665	2497.894251
365.996601	2497.692605
366.384474	2497.294354
366.772284	2501.211331
367.160031	2501.120590
367.547715	2504.039418
367.935336	2502.262411
368.322893	2510.083761
368.710388	2511.389420
369.097820	2518.298322
369.485189	2522.364012
369.872495	2530.654190
370.259738	2534.152750
370.646918	2540.902855
371.034035	2549.482899
371.421090	2557.059753
371.808081	2568.583831
372.195010	2578.703947
372.581875	2593.678695
372.968678	2604.411312
373.355418	2614.150821
373.742096	2635.258132
374.128710	2647.724905
374.515262	2663.551608
374.901751	2678.932168
375.288177	2692.661751
375.674540	2716.808878
376.060841	2730.319170
376.447079	2753.551327
376.833254	2773.325253
377.219367	2785.413940
377.605417	2821.705207
377.991404	2830.638132
378.377329	2854.132429
378.763191	2870.876622
379.148991	2906.872981
379.534727	2932.222423
379.920402	2961.879531
380.306013	2976.488795
380.691563	3025.022503
381.077049	3041.766696
381.462474	3062.536250
381.847835	3102.626026
382.233134	3123.317442
382.618371	3124.981022
383.003545	3191.259592
383.388657	3201.215871
383.773706	3231.253587
384.158693	3245.935947
384.543618	3273.924433
384.928480	3309.827531
385.313280	3357.388297
385.698017	3355.119778
386.082692	3406.784043
386.467305	3412.004158
386.851856	3442.954322
387.236344	3466.766212
387.620770	3500.378105
388.005133	3525.548586
388.389435	3552.002041
388.773674	3562.469997
389.157851	3606.766616
389.541965	3624.453504
389.926018	3586.443204
390.310008	3659.151766
390.693936	3677.909900
391.077802	3720.931107
391.461606	3704.900237
391.845348	3770.130247
392.229027	3770.369702
392.612645	3785.417547
392.996200	3860.772714
393.379694	3899.854259
393.763125	3965.651399
394.146494	3930.958179
394.529801	3991.550327
394.913047	4044.936147
395.296230	4008.773429
395.679351	4061.685380
396.062410	4085.081375
396.445408	4066.613108
396.828343	4098.815999
397.211217	4124.152838
397.594028	4045.289027
397.976778	4111.691106
398.359466	4135.129951
398.742092	4163.879651
399.124656	4089.978856
399.507158	4167.617667
399.889598	4195.076832
400.271977	4255.406840
400.654294	4226.639496
401.036549	4232.381370
401.418742	4209.502093
401.800874	4304.850477
402.182944	4326.547603
402.564952	4389.960278
402.946898	4377.891755
403.328783	4369.473028
403.710606	4288.726347
404.092367	4481.038804
404.474067	4444.747537
404.855705	4454.345894
405.237282	4381.365110
405.618797	4491.892408
406.000250	4522.383827
406.381642	4605.371302
406.762972	4569.596754
407.144240	4576.341817
407.525447	4578.093618
407.906593	4637.838853
408.287677	4680.234957
408.668700	4608.796766
409.049661	4659.735105
409.430560	4707.016087
409.811399	4629.009272
410.192176	4783.437459
410.572891	4729.734047
410.953545	4830.040405
411.334138	4714.532447
411.714669	4779.850678
412.095139	4672.033000
412.475547	4816.404084
412.855894	4796.320127
413.236180	4807.629956
413.616405	4759.030712
413.996568	4844.599258
414.376670	4789.723777
414.756711	4746.107714
415.136691	4772.606540
415.516609	4849.940360
415.896466	4888.290938
416.276262	4922.525414
416.655997	4902.582609
417.035670	5082.675310
417.415283	5176.758364
417.794834	5123.180981
418.174324	5071.862035
418.553753	4983.137727
418.933121	5166.156818
419.312428	5234.315738
419.691674	5175.790463
420.070859	5292.467968
420.449983	5213.170618
420.829045	5324.103729
421.208047	5230.580243
421.586988	5301.368125
421.965867	5310.779960
422.344686	5445.998829
422.723444	5301.932735
423.102141	5121.850116
423.480777	5418.171660
423.859352	5190.457700
424.237866	5442.260814
424.616319	5438.195123
424.994712	5547.590682
425.373044	5428.679945
425.751314	5568.955092
426.129524	5366.845152
426.507673	5560.175923
426.885762	5647.876876
427.263789	5574.795269
427.641756	5461.240758
428.019662	5581.041258
428.397508	5586.329429
428.775292	5539.202202
429.153016	5632.720647
429.530679	5561.952929
429.908282	5643.670033
430.285824	5514.059447
430.663305	5792.104288
431.040726	5526.753073
431.418086	5524.935737
431.795385	5628.261747
432.172624	5642.497965
432.549802	5638.404548
432.926920	5651.536754
433.303977	5655.592362
433.680974	5694.810018
434.057910	5712.945569
434.434786	5722.627105
434.811601	5686.817269
435.188355	5923.741418
435.565050	5797.258868
435.941683	5781.187669
436.318257	5997.637171
436.694770	5973.243028
437.071222	6011.833060
437.447614	5944.047185
437.823946	5852.867836
438.200218	6003.197564
438.576429	5874.988419
438.952580	5970.971988
439.328670	6015.808010
439.704700	5923.726294
440.080670	5910.722638
440.456580	6179.138874
440.832429	6065.866668
441.208218	5906.064612
441.583947	6062.852058
441.959616	6068.767852
442.335224	5994.211707
442.710773	6130.942923
443.086261	6148.763402
443.461689	5951.460202
443.837057	6096.204332
444.212365	6248.752168
444.587612	6146.262989
444.962800	6294.871164
445.337927	6273.521877
445.712995	5885.292537
446.088002	6457.271935
446.462949	6285.527385
446.837837	6214.416869
447.212664	6380.840481
447.587431	6522.837182
447.962139	7051.954169
448.336786	7970.006258
448.711374	7702.870474
449.085901	6786.865094
449.460369	6700.167330
449.834776	6632.638554
450.209124	7012.166862
450.583412	7150.470918
450.957640	7287.456712
451.331808	7049.511730
451.705917	6604.392969
452.079965	6518.494228
452.453954	6723.706998
452.827883	6588.145330
453.201752	6671.770510
453.575562	6463.210414
453.949311	6652.326780
454.323001	6530.048552
454.696632	6591.043993
455.070202	6710.302570
455.443713	6845.264341
455.817164	6922.000784
456.190556	6984.503530
456.563888	7034.937754
456.937160	7061.587814
457.310373	6724.122893
457.683526	6728.501135
458.056619	6607.788186
458.429653	6583.013435
458.802628	6501.205591
459.175542	6580.008908
459.548398	6874.218208
459.921194	6990.608368
460.293930	6961.268852
460.666607	7389.777012
461.039224	7629.700647
461.411782	7701.436266
461.784280	7690.663320
462.156719	7563.175060
462.529099	7428.966942
462.901419	7034.587394
463.273680	6919.026504
463.645882	6894.193780
464.018024	6739.271560
464.390106	6839.537590
464.762130	7108.894002
465.134094	7427.063906
465.505999	8159.258735
465.877845	9039.595431
466.249631	9493.455553
466.621358	9153.341506
466.993026	8605.622661
467.364634	8366.064509
467.736184	8012.457814
468.107674	7698.666152
468.479105	7644.393089
468.850477	7413.001607
469.221790	7187.142792
469.593043	6893.732514
469.964238	6725.005095
470.335373	6671.999883
470.706449	6653.007336
471.077467	6573.704945
471.448425	7330.135120
471.819324	7940.334026
472.190164	7879.807412
472.560945	7035.807353
472.931667	6473.625438
473.302330	6318.650286
473.672934	6040.902874
474.043479	6172.741650
474.413965	6076.775725
474.784393	5926.987921
475.154761	5949.932732
475.525070	5915.978041
475.895321	5768.693169
476.265513	5784.020798
476.635645	5807.157173
477.005719	5718.228699
477.375734	5704.849476
477.745691	5742.990846
478.115588	5721.225665
478.485427	5744.719962
478.855207	5906.246093
479.224928	6157.834958
479.594591	6342.207598
479.964194	6163.029867
480.333739	6044.177103
480.703226	5897.227469
481.072653	5844.663358
481.442022	5843.224108
481.811333	5832.834290
482.180584	5664.747097
482.549777	5464.756963
482.918912	5331.322662
483.287988	5251.334673
483.657005	5175.606460
484.025964	4998.165407
484.394864	4948.721770
484.763706	4852.914641
485.132489	4722.278180
485.501213	4637.710304
485.869879	4584.674845
486.238487	4469.287874
486.607036	4436.553142
486.975527	4315.628464
487.343959	4295.068118
487.712333	4235.012852
488.080648	4165.170186
488.448905	4104.472173
488.817104	4034.427861
489.185244	4024.945451
489.553326	3990.942868
489.921350	4035.103376
490.289315	4139.213285
490.657222	4140.851660
491.025070	4055.998959
491.392861	3978.450889
491.760593	3865.491234
492.128267	3751.205756
492.495883	3653.276301
492.863440	3565.862694
493.230939	3484.032164
493.598380	3432.776232
493.965763	3375.032335
494.333088	3331.849812
494.700354	3282.416257
495.067563	3259.640324
495.434713	3205.768033
495.801805	3188.373532
496.168839	3151.452121
496.535815	3116.118674
496.902733	3089.408120
497.269593	3056.002914
497.636395	3035.316539
498.003139	3007.386027
498.369825	2977.814618
498.736453	2964.687453
499.103023	2938.589400
499.469535	2921.625917
499.835989	2900.274110
500.202385	2879.885163
500.568723	2857.542770
500.935003	2852.625124
501.301226	2827.520178
501.667390	2824.976916
502.033497	2808.575522
502.399546	2792.204375
502.765537	2777.295162
503.131470	2767.774943
503.497345	2759.247831
503.863163	2743.496746
504.228923	2739.020202
504.594625	2732.197000
504.960269	2717.028168
505.325856	2715.866182
505.691385	2702.771785
506.056856	2702.136599
506.422270	2694.476566
506.787625	2685.042047
507.152924	2683.819567
507.518164	2678.012158
507.883347	2672.565191
508.248472	2665.323573
508.613540	2665.278203
508.978550	2658.512975
509.343503	2656.438540
509.708398	2658.003818
510.073236	2654.550628
510.438016	2649.602735
510.802738	2647.172899
511.167403	2644.128042
511.532010	2640.200983
511.896561	2641.738535
512.261053	2643.656694
512.625488	2634.663276
512.989866	2632.820734
513.354186	2633.130765
513.718449	2627.666154
514.082655	2629.168418
514.446803	2630.635394
514.810894	2629.964920
515.174927	2625.561472
515.538904	2624.076853
515.902822	2626.032820
516.266684	2621.218518
516.630488	2619.640637
516.994235	2620.787500
517.357925	2618.216511
517.721558	2619.418827
518.085133	2620.200205
518.448651	2618.939917
518.812112	2614.677621
519.175516	2615.332971
519.538863	2612.497322
519.902152	2613.918928
520.265385	2615.640482
520.628560	2614.425564
520.991678	2612.900615
521.354739	2613.419853
521.717743	2612.406582
522.080690	2613.639144
522.443580	2610.869030
522.806413	2614.533948
523.169189	2610.110336
523.531908	2611.327775
523.894569	2610.732918
524.257174	2610.276694
524.619722	2608.852568
524.982213	2608.930706
525.344647	2610.095212
525.707025	2609.361725
526.069345	2611.078237
526.431608	2609.142434
526.793815	2607.665376
527.155964	2606.153030
527.518057	2602.999788
527.880093	2605.543051
528.242072	2610.057404
528.603995	2607.917434
528.965860	2603.539192
529.327669	2604.161774
529.689421	2604.015581
530.051117	2604.902824
530.412755	2605.454830
530.774337	2603.604727
531.135862	2606.291662
531.497331	2604.416353
531.858743	2599.289499
532.220098	2600.262442
532.581396	2600.292689
532.942638	2599.236567
533.303824	2600.590117
533.664953	2602.888883
534.026025	2603.614809
534.387040	2603.972731
534.747999	2601.192535
535.108902	2604.870057
535.469748	2600.038111
535.830537	2599.904520
536.191270	2598.818151
536.551947	2603.450972
536.912567	2602.110025
537.273131	2599.801176
537.633638	2600.917792
537.994089	2601.691609
538.354483	2600.426279
538.714821	2601.157247
539.075103	2604.005499
539.435328	2600.872422
539.795497	2602.304109
540.155609	2600.786722
540.515665	2603.917278
540.875665	2600.108687
541.235609	2601.507607
541.595496	2600.474170
541.955328	2600.138934
542.315102	2603.513986
542.674821	2597.900661
543.034483	2602.117587
543.394090	2602.725046
543.753640	2601.913420
544.113134	2601.842844
544.472571	2600.937957
544.831953	2601.540374
545.191278	2598.971907
545.550548	2600.789242
545.909761	2600.222113
546.268918	2600.791763
546.628019	2603.839141
546.987064	2599.269335
547.346053	2596.494179
547.704986	2596.852101
548.063863	2600.431321
548.422684	2600.484253
548.781449	2599.493666
549.140158	2600.615323
549.498811	2602.097422
549.857408	2598.306474
550.215949	2597.842688
550.574434	2597.028542
550.932864	2596.025352
551.291237	2598.223295
551.649555	2602.208327
552.007817	2601.293358
552.366022	2601.878132
552.724173	2599.239088
553.082267	2601.520210
553.440305	2600.476691
553.798288	2599.539036
554.156215	2599.319746
554.514086	2602.374685
554.871902	2598.795466
555.229661	2601.101794
555.587365	2600.711105
555.945014	2601.747062
556.302606	2599.407966
556.660143	2600.302771
557.017625	2599.675147
557.375050	2600.746393
557.732421	2600.950559
558.089735	2602.450303
558.446994	2598.550970
558.804197	2601.873091
559.161345	2602.578852
559.518437	2597.275558
559.875474	2600.716146
560.232455	2601.603389
560.589381	2601.633636
560.946251	2604.305447
561.303065	2604.134048
561.659825	2598.379571
562.016528	2597.603233
562.373177	2602.951897
562.729770	2600.844695
563.086307	2600.370827
563.442789	2601.552977
563.799216	2597.366299
564.155587	2597.116762
564.511904	2598.074581
564.868164	2599.607092
565.224370	2599.312184
565.580520	2600.164139
565.936615	2597.537698
566.292654	2595.329673
566.648638	2598.961824
567.004567	2599.100456
567.360441	2596.531988
567.716260	2595.329673
568.072023	2598.515682
568.427732	2595.133068
568.783385	2595.836309
569.138982	2592.378077
569.494525	2595.753130
569.850013	2592.269692
570.205445	2595.622060
570.560823	2595.826227
570.916145	2597.787235
571.271412	2596.630291
571.626625	2599.420569
571.981782	2597.220106
572.336884	2597.227667
572.691931	2595.128027
573.046923	2595.143150
573.401860	2599.246649
573.756743	2595.798500
574.111570	2596.405959
574.466342	2596.489138
574.821059	2598.210692
575.175722	2595.390167
575.530330	2595.853953
575.884882	2597.520054
576.239380	2595.546443
576.593823	2595.178438
576.948211	2597.159612
577.302544	2594.762543
577.656823	2596.544591
578.011047	2597.446957
578.365216	2593.746751
578.719330	2594.875969
579.073389	2596.274889
579.427394	2593.250197
579.781344	2592.360433
580.135239	2594.139961
580.489080	2594.109714
580.842866	2591.788262
581.196597	2596.030393
581.550273	2595.317070
581.903895	2590.303642
582.257463	2595.559045
582.610975	2589.824733
582.964434	2591.417737
583.317837	2591.606781
583.671186	2591.556369
584.024481	2592.549477
584.377721	2592.015114
584.730906	2591.200968
585.084037	2592.083170
585.437113	2590.981678
585.790135	2590.921184
586.143103	2591.251379
586.496016	2589.000504
586.848874	2585.968250
587.201679	2589.129054
587.554428	2587.634352
587.907124	2589.965885
588.259765	2584.728126
588.612352	2591.014445
588.964884	2590.291040
589.317362	2590.792634
589.669786	2587.611666
590.022155	2591.931935
590.374470	2592.229363
590.726731	2588.360278
591.078937	2587.508323
591.431090	2588.544280
591.783188	2587.762901
592.135232	2585.239803
592.487222	2586.094279
592.839157	2588.367839
593.191038	2587.528487
593.542866	2586.905905
593.894639	2584.770976
594.246358	2587.014290
594.598022	2587.480596
594.949633	2587.669640
595.301190	2584.846593
595.652692	2587.155442
596.004141	2586.258117
596.355535	2588.438416
596.706876	2586.442119
597.058162	2584.181161
597.409395	2585.496902
597.760573	2585.438929
598.111698	2584.695359
598.462768	2588.110741
598.813785	2583.190574
599.164748	2586.938672
599.515657	2584.586974
599.866511	2585.567478
600.217312	2583.354412
600.568060	2586.686615
600.918753	2585.910277
601.269392	2585.915318
601.619978	2584.092941
601.970510	2583.440112
602.320988	2584.246696
602.671412	2585.532190
603.021783	2584.221490
603.372100	2584.768456
603.722363	2584.271902
604.072572	2587.651996
604.422728	2584.506316
604.772830	2584.186202
605.122878	2582.066397
605.472872	2578.731674
605.822813	2578.988773
606.172701	2581.547158
606.522534	2584.443301
606.872314	2585.622931
607.222041	2581.776531
607.571714	2583.987077
607.921333	2585.204515
608.270899	2583.850966
608.620411	2583.853486
608.969870	2583.717375
609.319276	2588.574527
609.668627	2588.824064
610.017926	2590.054105
610.367171	2595.546442
610.716362	2593.633325
611.065500	2590.278437
611.414585	2589.181986
611.763616	2588.609815
612.112594	2589.590319
612.461518	2588.355237
612.810389	2587.362129
613.159207	2585.585122
613.507971	2585.194433
613.856682	2585.779207
614.205340	2585.869948
614.553945	2586.641244
614.902496	2586.361460
615.250994	2586.774835
615.599439	2587.604105
615.947830	2587.036975
616.296169	2586.900864
616.644454	2586.742067
616.992686	2585.612849
617.340864	2585.476738
617.688990	2581.675708
618.037063	2584.917170
618.385082	2587.286512
618.733048	2585.837180
619.080961	2583.603949
619.428821	2586.492530
619.776628	2588.831626
620.124382	2586.908425
620.472083	2585.161666
620.819731	2586.109403
621.167326	2581.892477
621.514868	2584.634865
621.862357	2582.812488
622.209793	2584.801223
622.557176	2584.435739
622.904506	2580.760738
623.251783	2578.666139
623.599007	2578.887950
623.946179	2576.715212
624.293297	2579.840728
624.640363	2581.395924
624.987376	2582.631006
625.334336	2581.151428
625.681243	2579.790316
626.028097	2579.366859
626.374899	2581.264854
626.721647	2577.756211
627.068343	2581.133784
627.414987	2581.065728
627.761577	2579.263516
628.108115	2579.084555
628.454600	2578.817373
628.801032	2578.620768
629.147412	2581.073290
629.493739	2578.348546
629.840014	2577.360480
630.186236	2579.439956
630.532405	2578.101530
630.878521	2578.136818
631.224585	2576.223700
631.570597	2577.499112
631.916556	2577.965418
632.262462	2577.373083
632.608316	2576.959708
632.954117	2575.974163
633.299866	2577.731005
633.645562	2576.203535
633.991206	2577.791499
634.336797	2575.633885
634.682336	2574.056004
635.027823	2573.319995
635.373257	2575.328895
635.718639	2573.234296
636.063968	2573.806467
636.409245	2571.666497
636.754470	2571.676579
637.099642	2574.013154
637.444762	2573.372927
637.789829	2571.986610
638.134845	2572.909141
638.479808	2571.966445
638.824719	2569.859243
639.169577	2571.066599
639.514383	2569.420663
639.859137	2569.627350
640.203839	2573.120870
640.548489	2572.062227
640.893086	2568.714901
641.237632	2564.666855
641.582125	2566.085939
641.926566	2566.022925
642.270955	2567.908317
642.615292	2567.333625
642.959576	2570.386044
643.303809	2569.133317
643.647990	2572.750345
643.992118	2568.853533
644.336195	2571.482495
