Dividing Wavelength (nm)	Counts (n)	Blue Motor Position (mm): 0.000000	Red Motor Position (mm): 42.100000	
326.493990	2126.152005
326.888308	2126.152005
327.282561	2126.152005
327.676750	2094.483477
328.070874	2092.091449
328.464933	2096.031111
328.858929	2104.268356
329.252859	2112.634151
329.646726	2126.928343
330.040528	2136.294807
330.434265	2153.122178
330.827938	2170.274704
331.221547	2187.238187
331.615091	2207.445652
332.008571	2227.310319
332.401986	2249.456108
332.795338	2267.412698
333.188625	2286.543876
333.581847	2304.611372
333.975006	2322.003353
334.368100	2337.421722
334.761129	2359.360823
335.154095	2374.615355
335.546996	2398.477656
335.939833	2416.106571
336.332606	2431.141813
336.725315	2444.107660
337.117960	2454.308435
337.510540	2466.883593
337.903056	2472.655715
338.295508	2482.722899
338.687896	2490.662716
339.080220	2500.329129
339.472480	2505.314830
339.864676	2512.316993
340.256807	2514.270440
340.648875	2520.077849
341.040879	2518.152128
341.432818	2521.406193
341.824694	2524.372912
342.216506	2522.714372
342.608253	2525.179497
342.999937	2523.251255
343.391557	2524.269568
343.783113	2523.583971
344.174605	2521.900226
344.566033	2520.831501
344.957397	2519.649351
345.348697	2518.648682
345.739934	2515.858403
346.131106	2511.901097
346.522215	2509.163751
346.913260	2509.786333
347.304241	2507.636281
347.695159	2506.469254
348.086012	2504.236023
348.476802	2504.956908
348.867528	2501.614623
349.258191	2501.992709
349.648789	2497.213696
350.039324	2500.092194
350.429796	2495.618170
350.820203	2492.094404
351.210548	2492.469970
351.600828	2493.911740
351.991045	2492.112048
352.381198	2496.175218
352.771288	2491.852428
353.161314	2493.142964
353.551276	2492.762357
353.941175	2488.540390
354.331010	2490.519043
354.720782	2492.628766
355.110490	2492.026348
355.500135	2490.690443
355.889717	2492.291009
356.279235	2492.686739
356.668689	2495.577841
357.058080	2493.906699
357.447408	2490.698004
357.836672	2488.605925
358.225873	2491.807058
358.615010	2489.558703
359.004084	2495.020794
359.393095	2494.521719
359.782043	2497.296875
360.170927	2498.771412
360.559748	2497.657317
360.948505	2499.056237
361.337199	2498.968017
361.725830	2502.370796
362.114398	2499.877945
362.502903	2499.691423
362.891344	2502.940446
363.279722	2502.733759
363.668037	2504.533451
364.056289	2503.951198
364.444478	2506.154182
364.832603	2503.467247
365.220665	2508.067300
365.608665	2505.990344
365.996601	2506.630571
366.384474	2511.084430
366.772284	2510.587877
367.160031	2511.860768
367.547715	2513.627693
367.935336	2516.223887
368.322893	2517.350585
368.710388	2523.742768
369.097820	2529.162008
369.485189	2530.291227
369.872495	2538.180632
370.259738	2546.538865
370.646918	2549.482899
371.034035	2555.237376
371.421090	2568.674572
371.808081	2578.708989
372.195010	2589.391194
372.581875	2602.558687
372.968678	2610.155706
373.355418	2623.015690
373.742096	2646.396561
374.128710	2657.270330
374.515262	2671.607372
374.901751	2688.016327
375.288177	2699.174922
375.674540	2720.975391
376.060841	2741.744945
376.447079	2760.182965
376.833254	2780.584515
377.219367	2793.396607
377.605417	2831.497648
377.991404	2842.252950
378.377329	2861.081660
378.763191	2879.169320
379.148991	2918.727254
379.534727	2940.189966
379.920402	2969.864718
380.306013	2981.895432
380.691563	3033.912578
381.077049	3055.627348
381.462474	3070.778536
381.847835	3111.163220
382.233134	3131.388329
382.618371	3132.739358
383.003545	3201.586396
383.388657	3209.990000
383.773706	3242.971749
384.158693	3258.117895
384.543618	3284.205867
384.928480	3317.835404
385.313280	3365.577651
385.698017	3362.429451
386.082692	3416.150507
386.467305	3420.377514
386.851856	3452.875312
387.236344	3475.197542
387.620770	3510.321781
388.005133	3529.883979
388.389435	3562.890933
388.773674	3573.555494
389.157851	3613.738532
389.541965	3630.646562
389.926018	3595.877724
390.310008	3667.872962
390.693936	3688.367773
391.077802	3725.337075
391.461606	3714.896845
391.845348	3776.716515
392.229027	3777.802884
392.612645	3791.350985
392.996200	3873.405846
393.379694	3907.254673
393.763125	3970.274137
394.146494	3942.877987
394.529801	3999.840505
394.913047	4048.084347
395.296230	4016.551930
395.679351	4072.188624
396.062410	4094.258796
396.445408	4073.806835
396.828343	4110.579531
397.211217	4132.024600
397.594028	4052.598700
397.976778	4119.073876
398.359466	4144.130931
398.742092	4177.863812
399.124656	4097.807768
399.507158	4176.956404
399.889598	4199.689487
400.271977	4264.349847
400.654294	4232.721648
401.036549	4241.450406
401.418742	4217.580542
401.800874	4314.617713
402.182944	4332.113037
402.564952	4400.206423
402.946898	4388.475658
403.328783	4382.970718
403.710606	4299.945434
404.092367	4489.563395
404.474067	4453.468734
404.855705	4462.704127
405.237282	4393.418509
405.618797	4502.756095
406.000250	4535.253893
406.381642	4616.073672
406.762972	4575.600768
407.144240	4588.364969
407.525447	4585.854475
407.906593	4649.725894
408.287677	4693.084858
408.668700	4619.171461
409.049661	4668.622659
409.430560	4711.835430
409.811399	4636.886075
410.192176	4800.748781
410.572891	4738.213267
410.953545	4842.759237
411.334138	4720.521338
411.714669	4787.203201
412.095139	4685.296276
412.475547	4824.830373
412.855894	4806.757836
413.236180	4816.570442
413.616405	4767.988843
413.996568	4854.127038
414.376670	4794.951454
414.756711	4751.461420
415.136691	4784.559115
415.516609	4863.606928
415.896466	4898.320314
416.276262	4935.208957
416.655997	4917.827058
417.035670	5101.153659
417.415283	5187.485939
417.794834	5129.220283
418.174324	5087.159416
418.553753	4991.823635
418.933121	5181.189538
419.312428	5244.793776
419.691674	5184.027708
420.070859	5310.185103
420.449983	5220.026588
420.829045	5335.307694
421.208047	5240.118106
421.586988	5313.998736
421.965867	5327.287218
422.344686	5465.253516
422.723444	5316.967976
423.102141	5136.782014
423.480777	5428.374955
423.859352	5199.365418
424.237866	5455.652639
424.616319	5452.774140
424.994712	5562.280604
425.373044	5436.276964
425.751314	5581.346248
426.129524	5383.198655
426.507673	5576.484055
426.885762	5659.779040
427.263789	5593.472744
427.641756	5474.408252
428.019662	5594.037353
428.397508	5601.662098
428.775292	5551.505138
429.153016	5650.180683
429.530679	5573.398869
429.908282	5660.136962
430.285824	5534.879413
430.663305	5801.700124
431.040726	5541.387542
431.418086	5539.512233
431.795385	5647.309746
432.172624	5660.230224
432.549802	5651.342669
432.926920	5665.969577
433.303977	5668.921173
433.680974	5710.934149
434.057910	5730.745884
434.434786	5736.288632
434.811601	5706.432399
435.188355	5939.207678
435.565050	5810.743954
435.941683	5790.453310
436.318257	6010.396332
436.694770	5991.136603
437.071222	6028.325195
437.447614	5958.396830
437.823946	5873.042533
438.200218	6024.506521
438.576429	5888.269338
438.952580	5985.268700
439.328670	6030.898704
439.704700	5940.662050
440.080670	5925.054638
440.456580	6198.922883
440.832429	6081.711014
441.208218	5929.321975
441.583947	6078.870324
441.959616	6085.817034
442.335224	6013.231981
442.710773	6151.263814
443.086261	6180.258010
443.461689	5975.254448
443.837057	6120.916068
444.212365	6279.251148
444.587612	6166.740156
444.962800	6319.862684
445.337927	6303.887267
445.712995	5911.927473
446.088002	6489.119424
446.462949	6319.008208
446.837837	6250.496407
447.212664	6423.034938
447.587431	6568.673873
447.962139	7104.432580
448.336786	8036.065537
448.711374	7780.226980
449.085901	6851.152408
449.460369	6771.844976
449.834776	6708.704524
450.209124	7094.105777
450.583412	7241.420895
450.957640	7391.574183
451.331808	7162.294944
451.705917	6708.129833
452.079965	6633.926568
452.453954	6845.776018
452.827883	6721.912347
453.201752	6814.306615
453.575562	6611.412775
453.949311	6819.504044
454.323001	6709.806016
454.696632	6780.687160
455.070202	6920.480877
455.443713	7076.650782
455.817164	7172.878847
456.190556	7254.704335
456.563888	7331.660069
456.937160	7373.456276
457.310373	7032.407095
457.683526	7053.637914
458.056619	6946.064732
458.429653	6932.151148
458.802628	6873.126798
459.175542	6979.583364
459.548398	7335.713157
459.921194	7491.449523
460.293930	7493.773495
460.666607	8023.828137
461.039224	8337.413112
461.411782	8460.066905
461.784280	8477.758835
462.156719	8373.255715
462.529099	8249.714679
462.901419	7840.670414
463.273680	7730.425421
463.645882	7742.118377
464.018024	7603.879857
464.390106	7777.103985
464.762130	8163.420207
465.134094	8628.766598
465.505999	9652.128391
465.877845	10876.649866
466.249631	11517.536795
466.621358	11138.900771
466.993026	10510.112611
467.364634	10254.770607
467.736184	9892.616635
468.107674	9562.756295
468.479105	9591.574051
468.850477	9359.761632
469.221790	9130.681519
469.593043	8806.467271
469.964238	8668.168257
470.335373	8678.452210
470.706449	8730.537412
471.077467	8713.611738
471.448425	10021.675214
471.819324	11094.342012
472.190164	11114.546957
472.560945	9873.616526
472.931667	9084.917924
473.302330	8948.471534
473.672934	8590.108510
474.043479	8951.556720
474.413965	8894.266527
474.784393	8771.335470
475.154761	8932.496117
475.525070	9021.011217
475.895321	8840.258125
476.265513	9020.960806
476.635645	9188.962299
477.005719	9183.767390
477.375734	9302.494124
477.745691	9541.071771
478.115588	9673.593624
478.485427	9918.134956
478.855207	10453.346698
479.224928	11266.855338
479.594591	11893.072510
479.964194	11712.659696
480.333739	11651.870942
480.703226	11563.817108
481.072653	11655.077116
481.442022	11891.247612
481.811333	12084.074267
482.180584	11887.602858
482.549777	11603.765732
482.918912	11424.809811
483.287988	11444.472832
483.657005	11457.095881
484.025964	11145.517285
484.394864	11275.939497
484.763706	11239.136553
485.132489	10996.394913
485.501213	10965.422064
485.869879	11037.601305
486.238487	10877.501821
486.607036	10990.194294
486.975527	10770.468042
487.343959	10957.406630
487.712333	11010.681543
488.080648	10936.690008
488.448905	10981.304219
488.817104	10919.403891
489.185244	11186.217041
489.553326	11337.305463
489.921350	11876.126671
490.289315	12937.907097
490.657222	13281.570117
491.025070	13193.221375
491.392861	13057.130386
491.760593	12685.688088
492.128267	12336.245386
492.495883	12005.550734
492.863440	11670.250989
493.230939	11338.638848
493.598380	11265.569844
493.965763	11135.681994
494.333088	11039.529546
494.700354	10960.169182
495.067563	11021.633450
495.434713	10851.428973
495.801805	10974.481018
496.168839	10904.489638
496.535815	10836.602939
496.902733	10832.786786
497.269593	10770.415110
497.636395	10863.313493
498.003139	10857.130518
498.369825	10722.912317
498.736453	10875.187931
499.103023	10804.989864
499.469535	10836.040851
499.835989	10824.574746
500.202385	10783.133941
500.568723	10630.583585
500.935003	10862.317865
501.301226	10670.466673
501.667390	10926.741291
502.033497	11026.213338
502.399546	10881.585155
502.765537	10791.298090
503.131470	10865.544204
503.497345	11038.992663
503.863163	10646.190997
504.228923	10965.167486
504.594625	11022.588749
504.960269	10773.316294
505.325856	10994.474234
505.691385	10785.016812
506.056856	10945.499424
506.422270	10964.076076
506.787625	10859.504901
507.152924	10974.002108
507.518164	10953.706423
507.883347	10875.145081
508.248472	10796.974429
508.613540	11024.297700
508.978550	10908.512478
509.343503	10886.217976
509.708398	11003.301294
510.073236	11114.461257
510.438016	11121.097936
510.802738	11068.808568
511.167403	11117.057451
511.532010	11014.399394
511.896561	11249.302040
512.261053	11322.310551
512.625488	11192.374810
512.989866	11171.426296
513.354186	11160.466827
513.718449	11068.339741
514.082655	11251.923440
514.446803	11145.250104
514.810894	11278.255907
515.174927	11138.837757
515.538904	11166.387662
515.902822	11316.137658
516.266684	11199.903774
516.630488	11144.020063
516.994235	11203.888806
517.357925	11271.052098
517.721558	11345.792245
518.085133	11373.183355
518.448651	11378.975641
518.812112	11257.826631
519.175516	11278.538212
519.538863	11395.435008
519.902152	11314.012812
520.265385	11469.827315
520.628560	11373.863911
520.991678	11362.957374
521.354739	11418.538616
521.717743	11353.336332
522.080690	11328.627117
522.443580	11466.273302
522.806413	11422.727815
523.169189	11451.603544
523.531908	11507.043633
523.894569	11324.843731
524.257174	11334.744557
524.619722	11449.443410
524.982213	11397.617827
525.344647	11449.571959
525.707025	11399.878785
526.069345	11497.548620
526.431608	11408.768860
526.793815	11523.424863
527.155964	11312.926443
527.518057	11361.596263
527.880093	11312.150105
528.242072	11378.224509
528.603995	11292.426591
528.965860	11209.852491
529.327669	11258.081210
529.689421	11212.988088
530.051117	11176.343941
530.412755	11280.761361
530.774337	11172.406800
531.135862	11152.063224
531.497331	11174.319918
531.858743	11025.074038
532.220098	11196.090141
532.581396	11062.560058
532.942638	11048.444827
533.303824	11005.131233
533.664953	11026.767865
534.026025	10936.974833
534.387040	11039.708507
534.747999	11034.503516
535.108902	11099.476427
535.469748	10856.717143
535.830537	10959.644902
536.191270	10932.750346
536.551947	10961.096754
536.912567	10955.291866
537.273131	10883.505835
537.633638	10861.070180
537.994089	10839.761222
538.354483	10789.571495
538.714821	10944.607140
539.075103	10950.013778
539.435328	10917.301730
539.795497	10745.279917
540.155609	10901.235573
540.515665	10989.344860
540.875665	10727.409027
541.235609	10791.230034
541.595496	10785.906576
541.955328	10943.760226
542.315102	10828.700931
542.674821	10776.129258
543.034483	10776.998857
543.394090	10782.773499
543.753640	10709.197858
544.113134	10934.071128
544.472571	10792.810436
544.831953	10927.736919
545.191278	10737.650131
545.550548	10763.831363
545.909761	10905.641541
546.268918	10874.971161
546.628019	10956.504263
546.987064	10822.291104
547.346053	10743.366799
547.704986	10848.326143
548.063863	10823.493419
548.422684	10822.888480
548.781449	10736.256252
549.140158	10836.749133
549.498811	10715.040556
549.857408	10569.031096
550.215949	10803.439709
550.574434	10647.484053
550.932864	10749.448951
551.291237	10808.236367
551.649555	10760.710889
552.007817	10771.020048
552.366022	10725.367359
552.724173	10721.662111
553.082267	10706.405059
553.440305	10843.383291
553.798288	10646.679989
554.156215	10806.741665
554.514086	10780.159660
554.871902	10625.613007
555.229661	10664.218163
555.587365	10644.925667
555.945014	10539.532784
556.302606	10660.379324
556.660143	10550.121728
557.017625	10712.923271
557.375050	10610.940729
557.732421	10749.872408
558.089735	10657.152986
558.446994	10660.331433
558.804197	10687.276401
559.161345	10690.051556
559.518437	10542.280213
559.875474	10631.924532
560.232455	10659.416464
560.589381	10614.381316
560.946251	10609.851839
561.303065	10714.264218
561.659825	10655.985959
562.016528	10579.373023
562.373177	10467.923194
562.729770	10577.853115
563.086307	10486.935906
563.442789	10582.042314
563.799216	10457.291401
564.155587	10507.466005
564.511904	10462.113264
564.868164	10455.695875
565.224370	10460.031268
565.580520	10389.964270
565.936615	10395.076000
566.292654	10268.041444
566.648638	10400.701928
567.004567	10353.204177
567.360441	10338.884779
567.716260	10253.449824
568.072023	10344.215799
568.427732	10287.827973
568.783385	10199.925373
569.138982	10273.649728
569.494525	10289.131111
569.850013	10170.850518
570.205445	10246.195604
570.560823	10144.283638
570.916145	10064.696421
571.271412	10134.773501
571.626625	10077.137989
571.981782	10052.199401
572.336884	10025.559423
572.691931	10035.699704
573.046923	9985.630964
573.401860	9939.350652
573.756743	9870.352379
574.111570	9916.652856
574.466342	9898.754240
574.821059	9927.191388
575.175722	9818.736005
575.530330	9832.513478
575.884882	9816.089399
576.239380	9746.057690
576.593823	9724.473989
576.948211	9742.417977
577.302544	9625.259041
577.656823	9640.004416
578.011047	9637.874528
578.365216	9611.721022
578.719330	9533.666316
579.073389	9546.914469
579.427394	9492.661571
579.781344	9471.425710
580.135239	9420.411754
580.489080	9431.081356
580.842866	9327.949431
581.196597	9334.034103
581.550273	9377.551864
581.903895	9345.119601
582.257463	9404.191842
582.610975	9282.458058
582.964434	9311.477461
583.317837	9232.570800
583.671186	9217.462462
584.024481	9213.888284
584.377721	9130.303432
584.730906	9109.168395
585.084037	9136.947673
585.437113	9078.321575
585.790135	9097.059543
586.143103	8995.956682
586.496016	8964.406621
586.848874	9018.490640
587.201679	9016.937965
587.554428	8899.927743
587.907124	8937.713712
588.259765	8910.136079
588.612352	8918.925331
588.964884	8794.018142
589.317362	8809.388620
589.669786	8805.580028
590.022155	8849.680042
590.374470	8874.686686
590.726731	8807.664545
591.078937	8659.376484
591.431090	8773.755224
591.783188	8645.520873
592.135232	8633.044017
592.487222	8634.382443
592.839157	8689.227677
593.191038	8614.648847
593.542866	8559.622132
593.894639	8457.831153
594.246358	8507.320161
594.598022	8528.157770
594.949633	8426.364271
595.301190	8401.418121
595.652692	8426.563397
596.004141	8529.108028
596.355535	8316.459556
596.706876	8299.496073
597.058162	8226.956390
597.409395	8302.881208
597.760573	8363.584262
598.111698	8273.632433
598.462768	8254.226511
598.813785	8218.104123
599.164748	8194.241822
599.515657	8178.213473
599.866511	8089.758867
600.217312	8210.189512
600.568060	8073.609531
600.918753	8173.000920
601.269392	8139.240313
601.619978	8046.268833
601.970510	8113.855583
602.320988	8107.786033
602.671412	8162.812748
603.021783	8101.953418
603.372100	8071.391423
603.722363	8076.034326
604.072572	8050.697487
604.422728	8053.933907
604.772830	7982.137794
605.122878	7991.118610
605.472872	7981.396745
605.822813	8012.117536
606.172701	7957.438661
606.522534	8028.281996
606.872314	8024.576748
607.222041	7989.833116
607.571714	8046.949389
607.921333	8004.649067
608.270899	8004.444900
608.620411	8089.884896
608.969870	8000.860640
609.319276	7990.180955
609.668627	8000.550609
610.017926	8033.076133
610.367171	8070.547030
610.716362	8050.198412
611.065500	8035.092595
611.414585	8062.024959
611.763616	8048.991056
612.112594	8024.634721
612.461518	8033.063530
612.810389	8092.223991
613.159207	8030.613530
613.507971	7976.068245
613.856682	8087.054288
614.205340	8041.298255
614.553945	8114.687373
614.902496	8010.469079
615.250994	8061.515803
615.599439	8037.524952
615.947830	8044.544758
616.296169	8009.793564
616.644454	8024.228908
616.992686	8013.077876
617.340864	8062.483704
617.688990	7963.256152
618.037063	8050.571458
618.385082	7990.644741
618.733048	8065.311792
619.080961	8000.318716
619.428821	8016.848659
619.776628	8006.055549
620.124382	7958.207437
620.472083	7934.120804
620.819731	7956.750543
621.167326	7853.250614
621.514868	7850.500664
621.862357	7743.219869
622.209793	7757.713187
622.557176	7683.293153
622.904506	7647.604304
623.251783	7584.912515
623.599007	7531.753548
623.946179	7535.799074
624.293297	7488.253431
624.640363	7398.735142
624.987376	7385.542442
625.334336	7327.871642
625.681243	7273.772500
626.028097	7256.708194
626.374899	7228.986889
626.721647	7214.372584
627.068343	7147.453787
627.414987	7107.202694
627.761577	7056.937349
628.108115	7086.050013
628.454600	6980.871379
628.801032	7018.516195
629.147412	6982.076215
629.493739	6952.651000
629.840014	6891.320322
630.186236	6940.310255
630.532405	6817.328787
630.878521	6855.540733
631.224585	6803.689945
631.570597	6731.127576
631.916556	6753.059116
632.262462	6735.997331
632.608316	6692.187183
632.954117	6663.198028
633.299866	6648.659341
633.645562	6626.448017
633.991206	6550.104783
634.336797	6490.137737
634.682336	6444.280881
635.027823	6408.677732
635.373257	6395.621144
635.718639	6326.937943
636.063968	6333.120918
636.409245	6233.681638
636.754470	6218.328804
637.099642	6180.252969
637.444762	6120.351459
637.789829	6118.297188
638.134845	6059.444238
638.479808	6036.970774
638.824719	6037.568151
639.169577	5965.658612
639.514383	5977.099510
639.859137	5903.458335
640.203839	5910.614253
640.548489	5885.433689
