Dividing Wavelength (nm)	Counts (n)	Blue Motor Position (mm): 0.000000	Red Motor Position (mm): 24.700000	
326.493990	2129.501852
326.888308	2129.501852
327.282561	2129.501852
327.676750	2093.654207
328.070874	2092.421645
328.464933	2095.915164
328.858929	2102.904724
329.252859	2110.695827
329.646726	2126.797273
330.040528	2136.231792
330.434265	2154.223670
330.827938	2170.741011
331.221547	2189.680626
331.615091	2206.427339
332.008571	2228.626060
332.401986	2247.353946
332.795338	2269.068717
333.188625	2287.607560
333.581847	2305.957360
333.975006	2322.615853
334.368100	2341.505056
334.761129	2358.466018
335.154095	2376.120139
335.546996	2391.936759
335.939833	2409.719429
336.332606	2424.800041
336.725315	2439.711774
337.117960	2447.616303
337.510540	2453.821964
337.903056	2465.335959
338.295508	2471.642443
338.687896	2484.900677
339.080220	2490.085504
339.472480	2497.150681
339.864676	2499.346104
340.256807	2503.948677
340.648875	2508.823473
341.040879	2512.659791
341.432818	2513.247085
341.824694	2513.967970
342.216506	2512.264060
342.608253	2515.566016
342.999937	2516.662467
343.391557	2515.097189
343.783113	2512.543844
344.174605	2513.741118
344.566033	2509.677948
344.957397	2510.386231
345.348697	2508.412619
345.739934	2507.875736
346.131106	2506.159223
346.522215	2504.067144
346.913260	2500.891217
347.304241	2499.580517
347.695159	2498.131186
348.086012	2495.955928
348.476802	2494.264621
348.867528	2495.603047
349.258191	2489.470483
349.648789	2492.487614
350.039324	2487.111223
350.429796	2488.805051
350.820203	2486.536532
351.210548	2484.976295
351.600828	2483.300111
351.991045	2484.290698
352.381198	2484.998980
352.771288	2483.658033
353.161314	2481.754997
353.551276	2484.930924
353.941175	2482.596870
354.331010	2481.621407
354.720782	2483.279946
355.110490	2483.121150
355.500135	2482.246510
355.889717	2482.405306
356.279235	2483.935296
356.668689	2485.455204
357.058080	2484.434371
357.447408	2480.774493
357.836672	2481.187867
358.225873	2482.866572
358.615010	2481.213073
359.004084	2485.717344
359.393095	2486.541573
359.782043	2486.597026
360.170927	2487.471666
360.559748	2490.524084
360.948505	2492.112048
361.337199	2490.148518
361.725830	2491.665906
362.114398	2491.108858
362.502903	2493.342089
362.891344	2494.042810
363.279722	2490.584578
363.668037	2496.757471
364.056289	2494.559528
364.444478	2495.928201
364.832603	2496.084477
365.220665	2498.912564
365.608665	2497.097749
365.996601	2497.075064
366.384474	2498.327791
366.772284	2500.719818
367.160031	2500.871053
367.547715	2505.087978
367.935336	2506.123935
368.322893	2508.775582
368.710388	2510.035870
369.097820	2520.486182
369.485189	2522.482479
369.872495	2527.821061
370.259738	2530.399611
370.646918	2544.623227
371.034035	2548.189843
371.421090	2560.727193
371.808081	2569.738255
372.195010	2577.690676
372.581875	2594.568459
372.968678	2605.601024
373.355418	2615.378342
373.742096	2634.474233
374.128710	2647.745070
374.515262	2665.225271
374.901751	2678.370080
375.288177	2690.758715
375.674540	2713.184288
376.060841	2731.307236
376.447079	2752.717017
376.833254	2773.264760
377.219367	2784.640123
377.605417	2821.528767
377.991404	2831.328770
378.377329	2852.662933
378.763191	2869.432331
379.148991	2906.865419
379.534727	2931.952721
379.920402	2960.568831
380.306013	2973.232209
380.691563	3022.479241
381.077049	3045.023281
381.462474	3062.455591
381.847835	3102.245418
382.233134	3123.009931
382.618371	3124.113944
383.003545	3192.713965
383.388657	3200.515151
383.773706	3229.406004
384.158693	3245.210021
384.543618	3274.955349
384.928480	3307.266625
385.313280	3356.203626
385.698017	3352.979808
386.082692	3406.257242
386.467305	3414.186977
386.851856	3443.312244
387.236344	3465.931901
387.620770	3497.209740
388.005133	3522.387783
388.389435	3549.312586
388.773674	3561.721386
389.157851	3604.644290
389.541965	3618.605766
389.926018	3586.110488
390.310008	3659.227383
390.693936	3671.971420
391.077802	3714.644788
391.461606	3704.895196
391.845348	3769.943725
392.229027	3766.354423
392.612645	3781.225827
392.996200	3859.882951
393.379694	3899.498858
393.763125	3958.755101
394.146494	3930.091100
394.529801	3989.128053
394.913047	4038.039848
395.296230	4000.437882
395.679351	4058.716141
396.062410	4082.422167
396.445408	4062.242428
396.828343	4098.740382
397.211217	4120.336685
397.594028	4041.346845
397.976778	4105.125003
398.359466	4137.219509
398.742092	4162.533663
399.124656	4084.090788
399.507158	4162.959640
399.889598	4191.154814
400.271977	4247.557764
400.654294	4220.254874
401.036549	4233.447574
401.418742	4203.621587
401.800874	4301.699756
402.182944	4321.398065
402.564952	4385.924834
402.946898	4372.205334
403.328783	4372.729614
403.710606	4282.860964
404.092367	4474.553360
404.474067	4442.037917
404.855705	4452.246254
405.237282	4377.543916
405.618797	4486.757993
406.000250	4519.192777
406.381642	4599.657154
406.762972	4565.001742
407.144240	4573.604471
407.525447	4573.175973
407.906593	4634.519253
408.287677	4677.810162
408.668700	4605.656127
409.049661	4657.504394
409.430560	4696.165003
409.811399	4622.191112
410.192176	4784.241523
410.572891	4727.001741
410.953545	4829.228780
411.334138	4708.719997
411.714669	4773.561838
412.095139	4668.025282
412.475547	4812.620698
412.855894	4791.311741
413.236180	4798.192916
413.616405	4754.753293
413.996568	4845.814176
414.376670	4778.398825
414.756711	4736.113627
415.136691	4770.574955
415.516609	4849.153940
415.896466	4883.295155
416.276262	4915.951749
416.655997	4902.537239
417.035670	5083.076082
417.415283	5174.767108
417.794834	5116.791318
418.174324	5069.505295
418.553753	4975.686902
418.933121	5161.249254
419.312428	5228.233586
419.691674	5165.201519
420.070859	5292.672135
420.449983	5203.834401
420.829045	5317.330939
421.208047	5223.925920
421.586988	5298.227487
421.965867	5304.917098
422.344686	5436.166059
422.723444	5296.626920
423.102141	5115.014312
423.480777	5410.902316
423.859352	5183.347152
424.237866	5439.243683
424.616319	5431.939051
424.994712	5536.928642
425.373044	5416.603861
425.751314	5563.182971
426.129524	5361.640161
426.507673	5555.316250
426.885762	5635.793230
427.263789	5573.635803
427.641756	5451.264314
428.019662	5570.195216
428.397508	5572.577161
428.775292	5521.868195
429.153016	5621.292351
429.530679	5546.771495
429.908282	5632.166120
430.285824	5502.285832
430.663305	5771.160814
431.040726	5503.626779
431.418086	5502.245503
431.795385	5602.549341
432.172624	5614.141475
432.549802	5604.550679
432.926920	5616.898986
433.303977	5616.304130
433.680974	5652.711343
434.057910	5661.288866
434.434786	5664.863044
434.811601	5629.597652
435.188355	5851.405901
435.565050	5721.139965
435.941683	5694.066448
436.318257	5885.106014
436.694770	5866.647830
437.071222	5886.457044
437.447614	5810.665816
437.823946	5717.636363
438.200218	5853.624009
438.576429	5705.577923
438.952580	5784.686230
439.328670	5813.292257
439.704700	5709.298295
440.080670	5683.341393
440.456580	5917.324029
440.832429	5789.220748
441.208218	5628.314679
441.583947	5752.490901
441.959616	5735.282922
442.335224	5647.965096
442.710773	5749.181383
443.086261	5748.432772
443.461689	5545.677564
443.837057	5645.404190
444.212365	5749.136013
444.587612	5633.413806
444.962800	5738.289970
445.337927	5689.995717
445.712995	5329.278474
446.088002	5772.640393
446.462949	5603.338282
446.837837	5509.638355
447.212664	5617.400581
447.587431	5685.098236
447.962139	6055.731428
448.336786	6708.417178
448.711374	6475.697352
449.085901	5739.847687
449.460369	5629.781654
449.834776	5529.503022
450.209124	5754.187249
450.583412	5796.394310
450.957640	5861.231110
451.331808	5644.209437
451.705917	5281.402636
452.079965	5182.951422
452.453954	5270.034834
452.827883	5139.632787
453.201752	5146.657634
453.575562	4974.290502
453.949311	5034.875089
454.323001	4919.455351
454.696632	4910.855143
455.070202	4925.487092
455.443713	4957.866423
455.817164	4949.205721
456.190556	4928.816774
456.563888	4911.021501
456.937160	4870.188155
457.310373	4647.117097
457.683526	4596.745888
458.056619	4489.853262
458.429653	4428.736833
458.802628	4346.646684
459.175542	4340.665355
459.548398	4420.582767
459.921194	4431.701031
460.293930	4380.372003
460.666607	4507.588041
461.039224	4562.080393
461.411782	4546.059606
461.784280	4479.907065
462.156719	4370.708111
462.529099	4261.310031
462.901419	4069.605033
463.273680	3979.567505
463.645882	3929.002211
464.018024	3830.639217
464.390106	3825.159483
464.762130	3866.708673
465.134094	3936.286678
465.505999	4146.076816
465.877845	4368.316083
466.249631	4430.866720
466.621358	4249.135645
466.993026	4033.026421
467.364634	3906.622008
467.736184	3773.976648
468.107674	3664.944052
468.479105	3608.253756
468.850477	3531.862632
469.221790	3444.539765
469.593043	3349.745908
469.964238	3285.067904
470.335373	3247.697830
470.706449	3218.519632
471.077467	3183.365146
471.448425	3286.159314
471.819324	3354.419057
472.190164	3313.510094
472.560945	3162.172135
472.931667	3057.933676
473.302330	3017.372552
473.672934	2966.046044
474.043479	2963.903554
474.413965	2937.205603
474.784393	2901.816703
475.154761	2890.837070
475.525070	2872.903165
475.895321	2845.665811
476.265513	2836.715242
476.635645	2827.857935
477.005719	2809.558547
477.375734	2798.309212
477.745691	2791.254117
478.115588	2779.223403
478.485427	2772.135541
478.855207	2779.409926
479.224928	2789.111627
479.594591	2794.379632
479.964194	2771.767537
480.333739	2757.347316
480.703226	2739.967938
481.072653	2730.793038
481.442022	2726.523181
481.811333	2722.339023
482.180584	2708.866540
482.549777	2696.142667
482.918912	2687.005576
483.287988	2681.646830
483.657005	2673.381858
484.025964	2662.931546
484.394864	2660.116062
484.763706	2654.729589
485.132489	2647.798002
485.501213	2643.583597
485.869879	2644.700213
486.238487	2635.991620
486.607036	2636.836013
486.975527	2630.532050
487.343959	2633.123203
487.712333	2629.478449
488.080648	2622.136008
488.448905	2623.602984
488.817104	2621.452932
489.185244	2622.710700
489.553326	2621.180710
489.921350	2625.760598
490.289315	2632.467853
490.657222	2637.045221
491.025070	2633.846609
491.392861	2633.027421
491.760593	2625.367388
492.128267	2623.202212
492.495883	2617.382200
492.863440	2614.896912
493.230939	2614.448249
493.598380	2610.070007
493.965763	2601.752103
494.333088	2605.076744
494.700354	2598.505600
495.067563	2602.084819
495.434713	2600.716146
495.801805	2604.010540
496.168839	2601.550457
496.535815	2603.037597
496.902733	2599.450816
497.269593	2598.109869
497.636395	2598.409818
498.003139	2596.468974
498.369825	2596.736155
498.736453	2596.809252
499.103023	2597.116762
499.469535	2596.345465
499.835989	2596.882348
500.202385	2595.133068
500.568723	2593.424117
500.935003	2597.625918
501.301226	2593.242635
501.667390	2594.104673
502.033497	2596.826896
502.399546	2593.366143
502.765537	2592.882193
503.131470	2594.087028
503.497345	2594.460074
503.863163	2594.298757
504.228923	2594.424786
504.594625	2592.178952
504.960269	2591.120309
505.325856	2595.264138
505.691385	2593.572831
506.056856	2592.652820
506.422270	2590.883375
506.787625	2593.030907
507.152924	2589.708786
507.518164	2591.321956
507.883347	2590.636359
508.248472	2589.300453
508.613540	2589.587799
508.978550	2588.725761
509.343503	2590.134764
509.708398	2591.677357
510.073236	2593.081318
510.438016	2593.892944
510.802738	2589.355906
511.167403	2590.540577
511.532010	2591.833633
511.896561	2592.499065
512.261053	2594.354210
512.625488	2587.989753
512.989866	2586.058991
513.354186	2586.820205
513.718449	2585.040678
514.082655	2591.374888
514.446803	2590.255752
514.810894	2592.052923
515.174927	2589.696183
515.538904	2589.696183
515.902822	2592.967892
516.266684	2591.879003
516.630488	2592.176431
516.994235	2592.746082
517.357925	2593.202306
517.721558	2592.829261
518.085133	2591.616863
518.448651	2594.694487
518.812112	2589.048395
519.175516	2590.538056
519.538863	2592.844384
519.902152	2591.669795
520.265385	2593.958479
520.628560	2595.112903
520.991678	2593.333376
521.354739	2592.380598
521.717743	2594.505444
522.080690	2591.533684
522.443580	2594.815475
522.806413	2592.554518
523.169189	2592.393201
523.531908	2592.388160
523.894569	2590.908581
524.257174	2593.754312
524.619722	2592.231884
524.982213	2594.727255
525.344647	2595.158274
525.707025	2592.970413
526.069345	2592.529312
526.431608	2593.235073
526.793815	2594.228181
527.155964	2595.775815
527.518057	2595.281782
527.880093	2594.510485
528.242072	2592.254569
528.603995	2593.638366
528.965860	2591.692480
529.327669	2593.174580
529.689421	2592.652820
530.051117	2592.841863
530.412755	2592.589806
530.774337	2593.189703
531.135862	2591.760536
531.497331	2589.466811
531.858743	2587.848601
532.220098	2592.211719
532.581396	2590.679208
532.942638	2590.913622
533.303824	2591.609301
533.664953	2591.967223
534.026025	2592.494024
534.387040	2594.649117
534.747999	2593.787080
535.108902	2593.189703
535.469748	2591.047213
535.830537	2590.845567
536.191270	2593.333376
536.551947	2592.862028
536.912567	2591.092583
537.273131	2594.719693
537.633638	2589.486976
537.994089	2590.548138
538.354483	2591.203488
538.714821	2593.519899
539.075103	2592.516709
539.435328	2591.488314
539.795497	2591.200968
540.155609	2594.255907
540.515665	2595.899323
540.875665	2592.877152
541.235609	2590.379260
541.595496	2594.039137
541.955328	2593.388829
542.315102	2592.932604
542.674821	2593.386308
543.034483	2597.237750
543.394090	2593.610639
543.753640	2593.721545
544.113134	2592.405804
544.472571	2591.445464
544.831953	2592.418407
545.191278	2591.410176
545.550548	2590.061667
545.909761	2589.247521
546.268918	2591.851277
546.628019	2594.621391
546.987064	2593.439240
547.346053	2591.024527
547.704986	2594.137440
548.063863	2591.223653
548.422684	2592.418407
548.781449	2592.229363
549.140158	2592.826740
549.498811	2593.240115
549.857408	2592.178952
550.215949	2590.459918
550.574434	2588.791296
550.932864	2588.992943
551.291237	2589.587799
551.649555	2592.385639
552.007817	2594.528129
552.366022	2592.526791
552.724173	2592.299939
553.082267	2591.952100
553.440305	2593.192224
553.798288	2591.944538
554.156215	2590.636359
554.514086	2592.531832
554.871902	2591.372367
555.229661	2590.412027
555.587365	2593.214909
555.945014	2592.481421
556.302606	2589.930597
556.660143	2593.353541
557.017625	2593.351020
557.375050	2594.419745
557.732421	2595.312029
558.089735	2593.933273
558.446994	2593.121647
558.804197	2595.483428
559.161345	2592.922522
559.518437	2592.131061
559.875474	2591.445464
560.232455	2594.329004
560.589381	2593.678695
560.946251	2594.722214
561.303065	2594.510485
561.659825	2594.291195
562.016528	2593.628283
562.373177	2593.245156
562.729770	2592.889754
563.086307	2594.271031
563.442789	2593.832450
563.799216	2591.445464
564.155587	2594.371854
564.511904	2591.301791
564.868164	2591.574013
565.224370	2596.040476
565.580520	2591.503437
565.936615	2593.333376
566.292654	2591.437902
566.648638	2592.448653
567.004567	2594.538212
567.360441	2593.625763
567.716260	2588.834146
568.072023	2594.712132
568.427732	2586.716862
568.783385	2588.526636
569.138982	2588.667788
569.494525	2589.673498
569.850013	2587.185689
570.205445	2592.216760
570.560823	2592.241966
570.916145	2591.911771
571.271412	2590.913622
571.626625	2592.320104
571.981782	2589.837336
572.336884	2593.542584
572.691931	2590.510330
573.046923	2591.132912
573.401860	2590.482603
573.756743	2591.173242
574.111570	2589.454208
574.466342	2591.805906
574.821059	2590.598550
575.175722	2589.136615
575.530330	2589.514702
575.884882	2590.031420
576.239380	2588.438416
576.593823	2588.748447
576.948211	2590.734661
577.302544	2588.080494
577.656823	2586.540421
578.011047	2590.774990
578.365216	2588.947572
578.719330	2589.749116
579.073389	2590.328848
579.427394	2587.233580
579.781344	2587.833477
580.135239	2587.853642
580.489080	2587.820874
580.842866	2588.234249
581.196597	2587.619228
581.550273	2588.907243
581.903895	2586.535380
582.257463	2585.776686
582.610975	2588.718200
582.964434	2585.900195
583.317837	2583.926583
583.671186	2587.430185
584.024481	2585.827098
584.377721	2589.202150
584.730906	2586.053950
585.084037	2583.283836
585.437113	2583.908939
585.790135	2586.157293
586.143103	2586.389187
586.496016	2586.512695
586.848874	2578.940882
587.201679	2583.485482
587.554428	2581.806778
587.907124	2583.535893
588.259765	2583.150245
588.612352	2584.793661
588.964884	2584.491192
589.317362	2583.538414
589.669786	2583.122519
590.022155	2581.869792
590.374470	2583.316603
590.726731	2584.670153
591.078937	2582.447004
591.431090	2582.036150
591.783188	2581.048084
592.135232	2585.282653
592.487222	2582.668815
592.839157	2583.427509
593.191038	2584.387848
593.542866	2582.131932
593.894639	2582.351222
594.246358	2582.822570
594.598022	2580.695203
594.949633	2580.884247
595.301190	2582.383990
595.652692	2579.379462
596.004141	2582.242837
596.355535	2582.439443
596.706876	2581.148907
597.058162	2581.196798
597.409395	2577.660429
597.760573	2581.428691
598.111698	2579.255954
598.462768	2581.222004
598.813785	2580.312076
599.164748	2579.951633
599.515657	2580.790985
599.866511	2579.717219
600.217312	2579.742425
600.568060	2581.312745
600.918753	2580.387693
601.269392	2580.790985
601.619978	2578.824935
601.970510	2580.816191
602.320988	2581.932807
602.671412	2580.642271
603.021783	2581.625296
603.372100	2579.528176
603.722363	2580.241499
604.072572	2578.086406
604.422728	2580.919535
604.772830	2576.284194
605.122878	2574.905438
605.472872	2577.327712
605.822813	2572.490725
606.172701	2578.850141
606.522534	2576.879050
606.872314	2580.899370
607.222041	2578.809812
607.571714	2579.402147
607.921333	2579.606314
608.270899	2577.131108
608.620411	2578.923238
608.969870	2581.267374
609.319276	2579.611355
609.668627	2581.922724
610.017926	2587.455391
610.367171	2587.248703
610.716362	2587.319279
611.065500	2582.205029
611.414585	2584.894484
611.763616	2585.824577
612.112594	2582.401634
612.461518	2582.401634
612.810389	2582.260482
613.159207	2580.065059
613.507971	2580.175964
613.856682	2582.575554
614.205340	2579.397106
614.553945	2582.421798
614.902496	2581.539597
615.250994	2578.260326
615.599439	2581.819381
615.947830	2580.803588
616.296169	2580.123032
616.644454	2579.379462
616.992686	2577.612538
617.340864	2580.561613
617.688990	2582.197467
618.037063	2580.874164
618.385082	2577.423494
618.733048	2578.547672
619.080961	2580.067580
619.428821	2581.809298
619.776628	2580.561613
620.124382	2580.468351
620.472083	2579.029102
620.819731	2578.683783
621.167326	2579.288721
621.514868	2579.480285
621.862357	2579.838207
622.209793	2577.030284
622.557176	2577.902404
622.904506	2574.595407
623.251783	2575.800243
623.599007	2573.241857
623.946179	2575.235634
624.293297	2573.120870
624.640363	2577.481468
624.987376	2577.093299
625.334336	2574.310582
625.681243	2574.245047
626.028097	2575.437280
626.374899	2574.058524
626.721647	2574.779409
627.068343	2575.994327
627.414987	2574.358473
627.761577	2573.506518
628.108115	2573.753534
628.454600	2575.296127
628.801032	2573.473750
629.147412	2571.832855
629.493739	2571.830334
629.840014	2573.599779
630.186236	2572.702454
630.532405	2571.079202
630.878521	2572.505849
631.224585	2574.308061
631.570597	2572.914182
631.916556	2572.659604
632.262462	2570.312947
632.608316	2572.140365
632.954117	2567.182390
633.299866	2571.553071
633.645562	2571.016188
633.991206	2569.143399
634.336797	2568.402350
634.682336	2572.105077
635.027823	2571.177505
635.373257	2570.451579
635.718639	2569.846640
636.063968	2568.326732
636.409245	2567.215158
636.754470	2568.644325
637.099642	2567.310940
637.444762	2566.753892
637.789829	2567.230281
638.134845	2567.731876
638.479808	2565.670044
638.824719	2567.210117
639.169577	2565.922102
639.514383	2564.795404
639.859137	2567.351269
640.203839	2568.546023
640.548489	2564.508058
640.893086	2562.413459
641.237632	2560.185269
641.582125	2563.729200
641.926566	2562.383212
642.270955	2567.484860
642.615292	2563.202399
642.959576	2563.459498
643.303809	2566.587534
643.647990	2565.808676
643.992118	2565.912020
644.336195	2565.964952
