Dividing Wavelength (nm)	Counts (n)	Blue Motor Position (mm): 0.000000	Red Motor Position (mm): 25.900000	
326.493990	2126.346089
326.888308	2126.346089
327.282561	2126.346089
327.676750	2094.874166
328.070874	2092.164546
328.464933	2097.500607
328.858929	2103.333222
329.252859	2113.216404
329.646726	2122.789555
330.040528	2135.069806
330.434265	2152.691159
330.827938	2171.575322
331.221547	2187.316325
331.615091	2208.579912
332.008571	2227.678323
332.401986	2245.965108
332.795338	2266.442275
333.188625	2286.473300
333.581847	2306.000210
333.975006	2321.700883
334.368100	2341.736949
334.761129	2357.843436
335.154095	2375.147196
335.546996	2393.522202
335.939833	2409.038874
336.332606	2424.215267
336.725315	2437.473502
337.117960	2445.801488
337.510540	2455.117540
337.903056	2465.169601
338.295508	2473.681589
338.687896	2481.576036
339.080220	2491.698673
339.472480	2496.482728
339.864676	2499.787205
340.256807	2505.652587
340.648875	2508.417660
341.040879	2509.249450
341.432818	2513.494102
341.824694	2513.030316
342.216506	2513.741118
342.608253	2516.803619
342.999937	2511.021416
343.391557	2514.386386
343.783113	2511.306241
344.174605	2507.805160
344.566033	2507.714419
344.957397	2508.405057
345.348697	2507.079234
345.739934	2505.849192
346.131106	2505.876918
346.522215	2501.339880
346.913260	2500.626557
347.304241	2501.387771
347.695159	2495.161946
348.086012	2498.158912
348.476802	2492.021307
348.867528	2493.248828
349.258191	2488.951244
349.648789	2491.101297
350.039324	2488.356388
350.429796	2488.278250
350.820203	2485.898826
351.210548	2488.598364
351.600828	2484.031078
351.991045	2484.517550
352.381198	2483.587457
352.771288	2485.082159
353.161314	2481.893629
353.551276	2480.638382
353.941175	2483.257261
354.331010	2482.158290
354.720782	2485.180461
355.110490	2479.947744
355.500135	2484.436891
355.889717	2479.736015
356.279235	2481.097127
356.668689	2486.783548
357.058080	2485.556027
357.447408	2483.209370
357.836672	2481.107209
358.225873	2483.652992
358.615010	2480.351036
359.004084	2485.462766
359.393095	2484.981336
359.782043	2486.322283
360.170927	2487.781697
360.559748	2491.086173
360.948505	2488.726913
361.337199	2491.920484
361.725830	2490.640031
362.114398	2490.642552
362.502903	2491.040803
362.891344	2491.381081
363.279722	2490.798827
363.668037	2492.147336
364.056289	2493.460557
364.444478	2496.354179
364.832603	2495.834940
365.220665	2494.617501
365.608665	2495.222440
365.996601	2501.929695
366.384474	2498.738645
366.772284	2498.378202
367.160031	2499.207472
367.547715	2502.912720
367.935336	2504.125118
368.322893	2507.416991
368.710388	2509.304903
369.097820	2520.224042
369.485189	2521.348220
369.872495	2528.385670
370.259738	2532.945394
370.646918	2542.793288
371.034035	2548.562889
371.421090	2559.958417
371.808081	2568.462843
372.195010	2579.187898
372.581875	2592.178952
372.968678	2604.633122
373.355418	2614.838938
373.742096	2633.294602
374.128710	2649.169196
374.515262	2661.608243
374.901751	2679.900070
375.288177	2691.572862
375.674540	2714.651264
376.060841	2734.140365
376.447079	2754.819178
376.833254	2772.319543
377.219367	2783.483178
377.605417	2825.821309
377.991404	2831.689212
378.377329	2855.264168
378.763191	2868.978627
379.148991	2907.283835
379.534727	2928.570107
379.920402	2959.855508
380.306013	2975.112560
380.691563	3025.120806
381.077049	3047.148127
381.462474	3064.562793
381.847835	3098.948504
382.233134	3125.091928
382.618371	3124.121506
383.003545	3193.079449
383.388657	3199.680840
383.773706	3230.217629
384.158693	3244.718508
384.543618	3276.112294
384.928480	3311.286945
385.313280	3357.380735
385.698017	3352.528625
386.082692	3407.373858
386.467305	3407.361255
386.851856	3446.893983
387.236344	3467.043475
387.620770	3501.895492
388.005133	3528.154863
388.389435	3551.593708
388.773674	3563.747930
389.157851	3606.746451
389.541965	3618.399078
389.926018	3586.498657
390.310008	3659.686128
390.693936	3675.079292
391.077802	3719.708627
391.461606	3705.542984
391.845348	3769.956328
392.229027	3767.057664
392.612645	3774.269035
392.996200	3861.002087
393.379694	3899.879465
393.763125	3962.702324
394.146494	3930.817026
394.529801	3992.465297
394.913047	4044.031259
395.296230	4006.215044
395.679351	4061.463569
396.062410	4085.978701
396.445408	4065.113365
396.828343	4105.732462
397.211217	4123.852889
397.594028	4042.828944
397.976778	4106.972586
398.359466	4136.231443
398.742092	4165.306298
399.124656	4086.190429
399.507158	4167.962986
399.889598	4193.622459
400.271977	4256.183178
400.654294	4224.131522
401.036549	4233.223243
401.418742	4204.375240
401.800874	4305.616733
402.182944	4324.528621
402.564952	4394.308273
402.946898	4377.838823
403.328783	4375.116600
403.710606	4289.706851
404.092367	4479.322291
404.474067	4443.358700
404.855705	4454.729022
405.237282	4381.959966
405.618797	4489.510463
406.000250	4524.710320
406.381642	4606.394656
406.762972	4566.259510
407.144240	4581.554371
407.525447	4576.004060
407.906593	4639.588134
408.287677	4677.611037
408.668700	4607.594451
409.049661	4658.414323
409.430560	4697.400086
409.811399	4625.127584
410.192176	4789.106236
410.572891	4727.427719
410.953545	4834.101055
411.334138	4711.303588
411.714669	4780.627015
412.095139	4673.842774
412.475547	4814.876615
412.855894	4795.911794
413.236180	4805.232887
413.616405	4758.493829
413.996568	4847.916337
414.376670	4787.563643
414.756711	4742.311726
415.136691	4772.518319
415.516609	4851.087223
415.896466	4889.473089
416.276262	4921.078603
416.655997	4902.983381
417.035670	5086.995579
417.415283	5178.875649
417.794834	5124.587463
418.174324	5077.687088
418.553753	4984.874405
418.933121	5167.936345
419.312428	5234.671139
419.691674	5174.217622
420.070859	5299.482734
420.449983	5206.791038
420.829045	5325.174974
421.208047	5231.744750
421.586988	5305.348116
421.965867	5315.848840
422.344686	5449.794818
422.723444	5301.695800
423.102141	5120.909941
423.480777	5417.518831
423.859352	5184.579714
424.237866	5447.738027
424.616319	5439.019352
424.994712	5550.837185
425.373044	5426.398823
425.751314	5568.491306
426.129524	5368.717941
426.507673	5564.090379
426.885762	5647.476104
427.263789	5578.379529
427.641756	5462.465758
428.019662	5581.316001
428.397508	5589.603658
428.775292	5533.712386
429.153016	5635.440350
429.530679	5558.940840
429.908282	5648.645652
430.285824	5516.096073
430.663305	5791.630419
431.040726	5523.357856
431.418086	5524.073699
431.795385	5631.057066
432.172624	5644.988295
432.549802	5635.591584
432.926920	5646.475435
433.303977	5656.550181
433.680974	5694.411767
434.057910	5708.552204
434.434786	5716.257608
434.811601	5688.929512
435.188355	5917.528195
435.565050	5790.944822
435.941683	5766.974136
436.318257	5983.451364
436.694770	5967.302028
437.071222	5998.897460
437.447614	5925.425163
437.823946	5840.562379
438.200218	5994.052911
438.576429	5850.783318
438.952580	5944.205982
439.328670	5986.244163
439.704700	5893.660853
440.080670	5871.152101
440.456580	6134.128932
440.832429	6016.150809
441.208218	5856.522672
441.583947	6004.621690
441.959616	6000.712275
442.335224	5923.945584
442.710773	6046.475870
443.086261	6062.035391
443.461689	5853.697105
443.837057	5987.441438
444.212365	6126.330267
444.587612	6009.105796
444.962800	6145.411034
445.337927	6116.648731
445.712995	5729.435184
446.088002	6261.294558
446.462949	6090.802735
446.837837	6008.014386
447.212664	6158.381923
447.587431	6268.125322
447.962139	6740.579740
448.336786	7563.265801
448.711374	7304.871378
449.085901	6443.905315
449.460369	6348.723290
449.834776	6264.757831
450.209124	6584.193065
450.583412	6676.305028
450.957640	6787.210413
451.331808	6551.475977
451.705917	6129.700278
452.079965	6034.203181
452.453954	6176.824985
452.827883	6045.855808
453.201752	6092.274752
453.575562	5887.641715
453.949311	6012.984964
454.323001	5890.132045
454.696632	5916.414100
455.070202	5977.013811
455.443713	6061.627058
455.817164	6091.846254
456.190556	6107.771259
456.563888	6111.506754
456.937160	6100.060814
457.310373	5804.578623
457.683526	5773.131905
458.056619	5648.771681
458.429653	5588.121559
458.802628	5500.017313
459.175542	5521.064131
459.548398	5704.378128
459.921194	5749.680457
460.293930	5698.404361
460.666607	5949.335356
461.039224	6075.311270
461.411782	6089.524803
461.784280	6032.620258
462.156719	5902.009003
462.529099	5763.664618
462.901419	5465.117405
463.273680	5340.273230
463.645882	5287.827586
464.018024	5147.945649
464.390106	5171.603784
464.762130	5298.204801
465.134094	5455.665242
465.505999	5877.418255
465.877845	6364.504622
466.249631	6573.437763
466.621358	6294.954343
466.993026	5912.885293
467.364634	5709.222677
467.736184	5473.304239
468.107674	5258.256178
468.479105	5172.095297
468.850477	5024.460065
469.221790	4863.344788
469.593043	4671.901930
469.964238	4543.188669
470.335373	4483.826562
470.706449	4435.877627
471.077467	4369.651989
471.448425	4692.598387
471.819324	4925.739149
472.190164	4864.847052
472.560945	4449.012354
472.931667	4167.509282
473.302330	4077.872525
473.672934	3935.883386
474.043479	3954.770069
474.413965	3893.542735
474.784393	3807.182728
475.154761	3788.313689
475.525070	3747.487905
475.895321	3672.967048
476.265513	3652.270591
476.635645	3640.391112
477.005719	3586.382710
477.375734	3560.745922
477.745691	3549.330230
478.115588	3522.231507
478.485427	3508.612830
478.855207	3543.595917
479.224928	3605.997840
479.594591	3639.629898
479.964194	3551.621434
480.333739	3490.472238
480.703226	3420.097730
481.072653	3389.399624
481.442022	3375.622150
481.811333	3355.628934
482.180584	3292.284316
482.549777	3223.223028
482.918912	3177.449352
483.287988	3145.284269
483.657005	3111.695061
484.025964	3059.153635
484.394864	3032.523740
484.763706	3000.628360
485.132489	2963.384315
485.501213	2936.721653
485.869879	2922.636669
486.238487	2888.074518
486.607036	2877.840976
486.975527	2844.705471
487.343959	2835.384378
487.712333	2822.544559
488.080648	2801.429686
488.448905	2786.853190
488.817104	2774.540172
489.185244	2769.914913
489.553326	2758.249683
489.921350	2763.825199
490.289315	2773.267280
490.657222	2773.602517
491.025070	2759.855290
491.392861	2748.013620
491.760593	2729.010991
492.128267	2714.500029
492.495883	2700.893955
492.863440	2686.940041
493.230939	2679.310255
493.598380	2674.170798
493.965763	2661.159580
494.333088	2656.753612
494.700354	2651.364618
495.067563	2648.455873
495.434713	2639.719553
495.801805	2643.964205
496.168839	2639.202835
496.535815	2636.866260
496.902733	2633.012298
497.269593	2632.931639
497.636395	2631.129427
498.003139	2628.208078
498.369825	2624.807820
498.736453	2625.248921
499.103023	2622.199023
499.469535	2619.088631
499.835989	2618.987808
500.202385	2616.459669
500.568723	2612.361211
500.935003	2614.234000
501.301226	2611.098402
501.667390	2612.099071
502.033497	2617.452777
502.399546	2609.429780
502.765537	2606.810901
503.131470	2608.625716
503.497345	2610.294338
503.863163	2607.688062
504.228923	2608.315685
504.594625	2608.161930
504.960269	2605.054059
505.325856	2609.054214
505.691385	2605.550612
506.056856	2606.069851
506.422270	2602.634305
506.787625	2602.669593
507.152924	2603.357710
507.518164	2603.299737
507.883347	2601.845364
508.248472	2599.846547
508.613540	2600.209510
508.978550	2600.146495
509.343503	2596.499221
509.708398	2599.723038
510.073236	2601.852926
510.438016	2599.783532
510.802738	2598.679520
511.167403	2599.561722
511.532010	2600.436362
511.896561	2599.899479
512.261053	2601.313522
512.625488	2595.745568
512.989866	2594.139961
513.354186	2593.918150
513.718449	2591.702563
514.082655	2599.483584
514.446803	2594.407142
514.810894	2600.113728
515.174927	2596.950404
515.538904	2597.388984
515.902822	2596.998295
516.266684	2598.530806
516.630488	2596.022832
516.994235	2595.775815
517.357925	2598.805548
517.721558	2597.351176
518.085133	2595.536360
518.448651	2595.763212
518.812112	2598.326639
519.175516	2595.833788
519.538863	2598.833275
519.902152	2596.884869
520.265385	2596.196751
520.628560	2596.579879
520.991678	2595.808582
521.354739	2596.920157
521.717743	2597.630960
522.080690	2596.466453
522.443580	2597.313367
522.806413	2600.673296
523.169189	2598.515682
523.531908	2594.432347
523.894569	2597.187338
524.257174	2597.210023
524.619722	2598.084663
524.982213	2598.072061
525.344647	2599.221444
525.707025	2597.537698
526.069345	2596.489138
526.431608	2598.964345
526.793815	2600.769078
527.155964	2595.977461
527.518057	2599.591968
527.880093	2598.694643
528.242072	2596.950404
528.603995	2598.225816
528.965860	2594.739858
529.327669	2596.257245
529.689421	2595.662389
530.051117	2597.265476
530.412755	2597.716659
530.774337	2596.534509
531.135862	2596.131216
531.497331	2595.879159
531.858743	2592.017635
532.220098	2594.016452
532.581396	2592.531832
532.942638	2593.585434
533.303824	2596.169025
533.664953	2593.635845
534.026025	2593.255238
534.387040	2594.334045
534.747999	2594.581062
535.108902	2594.991916
535.469748	2595.198603
535.830537	2594.371854
536.191270	2595.548963
536.551947	2595.609457
536.912567	2594.397059
537.273131	2594.865887
537.633638	2591.644589
537.994089	2591.964703
538.354483	2590.147367
538.714821	2595.579210
539.075103	2595.276741
539.435328	2595.440578
539.795497	2590.941348
540.155609	2594.513006
540.515665	2596.123655
540.875665	2592.801534
541.235609	2593.693818
541.595496	2595.543922
541.955328	2596.131216
542.315102	2596.607605
542.674821	2594.497882
543.034483	2595.969899
543.394090	2592.713314
543.753640	2594.593664
544.113134	2596.968048
544.472571	2594.901175
544.831953	2594.959148
545.191278	2595.506113
545.550548	2596.912595
545.909761	2595.354879
546.268918	2592.126020
546.628019	2595.627101
546.987064	2596.239601
547.346053	2595.231370
547.704986	2595.997626
548.063863	2597.618357
548.422684	2596.660537
548.781449	2596.209354
549.140158	2597.900661
549.498811	2596.506782
549.857408	2592.163828
550.215949	2593.189703
550.574434	2593.333376
550.932864	2592.272213
551.291237	2588.065370
551.649555	2591.868921
552.007817	2594.344127
552.366022	2594.117275
552.724173	2593.656010
553.082267	2592.463777
553.440305	2594.480238
553.798288	2594.215578
554.156215	2594.623911
554.514086	2596.940322
554.871902	2595.168356
555.229661	2594.606267
555.587365	2594.583582
555.945014	2595.662389
556.302606	2595.617019
556.660143	2595.790938
557.017625	2597.651124
557.375050	2593.963520
557.732421	2596.035434
558.089735	2598.082143
558.446994	2593.529981
558.804197	2596.479056
559.161345	2595.314549
559.518437	2595.622060
559.875474	2594.949066
560.232455	2596.574838
560.589381	2593.540063
560.946251	2596.390836
561.303065	2597.121803
561.659825	2596.416042
562.016528	2594.694487
562.373177	2594.197934
562.729770	2594.137440
563.086307	2593.529981
563.442789	2593.817327
563.799216	2595.503593
564.155587	2595.324632
564.511904	2594.119796
564.868164	2596.458891
565.224370	2595.357399
565.580520	2594.195413
565.936615	2595.168356
566.292654	2593.396390
566.648638	2593.134250
567.004567	2594.782708
567.360441	2593.204827
567.716260	2593.499734
568.072023	2593.194744
568.427732	2587.558734
568.783385	2594.439909
569.138982	2590.056626
569.494525	2591.090062
569.850013	2588.473704
570.205445	2594.313880
570.560823	2593.356061
570.916145	2594.404621
571.271412	2592.612491
571.626625	2592.589806
571.981782	2593.088880
572.336884	2593.905547
572.691931	2593.504775
573.046923	2593.282964
573.401860	2592.867069
573.756743	2593.824888
574.111570	2592.090732
574.466342	2591.916812
574.821059	2590.822881
575.175722	2590.971595
575.530330	2592.461256
575.884882	2592.867069
576.239380	2590.139805
576.593823	2592.466297
576.948211	2591.206009
577.302544	2592.088211
577.656823	2588.614856
578.011047	2592.431009
578.365216	2592.093252
578.719330	2590.177614
579.073389	2590.142326
579.427394	2589.323138
579.781344	2590.013776
580.135239	2587.052098
580.489080	2589.975967
580.842866	2586.855493
581.196597	2593.305650
581.550273	2588.534197
581.903895	2590.127202
582.257463	2587.808271
582.610975	2588.821543
582.964434	2588.566965
583.317837	2590.008735
583.671186	2590.838005
584.024481	2588.587130
584.377721	2588.471183
584.730906	2587.500761
585.084037	2589.749116
585.437113	2585.779207
585.790135	2587.891450
586.143103	2587.362129
586.496016	2589.050916
586.848874	2583.006572
587.201679	2587.238621
587.554428	2581.511870
587.907124	2586.288363
588.259765	2580.342322
588.612352	2587.667119
588.964884	2583.896336
589.317362	2587.271388
589.669786	2584.529001
590.022155	2588.085535
590.374470	2584.478589
590.726731	2585.862386
591.078937	2586.643765
591.431090	2586.984043
591.783188	2583.616552
592.135232	2581.685790
592.487222	2583.011613
592.839157	2584.476069
593.191038	2585.809454
593.542866	2583.125039
593.894639	2582.540266
594.246358	2583.167889
594.598022	2583.435070
594.949633	2579.999524
595.301190	2583.881212
595.652692	2583.142683
596.004141	2585.627972
596.355535	2582.961202
596.706876	2581.164031
597.058162	2580.382652
597.409395	2584.718044
597.760573	2583.707293
598.111698	2581.116140
598.462768	2582.555389
598.813785	2583.051943
599.164748	2582.406675
599.515657	2582.762076
599.866511	2583.306521
600.217312	2583.697210
600.568060	2580.992631
600.918753	2585.990935
601.269392	2581.794175
601.619978	2580.642271
601.970510	2582.058835
602.320988	2581.169072
602.671412	2580.823753
603.021783	2580.014647
603.372100	2581.741243
603.722363	2579.818043
604.072572	2583.513208
604.422728	2582.328537
604.772830	2579.399627
605.122878	2576.032136
605.472872	2578.905594
605.822813	2578.154462
606.172701	2579.835687
606.522534	2579.749987
606.872314	2579.230748
607.222041	2582.315934
607.571714	2581.688311
607.921333	2581.101016
608.270899	2580.637230
608.620411	2582.091603
608.969870	2580.564133
609.319276	2583.361974
609.668627	2587.241142
610.017926	2585.849783
610.367171	2588.561924
610.716362	2589.492017
611.065500	2588.297263
611.414585	2586.230390
611.763616	2584.513877
612.112594	2586.794999
612.461518	2587.467993
612.810389	2586.142170
613.159207	2584.897005
613.507971	2583.238465
613.856682	2584.813826
614.205340	2583.921542
614.553945	2583.649319
614.902496	2582.633527
615.250994	2582.731829
615.599439	2581.453897
615.947830	2584.453383
616.296169	2581.353074
616.644454	2580.135635
616.992686	2581.673187
617.340864	2584.037488
617.688990	2581.557241
618.037063	2583.724937
618.385082	2582.701582
618.733048	2581.647981
619.080961	2581.779051
619.428821	2581.990780
619.776628	2581.650502
620.124382	2583.916501
620.472083	2582.905749
620.819731	2582.883064
621.167326	2580.793506
621.514868	2581.269895
621.862357	2583.296439
622.209793	2582.923393
622.557176	2582.681418
622.904506	2577.168916
623.251783	2576.027095
623.599007	2575.026426
623.946179	2575.810325
624.293297	2577.020202
624.640363	2576.632033
624.987376	2578.945923
625.334336	2576.574060
625.681243	2577.199163
626.028097	2576.357290
626.374899	2576.498443
626.721647	2577.123546
627.068343	2576.503484
627.414987	2578.114132
627.761577	2576.140521
628.108115	2577.499112
628.454600	2574.418967
628.801032	2574.262691
629.147412	2575.901066
629.493739	2573.816549
629.840014	2574.272773
630.186236	2576.831159
630.532405	2573.481312
630.878521	2572.828483
631.224585	2575.724626
631.570597	2573.763617
631.916556	2573.004923
632.262462	2576.299317
632.608316	2573.604820
632.954117	2571.414439
633.299866	2573.355283
633.645562	2573.173802
633.991206	2571.880746
634.336797	2570.302865
634.682336	2571.406877
635.027823	2569.387895
635.373257	2572.510890
635.718639	2568.561146
636.063968	2571.981569
636.409245	2568.687175
636.754470	2570.197000
637.099642	2570.592731
637.444762	2568.089798
637.789829	2571.429562
638.134845	2568.732545
638.479808	2568.031825
638.824719	2568.041907
639.169577	2568.830848
639.514383	2564.626525
639.859137	2567.353790
640.203839	2567.593244
640.548489	2567.164746
640.893086	2565.796073
641.237632	2563.015877
641.582125	2566.292627
641.926566	2558.206616
642.270955	2568.344376
642.615292	2566.368244
642.959576	2568.372103
643.303809	2567.754561
643.647990	2566.015363
643.992118	2567.860426
644.336195	2565.586865
