Dividing Wavelength (nm)	Counts (n)	Blue Motor Position (mm): 0.000000	Red Motor Position (mm): 34.900000	
326.493990	2125.408435
326.888308	2125.408435
327.282561	2125.408435
327.676750	2094.901892
328.070874	2091.718404
328.464933	2096.704105
328.858929	2103.061000
329.252859	2113.080293
329.646726	2123.858280
330.040528	2136.226751
330.434265	2151.249389
330.827938	2170.299910
331.221547	2189.403362
331.615091	2207.445652
332.008571	2229.684702
332.401986	2245.410582
332.795338	2265.948242
333.188625	2286.364915
333.581847	2304.845785
333.975006	2321.080821
334.368100	2340.824500
334.761129	2358.909640
335.154095	2376.001672
335.546996	2393.302912
335.939833	2413.797723
336.332606	2428.447316
336.725315	2441.697989
337.117960	2450.552776
337.510540	2457.464197
337.903056	2470.661938
338.295508	2474.790643
338.687896	2487.143991
339.080220	2492.026348
339.472480	2500.702174
339.864676	2504.311640
340.256807	2510.633247
340.648875	2511.598628
341.040879	2516.201202
341.432818	2518.288239
341.824694	2518.063908
342.216506	2518.625997
342.608253	2516.239010
342.999937	2518.943589
343.391557	2516.778414
343.783113	2516.339833
344.174605	2517.441325
344.566033	2512.793382
344.957397	2514.237672
345.348697	2512.616941
345.739934	2509.491426
346.131106	2508.594100
346.522215	2505.037566
346.913260	2505.428256
347.304241	2502.743841
347.695159	2504.268790
348.086012	2499.963645
348.476802	2498.801659
348.867528	2498.668068
349.258191	2495.716473
349.648789	2494.209168
350.039324	2491.804538
350.429796	2494.138592
350.820203	2490.698004
351.210548	2488.880668
351.600828	2487.701038
351.991045	2488.346306
352.381198	2487.431337
352.771288	2489.034423
353.161314	2486.965030
353.551276	2487.360760
353.941175	2488.016110
354.331010	2486.453353
354.720782	2488.426964
355.110490	2487.146511
355.500135	2486.171048
355.889717	2487.907726
356.279235	2488.981491
356.668689	2489.074753
357.058080	2487.980822
357.447408	2488.454691
357.836672	2482.821201
358.225873	2489.054588
358.615010	2487.423775
359.004084	2491.887717
359.393095	2490.967706
359.782043	2492.069198
360.170927	2490.813951
360.559748	2494.153715
360.948505	2493.568941
361.337199	2494.098263
361.725830	2494.725886
362.114398	2495.401401
362.502903	2497.150681
362.891344	2494.884683
363.279722	2499.371309
363.668037	2499.280569
364.056289	2499.787205
364.444478	2499.323418
364.832603	2498.516834
365.220665	2498.773933
365.608665	2503.005981
365.996601	2502.859788
366.384474	2505.234171
366.772284	2506.426404
367.160031	2508.410098
367.547715	2507.154851
367.935336	2510.885305
368.322893	2513.078207
368.710388	2516.483506
369.097820	2524.544311
369.485189	2525.116482
369.872495	2533.106711
370.259738	2539.831610
370.646918	2545.255892
371.034035	2555.312994
371.421090	2564.508058
371.808081	2575.719584
372.195010	2583.966912
372.581875	2597.426793
372.968678	2608.426591
373.355418	2618.367746
373.742096	2639.054121
374.128710	2650.222797
374.515262	2666.077226
374.901751	2681.790502
375.288177	2695.542770
375.674540	2718.159907
376.060841	2733.711867
376.447079	2754.473859
376.833254	2776.465892
377.219367	2786.560803
377.605417	2826.945486
377.991404	2832.846157
378.377329	2859.133254
378.763191	2874.488608
379.148991	2911.357087
379.534727	2938.619647
379.920402	2965.655355
380.306013	2979.886532
380.691563	3025.735827
381.077049	3049.696431
381.462474	3066.004563
381.847835	3106.570728
382.233134	3127.952782
382.618371	3125.233080
383.003545	3194.438040
383.388657	3201.059596
383.773706	3233.864904
384.158693	3250.306627
384.543618	3279.484826
384.928480	3313.802481
385.313280	3362.792414
385.698017	3361.151518
386.082692	3411.076585
386.467305	3413.874426
386.851856	3447.488840
387.236344	3472.427428
387.620770	3503.203672
388.005133	3532.626366
388.389435	3555.533369
388.773674	3569.615833
389.157851	3610.857512
389.541965	3623.450315
389.926018	3590.203905
390.310008	3660.507837
390.693936	3681.632792
391.077802	3721.314234
391.461606	3709.669169
391.845348	3774.574025
392.229027	3770.551184
392.612645	3784.527783
392.996200	3868.727655
393.379694	3904.141761
393.763125	3968.439157
394.146494	3935.936318
394.529801	3996.561234
394.913047	4045.717525
395.296230	4011.369624
395.679351	4069.229467
396.062410	4088.350563
396.445408	4073.940425
396.828343	4105.356896
397.211217	4129.375473
397.594028	4051.426632
397.976778	4115.227475
398.359466	4137.980723
398.742092	4171.111186
399.124656	4094.528497
399.507158	4172.941125
399.889598	4198.141853
400.271977	4262.000669
400.654294	4229.628900
401.036549	4240.137185
401.418742	4205.708625
401.800874	4312.092095
402.182944	4330.608253
402.564952	4394.146956
402.946898	4384.926685
403.328783	4381.249164
403.710606	4292.827325
404.092367	4483.929906
404.474067	4451.197694
404.855705	4462.378973
405.237282	4386.023136
405.618797	4494.183613
406.000250	4530.167369
406.381642	4610.664513
406.762972	4573.808638
407.144240	4585.935133
407.525447	4583.280966
407.906593	4642.615347
408.287677	4684.477088
408.668700	4614.762972
409.049661	4664.181403
409.430560	4705.652455
409.811399	4635.635869
410.192176	4795.397596
410.572891	4734.936517
410.953545	4835.878062
411.334138	4714.325760
411.714669	4785.620278
412.095139	4678.697405
412.475547	4821.460362
412.855894	4800.652999
413.236180	4812.424093
413.616405	4764.875930
413.996568	4852.166030
414.376670	4791.591525
414.756711	4749.565946
415.136691	4781.055513
415.516609	4859.604252
415.896466	4897.385180
416.276262	4931.614614
416.655997	4908.190893
417.035670	5095.552937
417.415283	5183.243808
417.794834	5127.758349
418.174324	5079.907716
418.553753	4988.191484
418.933121	5173.640410
419.312428	5240.917129
419.691674	5180.864384
420.070859	5305.421213
420.449983	5215.408891
420.829045	5330.994987
421.208047	5237.163990
421.586988	5308.818951
421.965867	5319.488553
422.344686	5454.667093
422.723444	5307.092356
423.102141	5128.753977
423.480777	5425.950160
423.859352	5195.496333
424.237866	5453.941167
424.616319	5449.739365
424.994712	5555.840530
425.373044	5430.910656
425.751314	5573.459363
426.129524	5377.696236
426.507673	5572.574641
426.885762	5655.579759
427.263789	5587.551909
427.641756	5468.245441
428.019662	5589.338998
428.397508	5597.566161
428.775292	5541.518612
429.153016	5647.145909
429.530679	5568.796296
429.908282	5655.693185
430.285824	5524.860119
430.663305	5797.591584
431.040726	5532.557961
431.418086	5530.904463
431.795385	5639.863962
432.172624	5655.423483
432.549802	5643.735568
432.926920	5658.932127
433.303977	5668.074259
433.680974	5707.496082
434.057910	5721.230706
434.434786	5727.169185
434.811601	5696.057704
435.188355	5933.276760
435.565050	5807.149611
435.941683	5790.372651
436.318257	6003.963819
436.694770	5982.244008
437.071222	6020.634915
437.447614	5957.963290
437.823946	5864.530545
438.200218	6014.008318
438.576429	5885.761364
438.952580	5985.188042
439.328670	6026.462489
439.704700	5933.750628
440.080670	5918.496097
440.456580	6192.596234
440.832429	6077.257155
441.208218	5921.583804
441.583947	6077.975519
441.959616	6077.710859
442.335224	6005.077914
442.710773	6147.523278
443.086261	6176.295663
443.461689	5966.034178
443.837057	6110.737978
444.212365	6269.108347
444.587612	6163.617162
444.962800	6318.178938
445.337927	6298.324354
445.712995	5907.879427
446.088002	6483.138095
446.462949	6313.886396
446.837837	6245.845942
447.212664	6417.265338
447.587431	6561.306227
447.962139	7102.433763
448.336786	8028.902058
448.711374	7766.005885
449.085901	6843.895667
449.460369	6765.160406
449.834776	6697.540889
450.209124	7088.910868
450.583412	7236.064669
450.957640	7390.593678
451.331808	7151.935373
451.705917	6696.951074
452.079965	6627.352904
452.453954	6837.160686
452.827883	6720.483180
453.201752	6813.101779
453.575562	6611.168279
453.949311	6809.525080
454.323001	6699.277566
454.696632	6772.331447
455.070202	6911.989053
455.443713	7071.166006
455.817164	7164.578587
456.190556	7245.741164
456.563888	7330.069585
456.937160	7367.696758
457.310373	7026.206476
457.683526	7055.896351
458.056619	6938.772703
458.429653	6929.388595
458.802628	6862.684048
459.175542	6972.581202
459.548398	7327.181004
459.921194	7489.473391
460.293930	7495.948753
460.666607	8025.935339
461.039224	8328.923808
461.411782	8456.638921
461.784280	8471.510324
462.156719	8365.996454
462.529099	8244.202177
462.901419	7839.445414
463.273680	7729.008857
463.645882	7740.356494
464.018024	7604.580577
464.390106	7768.813808
464.762130	8154.202457
465.134094	8631.609809
465.505999	9651.604111
465.877845	10869.428413
466.249631	11516.654593
466.621358	11133.456325
466.993026	10506.359472
467.364634	10252.953271
467.736184	9890.259895
468.107674	9555.020644
468.479105	9583.722453
468.850477	9349.686886
469.221790	9117.312379
469.593043	8795.616187
469.964238	8653.037233
470.335373	8667.346548
470.706449	8730.751661
471.077467	8706.208803
471.448425	10011.875211
471.819324	11084.330281
472.190164	11117.254056
472.560945	9865.926246
472.931667	9073.746728
473.302330	8942.321326
473.672934	8586.249507
474.043479	8944.317623
474.413965	8885.913335
474.784393	8767.065613
475.154761	8924.475642
475.525070	9014.031740
475.895321	8831.201692
476.265513	9013.388993
476.635645	9183.704375
477.005719	9183.469962
477.375734	9295.630593
477.745691	9535.602119
478.115588	9664.811934
478.485427	9911.788143
478.855207	10444.716242
479.224928	11255.306054
479.594591	11890.461192
479.964194	11698.955319
480.333739	11643.056485
480.703226	11555.300079
481.072653	11642.091104
481.442022	11881.805531
481.811333	12076.008421
482.180584	11884.038762
482.549777	11589.584966
482.918912	11414.664489
483.287988	11435.837335
483.657005	11443.895620
484.025964	11130.416509
484.394864	11256.606672
484.763706	11225.114584
485.132489	10982.670372
485.501213	10943.949269
485.869879	11026.278873
486.238487	10866.486899
486.607036	10975.819444
486.975527	10754.951371
487.343959	10947.747779
487.712333	10989.549027
488.080648	10928.425036
488.448905	10964.675973
488.817104	10904.081304
489.185244	11169.009062
489.553326	11325.597383
489.921350	11857.950791
490.289315	12923.590220
490.657222	13264.168053
491.025070	13177.495495
491.392861	13037.313610
491.760593	12674.690811
492.128267	12318.903816
492.495883	11987.165646
492.863440	11653.388330
493.230939	11327.472692
493.598380	11259.643967
493.965763	11123.565581
494.333088	11014.921154
494.700354	10939.223188
495.067563	10999.457414
495.434713	10825.653553
495.801805	10952.670466
496.168839	10879.024249
496.535815	10818.316154
496.902733	10818.190125
497.269593	10749.902655
497.636395	10844.247849
498.003139	10831.208905
498.369825	10701.807527
498.736453	10856.704540
499.103023	10779.874835
499.469535	10814.273148
499.835989	10797.526435
500.202385	10761.525035
500.568723	10605.191293
500.935003	10824.768831
501.301226	10635.037444
501.667390	10887.211083
502.033497	10980.653911
502.399546	10844.338590
502.765537	10751.041956
503.131470	10816.319857
503.497345	10989.793523
503.863163	10605.193813
504.228923	10910.266800
504.594625	10970.591767
504.960269	10716.346214
505.325856	10925.488564
505.691385	10726.819212
506.056856	10874.255317
506.422270	10891.410364
506.787625	10778.128075
507.152924	10891.105374
507.518164	10869.017559
507.883347	10775.909968
508.248472	10695.987515
508.613540	10925.879253
508.978550	10792.792792
509.343503	10768.887640
509.708398	10869.335151
510.073236	10985.957204
510.438016	10981.727676
510.802738	10920.654097
511.167403	10964.577671
511.532010	10858.557164
511.896561	11069.196737
512.261053	11135.898764
512.625488	10995.699234
512.989866	10964.514657
513.354186	10959.239089
513.718449	10844.678868
514.082655	11025.124449
514.446803	10906.435523
514.810894	11012.531647
515.174927	10873.887313
515.538904	10880.831503
515.902822	11018.661690
516.266684	10891.876671
516.630488	10815.369599
516.994235	10859.688903
517.357925	10895.420602
517.721558	10977.457819
518.085133	10970.954731
518.448651	10963.014913
518.812112	10831.483648
519.175516	10828.695890
519.538863	10923.020919
519.902152	10828.055663
520.265385	10957.449479
520.628560	10859.242761
520.991678	10804.858794
521.354739	10846.655000
521.717743	10763.722978
522.080690	10724.248223
522.443580	10819.407564
522.806413	10748.317212
523.169189	10753.257543
523.531908	10783.834662
523.894569	10595.880282
524.257174	10563.805940
524.619722	10645.714608
524.982213	10575.130892
525.344647	10586.029867
525.707025	10503.334779
526.069345	10569.895654
526.431608	10457.921545
526.793815	10519.584939
527.155964	10299.654520
527.518057	10321.507922
527.880093	10242.616385
528.242072	10264.951217
528.603995	10144.901179
528.965860	10044.718329
529.327669	10056.617972
529.689421	9972.304674
530.051117	9915.377444
530.412755	9949.528741
530.774337	9826.166665
531.135862	9759.827601
531.497331	9756.046736
531.858743	9587.450387
532.220098	9681.198204
532.581396	9528.796562
532.942638	9483.574891
533.303824	9412.436649
533.664953	9373.125731
534.026025	9262.013659
534.387040	9298.062950
534.747999	9260.203885
535.108902	9258.391590
535.469748	9023.680508
535.830537	9062.998988
536.191270	8996.881734
536.551947	8970.808887
536.912567	8917.370135
537.273131	8825.464859
537.633638	8759.662678
537.994089	8700.708905
538.354483	8622.218139
538.714821	8687.828757
539.075103	8640.008371
539.435328	8560.653048
539.795497	8403.434583
540.155609	8453.876368
540.515665	8468.473029
540.875665	8238.503153
541.235609	8232.191628
541.595496	8185.452570
541.955328	8232.867142
542.315102	8112.315510
542.674821	8023.681943
543.034483	7974.543296
543.394090	7923.385667
543.753640	7823.810275
544.113134	7906.908655
544.472571	7766.613344
544.831953	7799.370762
545.191278	7628.331973
545.550548	7594.460461
545.909761	7629.199052
546.268918	7556.445119
546.628019	7553.223822
546.987064	7410.612100
547.346053	7328.509348
547.704986	7319.556259
548.063863	7268.585152
548.422684	7218.017338
548.781449	7109.367870
549.140158	7112.906760
549.498811	6994.303533
549.857408	6878.241048
550.215949	6928.009840
550.574434	6806.802857
550.932864	6800.274563
551.291237	6791.021525
551.649555	6699.935437
552.007817	6664.649881
552.366022	6600.264264
552.724173	6544.325100
553.082267	6490.775443
553.440305	6490.059599
553.798288	6364.116453
554.156215	6371.242124
554.514086	6311.292722
554.871902	6198.857348
555.229661	6162.780330
555.587365	6103.748418
555.945014	6017.900089
556.302606	6007.840467
556.660143	5928.444814
557.017625	5927.285349
557.375050	5840.945507
557.732421	5849.225602
558.089735	5761.113794
558.446994	5719.990582
558.804197	5684.435324
559.161345	5636.609897
559.518437	5542.229415
559.875474	5515.211351
560.232455	5481.130630
560.589381	5423.369090
560.946251	5359.296024
561.303065	5372.261872
561.659825	5285.274242
562.016528	5224.427515
562.373177	5145.241070
562.729770	5119.553871
563.086307	5061.525149
563.442789	5057.688831
563.799216	4956.084375
564.155587	4942.518630
564.511904	4880.822469
564.868164	4842.401315
565.224370	4810.977282
565.580520	4731.906784
565.936615	4715.822983
566.292654	4629.420126
566.648638	4637.438082
567.004567	4578.751489
567.360441	4543.012229
567.716260	4478.523268
568.072023	4466.210250
568.427732	4412.204369
568.783385	4373.092577
569.138982	4344.209286
569.494525	4315.300789
569.850013	4251.888115
570.205445	4235.196854
570.560823	4190.270091
570.916145	4133.612563
571.271412	4116.568422
571.626625	4075.409922
571.981782	4039.597565
572.336884	4004.019621
572.691931	3985.223679
573.046923	3934.250052
573.401860	3896.600195
573.756743	3860.404710
574.111570	3836.610464
574.466342	3812.969973
574.821059	3785.142804
575.175722	3746.542689
575.530330	3712.782081
575.884882	3689.517156
576.239380	3651.826970
576.593823	3623.929224
576.948211	3599.540122
577.302544	3570.167839
577.656823	3540.281358
578.011047	3522.246631
578.365216	3493.317969
578.719330	3468.298723
579.073389	3444.252419
579.427394	3416.261412
579.781344	3393.556055
580.135239	3368.962786
580.489080	3354.156917
580.842866	3321.694407
581.196597	3303.828558
581.550273	3293.108544
581.903895	3266.549225
582.257463	3261.266096
582.610975	3232.082856
582.964434	3221.708162
583.317837	3195.365612
583.671186	3182.540917
584.024481	3166.305881
584.377721	3144.180257
584.730906	3125.956486
585.084037	3115.566668
585.437113	3098.010849
585.790135	3082.985690
586.143103	3064.262845
586.496016	3047.589228
586.848874	3036.143289
587.201679	3030.063657
587.554428	3004.933505
587.907124	2997.943945
588.259765	2985.232676
588.612352	2976.524083
588.964884	2961.756023
589.317362	2951.837552
589.669786	2940.988989
590.022155	2937.707198
590.374470	2924.305291
590.726731	2915.294228
591.078937	2897.521640
591.431090	2892.697256
591.783188	2876.926006
592.135232	2865.500231
592.487222	2863.004860
592.839157	2853.444312
593.191038	2841.504339
593.542866	2830.834737
593.894639	2819.779486
594.246358	2815.872592
594.598022	2810.140800
594.949633	2796.842236
595.301190	2791.344858
595.652692	2787.684980
596.004141	2784.078035
596.355535	2771.533123
596.706876	2765.120776
597.058162	2754.463776
597.409395	2752.953951
597.760573	2749.437746
598.111698	2740.822414
598.462768	2734.241188
598.813785	2729.515106
599.164748	2726.845815
599.515657	2718.114537
599.866511	2714.419371
600.217312	2716.566902
600.568060	2706.650953
600.918753	2705.773792
601.269392	2700.886393
601.619978	2694.310208
601.970510	2694.867256
602.320988	2688.764939
602.671412	2690.206709
603.021783	2684.507684
603.372100	2681.735050
603.722363	2679.453928
604.072572	2676.671211
604.422728	2675.199194
604.772830	2666.520847
605.122878	2661.681340
605.472872	2663.493635
605.822813	2659.828716
606.172701	2656.723365
606.522534	2660.312667
606.872314	2655.107675
607.222041	2654.948879
607.571714	2651.714979
607.921333	2650.215235
608.270899	2649.852272
608.620411	2650.331182
608.969870	2646.850265
609.319276	2647.185502
609.668627	2649.002838
610.017926	2651.367139
610.367171	2648.813795
610.716362	2646.757004
611.065500	2643.341622
611.414585	2642.572846
611.763616	2641.743576
612.112594	2638.910448
612.461518	2639.096971
612.810389	2638.451703
613.159207	2636.241157
613.507971	2632.482977
613.856682	2634.116311
614.205340	2634.305354
614.553945	2632.528347
614.902496	2630.353089
615.250994	2628.046761
615.599439	2627.870321
615.947830	2628.553397
616.296169	2627.023407
616.644454	2628.046761
616.992686	2625.201030
617.340864	2626.937707
617.688990	2624.580968
618.037063	2624.258334
618.385082	2625.632049
618.733048	2625.705145
619.080961	2626.012656
619.428821	2621.629372
619.776628	2624.903602
620.124382	2623.308077
620.472083	2618.077880
620.819731	2621.861266
621.167326	2619.504526
621.514868	2617.422530
621.862357	2615.053187
622.209793	2615.955554
622.557176	2612.943464
622.904506	2610.553957
623.251783	2609.770058
623.599007	2610.354832
623.946179	2607.320057
624.293297	2605.384254
624.640363	2605.631271
624.987376	2606.422732
625.334336	2607.897269
625.681243	2607.451127
626.028097	2604.406270
626.374899	2607.829214
626.721647	2606.180757
627.068343	2605.222937
627.414987	2601.558018
627.761577	2601.696650
628.108115	2601.313522
628.454600	2600.859819
628.801032	2598.737493
629.147412	2601.366455
629.493739	2600.204469
629.840014	2598.629108
630.186236	2601.847885
630.532405	2601.167329
630.878521	2596.345465
631.224585	2601.550457
631.570597	2596.796649
631.916556	2596.612647
632.262462	2595.700198
632.608316	2597.595672
632.954117	2592.536874
633.299866	2593.683736
633.645562	2594.560897
633.991206	2595.611977
634.336797	2593.517378
634.682336	2592.559559
635.027823	2589.015628
635.373257	2592.022676
635.718639	2586.482448
636.063968	2591.911771
636.409245	2588.869434
636.754470	2585.670822
637.099642	2587.331882
637.444762	2590.298601
637.789829	2589.623087
638.134845	2587.715010
638.479808	2587.165524
638.824719	2586.610997
639.169577	2585.038157
639.514383	2585.239803
639.859137	2586.174937
640.203839	2583.714854
640.548489	2583.316603
640.893086	2581.474062
641.237632	2576.432908
641.582125	2581.050605
641.926566	2581.388362
642.270955	2585.592684
