Dividing Wavelength (nm)	Counts (n)	Blue Motor Position (mm): 0.000000	Red Motor Position (mm): 22.900000	
326.493990	2127.445061
326.888308	2127.445061
327.282561	2127.445061
327.676750	2094.707808
328.070874	2092.109093
328.464933	2096.459609
328.858929	2103.847420
329.252859	2114.022989
329.646726	2123.210492
330.040528	2136.952677
330.434265	2151.748464
330.827938	2170.698161
331.221547	2189.249607
331.615091	2210.009079
332.008571	2227.401059
332.401986	2249.398134
332.795338	2264.909765
333.188625	2284.900460
333.581847	2303.431742
333.975006	2327.019301
334.368100	2341.779799
334.761129	2358.970134
335.154095	2375.235417
335.546996	2391.616646
335.939833	2408.638102
336.332606	2421.921542
336.725315	2436.165323
337.117960	2446.633278
337.510540	2453.569906
337.903056	2465.744293
338.295508	2474.205869
338.687896	2481.845738
339.080220	2490.705566
339.472480	2495.119096
339.864676	2497.841319
340.256807	2504.293996
340.648875	2506.668380
341.040879	2513.562158
341.432818	2510.194667
341.824694	2513.559637
342.216506	2513.214318
342.608253	2513.511746
342.999937	2514.119205
343.391557	2512.697600
343.783113	2510.189626
344.174605	2511.195336
344.566033	2508.752897
344.957397	2508.669718
345.348697	2505.841630
345.739934	2507.152330
346.131106	2502.035559
346.522215	2500.989520
346.913260	2498.252173
347.304241	2499.545229
347.695159	2494.753612
348.086012	2493.765546
348.476802	2490.113230
348.867528	2494.335197
349.258191	2490.692963
349.648789	2488.311018
350.039324	2489.087356
350.429796	2490.380412
350.820203	2485.838332
351.210548	2485.535863
351.600828	2481.709627
351.991045	2481.631489
352.381198	2485.792962
352.771288	2483.131232
353.161314	2483.199288
353.551276	2482.937148
353.941175	2479.415902
354.331010	2484.197436
354.720782	2481.830615
355.110490	2482.503609
355.500135	2480.109061
355.889717	2480.701396
356.279235	2482.168372
356.668689	2482.445635
357.058080	2484.749443
357.447408	2483.373208
357.836672	2479.746098
358.225873	2483.622745
358.615010	2481.230717
359.004084	2487.411172
359.393095	2486.168527
359.782043	2489.062150
360.170927	2486.372694
360.559748	2489.329331
360.948505	2487.975781
361.337199	2490.773622
361.725830	2490.158601
362.114398	2491.411327
362.502903	2489.745226
362.891344	2491.081132
363.279722	2490.887047
363.668037	2494.647748
364.056289	2492.023828
364.444478	2496.460043
364.832603	2494.032727
365.220665	2493.871411
365.608665	2496.994405
365.996601	2494.952738
366.384474	2496.835609
366.772284	2500.782832
367.160031	2500.351814
367.547715	2503.812566
367.935336	2503.608399
368.322893	2506.106291
368.710388	2514.119205
369.097820	2518.862931
369.485189	2522.283354
369.872495	2527.100176
370.259738	2532.653007
370.646918	2544.439225
371.034035	2548.172199
371.421090	2557.316852
371.808081	2568.054510
372.195010	2576.188412
372.581875	2591.168200
372.968678	2601.696650
373.355418	2612.487240
373.742096	2629.443161
374.128710	2646.394041
374.515262	2662.306443
374.901751	2677.205573
375.288177	2689.861390
375.674540	2714.056408
376.060841	2729.210116
376.447079	2750.582088
376.833254	2770.731580
377.219367	2783.107612
377.605417	2823.212512
377.991404	2831.021259
378.377329	2853.469517
378.763191	2873.460213
379.148991	2908.302148
379.534727	2934.798452
379.920402	2961.559418
380.306013	2972.700368
380.691563	3020.823222
381.077049	3044.841800
381.462474	3062.563976
381.847835	3102.701643
382.233134	3123.758543
382.618371	3122.306690
383.003545	3195.065664
383.388657	3198.105479
383.773706	3229.965572
384.158693	3248.985845
384.543618	3274.264711
384.928480	3307.143117
385.313280	3354.905529
385.698017	3352.258923
386.082692	3406.753796
386.467305	3414.643202
386.851856	3448.943213
387.236344	3468.220585
387.620770	3501.948425
388.005133	3524.381559
388.389435	3554.623441
388.773674	3562.500244
389.157851	3607.295937
389.541965	3621.295221
389.926018	3586.735591
390.310008	3657.215963
390.693936	3676.677337
391.077802	3715.542113
391.461606	3705.651369
391.845348	3766.704783
392.229027	3768.378447
392.612645	3780.089047
392.996200	3858.794061
393.379694	3898.266296
393.763125	3962.644351
394.146494	3931.346347
394.529801	3992.062004
394.913047	4043.091084
395.296230	4007.308974
395.679351	4059.772262
396.062410	4085.378803
396.445408	4067.034044
396.828343	4100.134261
397.211217	4126.318014
397.594028	4042.801218
397.976778	4108.900827
398.359466	4135.795383
398.742092	4165.981812
399.124656	4088.935337
399.507158	4165.752440
399.889598	4192.223538
400.271977	4254.262498
400.654294	4221.326120
401.036549	4232.416658
401.418742	4200.806103
401.800874	4304.200168
402.182944	4326.030885
402.564952	4389.645205
402.946898	4377.223802
403.328783	4375.333370
403.710606	4283.455820
404.092367	4480.317919
404.474067	4445.796098
404.855705	4451.356490
405.237282	4378.138772
405.618797	4487.796471
406.000250	4522.645967
406.381642	4602.185293
406.762972	4565.455446
407.144240	4575.315943
407.525447	4578.413732
407.906593	4634.864572
408.287677	4677.043907
408.668700	4606.039255
409.049661	4657.844672
409.430560	4700.230694
409.811399	4626.498778
410.192176	4788.105567
410.572891	4722.089137
410.953545	4829.180889
411.334138	4708.611612
411.714669	4777.819093
412.095139	4673.152136
412.475547	4809.207837
412.855894	4790.066576
413.236180	4801.310870
413.616405	4753.898818
413.996568	4841.587168
414.376670	4784.062562
414.756711	4738.490531
415.136691	4768.850880
415.516609	4847.850802
415.896466	4887.214652
416.276262	4923.016926
416.655997	4900.019182
417.035670	5080.726904
417.415283	5170.214946
417.794834	5115.347028
418.174324	5073.576027
418.553753	4974.542560
418.933121	5156.858409
419.312428	5229.322475
419.691674	5167.888454
420.070859	5290.509480
420.449983	5199.435995
420.829045	5318.150127
421.208047	5222.295107
421.586988	5293.355211
421.965867	5302.449453
422.344686	5430.114153
422.723444	5284.563439
423.102141	5101.619966
423.480777	5393.709461
423.859352	5158.519469
424.237866	5411.910547
424.616319	5400.666253
424.994712	5502.144680
425.373044	5378.706987
425.751314	5508.846894
426.129524	5304.765863
426.507673	5487.237988
426.885762	5563.422426
427.263789	5481.077698
427.641756	5357.224110
428.019662	5468.621007
428.397508	5461.283608
428.775292	5396.275408
429.153016	5479.184745
429.530679	5396.598042
429.908282	5459.471313
430.285824	5319.644829
430.663305	5558.897990
431.040726	5291.608452
431.418086	5280.326349
431.795385	5356.601527
432.172624	5347.771947
432.549802	5318.697092
432.926920	5304.171007
433.303977	5290.968225
433.680974	5301.375687
434.057910	5288.364469
434.434786	5266.929483
434.811601	5212.290937
435.188355	5381.416607
435.565050	5246.885855
435.941683	5195.476168
436.318257	5336.467159
436.694770	5282.955311
437.071222	5278.503972
437.447614	5188.191701
437.823946	5087.469447
438.200218	5163.583308
438.576429	5022.408316
438.952580	5049.839754
439.328670	5040.904309
439.704700	4933.991518
440.080670	4883.597624
440.456580	5018.856823
440.832429	4892.996855
441.208218	4744.418928
441.583947	4799.783400
441.959616	4754.095423
442.335224	4660.478675
442.710773	4694.375394
443.086261	4659.409951
443.461689	4497.886340
443.837057	4525.494219
444.212365	4558.591915
444.587612	4446.269966
444.962800	4476.080829
445.337927	4413.752003
445.712995	4167.511802
446.088002	4388.001789
446.462949	4259.706944
446.837837	4171.937935
447.212664	4203.452709
447.587431	4197.942728
447.962139	4362.317110
448.336786	4666.525539
448.711374	4511.038711
449.085901	4100.499744
449.460369	4004.826206
449.834776	3927.618414
450.209124	4005.284951
450.583412	3989.932117
450.957640	3991.734329
451.331808	3857.458156
451.705917	3676.720187
452.079965	3609.957666
452.453954	3612.561422
452.827883	3535.930843
453.201752	3514.062317
453.575562	3428.541663
453.949311	3422.341044
454.323001	3367.132847
454.696632	3339.192252
455.070202	3323.874706
455.443713	3316.668377
455.817164	3290.149387
456.190556	3263.859770
456.563888	3237.239957
456.937160	3205.493290
457.310373	3124.497072
457.683526	3089.327462
458.056619	3045.711399
458.429653	3013.997500
458.802628	2982.455000
459.175542	2967.795325
459.548398	2971.387147
459.921194	2963.739717
460.293930	2944.452262
460.666607	2960.899026
461.039224	2964.717700
461.411782	2949.017027
461.784280	2919.072573
462.156719	2881.238713
462.529099	2847.732684
462.901419	2802.458082
463.273680	2777.557302
463.645882	2761.077770
464.018024	2734.551219
464.390106	2727.748182
464.762130	2731.181207
465.134094	2741.571025
465.505999	2768.057248
465.877845	2795.350055
466.249631	2793.215126
466.621358	2758.179107
466.993026	2728.337997
467.364634	2710.724205
467.736184	2687.602953
468.107674	2672.267763
468.479105	2663.702842
468.850477	2652.637510
469.221790	2642.557723
469.593043	2631.167236
469.964238	2624.606174
470.335373	2617.213322
470.706449	2617.011676
471.077467	2611.395830
471.448425	2625.669857
471.819324	2632.674541
472.190164	2632.039355
472.560945	2615.539659
472.931667	2602.714963
473.302330	2601.716815
473.672934	2596.088367
474.043479	2595.422934
474.413965	2591.100145
474.784393	2589.945721
475.154761	2589.746595
475.525070	2589.174424
475.895321	2585.053281
476.265513	2585.146542
476.635645	2589.532346
477.005719	2588.077973
477.375734	2589.401276
477.745691	2591.153077
478.115588	2593.807244
478.485427	2592.718355
478.855207	2597.257914
479.224928	2600.275045
479.594591	2604.524737
479.964194	2605.565736
480.333739	2603.282093
480.703226	2600.154057
481.072653	2603.352669
481.442022	2602.989706
481.811333	2606.717639
482.180584	2602.266301
482.549777	2597.686412
482.918912	2595.697677
483.287988	2598.613985
483.657005	2596.854622
484.025964	2594.139961
484.394864	2595.904364
484.763706	2596.153902
485.132489	2593.088880
485.501213	2591.243818
485.869879	2591.568972
486.238487	2591.110227
486.607036	2591.329517
486.975527	2589.585278
487.343959	2593.472008
487.712333	2592.347830
488.080648	2588.098138
488.448905	2592.002511
488.817104	2592.504106
489.185244	2591.087542
489.553326	2591.763057
489.921350	2595.251535
490.289315	2602.024325
490.657222	2604.617999
491.025070	2599.476022
491.392861	2599.639859
491.760593	2601.457195
492.128267	2599.531475
492.495883	2593.550146
492.863440	2593.804724
493.230939	2589.204671
493.598380	2590.782552
493.965763	2583.059504
494.333088	2585.086048
494.700354	2582.477251
495.067563	2586.452201
495.434713	2579.903742
495.801805	2588.002356
496.168839	2588.773652
496.535815	2587.183168
496.902733	2585.925400
497.269593	2585.723754
497.636395	2585.096131
498.003139	2587.583940
498.369825	2585.302818
498.736453	2586.066553
499.103023	2585.335585
499.469535	2585.643096
499.835989	2585.108733
500.202385	2583.934145
500.568723	2582.366346
500.935003	2583.944227
501.301226	2581.582446
501.667390	2582.033630
502.033497	2586.578230
502.399546	2584.604618
502.765537	2579.722261
503.131470	2585.829618
503.497345	2584.287025
503.863163	2580.924576
504.228923	2583.377097
504.594625	2585.017993
504.960269	2581.247210
505.325856	2583.883733
505.691385	2582.381469
506.056856	2582.079000
506.422270	2582.757035
506.787625	2581.214442
507.152924	2581.847107
507.518164	2582.762076
507.883347	2582.532704
508.248472	2581.085893
508.613540	2582.704103
508.978550	2581.882395
509.343503	2583.397262
509.708398	2583.399782
510.073236	2585.207036
510.438016	2586.220308
510.802738	2582.464648
511.167403	2582.298290
511.532010	2582.825091
511.896561	2584.445822
512.261053	2585.544793
512.625488	2582.129412
512.989866	2579.124884
513.354186	2582.847776
513.718449	2575.157496
514.082655	2583.127560
514.446803	2582.852817
514.810894	2585.912797
515.174927	2585.431367
515.538904	2585.577561
515.902822	2586.502613
516.266684	2584.987746
516.630488	2584.425657
516.994235	2585.562437
517.357925	2583.477920
517.721558	2586.837849
518.085133	2585.842221
518.448651	2585.638055
518.812112	2586.013621
519.175516	2584.710482
519.538863	2586.527818
519.902152	2586.384145
520.265385	2585.990935
520.628560	2586.832808
520.991678	2586.870617
521.354739	2587.750298
521.717743	2586.515215
522.080690	2589.197109
522.443580	2588.425813
522.806413	2588.549321
523.169189	2587.609146
523.531908	2588.418251
523.894569	2586.041347
524.257174	2587.387335
524.619722	2587.026892
524.982213	2587.934300
525.344647	2587.339444
525.707025	2589.981009
526.069345	2589.965885
526.431608	2585.277612
526.793815	2587.042016
527.155964	2587.969588
527.518057	2588.534197
527.880093	2586.674012
528.242072	2587.462952
528.603995	2588.468662
528.965860	2587.772983
529.327669	2588.516553
529.689421	2585.617890
530.051117	2586.633683
530.412755	2589.973447
530.774337	2589.733992
531.135862	2586.086717
531.497331	2582.121850
531.858743	2581.698393
532.220098	2582.391552
532.581396	2581.902560
532.942638	2585.438929
533.303824	2586.482448
533.664953	2589.701225
534.026025	2586.469845
534.387040	2587.281471
534.747999	2587.074783
535.108902	2587.644434
535.469748	2586.782397
535.830537	2587.089907
536.191270	2587.263827
536.551947	2588.072932
536.912567	2584.942375
537.273131	2586.197623
537.633638	2583.805595
537.994089	2584.120667
538.354483	2587.004207
538.714821	2586.346337
539.075103	2585.106213
539.435328	2589.058477
539.795497	2585.103692
540.155609	2586.797520
540.515665	2587.470514
540.875665	2584.428178
541.235609	2584.798702
541.595496	2588.002356
541.955328	2587.798189
542.315102	2587.762901
542.674821	2583.803075
543.034483	2587.533528
543.394090	2582.946078
543.753640	2585.194433
544.113134	2585.257447
544.472571	2587.548652
544.831953	2588.854311
545.191278	2586.779876
545.550548	2587.006728
545.909761	2588.879517
546.268918	2591.485793
546.628019	2587.160483
546.987064	2587.047057
547.346053	2585.257447
547.704986	2586.306007
548.063863	2586.684094
548.422684	2588.204002
548.781449	2584.831470
549.140158	2587.470514
549.498811	2592.244487
549.857408	2585.575040
550.215949	2587.493199
550.574434	2585.728795
550.932864	2584.496233
551.291237	2585.973291
551.649555	2587.755339
552.007817	2587.324321
552.366022	2585.864907
552.724173	2587.820874
553.082267	2588.733323
553.440305	2589.098807
553.798288	2588.188878
554.156215	2586.694176
554.514086	2585.272571
554.871902	2585.842221
555.229661	2588.388004
555.587365	2584.652509
555.945014	2587.725092
556.302606	2590.424630
556.660143	2589.068560
557.017625	2587.256265
557.375050	2589.134095
557.732421	2589.461770
558.089735	2588.251893
558.446994	2588.352716
558.804197	2585.653178
559.161345	2585.096131
559.518437	2586.444639
559.875474	2586.217787
560.232455	2589.058477
560.589381	2588.476224
560.946251	2592.259610
561.303065	2588.393045
561.659825	2590.497727
562.016528	2589.078642
562.373177	2589.015628
562.729770	2589.088724
563.086307	2589.494537
563.442789	2586.550503
563.799216	2587.682242
564.155587	2585.920359
564.511904	2590.079311
564.868164	2587.518405
565.224370	2587.004207
565.580520	2587.473035
565.936615	2588.882037
566.292654	2587.735175
566.648638	2586.921028
567.004567	2587.200812
567.360441	2589.416399
567.716260	2582.673856
568.072023	2587.558734
568.427732	2583.571182
568.783385	2584.738209
569.138982	2581.842066
569.494525	2583.535893
569.850013	2582.315934
570.205445	2584.869279
570.560823	2584.798702
570.916145	2588.095617
571.271412	2586.868096
571.626625	2586.061512
571.981782	2584.902046
572.336884	2583.576223
572.691931	2586.396748
573.046923	2584.377766
573.401860	2586.878178
573.756743	2583.729978
574.111570	2584.251737
574.466342	2585.736357
574.821059	2584.576892
575.175722	2585.680904
575.530330	2581.486664
575.884882	2584.211408
576.239380	2583.336768
576.593823	2585.343147
576.948211	2583.243507
577.302544	2581.408527
577.656823	2584.012282
578.011047	2583.165369
578.365216	2583.039340
578.719330	2580.861561
579.073389	2582.212591
579.427394	2584.329875
579.781344	2580.947261
580.135239	2584.493713
580.489080	2582.610842
580.842866	2580.899370
581.196597	2582.457087
581.550273	2580.838876
581.903895	2580.733012
582.257463	2579.031622
582.610975	2579.402147
582.964434	2582.303331
583.317837	2578.978690
583.671186	2580.735532
584.024481	2578.988773
584.377721	2580.591860
584.730906	2579.830645
585.084037	2581.698393
585.437113	2580.773341
585.790135	2579.303845
586.143103	2580.438104
586.496016	2578.504822
586.848874	2575.167578
587.201679	2578.303176
587.554428	2575.540623
587.907124	2578.577919
588.259765	2574.572722
588.612352	2581.179154
588.964884	2578.681262
589.317362	2576.874009
589.669786	2576.816035
590.022155	2580.322158
590.374470	2578.580439
590.726731	2580.352405
591.078937	2578.663618
591.431090	2575.482650
591.783188	2578.981211
592.135232	2575.550706
592.487222	2575.633885
592.839157	2581.421129
593.191038	2576.377455
593.542866	2574.771847
593.894639	2577.940213
594.246358	2580.007086
594.598022	2574.761765
594.949633	2575.044070
595.301190	2576.478278
595.652692	2576.102712
596.004141	2578.731674
596.355535	2576.909297
596.706876	2576.939544
597.058162	2576.606828
597.409395	2575.719584
597.760573	2571.520303
598.111698	2574.111456
598.462768	2575.129769
598.813785	2573.524162
599.164748	2577.378124
599.515657	2574.890315
599.866511	2574.338308
600.217312	2571.588359
600.568060	2573.383010
600.918753	2575.223031
601.269392	2575.268401
601.619978	2572.946950
601.970510	2574.068607
602.320988	2575.212948
602.671412	2576.354770
603.021783	2575.999368
603.372100	2576.316961
603.722363	2575.291086
604.072572	2572.397464
604.422728	2575.520459
604.772830	2567.956208
605.122878	2566.290106
605.472872	2570.489387
605.822813	2569.385375
606.172701	2570.449058
606.522534	2573.763617
606.872314	2572.354614
607.222041	2570.880077
607.571714	2573.652711
607.921333	2574.308061
608.270899	2572.304203
608.620411	2572.372258
608.969870	2574.784450
609.319276	2576.561457
609.668627	2578.020871
610.017926	2580.017168
610.367171	2581.892477
610.716362	2576.861406
611.065500	2580.884247
611.414585	2578.751838
611.763616	2577.690676
612.112594	2575.812846
612.461518	2576.710171
612.810389	2578.804771
613.159207	2576.644636
613.507971	2574.721436
613.856682	2575.021385
614.205340	2574.176991
614.553945	2574.396282
614.902496	2573.219172
615.250994	2573.604820
615.599439	2574.116497
615.947830	2574.913000
616.296169	2573.065417
616.644454	2575.633885
616.992686	2574.066086
617.340864	2574.907959
617.688990	2572.515931
618.037063	2576.228741
618.385082	2570.605334
618.733048	2575.555747
619.080961	2573.821590
619.428821	2574.650860
619.776628	2573.947619
620.124382	2573.982907
620.472083	2575.122208
620.819731	2571.684141
621.167326	2572.916703
621.514868	2573.582135
621.862357	2572.024419
622.209793	2572.215982
622.557176	2571.485015
622.904506	2570.002916
623.251783	2564.976886
623.599007	2568.714901
623.946179	2566.794222
624.293297	2566.945456
624.640363	2568.367062
624.987376	2569.912175
625.334336	2567.956207
625.681243	2568.820765
626.028097	2569.438307
626.374899	2566.481670
626.721647	2568.893862
627.068343	2568.419994
627.414987	2568.735066
627.761577	2568.871177
628.108115	2567.315981
628.454600	2568.306568
628.801032	2565.919581
629.147412	2568.057031
629.493739	2567.613409
629.840014	2568.382185
630.186236	2566.027966
630.532405	2566.713563
630.878521	2566.849674
631.224585	2566.559808
631.570597	2566.539643
631.916556	2566.600137
632.262462	2567.741958
632.608316	2565.102914
632.954117	2561.710218
633.299866	2567.182390
633.645562	2565.987637
633.991206	2564.805486
634.336797	2563.177194
634.682336	2566.521999
635.027823	2563.935887
635.373257	2563.862791
635.718639	2561.364899
636.063968	2563.830023
636.409245	2561.080074
636.754470	2563.068809
637.099642	2560.893551
637.444762	2560.797769
637.789829	2561.649724
638.134845	2562.577296
638.479808	2561.828685
638.824719	2561.609395
639.169577	2557.964641
639.514383	2561.397666
639.859137	2562.683161
640.203839	2561.490928
640.548489	2562.332800
640.893086	2559.262738
641.237632	2557.576472
641.582125	2557.241235
641.926566	2554.259393
642.270955	2558.723334
642.615292	2560.157542
642.959576	2561.334652
643.303809	2560.845660
643.647990	2558.153684
643.992118	2558.778787
644.336195	2557.805844
