Dividing Wavelength (nm)	Counts (n)	Blue Motor Position (mm): 0.000000	Red Motor Position (mm): 28.500000	
326.493990	2128.712911
326.888308	2128.712911
327.282561	2128.712911
327.676750	2095.128744
328.070874	2093.147571
328.464933	2096.530185
328.858929	2104.956474
329.252859	2112.767742
329.646726	2123.160080
330.040528	2138.606176
330.434265	2154.808444
330.827938	2173.347287
331.221547	2188.027127
331.615091	2208.968080
332.008571	2226.216388
332.401986	2248.594070
332.795338	2267.508479
333.188625	2288.366253
333.581847	2307.356280
333.975006	2324.733137
334.368100	2343.773575
334.761129	2358.155987
335.154095	2376.636857
335.546996	2393.922974
335.939833	2407.808832
336.332606	2427.683581
336.725315	2438.121290
337.117960	2451.170317
337.510540	2457.534774
337.903056	2470.467854
338.295508	2476.595376
338.687896	2482.803557
339.080220	2488.734475
339.472480	2495.862666
339.864676	2502.411125
340.256807	2507.830366
340.648875	2510.603000
341.040879	2513.652898
341.432818	2515.760101
341.824694	2517.660616
342.216506	2515.765142
342.608253	2517.716068
342.999937	2517.733712
343.391557	2516.912004
343.783113	2512.309431
344.174605	2517.602642
344.566033	2511.873371
344.957397	2509.204080
345.348697	2508.309275
345.739934	2508.788185
346.131106	2505.087978
346.522215	2505.541682
346.913260	2502.098574
347.304241	2501.024808
347.695159	2501.856598
348.086012	2498.390805
348.476802	2495.348469
348.867528	2495.648417
349.258191	2493.858808
349.648789	2492.870742
350.039324	2491.307984
350.429796	2491.605412
350.820203	2487.466625
351.210548	2486.826398
351.600828	2484.797334
351.991045	2487.307828
352.381198	2484.262971
352.771288	2485.303970
353.161314	2483.587457
353.551276	2485.697180
353.941175	2483.053094
354.331010	2487.345637
354.720782	2487.937972
355.110490	2486.292036
355.500135	2487.713641
355.889717	2482.072590
356.279235	2486.468476
356.668689	2485.533342
357.058080	2488.031234
357.447408	2483.476551
357.836672	2485.878661
358.225873	2486.455873
358.615010	2483.892447
359.004084	2489.654485
359.393095	2488.162304
359.782043	2491.232367
360.170927	2492.066678
360.559748	2491.905361
360.948505	2492.132213
361.337199	2494.829230
361.725830	2493.818478
362.114398	2492.893427
362.502903	2491.688591
362.891344	2497.022132
363.279722	2495.303098
363.668037	2494.541884
364.056289	2495.497183
364.444478	2501.276866
364.832603	2498.143788
365.220665	2497.697646
365.608665	2497.916937
365.996601	2501.518841
366.384474	2500.838285
366.772284	2505.909686
367.160031	2503.631084
367.547715	2504.268790
367.935336	2507.588390
368.322893	2512.662312
368.710388	2512.417816
369.097820	2520.287057
369.485189	2522.132119
369.872495	2531.707791
370.259738	2537.028729
370.646918	2543.342774
371.034035	2551.151521
371.421090	2559.401369
371.808081	2572.137845
372.195010	2582.194947
372.581875	2594.220619
372.968678	2606.493308
373.355418	2615.131325
373.742096	2633.783594
374.128710	2650.091727
374.515262	2666.677123
374.901751	2676.822445
375.288177	2692.230732
375.674540	2717.116388
376.060841	2735.519120
376.447079	2752.081831
376.833254	2776.271808
377.219367	2785.108951
377.605417	2825.213850
377.991404	2831.477484
378.377329	2856.169055
378.763191	2871.743700
379.148991	2910.492529
379.534727	2936.204934
379.920402	2962.388687
380.306013	2974.860502
380.691563	3028.095087
381.077049	3045.824825
381.462474	3066.695202
381.847835	3104.082919
382.233134	3129.114768
382.618371	3125.946403
383.003545	3195.042978
383.388657	3198.342414
383.773706	3234.404308
384.158693	3249.197574
384.543618	3276.893673
384.928480	3312.993376
385.313280	3358.479707
385.698017	3357.307638
386.082692	3409.085330
386.467305	3414.640681
386.851856	3448.270218
387.236344	3469.952221
387.620770	3501.923219
388.005133	3527.529760
388.389435	3556.982701
388.773674	3567.465781
389.157851	3605.947428
389.541965	3623.036940
389.926018	3589.462855
390.310008	3659.739061
390.693936	3679.739838
391.077802	3718.125704
391.461606	3708.764282
391.845348	3772.146709
392.229027	3773.291051
392.612645	3784.588277
392.996200	3861.029813
393.379694	3899.980288
393.763125	3964.570072
394.146494	3931.779887
394.529801	3992.324144
394.913047	4044.837844
395.296230	4005.559694
395.679351	4064.233683
396.062410	4085.774534
396.445408	4073.930343
396.828343	4101.734827
397.211217	4124.039412
397.594028	4041.339283
397.976778	4111.660859
398.359466	4135.906288
398.742092	4166.838808
399.124656	4089.872992
399.507158	4165.442409
399.889598	4195.676729
400.271977	4256.435236
400.654294	4226.997418
401.036549	4236.489910
401.418742	4206.653841
401.800874	4311.285510
402.182944	4331.014066
402.564952	4394.129312
402.946898	4379.144482
403.328783	4375.895458
403.710606	4286.233496
404.092367	4485.822859
404.474067	4444.606385
404.855705	4455.787664
405.237282	4385.198908
405.618797	4492.462059
406.000250	4525.136297
406.381642	4608.688381
406.762972	4570.718410
407.144240	4582.842385
407.525447	4584.042180
407.906593	4635.023369
408.287677	4679.937529
408.668700	4606.170325
409.049661	4664.047812
409.430560	4701.964851
409.811399	4628.530363
410.192176	4789.151607
410.572891	4729.441660
410.953545	4833.780942
411.334138	4712.742838
411.714669	4783.379485
412.095139	4674.288916
412.475547	4818.644877
412.855894	4798.366836
413.236180	4811.211696
413.616405	4763.172020
413.996568	4848.637222
414.376670	4790.253099
414.756711	4744.174432
415.136691	4773.975213
415.516609	4852.261812
415.896466	4893.735384
416.276262	4927.289304
416.655997	4909.194083
417.035670	5089.763172
417.415283	5179.021842
417.794834	5122.182833
418.174324	5078.602058
418.553753	4986.359024
418.933121	5167.018855
419.312428	5236.044854
419.691674	5176.907078
420.070859	5301.229494
420.449983	5213.339497
420.829045	5328.169420
421.208047	5235.918825
421.586988	5307.508251
421.965867	5318.951670
422.344686	5449.114262
422.723444	5306.129495
423.102141	5123.145693
423.480777	5422.625519
423.859352	5194.619172
424.237866	5450.122493
424.616319	5442.921205
424.994712	5553.317433
425.373044	5429.294966
425.751314	5577.071350
426.129524	5373.880082
426.507673	5568.972736
426.885762	5651.758565
427.263789	5583.133337
427.641756	5467.799299
428.019662	5581.094191
428.397508	5588.209779
428.775292	5537.495772
429.153016	5636.355319
429.530679	5566.772272
429.908282	5656.204862
430.285824	5523.660325
430.663305	5797.029495
431.040726	5529.855903
431.418086	5527.834400
431.795385	5635.745339
432.172624	5647.282020
432.549802	5639.183406
432.926920	5653.366693
433.303977	5663.600235
433.680974	5701.739084
434.057910	5721.331529
434.434786	5723.073247
434.811601	5692.070151
435.188355	5929.453045
435.565050	5802.100896
435.941683	5781.752278
436.318257	5995.648436
436.694770	5979.378112
437.071222	6015.908833
437.447614	5945.940138
437.823946	5857.394792
438.200218	6015.815572
438.576429	5881.040324
438.952580	5975.730837
439.328670	6025.093816
439.704700	5929.279125
440.080670	5914.899234
440.456580	6186.027611
440.832429	6069.680301
441.208218	5913.507875
441.583947	6073.264561
441.959616	6071.142235
442.335224	6002.517008
442.710773	6138.797041
443.086261	6165.225290
443.461689	5957.935564
443.837057	6104.648264
444.212365	6256.480257
444.587612	6155.531151
444.962800	6311.403628
445.337927	6292.186749
445.712995	5901.106637
446.088002	6472.894471
446.462949	6304.187216
446.837837	6236.361012
447.212664	6405.910139
447.587431	6548.738630
447.962139	7090.604695
448.336786	8016.251282
448.711374	7755.936180
449.085901	6831.781775
449.460369	6752.076091
449.834776	6681.426841
450.209124	7073.908394
450.583412	7220.406845
450.957640	7366.534772
451.331808	7130.964173
451.705917	6681.089083
452.079965	6604.138390
452.453954	6811.838970
452.827883	6686.745258
453.201752	6778.000225
453.575562	6578.292395
453.949311	6773.090141
454.323001	6661.332801
454.696632	6732.423153
455.070202	6865.060952
455.443713	7008.779207
455.817164	7103.590708
456.190556	7181.622728
456.563888	7248.518840
456.937160	7286.299767
457.310373	6944.688497
457.683526	6956.212575
458.056619	6848.248704
458.429653	6828.005950
458.802628	6758.541371
459.175542	6856.120465
459.548398	7191.977258
459.921194	7326.883576
460.293930	7319.707494
460.666607	7814.070766
461.039224	8094.227850
461.411782	8200.538223
461.784280	8202.365641
462.156719	8098.477543
462.529099	7961.015360
462.901419	7549.241311
463.273680	7428.261180
463.645882	7432.173115
464.018024	7283.073429
464.390106	7423.963596
464.762130	7763.303826
465.134094	8156.085328
465.505999	9042.569712
465.877845	10115.801118
466.249631	10683.218272
466.621358	10319.509104
466.993026	9721.025840
467.364634	9464.915060
467.736184	9101.062220
468.107674	8762.873893
468.479105	8743.646932
468.850477	8509.034153
469.221790	8272.261239
469.593043	7947.515150
469.964238	7779.649768
470.335373	7750.395952
470.706449	7760.495904
471.077467	7699.200514
471.448425	8722.073315
471.819324	9537.132110
472.190164	9521.131487
472.560945	8466.272566
472.931667	7769.580063
473.302330	7609.596525
473.672934	7275.325175
474.043479	7500.039649
474.413965	7404.136738
474.784393	7248.786021
475.154761	7314.787327
475.525070	7320.503996
475.895321	7136.428784
476.265513	7207.861934
476.635645	7275.186543
477.005719	7198.923968
477.375734	7218.360137
477.745691	7314.903274
478.115588	7333.094278
478.485427	7419.802124
478.855207	7707.478089
479.224928	8131.660938
479.594591	8457.115310
479.964194	8244.335768
480.333739	8136.384499
480.703226	7970.238151
481.072653	7935.015609
481.442022	7969.786967
481.811333	7987.047878
482.180584	7785.210160
482.549777	7507.460228
482.918912	7325.862743
483.287988	7239.364104
483.657005	7163.237640
484.025964	6901.516056
484.394864	6873.202415
484.763706	6768.870695
485.132489	6571.290232
485.501213	6458.955680
485.869879	6415.989926
486.238487	6244.678915
486.607036	6224.410956
486.975527	6029.421646
487.343959	6034.843407
487.712333	5961.361028
488.080648	5856.399164
488.448905	5779.380415
488.817104	5676.750085
489.185244	5696.725657
489.553326	5664.369011
489.921350	5778.747751
490.289315	6049.170366
490.657222	6080.138174
491.025070	5952.017249
491.392861	5823.787940
491.760593	5615.641218
492.128267	5413.450619
492.495883	5235.321448
492.863440	5053.849992
493.230939	4881.576121
493.598380	4795.649654
493.965763	4674.631715
494.333088	4597.078604
494.700354	4500.343903
495.067563	4463.193119
495.434713	4351.309751
495.801805	4322.101306
496.168839	4247.877877
496.535815	4165.719672
496.902733	4117.047332
497.269593	4042.486146
497.636395	4011.248636
498.003139	3946.366465
498.369825	3883.107546
498.736453	3854.083103
499.103023	3796.271151
499.469535	3749.088471
499.835989	3698.462684
500.202385	3648.146927
500.568723	3584.504881
500.935003	3576.678489
501.301226	3503.649814
501.667390	3500.378105
502.033497	3467.187148
502.399546	3418.734098
502.765537	3365.736448
503.131470	3337.387519
503.497345	3317.848007
503.863163	3253.699324
504.228923	3242.840679
504.594625	3216.528376
504.960269	3165.879903
505.325856	3152.087307
505.691385	3112.030298
506.056856	3095.452464
506.422270	3073.135276
506.787625	3041.496994
507.152924	3024.934283
507.518164	3002.501148
507.883347	2973.201962
508.248472	2950.219342
508.613540	2940.822631
508.978550	2916.715833
509.343503	2899.396949
509.708398	2887.940927
510.073236	2873.152702
510.438016	2862.127699
510.802738	2840.798577
511.167403	2831.832885
511.532010	2811.963177
511.896561	2810.168526
512.261053	2798.228553
512.625488	2780.012344
512.989866	2767.273348
513.354186	2757.851432
513.718449	2747.791809
514.082655	2743.403485
514.446803	2735.977865
514.810894	2730.029304
515.174927	2721.373642
515.538904	2713.549772
515.902822	2709.390820
516.266684	2701.609799
516.630488	2696.603933
516.994235	2691.018335
517.357925	2689.594209
517.721558	2683.864937
518.085133	2681.044412
518.448651	2676.323371
518.812112	2671.153668
519.175516	2665.557987
519.538863	2665.515137
519.902152	2663.150836
520.265385	2658.845691
520.628560	2655.836122
520.991678	2651.687252
521.354739	2652.173724
521.717743	2650.026192
522.080690	2647.059473
522.443580	2647.866058
522.806413	2646.189874
523.169189	2644.554020
523.531908	2642.885398
523.894569	2638.439100
524.257174	2637.231744
524.619722	2636.268883
524.982213	2638.597896
525.344647	2636.783081
525.707025	2632.540950
526.069345	2632.815693
526.431608	2631.187400
526.793815	2630.849643
527.155964	2629.743110
527.518057	2625.821092
527.880093	2625.339662
528.242072	2621.437809
528.603995	2622.836729
528.965860	2622.181379
529.327669	2622.234311
529.689421	2621.624331
530.051117	2620.306070
530.412755	2618.584516
530.774337	2617.079731
531.135862	2617.750205
531.497331	2613.808022
531.858743	2610.190994
532.220098	2616.351284
532.581396	2613.326592
532.942638	2612.343567
533.303824	2614.796088
533.664953	2611.844493
534.026025	2613.137549
534.387040	2614.896912
534.747999	2612.560337
535.108902	2612.520007
535.469748	2609.888525
535.830537	2610.944647
536.191270	2610.070007
536.551947	2613.681993
536.912567	2611.405913
537.273131	2610.591766
537.633638	2611.617641
537.994089	2608.766868
538.354483	2607.390633
538.714821	2608.880294
539.075103	2608.781992
539.435328	2608.416508
539.795497	2609.097064
540.155609	2607.705706
540.515665	2606.379882
540.875665	2604.839810
541.235609	2606.636981
541.595496	2606.387444
541.955328	2608.149327
542.315102	2606.165633
542.674821	2603.181270
543.034483	2608.008175
543.394090	2603.849223
543.753640	2606.510952
544.113134	2608.161930
544.472571	2606.899121
544.831953	2606.465582
545.191278	2607.872064
545.550548	2606.289141
545.909761	2604.368462
546.268918	2608.600510
546.628019	2607.804008
546.987064	2605.908534
547.346053	2607.988010
547.704986	2605.646394
548.063863	2606.510952
548.422684	2604.572628
548.781449	2605.971549
549.140158	2605.454830
549.498811	2605.260746
549.857408	2600.481732
550.215949	2602.341918
550.574434	2603.035077
550.932864	2601.890735
551.291237	2598.994592
551.649555	2606.647063
552.007817	2607.141096
552.366022	2609.018926
552.724173	2605.888370
553.082267	2604.807042
553.440305	2604.043307
553.798288	2606.256374
554.156215	2606.233689
554.514086	2604.025663
554.871902	2604.645725
555.229661	2603.929881
555.587365	2603.564398
555.945014	2604.368462
556.302606	2604.786878
556.660143	2604.292844
557.017625	2602.452823
557.375050	2604.610437
557.732421	2605.167485
558.089735	2604.645725
558.446994	2605.346446
558.804197	2604.262597
559.161345	2603.670262
559.518437	2604.242433
559.875474	2599.947370
560.232455	2606.757969
560.589381	2605.094388
560.946251	2606.251333
561.303065	2606.125304
561.659825	2606.785695
562.016528	2602.893924
562.373177	2601.752103
562.729770	2600.895107
563.086307	2605.031373
563.442789	2603.743359
563.799216	2605.601024
564.155587	2604.814604
564.511904	2602.825869
564.868164	2603.100612
565.224370	2604.053390
565.580520	2600.557349
565.936615	2606.190839
566.292654	2603.478698
566.648638	2604.509614
567.004567	2604.706219
567.360441	2604.038266
567.716260	2601.452154
568.072023	2599.876794
568.427732	2595.972420
568.783385	2601.545416
569.138982	2598.112390
569.494525	2601.681527
569.850013	2596.577358
570.205445	2602.800663
570.560823	2599.760847
570.916145	2598.563573
571.271412	2600.912751
571.626625	2599.256732
571.981782	2598.644232
572.336884	2599.274376
572.691931	2600.161619
573.046923	2601.013574
573.401860	2599.208841
573.756743	2599.430652
574.111570	2599.677668
574.466342	2599.934767
574.821059	2599.770929
575.175722	2599.934767
575.530330	2603.224120
575.884882	2600.015425
576.239380	2597.434355
576.593823	2600.769078
576.948211	2600.423759
577.302544	2598.722369
577.656823	2598.182966
578.011047	2599.062647
578.365216	2598.437544
578.719330	2599.108018
579.073389	2597.799838
579.427394	2594.041658
579.781344	2595.806062
580.135239	2596.526947
580.489080	2595.097780
580.842866	2596.048037
581.196597	2597.474684
581.550273	2597.807400
581.903895	2596.738675
582.257463	2596.416042
582.610975	2597.285641
582.964434	2598.871083
583.317837	2593.237594
583.671186	2596.332862
584.024481	2595.054930
584.377721	2598.871083
584.730906	2591.752974
585.084037	2598.092225
585.437113	2591.546287
585.790135	2595.367482
586.143103	2596.126175
586.496016	2593.620722
586.848874	2586.558065
587.201679	2593.587954
587.554428	2589.136615
587.907124	2594.029055
588.259765	2588.806420
588.612352	2592.201637
588.964884	2592.983016
589.317362	2593.756833
589.669786	2590.739702
590.022155	2594.011411
590.374470	2591.826071
590.726731	2592.554518
591.078937	2589.744074
591.431090	2591.667275
591.783188	2591.712645
592.135232	2590.565782
592.487222	2591.372367
592.839157	2590.772470
593.191038	2590.679208
593.542866	2591.042172
593.894639	2590.659044
594.246358	2589.023189
594.598022	2592.103334
594.949633	2587.188209
595.301190	2588.514033
595.652692	2589.161821
596.004141	2592.587285
596.355535	2590.280957
596.706876	2590.817840
597.058162	2590.391863
597.409395	2588.904722
597.760573	2588.183837
598.111698	2590.079311
598.462768	2590.326328
598.813785	2589.270206
599.164748	2584.536562
599.515657	2588.178796
599.866511	2590.346492
600.217312	2591.392532
600.568060	2586.447160
600.918753	2588.680391
601.269392	2589.653334
601.619978	2589.199630
601.970510	2587.752819
602.320988	2586.679053
602.671412	2588.498909
603.021783	2586.479927
603.372100	2589.129054
603.722363	2584.176120
604.072572	2588.584609
604.422728	2589.058478
604.772830	2584.299628
605.122878	2582.608321
605.472872	2583.205698
605.822813	2581.428691
606.172701	2583.001531
606.522534	2587.999835
606.872314	2587.939341
607.222041	2586.661409
607.571714	2589.476893
607.921333	2589.045875
608.270899	2586.174937
608.620411	2588.745926
608.969870	2588.536718
609.319276	2587.740216
609.668627	2591.616863
610.017926	2590.563262
610.367171	2593.537543
610.716362	2592.703232
611.065500	2593.567790
611.414585	2598.374530
611.763616	2588.761049
612.112594	2589.479414
612.461518	2589.628128
612.810389	2591.790783
613.159207	2586.696697
613.507971	2588.982860
613.856682	2590.412027
614.205340	2587.568817
614.553945	2588.408169
614.902496	2592.115937
615.250994	2589.630648
615.599439	2590.278437
615.947830	2591.674836
616.296169	2588.093097
616.644454	2589.802048
616.992686	2588.700556
617.340864	2593.116606
617.688990	2590.855649
618.037063	2588.909763
618.385082	2588.393045
618.733048	2590.845567
619.080961	2587.737695
619.428821	2591.294229
619.776628	2587.704928
620.124382	2590.895978
620.472083	2589.000504
620.819731	2589.615525
621.167326	2587.972109
621.514868	2588.025041
621.862357	2584.367684
622.209793	2586.812643
622.557176	2586.721903
622.904506	2583.979515
623.251783	2580.974987
623.599007	2581.814339
623.946179	2580.571695
624.293297	2583.780389
624.640363	2584.135791
624.987376	2585.806933
625.334336	2583.757704
625.681243	2583.906418
626.028097	2585.829618
626.374899	2583.440112
626.721647	2581.406006
627.068343	2581.506829
627.414987	2583.470358
627.761577	2584.103023
628.108115	2578.388875
628.454600	2580.859041
628.801032	2579.845769
629.147412	2582.399113
629.493739	2581.917683
629.840014	2579.427353
630.186236	2582.797364
630.532405	2581.196798
630.878521	2579.835687
631.224585	2580.155800
631.570597	2580.365008
631.916556	2579.581108
632.262462	2580.599421
632.608316	2577.453741
632.954117	2579.238310
633.299866	2578.991293
633.645562	2576.959708
633.991206	2580.349884
634.336797	2577.002558
634.682336	2578.729153
635.027823	2579.376942
635.373257	2574.194635
635.718639	2575.401992
636.063968	2577.940213
636.409245	2575.921231
636.754470	2575.487691
637.099642	2574.784450
637.444762	2577.809143
637.789829	2576.190932
638.134845	2573.952660
638.479808	2576.992476
638.824719	2573.488874
639.169577	2573.549368
639.514383	2572.528534
639.859137	2572.526013
640.203839	2571.989131
640.548489	2570.665828
640.893086	2571.774882
641.237632	2565.140723
641.582125	2571.550550
641.926566	2566.811866
642.270955	2573.352763
642.615292	2573.166240
642.959576	2573.690520
643.303809	2573.141034
643.647990	2572.248750
643.992118	2572.321847
644.336195	2572.102557
