Dividing Wavelength (nm)	Counts (n)	Blue Motor Position (mm): 0.000000	Red Motor Position (mm): 43.600000	
326.493990	2130.247943
326.888308	2130.247943
327.282561	2130.247943
327.676750	2096.497418
328.070874	2093.374423
328.464933	2095.882397
328.858929	2102.841710
329.252859	2112.924017
329.646726	2125.040431
330.040528	2137.056021
330.434265	2154.538742
330.827938	2170.282266
331.221547	2187.371777
331.615091	2210.482947
332.008571	2226.140771
332.401986	2246.050808
332.795338	2264.879518
333.188625	2284.502209
333.581847	2305.271763
333.975006	2324.143322
334.368100	2341.462206
334.761129	2359.925432
335.154095	2375.401775
335.546996	2394.923643
335.939833	2419.053126
336.332606	2436.036773
336.725315	2446.766869
337.117960	2455.679629
337.510540	2463.725311
337.903056	2475.135962
338.295508	2482.687611
338.687896	2490.209012
339.080220	2499.076402
339.472480	2507.124604
339.864676	2512.783299
340.256807	2512.916890
340.648875	2516.788496
341.040879	2521.272602
341.432818	2524.254445
341.824694	2523.626821
342.216506	2525.812161
342.608253	2527.594209
342.999937	2525.940711
343.391557	2525.847449
343.783113	2526.192768
344.174605	2524.196472
344.566033	2520.375277
344.957397	2518.378980
345.348697	2517.280008
345.739934	2516.647344
346.131106	2513.567199
346.522215	2513.536952
346.913260	2508.465551
347.304241	2510.789523
347.695159	2507.883298
348.086012	2507.447238
348.476802	2504.203255
348.867528	2504.175529
349.258191	2501.249139
349.648789	2500.780312
350.039324	2498.063130
350.429796	2500.097236
350.820203	2495.141781
351.210548	2495.741679
351.600828	2491.847387
351.991045	2497.019611
352.381198	2493.349651
352.771288	2496.460043
353.161314	2494.708242
353.551276	2492.598519
353.941175	2493.828561
354.331010	2493.115238
354.720782	2491.890237
355.110490	2492.817809
355.500135	2494.751092
355.889717	2495.345948
356.279235	2492.772439
356.668689	2492.573313
357.058080	2493.866369
357.447408	2490.549290
357.836672	2491.507109
358.225873	2493.672285
358.615010	2491.854949
359.004084	2498.741165
359.393095	2496.633963
359.782043	2497.778305
360.170927	2497.405259
360.559748	2500.011536
360.948505	2499.467091
361.337199	2503.416835
361.725830	2500.838285
362.114398	2503.971362
362.502903	2503.290807
362.891344	2503.815087
363.279722	2505.229130
363.668037	2504.548574
364.056289	2506.010509
364.444478	2505.037566
364.832603	2505.307268
365.220665	2509.733401
365.608665	2506.912876
365.996601	2508.004285
366.384474	2509.483864
366.772284	2512.059894
367.160031	2511.074348
367.547715	2515.687004
367.935336	2516.879237
368.322893	2518.777231
368.710388	2521.111285
369.097820	2529.509848
369.485189	2530.568490
369.872495	2541.278421
370.259738	2545.132383
370.646918	2554.521532
371.034035	2559.454302
371.421090	2571.469892
371.808081	2579.767631
372.195010	2586.598394
372.581875	2601.696650
372.968678	2616.338682
373.355418	2623.842439
373.742096	2641.037815
374.128710	2655.941986
374.515262	2674.024605
374.901751	2685.152952
375.288177	2700.102494
375.674540	2723.236349
376.060841	2740.706467
376.447079	2760.591299
376.833254	2781.002931
377.219367	2795.324849
377.605417	2831.200220
377.991404	2842.177333
378.377329	2863.776156
378.763191	2878.650081
379.148991	2918.150042
379.534727	2944.026284
379.920402	2971.172898
380.306013	2982.825525
380.691563	3030.356044
381.077049	3054.843449
381.462474	3072.792477
381.847835	3111.334619
382.233134	3132.220119
382.618371	3132.472177
383.003545	3201.503217
383.388657	3211.638457
383.773706	3240.786408
384.158693	3255.970364
384.543618	3282.612862
384.928480	3316.393634
385.313280	3366.245604
385.698017	3363.984647
386.082692	3417.567071
386.467305	3421.446239
386.851856	3455.153914
387.236344	3475.106801
387.620770	3506.069568
388.005133	3536.808003
388.389435	3559.662074
388.773674	3572.648087
389.157851	3614.275415
389.541965	3633.036069
389.926018	3594.380501
390.310008	3663.565296
390.693936	3682.698996
391.077802	3727.013259
391.461606	3714.773337
391.845348	3777.835651
392.229027	3776.686268
392.612645	3791.741674
392.996200	3865.476111
393.379694	3909.339190
393.763125	3972.903099
394.146494	3940.067544
394.529801	3999.527953
394.913047	4049.130387
395.296230	4014.467413
395.679351	4072.314653
396.062410	4094.745267
396.445408	4075.699788
396.828343	4107.779170
397.211217	4131.109630
397.594028	4052.034091
397.976778	4117.619503
398.359466	4147.135458
398.742092	4173.054551
399.124656	4097.603601
399.507158	4176.656455
399.889598	4200.617060
400.271977	4260.420268
400.654294	4232.797265
401.036549	4243.355962
401.418742	4217.026015
401.800874	4320.389834
402.182944	4334.931042
402.564952	4400.965116
402.946898	4390.172006
403.328783	4381.644894
403.710606	4298.478459
404.092367	4485.011233
404.474067	4454.693734
404.855705	4460.223880
405.237282	4386.403743
405.618797	4498.748378
406.000250	4529.892626
406.381642	4613.790029
406.762972	4573.884255
407.144240	4588.228858
407.525447	4588.929579
407.906593	4644.551150
408.287677	4688.124363
408.668700	4618.596769
409.049661	4666.084438
409.430560	4708.775450
409.811399	4637.947238
410.192176	4796.675529
410.572891	4731.327051
410.953545	4844.899206
411.334138	4719.566039
411.714669	4789.975835
412.095139	4681.507848
412.475547	4824.878264
412.855894	4804.423782
413.236180	4817.593797
413.616405	4767.013379
413.996568	4855.034446
414.376670	4799.793482
414.756711	4750.506121
415.136691	4783.346718
415.516609	4861.169530
415.896466	4899.005911
416.276262	4933.908339
416.655997	4914.046193
417.035670	5098.073514
417.415283	5187.611968
417.794834	5132.154235
418.174324	5086.597328
418.553753	4991.795909
418.933121	5175.644269
419.312428	5247.097584
419.691674	5182.497718
420.070859	5310.416997
420.449983	5223.399119
420.829045	5334.995142
421.208047	5243.425103
421.586988	5316.950332
421.965867	5331.461293
422.344686	5455.982834
422.723444	5308.839115
423.102141	5133.948886
423.480777	5427.903608
423.859352	5197.273340
424.237866	5461.860820
424.616319	5450.896310
424.994712	5561.335388
425.373044	5436.483651
425.751314	5580.126289
426.129524	5384.342997
426.507673	5580.847174
426.885762	5658.939688
427.263789	5593.286221
427.641756	5472.192665
428.019662	5596.326037
428.397508	5602.100679
428.775292	5545.606988
429.153016	5646.029293
429.530679	5576.801648
429.908282	5660.169730
430.285824	5532.197519
430.663305	5806.131298
431.040726	5539.240011
431.418086	5542.194127
431.795385	5643.097862
432.172624	5656.880377
432.549802	5647.740765
432.926920	5665.682232
433.303977	5673.506102
433.680974	5713.411876
434.057910	5731.101285
434.434786	5739.164611
434.811601	5702.815371
435.188355	5934.416061
435.565050	5810.139016
435.941683	5795.363394
436.318257	6006.058419
436.694770	5990.859340
437.071222	6026.860740
437.447614	5958.555626
437.823946	5868.984404
438.200218	6023.455441
438.576429	5889.617847
438.952580	5989.644422
439.328670	6030.155134
439.704700	5941.700528
440.080670	5926.105719
440.456580	6198.809457
440.832429	6076.823616
441.208218	5926.284680
441.583947	6081.572383
441.959616	6081.355613
442.335224	6011.092011
442.710773	6152.609802
443.086261	6181.704822
443.461689	5971.287060
443.837057	6120.595955
444.212365	6272.342247
444.587612	6169.023799
444.962800	6326.713612
445.337927	6307.791641
445.712995	5911.579634
446.088002	6493.051524
446.462949	6314.264482
446.837837	6250.476242
447.212664	6423.760865
447.587431	6566.667494
447.962139	7108.089937
448.336786	8034.364148
448.711374	7771.480578
449.085901	6849.451019
449.460369	6773.513598
449.834776	6707.366098
450.209124	7094.037721
450.583412	7247.853407
450.957640	7397.295893
451.331808	7159.925602
451.705917	6707.628238
452.079965	6635.290201
452.453954	6850.350865
452.827883	6727.578604
453.201752	6819.829199
453.575562	6611.543845
453.949311	6812.935421
454.323001	6709.029678
454.696632	6779.358816
455.070202	6919.598675
455.443713	7077.946358
455.817164	7173.871954
456.190556	7251.258707
456.563888	7329.993968
456.937160	7375.891153
457.310373	7027.910386
457.683526	7055.929119
458.056619	6948.154291
458.429653	6936.748680
458.802628	6871.402723
459.175542	6976.848538
459.548398	7336.975966
459.921194	7493.135789
460.293930	7500.238775
460.666607	8030.953807
461.039224	8337.718101
461.411782	8466.388512
461.784280	8486.331317
462.156719	8372.373513
462.529099	8249.560923
462.901419	7839.034560
463.273680	7729.558343
463.645882	7744.764983
464.018024	7608.091741
464.390106	7776.446114
464.762130	8166.079416
465.134094	8630.036969
465.505999	9660.600050
465.877845	10881.267563
466.249631	11529.194463
466.621358	11145.993674
466.993026	10523.625423
467.364634	10256.993755
467.736184	9896.294157
468.107674	9559.240090
468.479105	9592.904915
468.850477	9356.041261
469.221790	9127.732444
469.593043	8796.568966
469.964238	8662.890168
470.335373	8675.062034
470.706449	8731.089418
471.077467	8716.701965
471.448425	10030.068736
471.819324	11101.467683
472.190164	11124.059614
472.560945	9877.717505
472.931667	9081.366432
473.302330	8951.770969
473.672934	8594.988347
474.043479	8950.303993
474.413965	8892.449191
474.784393	8772.391592
475.154761	8929.877238
475.525070	9019.869396
475.895321	8848.946554
476.265513	9020.784365
476.635645	9197.668371
477.005719	9190.630921
477.375734	9304.966810
477.745691	9540.449189
478.115588	9677.213172
478.485427	9917.230068
478.855207	10455.050608
479.224928	11273.050916
479.594591	11905.410734
479.964194	11721.043135
480.333739	11654.114256
480.703226	11564.994217
481.072653	11655.898824
481.442022	11903.384190
481.811333	12088.265987
482.180584	11896.959239
482.549777	11601.865217
482.918912	11418.712536
483.287988	11445.168511
483.657005	11456.939605
484.025964	11138.827674
484.394864	11267.306521
484.763706	11237.314176
485.132489	10993.849131
485.501213	10964.693617
485.869879	11034.488392
486.238487	10880.655062
486.607036	10987.073820
486.975527	10765.434450
487.343959	10953.363624
487.712333	11009.411173
488.080648	10933.630028
488.448905	10983.144241
488.817104	10917.084961
489.185244	11183.454489
489.553326	11336.899650
489.921350	11884.953732
490.289315	12936.006582
490.657222	13286.346610
491.025070	13197.082899
491.392861	13063.295717
491.760593	12686.287985
492.128267	12332.653563
492.495883	12003.047802
492.863440	11670.767708
493.230939	11333.577530
493.598380	11267.586305
493.965763	11131.644030
494.333088	11035.988136
494.700354	10962.823349
495.067563	11018.124807
495.434713	10849.747748
495.801805	10979.093673
496.168839	10898.094934
496.535815	10838.019504
496.902733	10834.258803
497.269593	10767.551735
497.636395	10864.702331
498.003139	10854.589776
498.369825	10718.778571
498.736453	10881.086081
499.103023	10806.713938
499.469535	10836.368526
499.835989	10823.170785
500.202385	10789.069900
500.568723	10635.980140
500.935003	10856.734787
501.301226	10665.856538
501.667390	10923.945971
502.033497	11022.808039
502.399546	10880.478622
502.765537	10789.541248
503.131470	10861.198729
503.497345	11036.567868
503.863163	10649.969342
504.228923	10962.760335
504.594625	11029.558144
504.960269	10771.763619
505.325856	10995.454738
505.691385	10787.086206
506.056856	10938.819895
506.422270	10973.099742
506.787625	10853.367297
507.152924	10968.839967
507.518164	10951.458068
507.883347	10875.334124
508.248472	10792.228183
508.613540	11027.113184
508.978550	10907.317725
509.343503	10884.488860
509.708398	10995.421971
510.073236	11113.402615
510.438016	11117.347318
510.802738	11063.580891
511.167403	11115.774478
511.532010	11010.419403
511.896561	11255.467371
512.261053	11318.915334
512.625488	11193.516632
512.989866	11164.280460
513.354186	11161.364152
513.718449	11057.607124
514.082655	11252.215827
514.446803	11146.336473
514.810894	11269.922880
515.174927	11134.577982
515.538904	11161.911118
515.902822	11319.510190
516.266684	11204.307222
516.630488	11146.684312
516.994235	11201.093486
517.357925	11264.753177
517.721558	11357.283556
518.085133	11371.398786
518.448651	11377.377595
518.812112	11259.888463
519.175516	11277.361103
519.538863	11390.129193
519.902152	11303.935545
520.265385	11475.034827
520.628560	11382.348172
520.991678	11356.658452
521.354739	11424.116653
521.717743	11356.933195
522.080690	11335.994763
522.443580	11468.342695
522.806413	11425.681931
523.169189	11458.323402
523.531908	11511.240394
523.894569	11332.405461
524.257174	11335.059629
524.619722	11460.228958
524.982213	11399.662015
525.344647	11461.857251
525.707025	11403.009342
526.069345	11495.403609
526.431608	11417.139696
526.793815	11530.560616
527.155964	11311.537605
527.518057	11370.219156
527.880093	11320.382309
528.242072	11387.694316
528.603995	11290.165633
528.965860	11214.976824
529.327669	11265.131263
529.689421	11220.249871
530.051117	11179.328304
530.412755	11284.799325
530.774337	11172.222798
531.135862	11161.275932
531.497331	11181.816114
531.858743	11036.058712
532.220098	11201.718589
532.581396	11070.550287
532.942638	11051.925744
533.303824	11013.673468
533.664953	11029.875737
534.026025	10937.252097
534.387040	11042.206399
534.747999	11042.597088
535.108902	11105.152767
535.469748	10855.109015
535.830537	10962.404934
536.191270	10947.500762
536.551947	10970.306942
536.912567	10957.068872
537.273131	10883.092460
537.633638	10866.318021
537.994089	10858.778975
538.354483	10801.768566
538.714821	10953.454365
539.075103	10957.048708
539.435328	10923.290621
539.795497	10752.047666
540.155609	10902.914277
540.515665	10993.287042
540.875665	10732.543442
541.235609	10793.473348
541.595496	10794.453852
541.955328	10952.388161
542.315102	10832.940541
542.674821	10791.529983
543.034483	10782.468509
543.394090	10789.974787
543.753640	10721.387368
544.113134	10940.231418
544.472571	10790.461258
544.831953	10934.144225
545.191278	10747.893755
545.550548	10766.326734
545.909761	10911.751420
546.268918	10876.178518
546.628019	10959.292021
546.987064	10831.526497
547.346053	10749.287634
547.704986	10843.070740
548.063863	10833.275778
548.422684	10828.645478
548.781449	10741.882179
549.140158	10844.149547
549.498811	10716.252953
549.857408	10577.596017
550.215949	10798.262444
550.574434	10659.358491
550.932864	10755.994889
551.291237	10814.147120
551.649555	10764.506878
552.007817	10772.300502
552.366022	10730.395910
552.724173	10730.529501
553.082267	10713.109794
553.440305	10851.403767
553.798288	10650.168467
554.156215	10813.786677
554.514086	10783.199476
554.871902	10630.835642
555.229661	10675.076808
555.587365	10645.109669
555.945014	10541.133351
556.302606	10673.130923
556.660143	10563.311907
557.017625	10722.146062
557.375050	10616.286872
557.732421	10747.482901
558.089735	10662.723461
558.446994	10662.685652
558.804197	10697.613287
559.161345	10710.223733
559.518437	10549.637777
559.875474	10642.145471
560.232455	10667.467187
560.589381	10616.861564
560.946251	10611.419638
561.303065	10718.919723
561.659825	10654.226596
562.016528	10585.586245
562.373177	10465.886568
562.729770	10579.199103
563.086307	10494.616104
563.442789	10587.796791
563.799216	10465.616866
564.155587	10518.997644
564.511904	10463.751639
564.868164	10459.254930
565.224370	10475.734462
565.580520	10395.844776
565.936615	10399.252596
566.292654	10270.776270
566.648638	10407.383977
567.004567	10362.880671
567.360441	10348.541109
567.716260	10257.563406
568.072023	10350.413898
568.427732	10300.735847
568.783385	10208.422238
569.138982	10282.691037
569.494525	10299.349530
569.850013	10173.998719
570.205445	10262.239076
570.560823	10152.566253
570.916145	10069.656917
571.271412	10143.532506
571.626625	10084.999668
571.981782	10060.809692
572.336884	10038.210199
572.691931	10041.832268
573.046923	9982.986879
573.401860	9946.657804
573.756743	9885.206139
574.111570	9922.135111
574.466342	9908.287062
574.821059	9936.028531
575.175722	9831.868210
575.530330	9840.985137
575.884882	9829.624897
576.239380	9760.596377
576.593823	9736.545032
576.948211	9748.870653
577.302544	9628.840780
577.656823	9643.341659
578.011047	9645.900045
578.365216	9621.198391
578.719330	9547.012771
579.073389	9554.249347
579.427394	9501.017283
579.781344	9483.090940
580.135239	9430.826778
580.489080	9438.638046
580.842866	9343.650104
581.196597	9348.401392
581.550273	9379.351556
581.903895	9351.804171
582.257463	9421.203215
582.610975	9297.977251
582.964434	9324.586981
583.317837	9241.455834
583.671186	9225.699707
584.024481	9227.317918
584.377721	9142.659301
584.730906	9118.706258
585.084037	9148.060897
585.437113	9085.895908
585.790135	9104.525492
586.143103	9003.137806
586.496016	8982.814394
586.848874	9036.578300
587.201679	9027.718472
587.554428	8910.027695
587.907124	8960.847567
588.259765	8930.671220
588.612352	8933.905120
588.964884	8814.364239
589.317362	8827.622473
589.669786	8821.951175
590.022155	8874.580821
590.374470	8889.792503
590.726731	8824.076022
591.078937	8675.886263
591.431090	8794.260117
591.783188	8665.128441
592.135232	8658.302718
592.487222	8659.326073
592.839157	8706.143268
593.191038	8638.354873
593.542866	8587.388807
593.894639	8489.272830
594.246358	8538.202269
594.598022	8547.541007
594.949633	8449.568702
595.301190	8424.667923
595.652692	8455.146739
596.004141	8561.784787
596.355535	8336.825817
596.706876	8319.005338
597.058162	8254.372705
597.409395	8326.705701
597.760573	8395.335969
598.111698	8297.353582
598.462768	8286.263044
598.813785	8248.847600
599.164748	8218.283084
599.515657	8207.336219
599.866511	8117.563351
600.217312	8249.407168
600.568060	8102.334025
600.918753	8207.830252
601.269392	8177.895880
601.619978	8090.371367
601.970510	8152.705235
602.320988	8148.916808
602.671412	8204.800518
603.021783	8145.635016
603.372100	8114.689893
603.722363	8116.504709
604.072572	8091.117458
604.422728	8104.854602
604.772830	8032.899693
605.122878	8035.395064
605.472872	8032.380454
605.822813	8067.756751
606.172701	8012.306579
606.522534	8084.551355
606.872314	8083.893485
607.222041	8053.371819
607.571714	8107.866692
607.921333	8064.858088
608.270899	8072.132473
608.620411	8163.694950
608.969870	8066.095691
609.319276	8058.365082
609.668627	8073.775889
610.017926	8108.920293
610.367171	8163.382398
610.716362	8133.359807
611.065500	8120.998897
611.414585	8149.035275
611.763616	8141.032443
612.112594	8121.409752
612.461518	8132.215465
612.810389	8190.949948
613.159207	8139.686455
613.507971	8076.409892
613.856682	8198.151237
614.205340	8156.355030
614.553945	8232.909992
614.902496	8129.344528
615.250994	8183.108433
615.599439	8165.560177
615.947830	8178.911673
616.296169	8147.036457
616.644454	8166.742328
616.992686	8162.323756
617.340864	8217.887354
617.688990	8121.792879
618.037063	8215.391983
618.385082	8161.464239
618.733048	8242.568843
619.080961	8184.025923
619.428821	8204.029222
619.776628	8205.710447
620.124382	8154.089031
620.472083	8139.996486
620.819731	8163.163108
621.167326	8057.140081
621.514868	8071.595590
621.862357	7956.682488
622.209793	7972.209242
622.557176	7907.775734
622.904506	7878.078297
623.251783	7806.670352
623.599007	7766.338601
623.946179	7767.235926
624.293297	7727.284782
624.640363	7641.378479
624.987376	7620.240921
625.334336	7565.594814
625.681243	7517.086311
626.028097	7507.031729
626.374899	7479.766649
626.721647	7473.445042
627.068343	7404.837459
627.414987	7379.364508
627.761577	7329.099163
628.108115	7365.498815
628.454600	7257.381188
628.801032	7306.272819
629.147412	7274.629496
629.493739	7253.408759
629.840014	7190.840478
630.186236	7253.315497
630.532405	7127.306816
630.878521	7179.608787
631.224585	7130.800336
631.570597	7058.716877
631.916556	7088.232832
632.262462	7085.382060
632.608316	7039.734412
632.954117	7019.136257
633.299866	6996.579614
633.645562	6992.564335
633.991206	6916.062305
634.336797	6859.659355
634.682336	6817.848025
635.027823	6782.224712
635.373257	6769.339523
635.718639	6704.560696
636.063968	6719.048972
636.409245	6614.427385
636.754470	6602.946158
637.099642	6561.046607
637.444762	6504.590725
637.789829	6519.658734
638.134845	6454.716070
638.479808	6438.778462
638.824719	6444.656447
639.169577	6367.824222
639.514383	6386.894907
639.859137	6315.212219
640.203839	6320.636501
640.548489	6307.675694
