Dividing Wavelength (nm)	Counts (n)	Blue Motor Position (mm): 0.000000	Red Motor Position (mm): 22.700000	
326.493990	2125.234515
326.888308	2125.234515
327.282561	2125.234515
327.676750	2096.154619
328.070874	2094.065061
328.464933	2097.750144
328.858929	2104.016298
329.252859	2113.773452
329.646726	2122.240070
330.040528	2139.800929
330.434265	2154.390028
330.827938	2170.451144
331.221547	2190.812365
331.615091	2209.696527
332.008571	2230.554301
332.401986	2249.224214
332.795338	2268.050403
333.188625	2287.642848
333.581847	2303.396454
333.975006	2322.424289
334.368100	2344.985973
334.761129	2360.936184
335.154095	2374.370859
335.546996	2391.155380
335.939833	2408.509553
336.332606	2424.550504
336.725315	2436.699685
337.117960	2447.180244
337.510540	2454.343723
337.903056	2466.891155
338.295508	2471.425673
338.687896	2483.809268
339.080220	2487.537201
339.472480	2498.504231
339.864676	2499.525065
340.256807	2504.823317
340.648875	2508.521004
341.040879	2511.175171
341.432818	2510.986128
341.824694	2514.409071
342.216506	2514.537621
342.608253	2516.357477
342.999937	2513.887312
343.391557	2513.690707
343.783113	2512.266581
344.174605	2515.250944
344.566033	2509.688031
344.957397	2510.615603
345.348697	2508.243740
345.739934	2505.261898
346.131106	2504.903976
346.522215	2502.635457
346.913260	2499.794766
347.304241	2498.970538
347.695159	2496.966679
348.086012	2495.867707
348.476802	2494.683036
348.867528	2493.395022
349.258191	2487.627942
349.648789	2489.563745
350.039324	2488.386635
350.429796	2488.268168
350.820203	2487.718682
351.210548	2486.012252
351.600828	2488.416882
351.991045	2483.312714
352.381198	2482.216263
352.771288	2481.520584
353.161314	2483.297590
353.551276	2483.259782
353.941175	2482.738022
354.331010	2483.584936
354.720782	2483.675677
355.110490	2484.746922
355.500135	2482.705255
355.889717	2481.114771
356.279235	2484.404124
356.668689	2484.003352
357.058080	2481.833135
357.447408	2484.141984
357.836672	2482.039823
358.225873	2481.389514
358.615010	2481.989411
359.004084	2484.265492
359.393095	2484.915801
359.782043	2487.819505
360.170927	2486.450832
360.559748	2488.096769
360.948505	2490.093066
361.337199	2490.894609
361.725830	2488.535349
362.114398	2491.827223
362.502903	2492.752274
362.891344	2492.442243
363.279722	2494.476349
363.668037	2493.876452
364.056289	2495.096411
364.444478	2496.313850
364.832603	2497.241422
365.220665	2494.320073
365.608665	2496.684374
365.996601	2500.336690
366.384474	2496.477687
366.772284	2500.624036
367.160031	2500.200579
367.547715	2504.009171
367.935336	2505.163595
368.322893	2509.136024
368.710388	2509.796416
369.097820	2520.707993
369.485189	2522.391738
369.872495	2527.747964
370.259738	2534.167874
370.646918	2541.991745
371.034035	2547.786551
371.421090	2559.953376
371.808081	2572.170612
372.195010	2575.656570
372.581875	2591.518561
372.968678	2603.239243
373.355418	2614.576798
373.742096	2631.447020
374.128710	2646.941006
374.515262	2662.283758
374.901751	2679.211952
375.288177	2690.723427
375.674540	2713.249823
376.060841	2730.102400
376.447079	2748.278281
376.833254	2769.183946
377.219367	2785.338323
377.605417	2819.918118
377.991404	2831.694253
378.377329	2852.168900
378.763191	2867.126003
379.148991	2908.544123
379.534727	2930.271496
379.920402	2959.827781
380.306013	2975.538537
380.691563	3021.927235
381.077049	3043.281563
381.462474	3062.395097
381.847835	3102.464709
382.233134	3119.392903
382.618371	3121.280815
383.003545	3190.135415
383.388657	3197.987012
383.773706	3232.070253
384.158693	3245.338570
384.543618	3273.115328
384.928480	3308.383240
385.313280	3352.596680
385.698017	3353.743543
386.082692	3405.904362
386.467305	3413.551792
386.851856	3443.702933
387.236344	3464.409473
387.620770	3497.121520
388.005133	3523.146477
388.389435	3550.419119
388.773674	3563.362281
389.157851	3602.486676
389.541965	3620.831435
389.926018	3584.328440
390.310008	3656.484996
390.693936	3674.749096
391.077802	3713.510528
391.461606	3703.836554
391.845348	3766.742592
392.229027	3768.322994
392.612645	3779.118625
392.996200	3857.138042
393.379694	3897.144639
393.763125	3961.391624
394.146494	3929.186213
394.529801	3993.486130
394.913047	4039.095970
395.296230	4003.835619
395.679351	4059.008527
396.062410	4083.710181
396.445408	4064.954568
396.828343	4095.869444
397.211217	4119.701499
397.594028	4041.344324
397.976778	4108.079119
398.359466	4134.935866
398.742092	4163.163807
399.124656	4086.034153
399.507158	4165.003828
399.889598	4187.827652
400.271977	4249.332250
400.654294	4220.454000
401.036549	4228.623190
401.418742	4199.192934
401.800874	4303.955672
402.182944	4329.494158
402.564952	4386.706213
402.946898	4374.022670
403.328783	4371.960838
403.710606	4287.430770
404.092367	4479.818845
404.474067	4443.222588
404.855705	4449.529072
405.237282	4379.406622
405.618797	4488.363601
406.000250	4522.829969
406.381642	4605.315849
406.762972	4566.504006
407.144240	4573.138164
407.525447	4571.716559
407.906593	4629.440291
408.287677	4674.724976
408.668700	4606.021611
409.049661	4652.579187
409.430560	4695.015620
409.811399	4626.967605
410.192176	4785.542140
410.572891	4722.424374
410.953545	4826.710723
411.334138	4705.322259
411.714669	4774.648207
412.095139	4669.756919
412.475547	4809.661541
412.855894	4791.657060
413.236180	4797.136794
413.616405	4753.835803
413.996568	4841.546839
414.376670	4783.734887
414.756711	4736.234615
415.136691	4770.930356
415.516609	4848.488508
415.896466	4886.702975
416.276262	4916.332356
416.655997	4896.515581
417.035670	5076.265483
417.415283	5170.333413
417.794834	5114.512717
418.174324	5072.625770
418.553753	4971.099452
418.933121	5158.350591
419.312428	5224.608996
419.691674	5163.638761
420.070859	5286.232061
420.449983	5195.002300
420.829045	5309.139064
421.208047	5219.429211
421.586988	5280.230567
421.965867	5293.387979
422.344686	5416.611423
422.723444	5269.989463
423.102141	5087.308130
423.480777	5379.158170
423.859352	5148.585876
424.237866	5393.192743
424.616319	5379.309405
424.994712	5480.167770
425.373044	5353.231516
425.751314	5477.306915
426.129524	5281.407677
426.507673	5459.297393
426.885762	5528.000758
427.263789	5445.656031
427.641756	5320.743800
428.019662	5428.453093
428.397508	5417.992699
428.775292	5354.900138
429.153016	5433.564823
429.530679	5345.662224
429.908282	5405.404938
430.285824	5269.293784
430.663305	5500.833980
431.040726	5233.672991
431.418086	5217.506011
431.795385	5294.242454
432.172624	5282.194097
432.549802	5248.569601
432.926920	5234.406479
433.303977	5214.872008
433.680974	5222.332915
434.057910	5209.626687
434.434786	5178.734496
434.811601	5123.990086
435.188355	5287.278100
435.565050	5150.010002
435.941683	5098.151652
436.318257	5221.717895
436.694770	5173.441285
437.071222	5161.186240
437.447614	5068.350871
437.823946	4968.525943
438.200218	5035.565727
438.576429	4898.433740
438.952580	4921.481895
439.328670	4906.555038
439.704700	4800.136281
440.080670	4745.999330
440.456580	4870.999780
440.832429	4751.705916
441.208218	4606.215695
441.583947	4653.012726
441.959616	4603.367443
442.335224	4517.516593
442.710773	4543.332342
443.086261	4501.155528
443.461689	4343.460674
443.837057	4366.289540
444.212365	4391.548241
444.587612	4290.591573
444.962800	4308.921209
445.337927	4248.639091
445.712995	4019.553937
446.088002	4217.673804
446.462949	4097.822892
446.837837	4012.944984
447.212664	4039.824417
447.587431	4026.301521
447.962139	4172.285775
448.336786	4441.679995
448.711374	4294.604332
449.085901	3927.371398
449.460369	3837.253211
449.834776	3763.677571
450.209124	3822.628824
450.583412	3814.051300
450.957640	3812.186073
451.331808	3690.590922
451.705917	3530.027652
452.079965	3465.896613
452.453954	3466.748568
452.827883	3396.716859
453.201752	3376.181718
453.575562	3296.947383
453.949311	3291.218112
454.323001	3242.392016
454.696632	3217.299673
455.070202	3199.312836
455.443713	3192.131712
455.817164	3169.960717
456.190556	3142.821666
456.563888	3120.086062
456.937160	3090.602874
457.310373	3021.975126
457.683526	2996.424038
458.056619	2955.389045
458.429653	2929.971548
458.802628	2897.935015
459.175542	2886.249620
459.548398	2889.826319
459.921194	2883.918087
460.293930	2865.112062
460.666607	2880.379197
461.039224	2880.280894
461.411782	2864.663399
461.784280	2842.913341
462.156719	2812.452169
462.529099	2780.773558
462.901419	2744.512539
463.273680	2727.743140
463.645882	2710.915769
464.018024	2696.329190
464.390106	2689.803417
464.762130	2686.826615
465.134094	2695.454550
465.505999	2720.977912
465.877845	2740.595562
466.249631	2738.425345
466.621358	2712.622199
466.993026	2685.906605
467.364634	2672.955880
467.736184	2655.228663
468.107674	2644.002013
468.479105	2640.001858
468.850477	2632.006588
469.221790	2623.358488
469.593043	2613.903804
469.964238	2609.991869
470.335373	2605.969028
470.706449	2603.640015
471.077467	2599.680189
471.448425	2611.007661
471.819324	2621.846142
472.190164	2620.422016
472.560945	2604.023143
472.931667	2596.610126
473.302330	2591.407655
473.672934	2590.296081
474.043479	2590.462439
474.413965	2591.027048
474.784393	2581.980698
475.154761	2585.680904
475.525070	2584.811305
475.895321	2583.490523
476.265513	2584.501274
476.635645	2589.292891
477.005719	2586.779876
477.375734	2586.832808
477.745691	2587.412541
478.115588	2589.302973
478.485427	2591.155597
478.855207	2594.540732
479.224928	2596.952924
479.594591	2602.336877
479.964194	2597.608274
480.333739	2599.937287
480.703226	2598.601382
481.072653	2601.134562
481.442022	2598.893769
481.811333	2603.206476
482.180584	2599.765888
482.549777	2597.865373
482.918912	2595.995105
483.287988	2594.825557
483.657005	2596.113572
484.025964	2591.689960
484.394864	2594.132399
484.763706	2595.357399
485.132489	2590.046544
485.501213	2590.510330
485.869879	2591.450505
486.238487	2589.416399
486.607036	2590.464959
486.975527	2589.353385
487.343959	2589.053436
487.712333	2593.340938
488.080648	2590.802717
488.448905	2590.190217
488.817104	2586.106882
489.185244	2588.004876
489.553326	2592.902357
489.921350	2595.289344
490.289315	2599.362596
490.657222	2604.663369
491.025070	2602.619181
491.392861	2599.143306
491.760593	2597.426793
492.128267	2598.407297
492.495883	2593.963520
492.863440	2593.890423
493.230939	2590.336410
493.598380	2590.817840
493.965763	2585.683425
494.333088	2581.569843
494.700354	2583.823239
495.067563	2585.345668
495.434713	2581.736202
495.801805	2584.239134
496.168839	2586.633682
496.535815	2586.346337
496.902733	2584.670153
497.269593	2586.641244
497.636395	2582.804926
498.003139	2583.135122
498.369825	2584.952458
498.736453	2583.460276
499.103023	2587.644434
499.469535	2585.247365
499.835989	2584.985225
500.202385	2583.200657
500.568723	2581.274936
500.935003	2584.455904
501.301226	2580.259143
501.667390	2582.487333
502.033497	2585.708631
502.399546	2582.557910
502.765537	2583.482961
503.131470	2585.179310
503.497345	2582.346181
503.863163	2582.928434
504.228923	2582.807447
504.594625	2582.625965
504.960269	2579.999524
505.325856	2581.733681
505.691385	2581.340471
506.056856	2582.454566
506.422270	2580.259143
506.787625	2583.036819
507.152924	2583.049422
507.518164	2579.631520
507.883347	2583.407344
508.248472	2583.099834
508.613540	2582.149576
508.978550	2577.834348
509.343503	2580.831314
509.708398	2585.161666
510.073236	2584.944896
510.438016	2584.917170
510.802738	2580.145717
511.167403	2583.868610
511.532010	2583.188054
511.896561	2586.535380
512.261053	2586.099320
512.625488	2579.858372
512.989866	2579.250913
513.354186	2583.198136
513.718449	2576.659760
514.082655	2584.120667
514.446803	2582.575554
514.810894	2582.999011
515.174927	2583.309042
515.538904	2587.273909
515.902822	2585.353229
516.266684	2584.513877
516.630488	2583.901377
516.994235	2583.906418
517.357925	2581.716037
517.721558	2586.996646
518.085133	2585.751481
518.448651	2585.922880
518.812112	2586.505133
519.175516	2587.495720
519.538863	2587.815833
519.902152	2587.692325
520.265385	2585.892633
520.628560	2586.805082
520.991678	2584.952458
521.354739	2586.507654
521.717743	2586.981522
522.080690	2588.314907
522.443580	2590.263313
522.806413	2587.823395
523.169189	2589.207192
523.531908	2589.454208
523.894569	2585.627972
524.257174	2585.864907
524.619722	2587.422623
524.982213	2586.409351
525.344647	2587.437747
525.707025	2586.747108
526.069345	2587.760380
526.431608	2588.952613
526.793815	2589.355906
527.155964	2587.200812
527.518057	2587.964547
527.880093	2591.321956
528.242072	2586.142170
528.603995	2587.803230
528.965860	2580.382652
529.327669	2585.643096
529.689421	2587.765422
530.051117	2588.692994
530.412755	2585.028075
530.774337	2586.701738
531.135862	2588.037644
531.497331	2586.114444
531.858743	2580.654874
532.220098	2586.600915
532.581396	2580.430543
532.942638	2584.181161
533.303824	2586.525298
533.664953	2584.029927
534.026025	2587.321800
534.387040	2584.138311
534.747999	2589.834815
535.108902	2586.757191
535.469748	2585.829618
535.830537	2587.750298
536.191270	2585.869948
536.551947	2585.738878
536.912567	2587.175607
537.273131	2586.363981
537.633638	2586.280802
537.994089	2585.963209
538.354483	2583.344330
538.714821	2586.328693
539.075103	2586.076635
539.435328	2590.107037
539.795497	2586.099320
540.155609	2585.990935
540.515665	2589.229877
540.875665	2586.915987
541.235609	2587.684763
541.595496	2588.597212
541.955328	2587.281471
542.315102	2586.527818
542.674821	2586.840370
543.034483	2587.795668
543.394090	2585.529670
543.753640	2586.255596
544.113134	2586.202664
544.472571	2587.377253
544.831953	2588.748447
545.191278	2584.029927
545.550548	2589.159301
545.909761	2588.115782
546.268918	2585.401120
546.628019	2585.690987
546.987064	2585.418764
547.346053	2588.534197
547.704986	2588.014959
548.063863	2588.929928
548.422684	2585.385997
548.781449	2586.419433
549.140158	2585.935483
549.498811	2587.616708
549.857408	2585.927921
550.215949	2584.617221
550.574434	2582.323496
550.932864	2586.419433
551.291237	2585.985894
551.649555	2589.630648
552.007817	2590.679208
552.366022	2585.237283
552.724173	2586.477407
553.082267	2586.797520
553.440305	2585.569999
553.798288	2586.613518
554.156215	2585.164186
554.514086	2589.101327
554.871902	2586.011100
555.229661	2588.302304
555.587365	2587.982191
555.945014	2585.781727
556.302606	2585.811974
556.660143	2587.767942
557.017625	2585.481779
557.375050	2586.598394
557.732421	2585.605287
558.089735	2587.868765
558.446994	2586.878178
558.804197	2588.221646
559.161345	2587.031934
559.518437	2588.660226
559.875474	2588.919846
560.232455	2587.263827
560.589381	2586.875658
560.946251	2589.650813
561.303065	2587.795668
561.659825	2587.604105
562.016528	2588.052767
562.373177	2589.285329
562.729770	2588.493868
563.086307	2587.344485
563.442789	2589.555031
563.799216	2586.270719
564.155587	2590.013776
564.511904	2587.929259
564.868164	2588.594691
565.224370	2590.134764
565.580520	2587.180648
565.936615	2588.907243
566.292654	2587.163004
566.648638	2587.437747
567.004567	2585.834660
567.360441	2587.203333
567.716260	2586.618559
568.072023	2587.679722
568.427732	2581.630337
568.783385	2583.737540
569.138982	2584.990266
569.494525	2584.738209
569.850013	2581.469020
570.205445	2585.312900
570.560823	2586.094279
570.916145	2585.171748
571.271412	2585.000349
571.626625	2585.501943
571.981782	2584.808785
572.336884	2587.163004
572.691931	2584.932293
573.046923	2583.097313
573.401860	2583.780389
573.756743	2582.971284
574.111570	2583.240986
574.466342	2586.610997
574.821059	2584.213929
575.175722	2583.994638
575.530330	2585.116295
575.884882	2584.695359
576.239380	2584.728126
576.593823	2584.914649
576.948211	2582.454566
577.302544	2585.151583
577.656823	2584.150914
578.011047	2584.806264
578.365216	2582.880543
578.719330	2582.812488
579.073389	2580.264185
579.427394	2582.802406
579.781344	2583.596387
580.135239	2580.551530
580.489080	2583.596387
580.842866	2582.126891
581.196597	2582.295770
581.550273	2582.618403
581.903895	2582.116809
582.257463	2580.785944
582.610975	2581.461459
582.964434	2578.330902
583.317837	2580.160841
583.671186	2582.479772
584.024481	2579.374421
584.377721	2581.630337
584.730906	2581.305183
585.084037	2578.439287
585.437113	2579.082034
585.790135	2581.269895
586.143103	2582.656212
586.496016	2578.305696
586.848874	2574.018195
587.201679	2577.075655
587.554428	2575.321333
587.907124	2580.057497
588.259765	2574.076168
588.612352	2579.888619
588.964884	2581.635378
589.317362	2578.580439
589.669786	2577.209245
590.022155	2578.174626
590.374470	2578.235120
590.726731	2578.721592
591.078937	2576.720253
591.431090	2578.207394
591.783188	2577.723443
592.135232	2580.720409
592.487222	2578.565316
592.839157	2577.161354
593.191038	2577.070614
593.542866	2575.747311
593.894639	2574.807136
594.246358	2575.076837
594.598022	2577.005079
594.949633	2576.206056
595.301190	2576.291755
595.652692	2577.088258
596.004141	2577.743608
596.355535	2576.064903
596.706876	2573.756055
597.058162	2576.742939
597.409395	2571.777402
597.760573	2574.373596
598.111698	2573.541806
598.462768	2576.574060
598.813785	2577.287383
599.164748	2574.373596
599.515657	2572.969635
599.866511	2575.896025
600.217312	2572.914182
600.568060	2574.660942
600.918753	2571.936198
601.269392	2575.268401
601.619978	2575.686817
601.970510	2573.173802
602.320988	2575.245716
602.671412	2575.371745
603.021783	2570.197000
603.372100	2573.622464
603.722363	2572.964594
604.072572	2574.154306
604.422728	2574.345870
604.772830	2571.353945
605.122878	2568.404870
605.472872	2570.275138
605.822813	2568.034345
606.172701	2573.017526
606.522534	2571.946281
606.872314	2574.053483
607.222041	2570.202042
607.571714	2573.897207
607.921333	2573.703123
608.270899	2571.772361
608.620411	2574.746642
608.969870	2575.162537
609.319276	2574.061045
609.668627	2578.935841
610.017926	2580.135635
610.367171	2582.394072
610.716362	2581.476582
611.065500	2579.260995
611.414585	2577.453741
611.763616	2579.129925
612.112594	2576.667321
612.461518	2577.473906
612.810389	2576.884091
613.159207	2575.638926
613.507971	2572.079871
613.856682	2575.641447
614.205340	2574.948288
614.553945	2576.553895
614.902496	2572.906621
615.250994	2574.834862
615.599439	2573.410736
615.947830	2574.424008
616.296169	2576.450552
616.644454	2573.037691
616.992686	2572.813359
617.340864	2574.199677
617.688990	2576.440469
618.037063	2575.394430
618.385082	2570.993503
618.733048	2576.092630
619.080961	2574.976014
619.428821	2574.353432
619.776628	2574.615572
620.124382	2574.809656
620.472083	2574.907959
620.819731	2573.604820
621.167326	2572.631878
621.514868	2572.296641
621.862357	2571.255643
622.209793	2571.600962
622.557176	2572.704974
622.904506	2568.520817
623.251783	2567.225240
623.599007	2569.496280
623.946179	2570.149109
624.293297	2567.938563
624.640363	2569.755899
624.987376	2568.178018
625.334336	2567.333625
625.681243	2569.652556
626.028097	2568.956877
626.374899	2570.247412
626.721647	2568.094839
627.068343	2565.632236
627.414987	2569.733214
627.761577	2567.010991
628.108115	2566.884962
628.454600	2566.635425
628.801032	2568.997206
629.147412	2568.417473
629.493739	2568.235992
629.840014	2568.747669
630.186236	2569.123235
630.532405	2568.979562
630.878521	2565.745662
631.224585	2567.144582
631.570597	2564.868501
631.916556	2566.968141
632.262462	2566.247256
632.608316	2566.169118
632.954117	2567.802452
633.299866	2565.798594
633.645562	2564.649211
633.991206	2565.569221
634.336797	2562.292471
634.682336	2568.092319
635.027823	2563.890517
635.373257	2566.774057
635.718639	2563.504869
636.063968	2564.155178
636.409245	2561.223747
636.754470	2561.722821
637.099642	2562.446226
637.444762	2564.129972
637.789829	2561.652245
638.134845	2564.422359
638.479808	2562.007646
638.824719	2562.385733
639.169577	2561.921946
639.514383	2561.669889
639.859137	2559.383725
640.203839	2561.808520
640.548489	2564.714746
640.893086	2557.165618
641.237632	2556.618653
641.582125	2558.239383
641.926566	2555.948179
642.270955	2563.245249
642.615292	2559.645865
642.959576	2564.737431
643.303809	2556.933725
643.647990	2558.882131
643.992118	2560.018911
644.336195	2561.730383
