Dividing Wavelength (nm)	Counts (n)	Blue Motor Position (mm): 0.000000	Red Motor Position (mm): 10.300000	
326.493990	2124.531274
326.888308	2124.531274
327.282561	2124.531274
327.676750	2093.419793
328.070874	2095.355596
328.464933	2096.358786
328.858929	2102.476226
329.252859	2113.917125
329.646726	2122.908023
330.040528	2136.408233
330.434265	2151.080511
330.827938	2169.841165
331.221547	2192.664989
331.615091	2209.963708
332.008571	2225.926522
332.401986	2247.948803
332.795338	2266.689292
333.188625	2288.116716
333.581847	2305.347380
333.975006	2321.658033
334.368100	2340.673266
334.761129	2359.852336
335.154095	2375.139635
335.546996	2392.030021
335.939833	2408.257495
336.332606	2421.561100
336.725315	2436.649273
337.117960	2442.945674
337.510540	2451.162755
337.903056	2465.411577
338.295508	2470.440128
338.687896	2481.296252
339.080220	2487.118785
339.472480	2494.690598
339.864676	2498.347955
340.256807	2504.069665
340.648875	2506.867505
341.040879	2507.411950
341.432818	2510.915552
341.824694	2512.684997
342.216506	2508.291631
342.608253	2510.595438
342.999937	2512.150634
343.391557	2511.956550
343.783113	2512.405213
344.174605	2511.182733
344.566033	2511.568381
344.957397	2507.563184
345.348697	2507.530417
345.739934	2503.295848
346.131106	2504.026815
346.522215	2500.757627
346.913260	2498.400887
347.304241	2498.126144
347.695159	2495.295537
348.086012	2493.599188
348.476802	2490.957624
348.867528	2491.239928
349.258191	2488.094248
349.648789	2487.461583
350.039324	2486.110554
350.429796	2489.941831
350.820203	2483.199288
351.210548	2481.288691
351.600828	2481.437405
351.991045	2479.703248
352.381198	2480.726602
352.771288	2482.818681
353.161314	2481.084524
353.551276	2481.601242
353.941175	2482.090234
354.331010	2480.792137
354.720782	2478.122846
355.110490	2481.591160
355.500135	2478.468165
355.889717	2480.260295
356.279235	2479.715851
356.668689	2481.389514
357.058080	2481.775162
357.447408	2480.396406
357.836672	2478.891622
358.225873	2481.394555
358.615010	2478.405151
359.004084	2482.246510
359.393095	2483.088383
359.782043	2483.088383
360.170927	2485.031747
360.559748	2485.165338
360.948505	2486.445791
361.337199	2486.347488
361.725830	2487.305308
362.114398	2487.131388
362.502903	2487.186841
362.891344	2489.140288
363.279722	2490.350165
363.668037	2489.523415
364.056289	2488.731954
364.444478	2491.615494
364.832603	2491.126502
365.220665	2492.696822
365.608665	2490.292191
365.996601	2490.793786
366.384474	2493.730258
366.772284	2496.301247
367.160031	2492.573313
367.547715	2497.087667
367.935336	2499.207472
368.322893	2504.238543
368.710388	2505.743328
369.097820	2512.722805
369.485189	2513.846983
369.872495	2523.626821
370.259738	2528.453726
370.646918	2536.159130
371.034035	2542.155582
371.421090	2550.455842
371.808081	2562.239539
372.195010	2571.490056
372.581875	2583.248548
372.968678	2597.434355
373.355418	2611.090840
373.742096	2626.383181
374.128710	2641.057979
374.515262	2655.095072
374.901751	2669.059068
375.288177	2681.006603
375.674540	2706.348483
376.060841	2722.485217
376.447079	2744.240316
376.833254	2759.850249
377.219367	2775.780295
377.605417	2814.818991
377.991404	2822.773932
378.377329	2846.061542
378.763191	2861.028727
379.148991	2897.957700
379.534727	2916.405803
379.920402	2945.291614
380.306013	2957.334931
380.691563	3001.513082
381.077049	3019.600742
381.462474	3029.705735
381.847835	3063.063050
382.233134	3077.027046
382.618371	3071.683423
383.003545	3126.296763
383.388657	3121.656381
383.773706	3143.051038
384.158693	3147.686379
384.543618	3161.302536
384.928480	3178.203004
385.313280	3204.364072
385.698017	3185.530321
386.082692	3218.542317
386.467305	3201.233515
386.851856	3212.881101
387.236344	3212.739949
387.620770	3215.515104
388.005133	3213.417984
388.389435	3211.134342
388.773674	3194.117927
389.157851	3201.145295
389.541965	3187.861855
389.926018	3141.309320
390.310008	3157.342709
390.693936	3144.996924
391.077802	3142.932571
391.461606	3106.568208
391.845348	3109.333281
392.229027	3079.797160
392.612645	3060.030796
392.996200	3066.153277
393.379694	3054.833367
393.763125	3047.387582
394.146494	3006.332425
394.529801	3000.157012
394.913047	2983.369970
395.296230	2945.241203
395.679351	2929.933739
396.062410	2908.034967
396.445408	2875.375851
396.828343	2855.170907
397.211217	2830.922957
397.594028	2792.690846
397.976778	2781.580143
398.359466	2762.519540
398.742092	2743.496746
399.124656	2716.753425
399.507158	2707.785212
399.889598	2694.229550
400.271977	2684.714372
400.654294	2665.827689
401.036549	2646.547796
401.418742	2631.041207
401.800874	2625.372429
402.182944	2615.345574
402.564952	2604.812083
402.946898	2592.579723
403.328783	2583.646799
403.710606	2571.933678
404.092367	2570.418811
404.474067	2564.928995
404.855705	2555.774259
405.237282	2549.308979
405.618797	2548.386448
406.000250	2543.504091
406.381642	2541.341436
406.762972	2538.588966
407.144240	2533.757020
407.525447	2535.677699
407.906593	2528.146216
408.287677	2529.913140
408.668700	2528.236956
409.049661	2524.776204
409.430560	2523.795700
409.811399	2526.046575
410.192176	2525.023221
410.572891	2525.857532
410.953545	2520.360153
411.334138	2525.446678
411.714669	2522.321162
412.095139	2522.119516
412.475547	2517.511902
412.855894	2521.973323
413.236180	2520.503826
413.616405	2523.069774
413.996568	2520.498785
414.376670	2522.185051
414.756711	2521.925432
415.136691	2521.643127
415.516609	2524.723272
415.896466	2519.404855
416.276262	2520.912160
416.655997	2518.593229
417.035670	2516.024761
417.415283	2524.582120
417.794834	2518.673888
418.174324	2522.132119
418.553753	2520.259330
418.933121	2521.086080
419.312428	2522.951307
419.691674	2522.548014
420.070859	2522.243024
420.449983	2521.534742
420.829045	2522.099352
421.208047	2524.781245
421.586988	2522.646317
421.965867	2524.093128
422.344686	2521.980884
422.723444	2523.185720
423.102141	2522.094310
423.480777	2521.590195
423.859352	2520.786131
424.237866	2523.979702
424.616319	2523.515916
424.994712	2522.548014
425.373044	2524.032634
425.751314	2525.487007
426.129524	2523.878879
426.507673	2521.945596
426.885762	2523.659589
427.263789	2526.442306
427.641756	2524.758560
428.019662	2525.562624
428.397508	2523.341996
428.775292	2524.977850
429.153016	2524.756040
429.530679	2523.775535
429.908282	2524.566996
430.285824	2525.192099
430.663305	2524.466173
431.040726	2525.910464
431.418086	2526.845598
431.795385	2528.176463
432.172624	2524.156142
432.549802	2525.466842
432.926920	2525.547501
433.303977	2526.749816
433.680974	2528.362985
434.057910	2526.258303
434.434786	2525.688653
434.811601	2526.318797
435.188355	2526.205371
435.565050	2526.517923
435.941683	2523.500792
436.318257	2526.497758
436.694770	2521.827129
437.071222	2525.005577
437.447614	2522.306039
437.823946	2525.093797
438.200218	2526.633869
438.576429	2527.642100
438.952580	2529.958510
439.328670	2526.931297
439.704700	2527.684950
440.080670	2527.074970
440.456580	2528.904909
440.832429	2528.539426
441.208218	2526.805269
441.583947	2529.920702
441.959616	2530.203006
442.335224	2528.158818
442.710773	2526.391894
443.086261	2527.944569
443.461689	2529.840043
443.837057	2529.991278
444.212365	2528.466329
444.587612	2530.850795
444.962800	2529.587986
445.337927	2527.732841
445.712995	2527.964734
446.088002	2528.783922
446.462949	2526.686802
446.837837	2530.192924
447.212664	2530.215609
447.587431	2529.802235
447.962139	2531.528830
448.336786	2536.451517
448.711374	2531.649817
449.085901	2532.078316
449.460369	2530.737369
449.834776	2533.021011
450.209124	2528.809127
450.583412	2534.286341
450.957640	2531.475898
451.331808	2531.954807
451.705917	2533.212575
452.079965	2531.188552
452.453954	2531.962369
452.827883	2531.100332
453.201752	2529.615712
453.575562	2533.489839
453.949311	2532.708460
454.323001	2533.162164
454.696632	2533.510003
455.070202	2536.501928
455.443713	2533.048738
455.817164	2530.427338
456.190556	2530.497914
456.563888	2530.603778
456.937160	2532.920188
457.310373	2531.995137
457.683526	2534.019160
458.056619	2535.443286
458.429653	2532.466484
458.802628	2531.596885
459.175542	2531.826258
459.548398	2536.527134
459.921194	2536.693492
460.293930	2535.130734
460.666607	2537.144675
461.039224	2537.681558
461.411782	2535.725590
461.784280	2537.227854
462.156719	2537.772299
462.529099	2539.050231
462.901419	2537.500077
463.273680	2540.204656
463.645882	2535.526465
464.018024	2535.884387
464.390106	2534.919006
464.762130	2538.266332
465.134094	2537.850437
465.505999	2540.096271
465.877845	2542.014430
466.249631	2543.874616
466.621358	2543.536858
466.993026	2545.553320
467.364634	2545.346632
467.736184	2541.217927
468.107674	2539.113246
468.479105	2538.525951
468.850477	2541.449821
469.221790	2539.148534
469.593043	2539.425797
469.964238	2540.189532
470.335373	2540.202135
470.706449	2539.231713
471.077467	2540.983514
471.448425	2541.560726
471.819324	2544.890408
472.190164	2542.135418
472.560945	2542.851261
472.931667	2541.797660
473.302330	2538.926723
473.672934	2539.571991
474.043479	2540.340767
474.413965	2540.272711
474.784393	2533.257946
475.154761	2538.084850
475.525070	2535.377751
475.895321	2535.140817
476.265513	2535.617206
476.635645	2538.609130
477.005719	2539.239275
477.375734	2540.670962
477.745691	2539.357742
478.115588	2540.383617
478.485427	2540.313040
478.855207	2540.123997
479.224928	2539.755993
479.594591	2546.339740
479.964194	2540.965870
480.333739	2543.889739
480.703226	2544.507280
481.072653	2542.548792
481.442022	2541.530479
481.811333	2546.511139
482.180584	2541.391847
482.549777	2544.471992
482.918912	2541.913607
483.287988	2542.916796
483.657005	2540.781868
484.025964	2543.098278
484.394864	2542.150541
484.763706	2542.778165
485.132489	2542.445448
485.501213	2543.269677
485.869879	2541.394368
486.238487	2541.674152
486.607036	2542.823535
486.975527	2544.159441
487.343959	2540.895294
487.712333	2542.261446
488.080648	2543.574667
488.448905	2544.028371
488.817104	2540.224820
489.185244	2544.058618
489.553326	2543.181457
489.921350	2542.710109
490.289315	2549.676984
490.657222	2550.034906
491.025070	2545.177754
491.392861	2545.397044
491.760593	2543.453679
492.128267	2545.016437
492.495883	2546.927034
492.863440	2543.252033
493.230939	2544.398896
493.598380	2544.562733
493.965763	2538.283976
494.333088	2540.091230
494.700354	2539.524100
495.067563	2542.916796
495.434713	2536.595189
495.801805	2542.543751
496.168839	2542.047197
496.535815	2545.442414
496.902733	2545.323947
497.269593	2541.603576
497.636395	2543.504091
498.003139	2543.126004
498.369825	2542.453010
498.736453	2544.091385
499.103023	2544.252702
499.469535	2546.473330
499.835989	2543.854451
500.202385	2543.120963
500.568723	2543.788916
500.935003	2545.041643
501.301226	2543.511653
501.667390	2545.117260
502.033497	2542.548792
502.399546	2542.568957
502.765537	2545.684390
503.131470	2545.283618
503.497345	2546.087682
503.863163	2546.795964
504.228923	2543.400747
504.594625	2542.445448
504.960269	2545.034081
505.325856	2544.441745
505.691385	2544.368649
506.056856	2544.386293
506.422270	2545.805378
506.787625	2541.469985
507.152924	2543.345294
507.518164	2542.906714
507.883347	2541.346477
508.248472	2546.687579
508.613540	2546.128011
508.978550	2544.005686
509.343503	2545.684390
509.708398	2547.897456
510.073236	2545.714637
510.438016	2544.613145
510.802738	2545.291180
511.167403	2546.727909
511.532010	2543.337733
511.896561	2546.072559
512.261053	2545.805377
512.625488	2544.066179
512.989866	2541.686755
513.354186	2545.719678
513.718449	2542.241282
514.082655	2545.971736
514.446803	2548.492313
514.810894	2547.103475
515.174927	2547.761345
515.538904	2546.533824
515.902822	2543.168854
516.266684	2544.855120
516.630488	2546.508618
516.994235	2546.107847
517.357925	2546.327137
517.721558	2546.175902
518.085133	2545.132383
518.448651	2548.199926
518.812112	2543.791437
519.175516	2544.653474
519.538863	2549.311500
519.902152	2548.489792
520.265385	2546.700182
520.628560	2547.821839
520.991678	2544.981149
521.354739	2544.809750
521.717743	2546.241437
522.080690	2547.279915
522.443580	2546.211190
522.806413	2547.710934
523.169189	2547.562220
523.531908	2547.388300
523.894569	2548.099102
524.257174	2544.746735
524.619722	2549.588763
524.982213	2548.197405
525.344647	2547.905018
525.707025	2544.285470
526.069345	2546.264122
526.431608	2547.831921
526.793815	2548.721685
527.155964	2546.095244
527.518057	2548.366284
527.880093	2548.273022
528.242072	2545.419729
528.603995	2545.321427
528.965860	2546.387631
529.327669	2549.079607
529.689421	2548.235214
530.051117	2549.124977
530.412755	2546.624565
530.774337	2547.988197
531.135862	2546.770758
531.497331	2546.254040
531.858743	2540.948226
532.220098	2543.904863
532.581396	2542.316899
532.942638	2544.837476
533.303824	2545.674308
533.664953	2546.054915
534.026025	2547.539534
534.387040	2547.887374
534.747999	2545.782692
535.108902	2548.325954
535.469748	2545.349153
535.830537	2545.046684
536.191270	2544.900490
536.551947	2547.491643
536.912567	2549.195553
537.273131	2547.899977
537.633638	2544.971067
537.994089	2547.607590
538.354483	2545.465100
538.714821	2547.940306
539.075103	2548.610780
539.435328	2546.102806
539.795497	2546.894267
540.155609	2549.833259
540.515665	2545.707075
540.875665	2545.780172
541.235609	2547.915100
541.595496	2550.322251
541.955328	2547.174051
542.315102	2546.513660
542.674821	2547.683207
543.034483	2547.552137
543.394090	2547.685728
543.753640	2548.167158
544.113134	2545.785213
544.472571	2547.844524
544.831953	2548.933413
545.191278	2549.019113
545.550548	2549.770245
545.909761	2547.758825
546.268918	2548.782179
546.628019	2547.345450
546.987064	2546.952240
547.346053	2551.022972
547.704986	2547.826880
548.063863	2548.749411
548.422684	2547.161448
548.781449	2548.918290
549.140158	2548.507436
549.498811	2550.029864
549.857408	2545.986859
550.215949	2544.144317
550.574434	2541.979142
550.932864	2545.500388
551.291237	2541.545603
551.649555	2547.693290
552.007817	2549.056922
552.366022	2549.218239
552.724173	2548.000800
553.082267	2547.322765
553.440305	2546.649771
553.798288	2549.130018
554.156215	2549.487940
554.514086	2549.044319
554.871902	2547.552137
555.229661	2548.043650
555.587365	2546.576674
555.945014	2548.199926
556.302606	2549.210677
556.660143	2549.324103
557.017625	2547.153886
557.375050	2549.019113
557.732421	2547.937786
558.089735	2549.379556
558.446994	2547.400903
558.804197	2547.252189
559.161345	2548.083979
559.518437	2549.379556
559.875474	2547.579864
560.232455	2547.395862
560.589381	2547.350491
560.946251	2549.054401
561.303065	2549.888712
561.659825	2550.425595
562.016528	2550.246634
562.373177	2548.288146
562.729770	2547.930224
563.086307	2548.325954
563.442789	2546.435522
563.799216	2548.860317
564.155587	2549.505584
564.511904	2548.963660
564.868164	2546.415357
565.224370	2550.748229
565.580520	2547.970553
565.936615	2547.479041
566.292654	2545.087013
566.648638	2549.135060
567.004567	2547.053063
567.360441	2547.307641
567.716260	2545.520552
568.072023	2549.182951
568.427732	2546.072559
568.783385	2545.659184
569.138982	2542.992414
569.494525	2545.717157
569.850013	2544.277908
570.205445	2546.027188
570.560823	2545.540717
570.916145	2547.058104
571.271412	2549.697148
571.626625	2547.882333
571.981782	2547.743701
572.336884	2549.742519
572.691931	2550.324772
573.046923	2549.273691
573.401860	2550.944834
573.756743	2547.511808
574.111570	2546.866540
574.466342	2546.927034
574.821059	2547.741181
575.175722	2547.105995
575.530330	2547.466438
575.884882	2547.393341
576.239380	2546.463248
576.593823	2548.230172
576.948211	2547.975594
577.302544	2550.080276
577.656823	2547.809236
578.011047	2546.740512
578.365216	2547.511808
578.719330	2548.023485
579.073389	2544.845038
579.427394	2546.329658
579.781344	2546.654812
580.135239	2546.533824
580.489080	2548.351160
580.842866	2548.401572
581.196597	2550.453321
581.550273	2548.489792
581.903895	2546.324616
582.257463	2545.893598
582.610975	2546.390151
582.964434	2547.353012
583.317837	2548.141952
583.671186	2548.101623
584.024481	2547.206818
584.377721	2547.741181
584.730906	2546.228834
585.084037	2547.479041
585.437113	2548.376366
585.790135	2546.135573
586.143103	2546.894267
586.496016	2549.298897
586.848874	2544.713968
587.201679	2545.810419
587.554428	2544.217414
587.907124	2546.130532
588.259765	2540.313040
588.612352	2545.946530
588.964884	2546.677497
589.317362	2546.450645
589.669786	2550.365101
590.022155	2548.189843
590.374470	2544.605583
590.726731	2547.184133
591.078937	2546.826211
591.431090	2546.420398
591.783188	2545.863351
592.135232	2548.139432
592.487222	2546.904349
592.839157	2548.439380
593.191038	2546.382590
593.542866	2548.330996
593.894639	2548.767055
594.246358	2547.209339
594.598022	2548.262940
594.949633	2546.337219
595.301190	2547.511808
595.652692	2543.993083
596.004141	2543.264636
596.355535	2548.756973
596.706876	2545.810419
597.058162	2544.913093
597.409395	2544.096426
597.760573	2546.180943
598.111698	2547.032898
598.462768	2543.700696
598.813785	2545.281097
599.164748	2545.651622
599.515657	2546.362425
599.866511	2547.080789
600.217312	2545.384441
600.568060	2547.562220
600.918753	2546.369987
601.269392	2547.325285
601.619978	2548.444422
601.970510	2547.002652
602.320988	2545.901159
602.671412	2547.032898
603.021783	2546.372507
603.372100	2545.671787
603.722363	2544.565254
604.072572	2546.589277
604.422728	2547.413506
604.772830	2542.359749
605.122878	2542.684903
605.472872	2541.535520
605.822813	2544.207332
606.172701	2547.226983
606.522534	2543.995603
606.872314	2547.582384
607.222041	2544.955943
607.571714	2546.881664
607.921333	2545.228165
608.270899	2546.538865
608.620411	2546.735470
608.969870	2547.607590
609.319276	2549.039278
609.668627	2549.530790
610.017926	2552.797458
610.367171	2551.801830
610.716362	2552.663867
611.065500	2551.229659
611.414585	2548.315872
611.763616	2553.304094
612.112594	2548.678835
612.461518	2549.918959
612.810389	2547.373176
613.159207	2548.802343
613.507971	2547.156407
613.856682	2546.715306
614.205340	2547.410985
614.553945	2546.848896
614.902496	2546.773279
615.250994	2547.791592
615.599439	2545.273536
615.947830	2546.619524
616.296169	2545.026519
616.644454	2546.412837
616.992686	2546.987528
617.340864	2546.531304
617.688990	2546.768238
618.037063	2548.676315
618.385082	2543.955274
618.733048	2546.100285
619.080961	2546.375028
619.428821	2547.723537
619.776628	2545.056766
620.124382	2546.327137
620.472083	2546.672456
620.819731	2547.458876
621.167326	2544.043494
621.514868	2546.375028
621.862357	2544.562733
622.209793	2549.966850
622.557176	2547.680687
622.904506	2543.032743
623.251783	2539.196425
623.599007	2542.750438
623.946179	2542.936961
624.293297	2544.063659
624.640363	2543.015099
624.987376	2545.951571
625.334336	2544.318237
625.681243	2544.330840
626.028097	2543.725902
626.374899	2544.373690
626.721647	2545.311344
627.068343	2547.211859
627.414987	2544.189688
627.761577	2542.911755
628.108115	2542.518545
628.454600	2544.963505
628.801032	2546.251520
629.147412	2543.176416
629.493739	2544.439225
629.840014	2544.688762
630.186236	2543.988042
630.532405	2545.074410
630.878521	2543.733463
631.224585	2546.584236
631.570597	2542.324461
631.916556	2543.395706
632.262462	2542.190870
632.608316	2543.322609
632.954117	2543.919986
633.299866	2542.188350
633.645562	2541.585932
633.991206	2544.093906
634.336797	2540.340767
634.682336	2543.325130
635.027823	2542.705068
635.373257	2543.297403
635.718639	2541.442259
636.063968	2543.350336
636.409245	2544.585418
636.754470	2542.478216
637.099642	2543.574667
637.444762	2545.550799
637.789829	2542.279090
638.134845	2541.371683
638.479808	2544.202291
638.824719	2542.758000
639.169577	2543.451159
639.514383	2543.262115
639.859137	2542.447969
640.203839	2542.642053
640.548489	2539.874460
640.893086	2539.670293
641.237632	2537.321116
641.582125	2539.443441
641.926566	2536.791794
642.270955	2541.981662
642.615292	2542.195911
642.959576	2543.919986
643.303809	2543.335212
643.647990	2541.114584
643.992118	2542.624409
644.336195	2541.480068
