Dividing Wavelength (nm)	Counts (n)	Blue Motor Position (mm): 0.000000	Red Motor Position (mm): 41.000000	
326.493990	2128.624691
326.888308	2128.624691
327.282561	2128.624691
327.676750	2096.285689
328.070874	2093.770153
328.464933	2099.033118
328.858929	2103.088726
329.252859	2112.679521
329.646726	2125.872221
330.040528	2138.051649
330.434265	2154.213588
330.827938	2170.763696
331.221547	2189.859587
331.615091	2206.588656
332.008571	2228.714280
332.401986	2247.280850
332.795338	2266.860691
333.188625	2286.415327
333.581847	2304.941567
333.975006	2324.508806
334.368100	2340.093533
334.761129	2359.254959
335.154095	2378.093751
335.546996	2397.577810
335.939833	2415.859555
336.332606	2432.447472
336.725315	2446.560182
337.117960	2455.077211
337.510540	2464.239508
337.903056	2472.630509
338.295508	2482.455718
338.687896	2488.552993
339.080220	2500.603872
339.472480	2507.046466
339.864676	2507.197701
340.256807	2515.034174
340.648875	2517.670698
341.040879	2519.172962
341.432818	2520.430730
341.824694	2521.469207
342.216506	2520.183713
342.608253	2524.783766
342.999937	2522.059022
343.391557	2522.890813
343.783113	2517.579957
344.174605	2523.339475
344.566033	2517.408558
344.957397	2518.404186
345.348697	2515.508043
345.739934	2515.019051
346.131106	2511.187774
346.522215	2512.614421
346.913260	2507.984121
347.304241	2510.045953
347.695159	2508.911693
348.086012	2502.453975
348.476802	2502.698471
348.867528	2502.809376
349.258191	2499.719149
349.648789	2499.799807
350.039324	2495.570279
350.429796	2497.848881
350.820203	2494.007522
351.210548	2496.220588
351.600828	2490.304794
351.991045	2493.526092
352.381198	2490.929897
352.771288	2491.872593
353.161314	2489.314208
353.551276	2491.330669
353.941175	2492.137254
354.331010	2491.282778
354.720782	2492.812768
355.110490	2491.091214
355.500135	2492.293529
355.889717	2489.445278
356.279235	2493.543736
356.668689	2492.482573
357.058080	2493.543736
357.447408	2490.352685
357.836672	2491.033241
358.225873	2491.776811
358.615010	2492.109527
359.004084	2494.519199
359.393095	2495.663541
359.782043	2495.421565
360.170927	2498.438696
360.559748	2500.203100
360.948505	2499.376351
361.337199	2498.935250
361.725830	2503.394150
362.114398	2499.199910
362.502903	2501.579335
362.891344	2500.561022
363.279722	2500.215703
363.668037	2502.159067
364.056289	2501.886845
364.444478	2504.288955
364.832603	2503.938595
365.220665	2506.590242
365.608665	2505.040087
365.996601	2506.446569
366.384474	2507.734584
366.772284	2508.722650
367.160031	2509.589728
367.547715	2513.446211
367.935336	2515.611387
368.322893	2519.614063
368.710388	2521.501975
369.097820	2527.465660
369.485189	2530.681916
369.872495	2537.366486
370.259738	2545.152548
370.646918	2552.568085
371.034035	2557.238714
371.421090	2567.918399
371.808081	2578.078844
372.195010	2590.442274
372.581875	2601.658842
372.968678	2614.589401
373.355418	2623.396297
373.742096	2643.036632
374.128710	2655.800834
374.515262	2671.546878
374.901751	2685.387366
375.288177	2697.992771
375.674540	2721.545042
376.060841	2738.072465
376.447079	2759.565424
376.833254	2782.316151
377.219367	2791.226391
377.605417	2830.842298
377.991404	2839.654235
378.377329	2862.377236
378.763191	2878.758466
379.148991	2916.854465
379.534727	2942.279525
379.920402	2971.805563
380.306013	2983.957264
380.691563	3031.344110
381.077049	3052.191802
381.462474	3073.972107
381.847835	3110.558281
382.233134	3133.808083
382.618371	3131.998308
383.003545	3200.515151
383.388657	3206.793908
383.773706	3237.744072
384.158693	3255.113368
384.543618	3281.735701
384.928480	3316.020588
385.313280	3366.169987
385.698017	3362.449615
386.082692	3416.576484
386.467305	3421.708379
386.851856	3454.299438
387.236344	3474.650577
387.620770	3507.957480
388.005133	3538.421173
388.389435	3561.406314
388.773674	3572.176739
389.157851	3617.373204
389.541965	3631.248980
389.926018	3596.520471
390.310008	3666.373219
390.693936	3686.963812
391.077802	3722.970253
391.461606	3715.821897
391.845348	3776.338428
392.229027	3778.634674
392.612645	3791.424081
392.996200	3865.244218
393.379694	3906.705187
393.763125	3970.226247
394.146494	3940.972431
394.529801	4003.689426
394.913047	4050.330181
395.296230	4014.719470
395.679351	4069.915064
396.062410	4094.631841
396.445408	4074.890683
396.828343	4107.963172
397.211217	4131.699445
397.594028	4050.625089
397.976778	4117.682517
398.359466	4146.454903
398.742092	4173.893903
399.124656	4096.708797
399.507158	4175.433976
399.889598	4199.427347
400.271977	4264.554014
400.654294	4235.673243
401.036549	4242.569542
401.418742	4211.586610
401.800874	4315.383968
402.182944	4334.769725
402.564952	4399.077204
402.946898	4384.011716
403.328783	4381.312178
403.710606	4296.822440
404.092367	4493.145135
404.474067	4456.001913
404.855705	4464.284529
405.237282	4390.106471
405.618797	4498.892050
406.000250	4531.999828
406.381642	4616.199700
406.762972	4579.545471
407.144240	4586.136779
407.525447	4587.084516
407.906593	4647.245646
408.287677	4689.629147
408.668700	4618.871512
409.049661	4669.346065
409.430560	4711.558167
409.811399	4641.284482
410.192176	4796.355415
410.572891	4737.280654
410.953545	4839.815203
411.334138	4721.673242
411.714669	4788.100526
412.095139	4682.687478
412.475547	4824.043953
412.855894	4808.418897
413.236180	4817.492973
413.616405	4767.184779
413.996568	4855.765413
414.376670	4800.894974
414.756711	4750.599382
415.136691	4780.102735
415.516609	4863.816136
415.896466	4900.190582
416.276262	4932.479172
416.655997	4916.599538
417.035670	5098.585191
417.415283	5188.970559
417.794834	5133.401920
418.174324	5086.534313
418.553753	4992.932689
418.933121	5176.188714
419.312428	5245.486935
419.691674	5184.592317
420.070859	5306.868024
420.449983	5218.471392
420.829045	5336.283157
421.208047	5238.532663
421.586988	5316.098377
421.965867	5326.049615
422.344686	5456.302948
422.723444	5313.807172
423.102141	5133.598525
423.480777	5432.468372
423.859352	5202.448084
424.237866	5458.016940
424.616319	5450.775322
424.994712	5560.546447
425.373044	5436.586995
425.751314	5579.889355
426.129524	5383.854005
426.507673	5576.441206
426.885762	5659.660573
427.263789	5586.972176
427.641756	5467.433815
428.019662	5593.674390
428.397508	5599.433908
428.775292	5545.813675
429.153016	5646.246063
429.530679	5574.434826
429.908282	5660.999000
430.285824	5527.569740
430.663305	5802.804137
431.040726	5538.234301
431.418086	5540.611205
431.795385	5644.010311
432.172624	5657.878525
432.549802	5650.881404
432.926920	5666.229197
433.303977	5666.514022
433.680974	5710.004056
434.057910	5729.372169
434.434786	5733.107664
434.811601	5700.251944
435.188355	5938.489313
435.565050	5809.511392
435.941683	5794.163599
436.318257	6006.970868
436.694770	5992.661552
437.071222	6024.536768
437.447614	5960.577129
437.823946	5871.033633
438.200218	6024.476274
438.576429	5890.106839
438.952580	5988.800028
439.328670	6032.847110
439.704700	5939.240445
440.080670	5928.838024
440.456580	6195.061359
440.832429	6077.166414
441.208218	5929.574033
441.583947	6079.324028
441.959616	6085.645635
442.335224	6008.750395
442.710773	6148.019832
443.086261	6174.584192
443.461689	5972.164221
443.837057	6117.344410
444.212365	6277.446415
444.587612	6164.849724
444.962800	6317.780687
445.337927	6300.653367
445.712995	5913.893523
446.088002	6488.635473
446.462949	6323.210010
446.837837	6250.047744
447.212664	6422.112407
447.587431	6568.625982
447.962139	7110.136646
448.336786	8030.303499
448.711374	7772.929910
449.085901	6845.786100
449.460369	6771.575274
449.834776	6702.387958
450.209124	7091.209634
450.583412	7241.239413
450.957640	7393.356231
451.331808	7157.800756
451.705917	6710.065636
452.079965	6635.887577
452.453954	6841.337282
452.827883	6722.814714
453.201752	6813.835267
453.575562	6611.284226
453.949311	6818.339538
454.323001	6708.918773
454.696632	6782.128930
455.070202	6921.347955
455.443713	7075.385452
455.817164	7172.294073
456.190556	7256.320025
456.563888	7334.341963
456.937160	7374.731688
457.310373	7026.801332
457.683526	7053.151443
458.056619	6944.519619
458.429653	6932.458658
458.802628	6871.788372
459.175542	6977.035061
459.548398	7334.457910
459.921194	7497.438414
460.293930	7495.656366
460.666607	8026.545318
461.039224	8334.085950
461.411782	8458.375598
461.784280	8483.888878
462.156719	8367.614664
462.529099	8249.051767
462.901419	7843.742998
463.273680	7735.360711
463.645882	7745.848831
464.018024	7608.351360
464.390106	7774.575846
464.762130	8167.427924
465.134094	8635.113411
465.505999	9653.169389
465.877845	10875.865966
466.249631	11530.953826
466.621358	11141.592747
466.993026	10512.547488
467.364634	10254.861347
467.736184	9886.859637
468.107674	9557.490809
468.479105	9592.415923
468.850477	9354.317186
469.221790	9129.970716
469.593043	8798.008215
469.964238	8660.314139
470.335373	8678.573198
470.706449	8729.750992
471.077467	8705.180408
471.448425	10014.965439
471.819324	11098.130439
472.190164	11122.937957
472.560945	9881.810922
472.931667	9084.514632
473.302330	8948.385834
473.672934	8590.713448
474.043479	8948.428684
474.413965	8890.694870
474.784393	8772.240357
475.154761	8929.635262
475.525070	9016.229683
475.895321	8839.925409
476.265513	9020.106330
476.635645	9188.039768
477.005719	9186.676135
477.375734	9307.915885
477.745691	9535.410556
478.115588	9673.674282
478.485427	9921.905739
478.855207	10453.785278
479.224928	11264.901891
479.594591	11900.845969
479.964194	11711.180117
480.333739	11646.875159
480.703226	11560.139586
481.072653	11653.335398
481.442022	11891.754248
481.811333	12083.320615
482.180584	11889.808363
482.549777	11598.424629
482.918912	11424.308217
483.287988	11442.642893
483.657005	11447.341248
484.025964	11137.368260
484.394864	11265.443815
484.763706	11243.207285
485.132489	10996.016827
485.501213	10958.999634
485.869879	11032.847497
486.238487	10872.117868
486.607036	10990.146403
486.975527	10767.705490
487.343959	10952.539396
487.712333	11005.327838
488.080648	10934.227404
488.448905	10971.536984
488.817104	10913.377192
489.185244	11187.048831
489.553326	11333.703558
489.921350	11872.209695
490.289315	12928.863267
490.657222	13285.109007
491.025070	13189.274151
491.392861	13063.550295
491.760593	12686.285465
492.128267	12338.483658
492.495883	12010.213802
492.863440	11671.780979
493.230939	11333.121305
493.598380	11272.400607
493.965763	11137.806841
494.333088	11032.587877
494.700354	10953.537544
495.067563	11014.107008
495.434713	10845.442603
495.801805	10970.485903
496.168839	10899.294729
496.535815	10829.787299
496.902733	10827.455766
497.269593	10767.508885
497.636395	10866.907836
498.003139	10852.303613
498.369825	10720.880732
498.736453	10877.776563
499.103023	10802.242435
499.469535	10830.084727
499.835989	10820.493932
500.202385	10780.905751
500.568723	10636.690942
500.935003	10854.640188
501.301226	10664.571044
501.667390	10921.659808
502.033497	11024.675787
502.399546	10873.431089
502.765537	10787.156782
503.131470	10861.357525
503.497345	11042.413086
503.863163	10649.215689
504.228923	10952.733480
504.594625	11021.588080
504.960269	10770.694894
505.325856	10990.597587
505.691385	10777.903744
506.056856	10941.259814
506.422270	10964.401231
506.787625	10852.974087
507.152924	10969.044133
507.518164	10945.012953
507.883347	10870.154339
508.248472	10791.388831
508.613540	11014.946360
508.978550	10904.981150
509.343503	10878.986440
509.708398	10996.810809
510.073236	11107.842222
510.438016	11117.911927
510.802738	11066.839997
511.167403	11122.464089
511.532010	11009.600216
511.896561	11240.326266
512.261053	11318.428862
512.625488	11188.977073
512.989866	11170.055102
513.354186	11157.918524
513.718449	11054.751310
514.082655	11246.443706
514.446803	11145.393777
514.810894	11270.444639
515.174927	11133.179061
515.538904	11157.963894
515.902822	11310.418469
516.266684	11195.031498
516.630488	11139.339351
516.994235	11199.288753
517.357925	11261.299986
517.721558	11342.583551
518.085133	11359.277332
518.448651	11374.884744
518.812112	11253.400498
519.175516	11271.901533
519.538863	11383.084181
519.902152	11306.299846
520.265385	11465.691048
520.628560	11379.646114
520.991678	11353.986641
521.354739	11417.699264
521.717743	11349.421876
522.080690	11334.525267
522.443580	11462.003444
522.806413	11418.261353
523.169189	11444.437544
523.531908	11505.256544
523.894569	11321.718215
524.257174	11333.317910
524.619722	11447.706732
524.982213	11394.184802
525.344647	11444.339241
525.707025	11387.739687
526.069345	11489.603762
526.431608	11405.784497
526.793815	11518.250118
527.155964	11304.306070
527.518057	11360.106602
527.880093	11307.073663
528.242072	11367.895184
528.603995	11278.961669
528.965860	11202.565503
529.327669	11250.005281
529.689421	11197.791530
530.051117	11172.363950
530.412755	11280.940322
530.774337	11170.256748
531.135862	11146.671710
531.497331	11169.654330
531.858743	11021.469613
532.220098	11190.466734
532.581396	11054.882380
532.942638	11041.009125
533.303824	11004.491007
533.664953	11021.104129
534.026025	10934.136663
534.387040	11029.263237
534.747999	11031.713237
535.108902	11092.590211
535.469748	10845.417397
535.830537	10948.723242
536.191270	10930.683473
536.551947	10950.558222
536.912567	10947.551174
537.273131	10875.893693
537.633638	10858.098419
537.994089	10840.456902
538.354483	10794.806733
538.714821	10938.451891
539.075103	10943.919022
539.435328	10907.098435
539.795497	10731.288194
540.155609	10894.601414
540.515665	10982.133489
540.875665	10720.729498
541.235609	10790.052925
541.595496	10778.523806
541.955328	10938.351068
542.315102	10827.687659
542.674821	10774.228743
543.034483	10769.921077
543.394090	10779.947932
543.753640	10708.557632
544.113134	10928.974522
544.472571	10780.273086
544.831953	10918.652759
545.191278	10723.635723
545.550548	10753.980948
545.909761	10889.991279
546.268918	10872.216171
546.628019	10949.267687
546.987064	10812.475977
547.346053	10733.917156
547.704986	10836.991108
548.063863	10821.628192
548.422684	10815.072171
548.781449	10729.559079
549.140158	10831.836528
549.498811	10705.532939
549.857408	10567.725437
550.215949	10788.984200
550.574434	10641.008691
550.932864	10744.569114
551.291237	10804.064812
551.649555	10749.025494
552.007817	10763.801116
552.366022	10725.097658
552.724173	10721.783099
553.082267	10704.413803
553.440305	10844.441934
553.798288	10644.388784
554.156215	10796.742536
554.514086	10770.962075
554.871902	10620.367686
555.229661	10662.635241
555.587365	10632.146342
555.945014	10533.468276
556.302606	10656.724488
556.660143	10548.080061
557.017625	10703.201406
557.375050	10598.587381
557.732421	10737.398073
558.089735	10649.621502
558.446994	10649.863477
558.804197	10689.066010
559.161345	10690.767400
559.518437	10536.082115
559.875474	10621.343150
560.232455	10654.269446
560.589381	10609.451068
560.946251	10601.801117
561.303065	10701.245438
561.659825	10642.584051
562.016528	10569.394059
562.373177	10447.650194
562.729770	10562.321320
563.086307	10476.417538
563.442789	10575.274565
563.799216	10447.473753
564.155587	10498.845632
564.511904	10452.328385
564.868164	10447.118352
565.224370	10459.968253
565.580520	10377.958763
565.936615	10390.349919
566.292654	10258.473334
566.648638	10390.985104
567.004567	10341.740593
567.360441	10328.414302
567.716260	10238.805272
568.072023	10335.509727
568.427732	10286.111460
568.783385	10185.593373
569.138982	10259.834446
569.494525	10277.216344
569.850013	10149.977621
570.205445	10234.595909
570.560823	10128.981215
570.916145	10050.303927
571.271412	10122.130287
571.626625	10068.147091
571.981782	10035.671978
572.336884	10011.492084
572.691931	10020.646819
573.046923	9960.538621
573.401860	9920.746273
573.756743	9858.162869
574.111570	9896.969671
574.466342	9887.749401
574.821059	9910.265714
575.175722	9805.457605
575.530330	9809.084716
575.884882	9798.742788
576.239380	9727.418023
576.593823	9708.861536
576.948211	9716.715654
577.302544	9598.641748
577.656823	9613.616496
578.011047	9610.886711
578.365216	9588.622455
578.719330	9504.752778
579.073389	9518.084110
579.427394	9469.315987
579.781344	9448.324623
580.135239	9391.382270
580.489080	9394.570799
580.842866	9296.709400
581.196597	9301.342221
581.550273	9336.859670
581.903895	9305.642325
582.257463	9372.051965
582.610975	9245.831555
582.964434	9272.567315
583.317837	9196.166108
583.671186	9175.719188
584.024481	9163.620418
584.377721	9082.853572
584.730906	9058.986229
585.084037	9083.730733
585.437113	9026.143112
585.790135	9039.166933
586.143103	8934.131972
586.496016	8913.228827
586.848874	8961.749933
587.201679	8956.585271
587.554428	8829.890992
587.907124	8877.146769
588.259765	8851.051236
588.612352	8844.081841
588.964884	8727.744613
589.317362	8737.136282
589.669786	8729.186383
590.022155	8773.767827
590.374470	8781.579095
590.726731	8725.092966
591.078937	8574.866581
591.431090	8683.468158
591.783188	8560.038027
592.135232	8547.954381
592.487222	8546.978918
592.839157	8589.816123
593.191038	8522.360443
593.542866	8470.950756
593.894639	8363.816155
594.246358	8411.828104
594.598022	8415.863548
594.949633	8321.669588
595.301190	8284.276829
595.652692	8314.402765
596.004141	8418.779855
596.355535	8195.736524
596.706876	8174.626692
597.058162	8101.809745
597.409395	8171.284407
597.760573	8228.052841
598.111698	8135.106567
598.462768	8118.455635
598.813785	8076.974501
599.164748	8041.593163
599.515657	8027.364506
599.866511	7936.255732
600.217312	8053.122282
600.568060	7910.099706
600.918753	8006.168975
601.269392	7976.332906
601.619978	7881.067701
601.970510	7937.226155
602.320988	7925.523116
602.671412	7974.291238
603.021783	7906.026453
603.372100	7876.654171
603.722363	7867.307871
604.072572	7840.645209
604.422728	7846.510591
604.772830	7764.584279
605.122878	7766.862881
605.472872	7759.817868
605.822813	7781.847711
606.172701	7715.039819
606.522534	7788.315511
606.872314	7772.461082
607.222041	7734.206286
607.571714	7777.492154
607.921333	7728.769402
608.270899	7720.282619
608.620411	7801.818242
608.969870	7703.248561
609.319276	7689.589554
609.668627	7695.517951
610.017926	7720.174235
610.367171	7748.019048
610.716362	7714.639048
611.065500	7690.743978
611.414585	7705.166720
611.763616	7695.601130
612.112594	7659.501428
612.461518	7663.425966
612.810389	7711.150569
613.159207	7638.578118
613.507971	7578.757266
613.856682	7672.933582
614.205340	7623.293340
614.553945	7684.140067
614.902496	7575.629230
615.250994	7606.455886
615.599439	7583.130467
615.947830	7584.194151
616.296169	7541.170423
616.644454	7538.085237
616.992686	7521.827516
617.340864	7554.922691
617.688990	7456.620191
618.037063	7524.932867
618.385082	7457.918288
618.733048	7520.166456
619.080961	7453.010725
619.428821	7457.235212
619.776628	7444.602080
620.124382	7381.842235
620.472083	7356.381888
620.819731	7372.478292
621.167326	7261.507372
621.514868	7258.701970
621.862357	7155.716238
622.209793	7158.425859
622.557176	7086.022287
622.904506	7055.699746
623.251783	6988.072667
623.599007	6933.829852
623.946179	6924.496156
624.293297	6878.435133
624.640363	6799.067207
624.987376	6771.529904
625.334336	6716.667027
625.681243	6651.666389
626.028097	6638.269523
626.374899	6600.244099
626.721647	6583.399083
627.068343	6512.069277
627.414987	6477.083669
627.761577	6424.590134
628.108115	6438.954902
628.454600	6338.399007
628.801032	6365.769951
629.147412	6322.380740
629.493739	6294.140196
629.840014	6232.091154
630.186236	6257.765751
630.532405	6152.077960
630.878521	6176.010838
631.224585	6131.953674
631.570597	6059.086316
631.916556	6062.771399
632.262462	6048.207506
632.608316	6004.112533
632.954117	5972.045754
633.299866	5950.328463
633.645562	5921.130100
633.991206	5856.668866
634.336797	5797.997397
634.682336	5751.931333
635.027823	5711.465991
635.373257	5697.076017
635.718639	5632.433301
636.063968	5628.556654
636.409245	5541.120361
636.754470	5526.463206
637.099642	5483.149612
637.444762	5425.665335
637.789829	5419.747021
638.134845	5366.280543
638.479808	5341.599054
638.824719	5333.389535
639.169577	5276.457264
639.514383	5268.832518
639.859137	5208.104259
640.203839	5208.873035
640.548489	5177.799362
