Dividing Wavelength (nm)	Counts (n)	Blue Motor Position (mm): 0.000000	Red Motor Position (mm): 46.900000	
326.493990	2128.440689
326.888308	2128.440689
327.282561	2128.440689
327.676750	2093.361820
328.070874	2098.907089
328.464933	2100.479929
328.858929	2103.895311
329.252859	2114.980808
329.646726	2126.104114
330.040528	2138.137348
330.434265	2157.230718
330.827938	2171.814777
331.221547	2190.484690
331.615091	2209.058821
332.008571	2229.369630
332.401986	2250.071128
332.795338	2266.981679
333.188625	2289.515637
333.581847	2306.332926
333.975006	2325.819506
334.368100	2344.123936
334.761129	2358.695391
335.154095	2378.963350
335.546996	2399.841288
335.939833	2423.259969
336.332606	2440.218410
336.725315	2454.600822
337.117960	2459.556276
337.510540	2469.043728
337.903056	2481.041674
338.295508	2488.394197
338.687896	2497.843840
339.080220	2504.793070
339.472480	2512.165758
339.864676	2516.619617
340.256807	2520.587005
340.648875	2522.517767
341.040879	2523.500792
341.432818	2526.717048
341.824694	2530.260980
342.216506	2529.260311
342.608253	2530.157636
342.999937	2530.248377
343.391557	2531.339787
343.783113	2528.869621
344.174605	2524.466173
344.566033	2527.122861
344.957397	2524.297295
345.348697	2521.522139
345.739934	2520.818898
346.131106	2518.928466
346.522215	2517.748836
346.913260	2514.807323
347.304241	2515.923938
347.695159	2508.833555
348.086012	2509.549399
348.476802	2509.776251
348.867528	2507.600993
349.258191	2505.728204
349.648789	2504.823317
350.039324	2500.498007
350.429796	2502.060765
350.820203	2499.719149
351.210548	2501.155878
351.600828	2498.655466
351.991045	2502.718636
352.381198	2498.453819
352.771288	2497.518685
353.161314	2496.331494
353.551276	2500.256032
353.941175	2493.374857
354.331010	2498.947853
354.720782	2498.451299
355.110490	2499.149499
355.500135	2497.884169
355.889717	2498.657986
356.279235	2495.958448
356.668689	2499.207472
357.058080	2500.132524
357.447408	2496.719663
357.836672	2494.705722
358.225873	2496.684374
358.615010	2494.730927
359.004084	2502.582524
359.393095	2500.077071
359.782043	2500.495487
360.170927	2502.794253
360.559748	2503.794922
360.948505	2504.515807
361.337199	2505.466064
361.725830	2506.925478
362.114398	2506.302896
362.502903	2506.723832
362.891344	2509.400685
363.279722	2507.469923
363.668037	2510.880264
364.056289	2511.195336
364.444478	2510.177023
364.832603	2507.989162
365.220665	2510.310613
365.608665	2513.244565
365.996601	2510.771879
366.384474	2514.245234
366.772284	2516.982580
367.160031	2517.620286
367.547715	2518.517612
367.935336	2520.511388
368.322893	2523.377284
368.710388	2529.892975
369.097820	2534.669469
369.485189	2535.808769
369.872495	2543.796478
370.259738	2548.283105
370.646918	2557.652089
371.034035	2563.116700
371.421090	2574.638257
371.808081	2583.861048
372.195010	2595.102821
372.581875	2606.604213
372.968678	2618.617283
373.355418	2630.380816
373.742096	2647.278763
374.128710	2662.452636
374.515262	2678.334792
374.901751	2691.272913
375.288177	2707.157589
375.674540	2727.226422
376.060841	2746.402971
376.447079	2765.556835
376.833254	2787.077521
377.219367	2798.079839
377.605417	2839.245902
377.991404	2843.538444
378.377329	2871.703371
378.763191	2884.349105
379.148991	2924.726227
379.534727	2945.452931
379.920402	2974.951243
380.306013	2986.460197
380.691563	3038.767209
381.077049	3057.923594
381.462474	3075.892787
381.847835	3114.450052
382.233134	3140.696819
382.618371	3137.813279
383.003545	3204.391798
383.388657	3210.433621
383.773706	3247.591966
384.158693	3261.190479
384.543618	3290.068728
384.928480	3322.536280
385.313280	3368.582179
385.698017	3370.601161
386.082692	3421.065632
386.467305	3426.633586
386.851856	3461.914101
387.236344	3481.985455
387.620770	3513.316227
388.005133	3541.534085
388.389435	3567.843867
388.773674	3578.442893
389.157851	3622.454687
389.541965	3637.721821
389.926018	3600.087087
390.310008	3672.581400
390.693936	3689.350798
391.077802	3730.131212
391.461606	3719.406157
391.845348	3783.625416
392.229027	3782.702885
392.612645	3792.601191
392.996200	3874.464488
393.379694	3911.897576
393.763125	3978.695385
394.146494	3945.454017
394.529801	4005.121113
394.913047	4057.017272
395.296230	4018.699461
395.679351	4075.210796
396.062410	4100.600567
396.445408	4081.761775
396.828343	4115.111529
397.211217	4138.595744
397.594028	4058.476686
397.976778	4123.928507
398.359466	4150.399606
398.742092	4177.284079
399.124656	4099.741051
399.507158	4183.761962
399.889598	4209.426476
400.271977	4270.250518
400.654294	4239.481835
401.036549	4243.550046
401.418742	4215.173391
401.800874	4320.783044
402.182944	4340.942618
402.564952	4405.998708
402.946898	4392.521184
403.328783	4391.034043
403.710606	4300.005928
404.092367	4492.784693
404.474067	4457.728509
404.855705	4466.575734
405.237282	4396.818767
405.618797	4505.092670
406.000250	4539.438051
406.381642	4618.982417
406.762972	4581.982869
407.144240	4592.503757
407.525447	4592.002162
407.906593	4652.652284
408.287677	4694.206515
408.668700	4621.964260
409.049661	4673.618443
409.430560	4715.328950
409.811399	4641.539060
410.192176	4807.529133
410.572891	4740.940532
410.953545	4847.036656
411.334138	4727.465527
411.714669	4793.912976
412.095139	4690.402964
412.475547	4832.520653
412.855894	4810.788239
413.236180	4819.741328
413.616405	4773.637456
413.996568	4859.145507
414.376670	4803.067712
414.756711	4758.864354
415.136691	4788.019867
415.516609	4866.228328
415.896466	4904.715017
416.276262	4940.802117
416.655997	4918.152213
417.035670	5097.778607
417.415283	5192.191857
417.794834	5134.838649
418.174324	5088.379375
418.553753	4999.818905
418.933121	5179.435217
419.312428	5246.938787
419.691674	5191.556671
420.070859	5316.108459
420.449983	5224.571188
420.829045	5339.416234
421.208047	5249.376185
421.586988	5318.576104
421.965867	5328.839893
422.344686	5459.708247
422.723444	5317.799766
423.102141	5137.023989
423.480777	5438.018683
423.859352	5206.216347
424.237866	5465.835770
424.616319	5455.415705
424.994712	5564.672632
425.373044	5441.978509
425.751314	5583.135858
426.129524	5384.277462
426.507673	5581.507565
426.885762	5666.269526
427.263789	5590.264049
427.641756	5473.987315
428.019662	5601.097489
428.397508	5605.594198
428.775292	5553.037649
429.153016	5654.095139
429.530679	5580.080919
429.908282	5667.555020
430.285824	5532.016037
430.663305	5810.433923
431.040726	5546.615219
431.418086	5548.682092
431.795385	5647.092977
432.172624	5661.717364
432.549802	5655.289893
432.926920	5670.657850
433.303977	5679.348800
433.680974	5717.331373
434.057910	5734.652778
434.434786	5740.283747
434.811601	5705.154466
435.188355	5941.453512
435.565050	5816.901723
435.941683	5802.970495
436.318257	6011.898595
436.694770	5997.369990
437.071222	6028.383168
437.447614	5959.894052
437.823946	5874.819540
438.200218	6029.580442
438.576429	5891.115070
438.952580	5993.410164
439.328670	6035.861720
439.704700	5944.508451
440.080670	5929.871461
440.456580	6202.733995
440.832429	6081.837043
441.208218	5933.455721
441.583947	6085.945584
441.959616	6087.984730
442.335224	6017.310274
442.710773	6155.639536
443.086261	6182.655079
443.461689	5976.305529
443.837057	6122.806501
444.212365	6279.062105
444.587612	6164.751421
444.962800	6325.554147
445.337927	6305.412216
445.712995	5914.120375
446.088002	6493.379199
446.462949	6321.029711
446.837837	6251.476911
447.212664	6426.717501
447.587431	6572.666467
447.962139	7112.218642
448.336786	8035.442955
448.711374	7780.930221
449.085901	6853.299940
449.460369	6774.378156
449.834776	6707.451797
450.209124	7094.902279
450.583412	7247.066987
450.957640	7395.211375
451.331808	7160.301168
451.705917	6712.417334
452.079965	6636.517722
452.453954	6852.112748
452.827883	6724.180866
453.201752	6818.626884
453.575562	6613.136850
453.949311	6819.960269
454.323001	6710.652930
454.696632	6781.158508
455.070202	6921.834426
455.443713	7076.910401
455.817164	7176.447984
456.190556	7261.509893
456.563888	7334.382292
456.937160	7378.071452
457.310373	7038.408588
457.683526	7061.890283
458.056619	6949.003725
458.429653	6936.451252
458.802628	6869.247630
459.175542	6982.663509
459.548398	7336.774320
459.921194	7498.857498
460.293930	7496.367168
460.666607	8030.419445
461.039224	8336.563677
461.411782	8465.173594
461.784280	8481.630441
462.156719	8369.789922
462.529099	8253.238445
462.901419	7836.897111
463.273680	7734.659990
463.645882	7749.349913
464.018024	7613.621886
464.390106	7783.034902
464.762130	8168.665528
465.134094	8642.188670
465.505999	9660.489144
465.877845	10883.132789
466.249631	11527.596418
466.621358	11148.884776
466.993026	10518.201142
467.364634	10255.073076
467.736184	9897.136029
468.107674	9569.536647
468.479105	9598.785421
468.850477	9364.495276
469.221790	9135.319381
469.593043	8802.804873
469.964238	8667.026435
470.335373	8675.881222
470.706449	8738.285665
471.077467	8713.422695
471.448425	10028.054795
471.819324	11103.065729
472.190164	11126.650767
472.560945	9874.102997
472.931667	9086.521011
473.302330	8951.294580
473.672934	8597.831558
474.043479	8954.795661
474.413965	8890.858707
474.784393	8776.452241
475.154761	8934.121889
475.525070	9022.349643
475.895321	8849.342285
476.265513	9023.186475
476.635645	9191.465232
477.005719	9192.899440
477.375734	9308.604003
477.745691	9543.315085
478.115588	9674.518675
478.485427	9926.750288
478.855207	10459.086051
479.224928	11280.441247
479.594591	11910.008266
479.964194	11713.972917
480.333739	11654.141982
480.703226	11572.669374
481.072653	11658.003506
481.442022	11898.910166
481.811333	12084.222981
482.180584	11894.647870
482.549777	11607.995260
482.918912	11427.103536
483.287988	11445.239087
483.657005	11460.607045
484.025964	11143.677264
484.394864	11273.897830
484.763706	11239.257541
485.132489	10999.815336
485.501213	10964.486930
485.869879	11033.888495
486.238487	10882.749662
486.607036	10985.158182
486.975527	10768.736406
487.343959	10957.545261
487.712333	11005.718528
488.080648	10939.069433
488.448905	10981.841102
488.817104	10915.721328
489.185244	11185.375168
489.553326	11341.149343
489.921350	11877.223122
490.289315	12943.472531
490.657222	13288.753761
491.025070	13191.197352
491.392861	13064.598855
491.760593	12690.207482
492.128267	12331.668018
492.495883	12001.961433
492.863440	11667.037254
493.230939	11334.709269
493.598380	11269.217118
493.965763	11133.778959
494.333088	11039.970647
494.700354	10963.660181
495.067563	11022.984479
495.434713	10849.339415
495.801805	10983.890331
496.168839	10897.777341
496.535815	10841.477735
496.902733	10840.056130
497.269593	10768.212126
497.636395	10873.567200
498.003139	10854.604900
498.369825	10729.228883
498.736453	10878.089115
499.103023	10811.377006
499.469535	10839.239463
499.835989	10823.755559
500.202385	10784.845413
500.568723	10636.126333
500.935003	10859.293173
501.301226	10671.815182
501.667390	10925.312124
502.033497	11017.618171
502.399546	10881.171781
502.765537	10787.728953
503.131470	10863.505057
503.497345	11045.405011
503.863163	10649.644187
504.228923	10964.192023
504.594625	11027.702999
504.960269	10774.286716
505.325856	10993.836528
505.691385	10790.708275
506.056856	10936.788310
506.422270	10966.616818
506.787625	10857.087668
507.152924	10975.499331
507.518164	10957.686414
507.883347	10873.199196
508.248472	10799.124481
508.613540	11028.764162
508.978550	10909.422407
509.343503	10882.477439
509.708398	11003.205512
510.073236	11122.002823
510.438016	11121.377720
510.802738	11073.363250
511.167403	11124.213369
511.532010	11021.094047
511.896561	11247.023439
512.261053	11320.490694
512.625488	11191.999244
512.989866	11172.633652
513.354186	11167.887406
513.718449	11068.896788
514.082655	11255.459810
514.446803	11156.953143
514.810894	11276.156267
515.174927	11145.466874
515.538904	11162.901704
515.902822	11319.532875
516.266684	11201.322858
516.630488	11146.245732
516.994235	11205.060874
517.357925	11269.622931
517.721558	11353.953873
518.085133	11367.096162
518.448651	11383.142154
518.812112	11263.339133
519.175516	11278.863366
519.538863	11404.284753
519.902152	11312.064406
520.265385	11472.587347
520.628560	11383.379088
520.991678	11367.033147
521.354739	11421.951477
521.717743	11363.872344
522.080690	11338.583395
522.443580	11466.462345
522.806413	11426.967425
523.169189	11451.752258
523.531908	11520.841272
523.894569	11337.199599
524.257174	11339.752943
524.619722	11456.339708
524.982213	11405.114023
525.344647	11463.319186
525.707025	11410.966803
526.069345	11503.199754
526.431608	11417.908472
526.793815	11528.105574
527.155964	11320.941877
527.518057	11373.115299
527.880093	11323.245685
528.242072	11392.838814
528.603995	11293.238217
528.965860	11221.124511
529.327669	11265.393403
529.689421	11221.318595
530.051117	11193.259533
530.412755	11292.998762
530.774337	11194.376148
531.135862	11160.368525
531.497331	11187.883142
531.858743	11040.031141
532.220098	11207.447860
532.581396	11075.304095
532.942638	11061.471168
533.303824	11029.356498
533.664953	11036.146932
534.026025	10952.239447
534.387040	11051.262832
534.747999	11050.362986
535.108902	11115.335897
535.469748	10858.163954
535.830537	10969.074380
536.191270	10948.488828
536.551947	10975.821965
536.912567	10969.245779
537.273131	10892.315251
537.633638	10873.700791
537.994089	10863.956240
538.354483	10813.123765
538.714821	10960.640530
539.075103	10969.139915
539.435328	10936.866448
539.795497	10760.599983
540.155609	10922.607545
540.515665	11004.470842
540.875665	10741.408311
541.235609	10804.445419
541.595496	10803.734616
541.955328	10954.886053
542.315102	10845.092243
542.674821	10795.812443
543.034483	10791.275405
543.394090	10800.946858
543.753640	10721.289066
544.113134	10954.795312
544.472571	10802.771756
544.831953	10945.272572
545.191278	10753.688562
545.550548	10775.226891
545.909761	10921.921948
546.268918	10894.629141
546.628019	10976.890689
546.987064	10842.675009
547.346053	10766.097362
547.704986	10862.398524
548.063863	10849.720022
548.422684	10837.399442
548.781449	10755.331978
549.140158	10859.525066
549.498811	10732.084697
549.857408	10588.958777
550.215949	10818.210290
550.574434	10667.220170
550.932864	10771.821592
551.291237	10832.073463
551.649555	10778.591862
552.007817	10786.083016
552.366022	10748.072716
552.724173	10745.254711
553.082267	10731.855324
553.440305	10866.469255
553.798288	10666.456435
554.156215	10822.056690
554.514086	10796.263626
554.871902	10645.172684
555.229661	10685.075937
555.587365	10662.179016
555.945014	10556.032481
556.302606	10681.327839
556.660143	10573.222816
557.017625	10730.206867
557.375050	10629.832453
557.732421	10764.471590
558.089735	10674.731489
558.446994	10678.469505
558.804197	10716.187418
559.161345	10719.494415
559.518437	10567.299460
559.875474	10652.255505
560.232455	10680.390185
560.589381	10632.297577
560.946251	10631.138112
561.303065	10734.844728
561.659825	10667.923411
562.016528	10603.729358
562.373177	10483.500359
562.729770	10591.126473
563.086307	10504.143884
563.442789	10603.386560
563.799216	10480.112704
564.155587	10526.551813
564.511904	10481.163785
564.868164	10469.385129
565.224370	10487.132511
565.580520	10412.536037
565.936615	10418.938302
566.292654	10290.527511
566.648638	10415.538044
567.004567	10377.368947
567.360441	10351.291059
567.716260	10271.063616
568.072023	10365.892761
568.427732	10323.398354
568.783385	10226.691380
569.138982	10291.248396
569.494525	10310.883690
569.850013	10186.407519
570.205445	10275.653586
570.560823	10167.735085
570.916145	10080.571015
571.271412	10151.847889
571.626625	10093.415875
571.981782	10073.652031
572.336884	10047.367455
572.691931	10058.881450
573.046923	9997.744857
573.401860	9958.766656
573.756743	9895.079238
574.111570	9935.589951
574.466342	9921.583105
574.821059	9947.996230
575.175722	9842.487401
575.530330	9854.870995
575.884882	9844.473616
576.239380	9766.106358
576.593823	9748.588349
576.948211	9763.091748
577.302544	9642.933326
577.656823	9661.532663
578.011047	9661.772118
578.365216	9629.738106
578.719330	9553.694821
579.073389	9568.004136
579.427394	9511.530610
579.781344	9491.204678
580.135239	9440.183159
580.489080	9454.374008
580.842866	9354.468421
581.196597	9356.641158
581.550273	9393.847394
581.903895	9362.821612
582.257463	9433.415410
582.610975	9306.801790
582.964434	9336.496707
583.317837	9252.198532
583.671186	9236.228157
584.024481	9231.368485
584.377721	9156.414089
584.730906	9131.382239
585.084037	9168.202827
585.437113	9101.722611
585.790135	9113.672666
586.143103	9016.267491
586.496016	8993.627669
586.848874	9041.896718
587.201679	9038.645173
587.554428	8922.701155
587.907124	8973.977252
588.259765	8939.498280
588.612352	8943.309392
588.964884	8824.428902
589.317362	8833.354265
589.669786	8838.544133
590.022155	8880.993169
590.374470	8903.242302
590.726731	8842.153599
591.078937	8692.196916
591.431090	8798.998802
591.783188	8677.806943
592.135232	8664.611723
592.487222	8665.385540
592.839157	8723.867965
593.191038	8656.936566
593.542866	8595.575641
593.894639	8492.841967
594.246358	8542.882981
594.598022	8566.795694
594.949633	8466.587638
595.301190	8442.059904
595.652692	8470.686096
596.004141	8571.884739
596.355535	8354.295936
596.706876	8330.378181
597.058162	8268.452648
597.409395	8340.583997
597.760573	8404.967094
598.111698	8316.439391
598.462768	8297.219992
598.813785	8266.529447
599.164748	8234.445024
599.515657	8224.808858
599.866511	8133.427862
600.217312	8256.449660
600.568060	8117.034030
600.918753	8221.106131
601.269392	8191.683436
601.619978	8106.916434
601.970510	8168.174015
602.320988	8167.188470
602.671412	8225.554949
603.021783	8158.931060
603.372100	8127.968293
603.722363	8134.196638
604.072572	8106.732432
604.422728	8119.148794
604.772830	8051.625059
605.122878	8053.772590
605.472872	8056.308291
605.822813	8085.173938
606.172701	8023.571038
606.522534	8100.546936
606.872314	8102.379396
607.222041	8069.223727
607.571714	8127.403683
607.921333	8086.202333
608.270899	8089.640400
608.620411	8183.408382
608.969870	8083.528001
609.319276	8079.064059
609.668627	8098.795135
610.017926	8131.532388
610.367171	8175.536620
610.716362	8148.992425
611.065500	8140.692165
611.414585	8172.721136
611.763616	8160.546749
612.112594	8138.002709
612.461518	8153.534504
612.810389	8220.823826
613.159207	8157.748909
613.507971	8106.961805
613.856682	8221.476655
614.205340	8174.102412
614.553945	8258.332531
614.902496	8157.559866
615.250994	8208.493164
615.599439	8191.930453
615.947830	8207.709264
616.296169	8178.145418
616.644454	8185.203033
616.992686	8186.753188
617.340864	8245.071776
617.688990	8148.064852
618.037063	8245.341478
618.385082	8191.958179
618.733048	8275.301055
619.080961	8210.121456
619.428821	8228.287254
619.776628	8233.527534
620.124382	8188.315945
620.472083	8172.849685
620.819731	8198.700722
621.167326	8092.153415
621.514868	8105.068851
621.862357	7989.432344
622.209793	8001.707553
622.557176	7940.744880
622.904506	7911.188595
623.251783	7841.182092
623.599007	7800.590721
623.946179	7805.979714
624.293297	7761.413394
624.640363	7681.165786
624.987376	7659.337590
625.334336	7606.168540
625.681243	7558.302785
626.028097	7544.217801
626.374899	7522.659306
626.721647	7512.466093
627.068343	7447.273892
627.414987	7415.867503
627.761577	7371.142386
628.108115	7407.279898
628.454600	7301.302241
628.801032	7356.064295
629.147412	7309.499157
629.493739	7302.403733
629.840014	7239.714464
630.186236	7294.602547
630.532405	7176.359763
630.878521	7234.882518
631.224585	7186.764705
631.570597	7112.725278
631.916556	7143.584702
632.262462	7139.040102
632.608316	7103.605831
632.954117	7081.119764
633.299866	7061.164357
633.645562	7052.765795
633.991206	6974.857283
634.336797	6920.775784
634.682336	6877.477314
635.027823	6841.622107
635.373257	6832.472413
635.718639	6764.464727
636.063968	6777.740605
636.409245	6674.689338
636.754470	6668.440828
637.099642	6628.136803
637.444762	6574.380459
637.789829	6580.424803
638.134845	6522.461616
638.479808	6509.352095
638.824719	6517.170925
639.169577	6442.307270
639.514383	6466.386341
639.859137	6392.893880
640.203839	6403.500467
640.548489	6385.503548
