Dividing Wavelength (nm)	Counts (n)	Blue Motor Position (mm): 0.000000	Red Motor Position (mm): 29.500000	
326.493990	2126.567900
326.888308	2126.567900
327.282561	2126.567900
327.676750	2095.738724
328.070874	2095.947932
328.464933	2098.019846
328.858929	2104.618716
329.252859	2115.066508
329.646726	2123.659154
330.040528	2135.495784
330.434265	2155.937663
330.827938	2170.274704
331.221547	2188.314473
331.615091	2205.981197
332.008571	2226.975082
332.401986	2245.438308
332.795338	2268.846906
333.188625	2285.689401
333.581847	2304.460137
333.975006	2323.626604
334.368100	2340.325426
334.761129	2357.596419
335.154095	2373.085364
335.546996	2393.305432
335.939833	2409.888308
336.332606	2426.824064
336.725315	2438.131373
337.117960	2447.104626
337.510540	2456.914712
337.903056	2466.956690
338.295508	2473.679069
338.687896	2485.112406
339.080220	2491.376039
339.472480	2498.123624
339.864676	2503.878101
340.256807	2506.476816
340.648875	2510.471930
341.040879	2510.991169
341.432818	2512.100223
341.824694	2518.752025
342.216506	2518.424350
342.608253	2515.397137
342.999937	2515.424864
343.391557	2515.069462
343.783113	2512.274143
344.174605	2515.417302
344.566033	2511.139883
344.957397	2510.590397
345.348697	2510.842455
345.739934	2506.650736
346.131106	2504.485560
346.522215	2504.490601
346.913260	2500.873573
347.304241	2500.187976
347.695159	2499.898110
348.086012	2498.622698
348.476802	2495.035917
348.867528	2495.731596
349.258191	2491.703714
349.648789	2495.209837
350.039324	2492.555669
350.429796	2489.168014
350.820203	2488.578199
351.210548	2486.987715
351.600828	2485.354381
351.991045	2482.654843
352.381198	2486.667602
352.771288	2486.022334
353.161314	2486.949906
353.551276	2486.100472
353.941175	2487.131388
354.331010	2486.662561
354.720782	2483.040492
355.110490	2483.438743
355.500135	2486.075266
355.889717	2484.993939
356.279235	2483.630307
356.668689	2487.000318
357.058080	2483.937817
357.447408	2485.230873
357.836672	2484.298259
358.225873	2486.239104
358.615010	2484.961171
359.004084	2489.215905
359.393095	2489.147849
359.782043	2487.958137
360.170927	2489.374701
360.559748	2492.633807
360.948505	2491.784373
361.337199	2491.300422
361.725830	2491.867552
362.114398	2492.172542
362.502903	2494.776298
362.891344	2494.151195
363.279722	2493.571462
363.668037	2494.078098
364.056289	2496.518016
364.444478	2495.666061
364.832603	2498.829385
365.220665	2498.962976
365.608665	2498.070692
365.996601	2498.347955
366.384474	2500.029180
366.772284	2502.637977
367.160031	2503.086640
367.547715	2503.817607
367.935336	2509.022598
368.322893	2511.011334
368.710388	2517.085924
369.097820	2524.138498
369.485189	2523.021883
369.872495	2528.829292
370.259738	2535.090405
370.646918	2543.882177
371.034035	2549.167827
371.421090	2559.650907
371.808081	2572.100036
372.195010	2580.826273
372.581875	2595.657348
372.968678	2607.181426
373.355418	2618.312293
373.742096	2635.807618
374.128710	2649.786737
374.515262	2665.663851
374.901751	2681.024247
375.288177	2693.075125
375.674540	2717.605380
376.060841	2735.992989
376.447079	2756.727254
376.833254	2774.736777
377.219367	2787.072480
377.605417	2824.903819
377.991404	2833.856908
378.377329	2855.967409
378.763191	2873.072044
379.148991	2910.394227
379.534727	2936.343566
379.920402	2964.465643
380.306013	2976.375369
380.691563	3025.282123
381.077049	3047.647202
381.462474	3064.648493
381.847835	3102.043772
382.233134	3128.139305
382.618371	3124.212246
383.003545	3197.941642
383.388657	3200.247970
383.773706	3237.313053
384.158693	3251.088006
384.543618	3278.705968
384.928480	3314.505722
385.313280	3359.167824
385.698017	3355.117257
386.082692	3410.955598
386.467305	3417.511618
386.851856	3447.693006
387.236344	3468.011377
387.620770	3505.303312
388.005133	3530.793907
388.389435	3557.832136
388.773674	3564.330183
389.157851	3607.537912
389.541965	3622.505098
389.926018	3591.839759
390.310008	3662.151253
390.693936	3678.403933
391.077802	3720.167372
391.461606	3707.935012
391.845348	3772.955814
392.229027	3775.297430
392.612645	3783.232206
392.996200	3861.339844
393.379694	3900.413827
393.763125	3963.614773
394.146494	3935.238118
394.529801	3997.708097
394.913047	4042.594531
395.296230	4010.510107
395.679351	4067.994384
396.062410	4089.993980
396.445408	4073.148964
396.828343	4103.048047
397.211217	4128.972181
397.594028	4048.028894
397.976778	4114.493987
398.359466	4141.534737
398.742092	4169.863501
399.124656	4088.075821
399.507158	4169.644210
399.889598	4195.767470
400.271977	4258.429012
400.654294	4229.815423
401.036549	4237.525868
401.418742	4206.830282
401.800874	4309.778205
402.182944	4332.458356
402.564952	4394.857758
402.946898	4381.438207
403.328783	4377.995099
403.710606	4292.852531
404.092367	4483.952591
404.474067	4447.812559
404.855705	4456.564002
405.237282	4385.287128
405.618797	4491.249661
406.000250	4527.394734
406.381642	4611.594606
406.762972	4569.211105
407.144240	4581.582097
407.525447	4580.712498
407.906593	4641.163494
408.287677	4684.570349
408.668700	4615.486377
409.049661	4666.001259
409.430560	4705.022311
409.811399	4633.080004
410.192176	4793.078665
410.572891	4730.732195
410.953545	4837.120706
411.334138	4714.275348
411.714669	4782.204897
412.095139	4675.919729
412.475547	4822.234179
412.855894	4802.316580
413.236180	4808.055933
413.616405	4763.224952
413.996568	4851.861040
414.376670	4791.785609
414.756711	4746.518568
415.136691	4778.242550
415.516609	4853.880022
415.896466	4894.552051
416.276262	4925.776958
416.655997	4909.385646
417.035670	5092.755097
417.415283	5180.486297
417.794834	5124.902535
418.174324	5081.236060
418.553753	4985.847347
418.933121	5174.573024
419.312428	5240.566769
419.691674	5177.915309
420.070859	5303.089679
420.449983	5217.458120
420.829045	5328.900387
421.208047	5240.695318
421.586988	5306.668899
421.965867	5321.565508
422.344686	5450.208193
422.723444	5304.052540
423.102141	5126.203153
423.480777	5423.245581
423.859352	5191.039953
424.237866	5451.276917
424.616319	5443.816010
424.994712	5554.784409
425.373044	5432.226397
425.751314	5573.837450
426.129524	5375.314291
426.507673	5569.164300
426.885762	5655.337784
427.263789	5583.239202
427.641756	5466.188650
428.019662	5586.470581
428.397508	5597.125060
428.775292	5541.296802
429.153016	5640.403366
429.530679	5569.310493
429.908282	5653.258308
430.285824	5524.963463
430.663305	5798.297345
431.040726	5529.863465
431.418086	5532.633579
431.795385	5636.718282
432.172624	5650.236136
432.549802	5643.239015
432.926920	5653.404501
433.303977	5664.684083
433.680974	5701.106420
434.057910	5722.702723
434.434786	5727.723712
434.811601	5694.804977
435.188355	5930.332726
435.565050	5801.014527
435.941683	5785.888545
436.318257	5999.724209
436.694770	5987.567466
437.071222	6019.510738
437.447614	5951.024142
437.823946	5860.832859
438.200218	6016.297002
438.576429	5883.744903
438.952580	5976.930632
439.328670	6025.945771
439.704700	5925.868784
440.080670	5917.427372
440.456580	6188.913672
440.832429	6072.435291
441.208218	5918.541467
441.583947	6074.852525
441.959616	6076.052319
442.335224	6005.256875
442.710773	6141.073122
443.086261	6171.506567
443.461689	5961.345905
443.837057	6112.532629
444.212365	6267.636330
444.587612	6160.290000
444.962800	6308.862886
445.337927	6294.500639
445.712995	5900.194188
446.088002	6482.984340
446.462949	6309.203164
446.837837	6244.295788
447.212664	6416.960348
447.587431	6556.524692
447.962139	7099.436797
448.336786	8029.506996
448.711374	7764.750638
449.085901	6841.632189
449.460369	6759.945332
449.834776	6689.147368
450.209124	7086.055054
450.583412	7233.831438
450.957640	7381.070939
451.331808	7142.851214
451.705917	6697.780344
452.079965	6623.307378
452.453954	6831.907803
452.827883	6711.419185
453.201752	6804.284801
453.575562	6601.516990
453.949311	6807.838814
454.323001	6691.380599
454.696632	6765.861126
455.070202	6906.650471
455.443713	7058.638739
455.817164	7156.091804
456.190556	7234.670790
456.563888	7310.517470
456.937160	7351.219746
457.310373	7012.340782
457.683526	7030.587238
458.056619	6922.555311
458.429653	6907.497385
458.802628	6838.095820
459.175542	6947.935000
459.548398	7299.552961
459.921194	7456.315201
460.293930	7457.940973
460.666607	7977.716702
461.039224	8277.526724
461.411782	8397.816217
461.784280	8412.087723
462.156719	8302.424983
462.529099	8176.728853
462.901419	7763.606296
463.273680	7648.952813
463.645882	7660.154257
464.018024	7521.492279
464.390106	7674.060280
464.762130	8055.917601
465.134094	8494.707194
465.505999	9476.814704
465.877845	10647.728549
466.249631	11277.192224
466.621358	10898.170551
466.993026	10268.321228
467.364634	10011.416466
467.736184	9639.956525
468.107674	9309.224065
468.479105	9316.105240
468.850477	9075.017098
469.221790	8844.989248
469.593043	8516.754680
469.964238	8362.850774
470.335373	8352.077828
470.706449	8394.526864
471.077467	8349.337961
471.448425	9546.793481
471.819324	10523.834631
472.190164	10528.270847
472.560945	9344.970887
472.931667	8581.004186
473.302330	8434.319212
473.672934	8077.639933
474.043479	8376.726550
474.413965	8297.764437
474.784393	8157.658168
475.154761	8269.518852
475.525070	8316.136922
475.895321	8132.366699
476.265513	8253.127540
476.635645	8368.622895
477.005719	8317.790420
477.375734	8384.290801
477.745691	8545.335502
478.115588	8611.256150
478.485427	8776.938712
478.855207	9168.880862
479.224928	9771.785218
479.594591	10238.706970
479.964194	10032.702738
480.333739	9939.108676
480.703226	9799.186410
481.072653	9806.859046
481.442022	9895.525381
481.811333	9984.287497
482.180584	9765.309856
482.549777	9462.684350
482.918912	9260.922249
483.287988	9197.048309
483.657005	9135.001788
484.025964	8833.155140
484.394864	8853.876802
484.763706	8754.263602
485.132489	8518.461111
485.501213	8413.547138
485.869879	8399.177328
486.238487	8191.285185
486.607036	8213.393165
486.975527	7972.252092
487.343959	8030.633694
487.712333	7972.675548
488.080648	7851.193823
488.448905	7782.379553
488.817104	7670.541554
489.185244	7751.772187
489.553326	7749.823781
489.921350	7981.921025
490.289315	8479.119946
490.657222	8587.678674
491.025070	8426.999457
491.392861	8264.162626
491.760593	7970.434756
492.128267	7686.529574
492.495883	7417.770539
492.863440	7151.920250
493.230939	6891.625312
493.598380	6774.373115
493.965763	6618.109948
494.333088	6503.743812
494.700354	6371.342947
495.067563	6336.352298
495.434713	6157.426625
495.801805	6146.686446
496.168839	6035.415578
496.535815	5918.685140
496.902733	5855.136355
497.269593	5739.903140
497.636395	5716.078647
498.003139	5619.865705
498.369825	5511.397718
498.736453	5483.812524
499.103023	5390.808277
499.469535	5325.371579
499.835989	5252.877267
500.202385	5168.664792
500.568723	5054.767482
500.935003	5065.928597
501.301226	4921.073562
501.667390	4948.073982
502.033497	4901.425664
502.399546	4794.827946
502.765537	4705.690263
503.131470	4655.654291
503.497345	4635.456908
503.863163	4487.672962
504.228923	4487.887212
504.594625	4443.341056
504.960269	4332.347451
505.325856	4314.864729
505.691385	4219.090368
506.056856	4193.942572
506.422270	4140.133296
506.787625	4075.102411
507.152924	4040.381464
507.518164	3989.606962
507.883347	3921.861417
508.248472	3864.921584
508.613540	3854.814070
508.978550	3787.083648
509.343503	3742.441710
509.708398	3713.336608
510.073236	3682.588090
510.438016	3642.969662
510.802738	3596.157508
511.167403	3562.437230
511.532010	3509.242974
511.896561	3499.289216
512.261053	3471.462047
512.625488	3417.067997
512.989866	3376.138869
513.354186	3345.828931
513.718449	3299.818320
514.082655	3290.809778
514.446803	3247.294538
514.810894	3230.973802
515.174927	3192.313194
515.538904	3169.890141
515.902822	3149.047491
516.266684	3120.839714
516.630488	3086.438881
516.994235	3070.836509
517.357925	3051.405382
517.721558	3031.218081
518.085133	3011.502129
518.448651	2996.224912
518.812112	2966.988740
519.175516	2947.643312
519.538863	2934.657300
519.902152	2915.755494
520.265385	2903.157650
520.628560	2887.217522
520.991678	2870.221272
521.354739	2857.434385
521.717743	2841.030470
522.080690	2828.180569
522.443580	2818.579692
522.806413	2807.562250
523.169189	2796.844757
523.531908	2788.960392
523.894569	2775.006478
524.257174	2767.104470
524.619722	2756.684405
524.982213	2751.560072
525.344647	2743.524472
525.707025	2734.604151
526.069345	2729.744478
526.431608	2723.614435
526.793815	2715.543548
527.155964	2707.218082
527.518057	2704.085005
527.880093	2695.646114
528.242072	2695.084025
528.603995	2685.062211
528.965860	2683.025585
529.327669	2681.949299
529.689421	2674.019564
530.051117	2669.873215
530.412755	2666.858605
530.774337	2667.047648
531.135862	2662.787873
531.497331	2658.565907
531.858743	2650.830256
532.220098	2653.746564
532.581396	2648.090389
532.942638	2647.629123
533.303824	2647.818167
533.664953	2646.600728
534.026025	2643.386993
534.387040	2641.204173
534.747999	2642.199801
535.108902	2642.797177
535.469748	2636.805766
535.830537	2637.118318
536.191270	2634.446506
536.551947	2634.222175
536.912567	2629.826289
537.273131	2631.399129
537.633638	2628.329066
537.994089	2629.884262
538.354483	2629.155815
538.714821	2627.772018
539.075103	2626.947790
539.435328	2628.467698
539.795497	2624.001235
540.155609	2626.690691
540.515665	2624.570886
540.875665	2620.351440
541.235609	2620.981584
541.595496	2620.802623
541.955328	2623.091307
542.315102	2618.254320
542.674821	2618.385390
543.034483	2620.033847
543.394090	2617.611573
543.753640	2617.593929
544.113134	2618.932355
544.472571	2618.518981
544.831953	2618.302211
545.191278	2618.448404
545.550548	2613.631582
545.909761	2618.866820
546.268918	2613.555965
546.628019	2616.179885
546.987064	2616.371449
547.346053	2613.976901
547.704986	2613.414812
548.063863	2617.281377
548.422684	2613.858434
548.781449	2613.147631
549.140158	2612.973711
549.498811	2611.582353
549.857408	2611.295007
550.215949	2610.657301
550.574434	2608.799636
550.932864	2609.545727
551.291237	2606.858792
551.649555	2612.951026
552.007817	2611.511777
552.366022	2614.488578
552.724173	2613.069493
553.082267	2611.302569
553.440305	2610.674945
553.798288	2606.846189
554.156215	2610.483381
554.514086	2610.468258
554.871902	2607.385592
555.229661	2608.098916
555.587365	2608.794595
555.945014	2609.389451
556.302606	2609.404574
556.660143	2607.642691
557.017625	2606.747886
557.375050	2611.587394
557.732421	2608.754266
558.089735	2610.927003
558.446994	2607.607403
558.804197	2608.040942
559.161345	2609.596138
559.518437	2609.928854
559.875474	2607.935078
560.232455	2610.463217
560.589381	2607.085644
560.946251	2610.856427
561.303065	2609.172681
561.659825	2610.458176
562.016528	2609.031529
562.373177	2606.604213
562.729770	2610.601848
563.086307	2609.245778
563.442789	2608.222424
563.799216	2607.776282
564.155587	2605.706888
564.511904	2606.289141
564.868164	2607.047835
565.224370	2607.501539
565.580520	2605.880808
565.936615	2606.397526
566.292654	2606.047166
566.648638	2604.933071
567.004567	2605.696806
567.360441	2607.927516
567.716260	2602.641867
568.072023	2605.550612
568.427732	2601.053903
568.783385	2602.614140
569.138982	2601.507607
569.494525	2604.673452
569.850013	2603.130858
570.205445	2605.180087
570.560823	2603.193873
570.916145	2602.054572
571.271412	2602.288986
571.626625	2605.522886
571.981782	2601.295878
572.336884	2602.846033
572.691931	2602.145313
573.046923	2604.209665
573.401860	2602.092381
573.756743	2602.324274
574.111570	2605.538009
574.466342	2600.615323
574.821059	2601.028697
575.175722	2599.597010
575.530330	2602.856116
575.884882	2602.873760
576.239380	2600.083481
576.593823	2604.857454
576.948211	2599.929726
577.302544	2599.027359
577.656823	2599.786053
578.011047	2599.846547
578.365216	2600.980806
578.719330	2598.132554
579.073389	2598.631629
579.427394	2600.761516
579.781344	2600.325456
580.135239	2600.688419
580.489080	2598.987030
580.842866	2598.024170
581.196597	2600.214551
581.550273	2599.730600
581.903895	2596.862184
582.257463	2598.089705
582.610975	2596.123655
582.964434	2597.149529
583.317837	2596.065681
583.671186	2597.711618
584.024481	2596.428644
584.377721	2594.858325
584.730906	2597.051227
585.084037	2598.616505
585.437113	2597.147009
585.790135	2598.278748
586.143103	2595.964858
586.496016	2596.930239
586.848874	2591.097624
587.201679	2593.535022
587.554428	2591.258941
587.907124	2595.105342
588.259765	2590.618715
588.612352	2595.107862
588.964884	2596.274889
589.317362	2594.286154
589.669786	2592.814137
590.022155	2594.639035
590.374470	2594.946545
590.726731	2597.797318
591.078937	2594.548294
591.431090	2592.236925
591.783188	2596.335383
592.135232	2594.805393
592.487222	2596.174066
592.839157	2595.629622
593.191038	2592.383118
593.542866	2592.546956
593.894639	2593.325814
594.246358	2590.109558
594.598022	2592.027717
594.949633	2589.514702
595.301190	2590.028900
595.652692	2592.584765
596.004141	2590.273396
596.355535	2592.748602
596.706876	2592.862028
597.058162	2587.697366
597.409395	2589.882706
597.760573	2591.180803
598.111698	2587.805751
598.462768	2590.464959
598.813785	2589.827253
599.164748	2589.295412
599.515657	2588.677870
599.866511	2589.403797
600.217312	2589.328179
600.568060	2588.163673
600.918753	2590.807758
601.269392	2588.473704
601.619978	2589.212233
601.970510	2588.592171
602.320988	2587.835998
602.671412	2590.477562
603.021783	2587.392376
603.372100	2587.379773
603.722363	2587.904053
604.072572	2588.372881
604.422728	2590.240628
604.772830	2583.813157
605.122878	2583.119998
605.472872	2583.240986
605.822813	2584.012283
606.172701	2584.768456
606.522534	2586.185020
606.872314	2588.629979
607.222041	2589.698704
607.571714	2590.008735
607.921333	2588.831626
608.270899	2588.229208
608.620411	2588.766091
608.969870	2590.979157
609.319276	2587.538570
609.668627	2592.587285
610.017926	2593.348499
610.367171	2594.354210
610.716362	2595.019642
611.065500	2594.366812
611.414585	2593.419076
611.763616	2594.528129
612.112594	2592.173911
612.461518	2591.740371
612.810389	2591.369847
613.159207	2585.761563
613.507971	2589.376070
613.856682	2590.835484
614.205340	2588.168714
614.553945	2593.729107
614.902496	2588.924887
615.250994	2589.532346
615.599439	2588.330031
615.947830	2590.807758
616.296169	2587.662078
616.644454	2592.015114
616.992686	2591.218612
617.340864	2590.810278
617.688990	2587.941862
618.037063	2591.999991
618.385082	2590.596029
618.733048	2589.917994
619.080961	2592.824219
619.428821	2591.316914
619.776628	2589.358426
620.124382	2591.390011
620.472083	2590.298601
620.819731	2593.073757
621.167326	2591.808427
621.514868	2587.916656
621.862357	2588.514033
622.209793	2588.090576
622.557176	2585.809454
622.904506	2588.166193
623.251783	2583.873651
623.599007	2582.893146
623.946179	2583.898857
624.293297	2581.186716
624.640363	2583.729978
624.987376	2586.321131
625.334336	2584.554207
625.681243	2586.883220
626.028097	2583.084710
626.374899	2585.028075
626.721647	2583.906418
627.068343	2584.372725
627.414987	2584.034968
627.761577	2585.373394
628.108115	2583.339288
628.454600	2581.181675
628.801032	2582.391552
629.147412	2583.104875
629.493739	2581.794175
629.840014	2586.174937
630.186236	2580.420460
630.532405	2579.795357
630.878521	2584.390369
631.224585	2581.526994
631.570597	2581.365677
631.916556	2584.690318
632.262462	2580.319637
632.608316	2581.158989
632.954117	2581.106057
633.299866	2579.540779
633.645562	2578.661098
633.991206	2579.215625
634.336797	2575.860737
634.682336	2581.693352
635.027823	2578.136818
635.373257	2578.247723
635.718639	2576.604307
636.063968	2577.541962
636.409245	2576.223700
636.754470	2575.674214
637.099642	2576.279153
637.444762	2576.632033
637.789829	2573.874522
638.134845	2576.289235
638.479808	2576.332085
638.824719	2573.234296
639.169577	2575.109605
639.514383	2575.079358
639.859137	2572.362176
640.203839	2575.838052
640.548489	2573.776220
640.893086	2571.923596
641.237632	2570.542319
641.582125	2570.862433
641.926566	2568.961918
642.270955	2574.015674
642.615292	2572.016857
642.959576	2574.565160
643.303809	2573.667835
643.647990	2575.495253
643.992118	2574.696230
644.336195	2572.468040
