Dividing Wavelength (nm)	Counts (n)	Blue Motor Position (mm): 0.000000	Red Motor Position (mm): 42.500000	
326.493990	2129.635442
326.888308	2129.635442
327.282561	2129.635442
327.676750	2096.809969
328.070874	2093.762592
328.464933	2096.628488
328.858929	2102.786257
329.252859	2113.115581
329.646726	2124.372478
330.040528	2138.840589
330.434265	2155.060502
330.827938	2170.995589
331.221547	2188.160718
331.615091	2212.002855
332.008571	2227.489280
332.401986	2247.278329
332.795338	2264.750968
333.188625	2287.620163
333.581847	2306.491722
333.975006	2321.501758
334.368100	2340.605210
334.761129	2361.420134
335.154095	2375.961343
335.546996	2397.333314
335.939833	2417.117323
336.332606	2435.343614
336.725315	2446.398865
337.117960	2455.455298
337.510540	2463.725311
337.903056	2479.783906
338.295508	2482.286839
338.687896	2491.978457
339.080220	2500.969355
339.472480	2506.474295
339.864676	2511.656601
340.256807	2515.830677
340.648875	2517.257323
341.040879	2521.242355
341.432818	2519.939217
341.824694	2525.255114
342.216506	2524.020031
342.608253	2525.555063
342.999937	2522.847963
343.391557	2526.752337
343.783113	2521.494413
344.174605	2522.497603
344.566033	2518.951151
344.957397	2517.242200
345.348697	2515.233300
345.739934	2513.589884
346.131106	2515.334123
346.522215	2511.112157
346.913260	2508.188288
347.304241	2511.016375
347.695159	2504.825838
348.086012	2508.941940
348.476802	2502.295179
348.867528	2501.057575
349.258191	2501.581855
349.648789	2499.204951
350.039324	2496.873418
350.429796	2497.798469
350.820203	2495.749240
351.210548	2492.961482
351.600828	2493.916781
351.991045	2493.868890
352.381198	2492.439723
352.771288	2493.281596
353.161314	2494.632625
353.551276	2493.160608
353.941175	2491.645741
354.331010	2492.964003
354.720782	2492.893427
355.110490	2491.053406
355.500135	2491.713797
355.889717	2490.972747
356.279235	2490.859321
356.668689	2495.096411
357.058080	2494.761174
357.447408	2490.675319
357.836672	2490.607263
358.225873	2494.236894
358.615010	2490.768580
359.004084	2496.780156
359.393095	2497.102790
359.782043	2497.070023
360.170927	2497.322080
360.559748	2499.071361
360.948505	2502.814417
361.337199	2501.173522
361.725830	2501.221413
362.114398	2501.924654
362.502903	2502.985817
362.891344	2505.826507
363.279722	2506.239882
363.668037	2501.901969
364.056289	2502.464057
364.444478	2503.673934
364.832603	2504.936743
365.220665	2506.759120
365.608665	2506.297855
365.996601	2506.807011
366.384474	2509.312465
366.772284	2509.914883
367.160031	2508.455469
367.547715	2513.441170
367.935336	2516.571726
368.322893	2518.726820
368.710388	2520.786131
369.097820	2529.280475
369.485189	2527.884076
369.872495	2537.051414
370.259738	2546.556509
370.646918	2552.721841
371.034035	2553.377191
371.421090	2567.532751
371.808081	2576.538772
372.195010	2588.723241
372.581875	2600.146495
372.968678	2614.725512
373.355418	2625.478293
373.742096	2642.729122
374.128710	2655.984836
374.515262	2673.308761
374.901751	2686.887109
375.288177	2699.056454
375.674540	2722.419682
376.060841	2739.620099
376.447079	2761.077770
376.833254	2782.401851
377.219367	2794.185548
377.605417	2832.452947
377.991404	2840.042404
378.377329	2863.135930
378.763191	2877.732591
379.148991	2919.065011
379.534727	2942.337498
379.920402	2970.777167
380.306013	2981.532469
380.691563	3031.555839
381.077049	3053.787327
381.462474	3073.399936
381.847835	3113.073817
382.233134	3134.579379
382.618371	3131.940335
383.003545	3201.697302
383.388657	3206.801470
383.773706	3239.969742
384.158693	3258.833739
384.543618	3283.023716
384.928480	3321.333965
385.313280	3367.347096
385.698017	3362.600850
386.082692	3418.615631
386.467305	3421.990683
386.851856	3452.487144
387.236344	3476.505721
387.620770	3509.648787
388.005133	3535.386398
388.389435	3564.524267
388.773674	3575.052717
389.157851	3613.282307
389.541965	3631.019607
389.926018	3591.184409
390.310008	3665.380112
390.693936	3685.630427
391.077802	3726.131057
391.461606	3713.142524
391.845348	3775.438582
392.229027	3779.869757
392.612645	3792.702014
392.996200	3867.159856
393.379694	3910.075199
393.763125	3972.330928
394.146494	3940.773305
394.529801	4000.763036
394.913047	4050.241961
395.296230	4016.894728
395.679351	4070.966144
396.062410	4097.462449
396.445408	4077.539809
396.828343	4108.101804
397.211217	4132.566524
397.594028	4054.216911
397.976778	4120.641674
398.359466	4142.598420
398.742092	4173.104963
399.124656	4095.075463
399.507158	4174.760982
399.889598	4201.456412
400.271977	4266.207512
400.654294	4235.012852
401.036549	4243.265221
401.418742	4211.251374
401.800874	4315.860357
402.182944	4336.392977
402.564952	4399.135177
402.946898	4389.577150
403.328783	4382.874936
403.710606	4298.848983
404.092367	4490.422912
404.474067	4453.476295
404.855705	4465.176813
405.237282	4392.294332
405.618797	4498.566896
406.000250	4534.061660
406.381642	4617.432263
406.762972	4574.544646
407.144240	4583.737190
407.525447	4589.791616
407.906593	4643.316067
408.287677	4689.906411
408.668700	4615.796408
409.049661	4668.864635
409.430560	4711.913568
409.811399	4637.949759
410.192176	4796.045384
410.572891	4739.634873
410.953545	4842.295450
411.334138	4724.498808
411.714669	4783.437459
412.095139	4685.462634
412.475547	4825.208459
412.855894	4805.026200
413.236180	4817.145134
413.616405	4768.082104
413.996568	4854.588304
414.376670	4796.418430
414.756711	4751.902521
415.136691	4779.207931
415.516609	4860.771279
415.896466	4898.544645
416.276262	4932.637968
416.655997	4914.018467
417.035670	5095.923462
417.415283	5188.476526
417.794834	5126.775324
418.174324	5082.135906
418.553753	4991.818594
418.933121	5176.337428
419.312428	5242.106841
419.691674	5184.189025
420.070859	5306.313497
420.449983	5218.378130
420.829045	5334.455739
421.208047	5241.703549
421.586988	5313.787008
421.965867	5323.130787
422.344686	5457.021312
422.723444	5312.526719
423.102141	5134.130367
423.480777	5429.403351
423.859352	5198.359708
424.237866	5452.431342
424.616319	5446.661741
424.994712	5556.276590
425.373044	5435.888795
425.751314	5573.610598
426.129524	5384.204365
426.507673	5578.908850
426.885762	5663.098640
427.263789	5585.288431
427.641756	5469.863652
428.019662	5591.073155
428.397508	5603.716368
428.775292	5547.799890
429.153016	5642.301360
429.530679	5577.101597
429.908282	5662.133259
430.285824	5526.478330
430.663305	5800.447397
431.040726	5535.796903
431.418086	5539.303025
431.795385	5642.308922
432.172624	5655.700747
432.549802	5646.150281
432.926920	5660.986397
433.303977	5669.392521
433.680974	5710.631680
434.057910	5727.196911
434.434786	5728.497529
434.811601	5702.107089
435.188355	5934.665598
435.565050	5810.249921
435.941683	5792.941119
436.318257	6004.440208
436.694770	5989.261294
437.071222	6025.146748
437.447614	5950.527588
437.823946	5867.225042
438.200218	6022.570718
438.576429	5888.216406
438.952580	5982.833823
439.328670	6029.920720
439.704700	5939.976453
440.080670	5923.317961
440.456580	6193.249064
440.832429	6078.724131
441.208218	5921.561118
441.583947	6082.389050
441.959616	6087.732673
442.335224	6013.068143
442.710773	6147.281303
443.086261	6175.272309
443.461689	5970.450228
443.837057	6119.885152
444.212365	6270.784531
444.587612	6166.046998
444.962800	6320.815462
445.337927	6300.287883
445.712995	5908.108799
446.088002	6484.652962
446.462949	6317.594165
446.837837	6250.745944
447.212664	6421.910761
447.587431	6561.117183
447.962139	7100.800429
448.336786	8031.939353
448.711374	7771.462934
449.085901	6846.965730
449.460369	6768.689214
449.834776	6699.774120
450.209124	7092.938750
450.583412	7244.334682
450.957640	7395.455871
451.331808	7153.699777
451.705917	6710.042950
452.079965	6631.221989
452.453954	6840.984401
452.827883	6715.119392
453.201752	6811.017262
453.575562	6613.305729
453.949311	6813.994063
454.323001	6703.771755
454.696632	6773.223732
455.070202	6916.518530
455.443713	7072.769093
455.817164	7174.161820
456.190556	7252.445898
456.563888	7328.148906
456.937160	7369.637602
457.310373	7027.844851
457.683526	7055.409880
458.056619	6943.085410
458.429653	6931.717608
458.802628	6868.771241
459.175542	6976.294011
459.548398	7332.156623
459.921194	7493.468505
460.293930	7498.852457
460.666607	8021.360492
461.039224	8329.266607
461.411782	8458.725958
461.784280	8475.379410
462.156719	8368.544757
462.529099	8246.092610
462.901419	7835.190680
463.273680	7731.252170
463.645882	7740.580825
464.018024	7605.190557
464.390106	7776.327647
464.762130	8160.060278
465.134094	8627.344993
465.505999	9650.384151
465.877845	10877.663138
466.249631	11522.091478
466.621358	11138.225256
466.993026	10507.715542
467.364634	10251.965204
467.736184	9885.496005
468.107674	9554.566940
468.479105	9582.081558
468.850477	9352.925828
469.221790	9127.195561
469.593043	8795.681722
469.964238	8662.025611
470.335373	8664.294130
470.706449	8729.274603
471.077467	8708.005975
471.448425	10020.447693
471.819324	11094.647002
472.190164	11112.056627
472.560945	9866.861380
472.931667	9076.708405
473.302330	8943.979866
473.672934	8588.626411
474.043479	8942.611192
474.413965	8885.996514
474.784393	8771.864791
475.154761	8924.957072
475.525070	9013.288169
475.895321	8843.295421
476.265513	9020.970888
476.635645	9180.233541
477.005719	9179.132049
477.375734	9299.529926
477.745691	9533.129433
478.115588	9664.189351
478.485427	9920.317775
478.855207	10450.896697
479.224928	11269.297777
479.594591	11895.230124
479.964194	11695.519773
480.333739	11647.016311
480.703226	11560.250492
481.072653	11654.270532
481.442022	11892.412119
481.811333	12079.653175
482.180584	11884.084132
482.549777	11591.029257
482.918912	11415.029973
483.287988	11441.221288
483.657005	11451.936260
484.025964	11133.743671
484.394864	11264.291911
484.763706	11232.429298
485.132489	10992.941723
485.501213	10954.523090
485.869879	11032.731550
486.238487	10868.815913
486.607036	10981.674744
486.975527	10761.144428
487.343959	10952.980497
487.712333	10996.021868
488.080648	10929.823956
488.448905	10974.662499
488.817104	10905.714638
489.185244	11176.790083
489.553326	11332.566778
489.921350	11874.833615
490.289315	12932.492898
490.657222	13273.380762
491.025070	13179.171679
491.392861	13060.770099
491.760593	12672.298783
492.128267	12326.216010
492.495883	12000.441525
492.863440	11662.245637
493.230939	11328.085192
493.598380	11262.245203
493.965763	11126.928031
494.333088	11032.492096
494.700354	10945.716194
495.067563	11009.819506
495.434713	10839.259628
495.801805	10971.501696
496.168839	10892.736188
496.535815	10827.793523
496.902733	10824.612555
497.269593	10761.759449
497.636395	10857.548934
498.003139	10847.885042
498.369825	10717.230937
498.736453	10870.471932
499.103023	10801.680346
499.469535	10831.100520
499.835989	10818.845475
500.202385	10782.092943
500.568723	10627.657195
500.935003	10848.439569
501.301226	10657.742801
501.667390	10920.384396
502.033497	11014.958963
502.399546	10878.643642
502.765537	10783.159147
503.131470	10853.884015
503.497345	11031.284739
503.863163	10645.278548
504.228923	10951.677358
504.594625	11018.104642
504.960269	10761.290622
505.325856	10990.146403
505.691385	10775.615060
506.056856	10933.191447
506.422270	10961.792433
506.787625	10848.827738
507.152924	10962.702362
507.518164	10943.523292
507.883347	10869.861952
508.248472	10785.772985
508.613540	11015.589107
508.978550	10902.218598
509.343503	10882.409384
509.708398	10990.388379
510.073236	11103.499268
510.438016	11109.843560
510.802738	11062.444111
511.167403	11116.777667
511.532010	11009.688436
511.896561	11240.941287
512.261053	11308.064250
512.625488	11177.379898
512.989866	11158.760397
513.354186	11147.503500
513.718449	11056.026722
514.082655	11250.501835
514.446803	11140.650051
514.810894	11270.875658
515.174927	11137.466563
515.538904	11158.372228
515.902822	11313.395270
516.266684	11199.956706
516.630488	11139.919084
516.994235	11201.335461
517.357925	11260.034657
517.721558	11345.504900
518.085133	11362.980059
518.448651	11367.799403
518.812112	11249.816238
519.175516	11267.856007
519.538863	11388.624409
519.902152	11306.435957
520.265385	11465.837242
520.628560	11370.017510
520.991678	11350.374654
521.354739	11417.674058
521.717743	11347.297030
522.080690	11326.063690
522.443580	11461.771551
522.806413	11414.871177
523.169189	11444.596340
523.531908	11503.724034
523.894569	11323.623771
524.257174	11324.750469
524.619722	11444.687081
524.982213	11390.270346
525.344647	11446.461567
525.707025	11389.365459
526.069345	11480.627987
526.431608	11405.121585
526.793815	11516.069819
527.155964	11298.523866
527.518057	11352.290293
527.880093	11313.773357
528.242072	11378.761392
528.603995	11278.155084
528.965860	11204.034999
529.327669	11252.818245
529.689421	11202.930987
530.051117	11171.824547
530.412755	11280.511824
530.774337	11162.125367
531.135862	11144.912347
531.497331	11174.135916
531.858743	11020.574808
532.220098	11191.943792
532.581396	11056.218286
532.942638	11039.857221
533.303824	11001.983033
533.664953	11021.575477
534.026025	10932.342013
534.387040	11029.875737
534.747999	11037.656758
535.108902	11089.895714
535.469748	10854.229334
535.830537	10950.076792
536.191270	10927.116857
536.551947	10947.793149
536.912567	10951.823552
537.273131	10876.778415
537.633638	10850.887049
537.994089	10836.849956
538.354483	10795.603235
538.714821	10935.923753
539.075103	10942.048754
539.435328	10912.618498
539.795497	10734.385983
540.155609	10891.359953
540.515665	10979.461678
540.875665	10711.181552
541.235609	10785.594024
541.595496	10780.144537
541.955328	10937.874679
542.315102	10815.286420
542.674821	10769.457291
543.034483	10773.926274
543.394090	10777.974320
543.753640	10705.469925
544.113134	10927.149624
544.472571	10776.822417
544.831953	10921.339694
545.191278	10730.773997
545.550548	10758.714592
545.909761	10901.026365
546.268918	10877.123734
546.628019	10955.589294
546.987064	10813.895062
547.346053	10728.704603
547.704986	10834.147898
548.063863	10825.373769
548.422684	10810.852726
548.781449	10730.826929
549.140158	10833.295943
549.498811	10718.506349
549.857408	10570.929091
550.215949	10787.923037
550.574434	10651.015381
550.932864	10746.570452
551.291237	10802.681015
551.649555	10748.682696
552.007817	10762.835735
552.366022	10723.671011
552.724173	10723.282842
553.082267	10707.136026
553.440305	10841.223157
553.798288	10647.100925
554.156215	10793.382607
554.514086	10770.992322
554.871902	10628.083172
555.229661	10662.541979
555.587365	10636.602722
555.945014	10526.665239
556.302606	10662.909984
556.660143	10549.645339
557.017625	10708.597961
557.375050	10609.493917
557.732421	10739.172559
558.089735	10653.225927
558.446994	10658.284725
558.804197	10694.593636
559.161345	10689.572646
559.518437	10545.423373
559.875474	10629.466969
560.232455	10659.237503
560.589381	10607.497621
560.946251	10606.073495
561.303065	10715.494259
561.659825	10639.939966
562.016528	10574.326828
562.373177	10453.651687
562.729770	10571.791128
563.086307	10485.461368
563.442789	10579.332694
563.799216	10458.801226
564.155587	10508.325522
564.511904	10458.697882
564.868164	10453.480288
565.224370	10465.470673
565.580520	10380.723835
565.936615	10394.370239
566.292654	10259.053067
566.648638	10395.963243
567.004567	10351.832983
567.360441	10336.512916
567.716260	10246.246015
568.072023	10339.590541
568.427732	10290.338467
568.783385	10204.013749
569.138982	10273.803483
569.494525	10288.609352
569.850013	10166.880610
570.205445	10244.184183
570.560823	10147.744390
570.916145	10066.806144
571.271412	10130.904415
571.626625	10074.713194
571.981782	10052.068331
572.336884	10029.894816
572.691931	10026.786944
573.046923	9974.144695
573.401860	9933.011401
573.756743	9870.526299
574.111570	9917.822404
574.466342	9903.991998
574.821059	9927.715668
575.175722	9817.856323
575.530330	9823.192385
575.884882	9819.514863
576.239380	9745.167926
576.593823	9727.236542
576.948211	9738.385053
577.302544	9619.796950
577.656823	9636.241194
578.011047	9632.316656
578.365216	9613.666907
578.719330	9533.394094
579.073389	9547.002689
579.427394	9489.725099
579.781344	9465.635945
580.135239	9417.071990
580.489080	9427.764277
580.842866	9325.396086
581.196597	9330.139812
581.550273	9378.018171
581.903895	9344.572636
582.257463	9411.695599
582.610975	9283.206670
582.964434	9316.405188
583.317837	9228.971416
583.671186	9217.636382
584.024481	9213.762255
584.377721	9134.628743
584.730906	9106.534392
585.084037	9136.100759
585.437113	9077.991379
585.790135	9091.012679
586.143103	8993.403338
586.496016	8966.128175
586.848874	9025.593626
587.201679	9016.360753
587.554428	8896.618225
587.907124	8940.592210
588.259765	8921.098068
588.612352	8914.806708
588.964884	8793.519067
589.317362	8804.138258
589.669786	8811.402561
590.022155	8857.080456
590.374470	8872.942446
590.726731	8814.626379
591.078937	8664.354624
591.431090	8773.674565
591.783188	8650.448601
592.135232	8644.215214
592.487222	8642.468454
592.839157	8691.486114
593.191038	8627.738203
593.542866	8571.020181
593.894639	8465.874314
594.246358	8519.121502
594.598022	8541.191673
594.949633	8434.525899
595.301190	8410.547651
595.652692	8439.564533
596.004141	8547.397334
596.355535	8325.616812
596.706876	8300.620250
597.058162	8236.216989
597.409395	8313.558372
597.760573	8373.318730
598.111698	8284.085266
598.462768	8265.483408
598.813785	8229.534940
599.164748	8201.158285
599.515657	8188.943569
599.866511	8101.088860
600.217312	8225.207109
600.568060	8084.717713
600.918753	8188.066408
601.269392	8156.470977
601.619978	8068.079385
601.970510	8134.486505
602.320988	8129.863767
602.671412	8182.788320
603.021783	8111.032536
603.372100	8096.307326
603.722363	8093.275072
604.072572	8068.011329
604.422728	8078.222187
604.772830	8005.276690
605.122878	8015.716920
605.472872	8011.931013
605.822813	8039.962349
606.172701	7976.615210
606.522534	8051.821664
606.872314	8055.310142
607.222041	8023.681943
607.571714	8079.611024
607.921333	8034.724591
608.270899	8040.161475
608.620411	8125.661965
608.969870	8031.117645
609.319276	8019.777569
609.668627	8039.044859
610.017926	8071.290600
610.367171	8111.955067
610.716362	8093.685926
611.065500	8082.686128
611.414585	8102.512986
611.763616	8091.535874
612.112594	8076.888801
612.461518	8087.336593
612.810389	8140.074624
613.159207	8083.288546
613.507971	8030.973972
613.856682	8145.927403
614.205340	8104.108512
614.553945	8171.818769
614.902496	8070.804129
615.250994	8124.487376
615.599439	8097.239939
615.947830	8112.164275
616.296169	8083.641427
616.644454	8092.264321
616.992686	8090.328517
617.340864	8142.728791
617.688990	8041.608286
618.037063	8130.675392
618.385082	8076.644305
618.733048	8157.204464
619.080961	8090.739372
619.428821	8104.100950
619.776628	8105.903162
620.124382	8051.804020
620.472083	8035.657204
620.819731	8062.461019
621.167326	7948.702341
621.514868	7957.617622
621.862357	7849.918411
622.209793	7861.568518
622.557176	7793.437323
622.904506	7759.412056
623.251783	7691.232970
623.599007	7643.470558
623.946179	7648.476424
624.293297	7596.771830
624.640363	7513.489448
624.987376	7496.921695
625.334336	7445.862369
625.681243	7387.979840
626.028097	7376.942234
626.374899	7350.080446
626.721647	7340.444280
627.068343	7269.956346
627.414987	7235.096767
627.761577	7185.975764
628.108115	7220.278296
628.454600	7106.229752
628.801032	7149.354302
629.147412	7111.084383
629.493739	7093.425221
629.840014	7029.352156
630.186236	7076.877633
630.532405	6956.658717
630.878521	7001.784606
631.224585	6952.449354
631.570597	6879.032510
631.916556	6899.429018
632.262462	6890.889303
632.608316	6846.443971
632.954117	6817.795093
633.299866	6804.050387
633.645562	6787.530526
633.991206	6710.562189
634.336797	6649.087839
634.682336	6607.926817
635.027823	6569.813174
635.373257	6557.318674
635.718639	6487.443241
636.063968	6491.841647
636.409245	6390.814404
636.754470	6381.054730
637.099642	6336.589232
637.444762	6280.760974
637.789829	6286.457478
638.134845	6226.263580
638.479808	6201.922369
638.824719	6205.012596
639.169577	6130.398478
639.514383	6144.017155
639.859137	6071.663995
640.203839	6073.937555
640.548489	6054.287137
