Dividing Wavelength (nm)	Counts (n)	Blue Motor Position (mm): 0.000000	Red Motor Position (mm): 31.700000	
326.493990	2128.022273
326.888308	2128.022273
327.282561	2128.022273
327.676750	2096.583117
328.070874	2094.894331
328.464933	2097.427510
328.858929	2102.589652
329.252859	2112.795468
329.646726	2123.994391
330.040528	2135.929323
330.434265	2158.236429
330.827938	2173.286793
331.221547	2189.085770
331.615091	2208.269881
332.008571	2229.651935
332.401986	2248.276478
332.795338	2267.765578
333.188625	2286.725358
333.581847	2306.864768
333.975006	2322.615853
334.368100	2342.863647
334.761129	2360.046420
335.154095	2378.005531
335.546996	2394.311143
335.939833	2411.514080
336.332606	2427.640731
336.725315	2439.615992
337.117960	2448.705193
337.510540	2461.285392
337.903056	2469.504993
338.295508	2475.161168
338.687896	2485.624083
339.080220	2491.217243
339.472480	2500.281238
339.864676	2505.607217
340.256807	2505.145951
340.648875	2514.154493
341.040879	2515.392096
341.432818	2514.043588
341.824694	2517.796727
342.216506	2519.689680
342.608253	2517.373270
342.999937	2517.648013
343.391557	2519.016686
343.783113	2518.063908
344.174605	2517.645492
344.566033	2514.746829
344.957397	2514.356139
345.348697	2512.616941
345.739934	2509.458658
346.131106	2507.520335
346.522215	2506.436487
346.913260	2503.623523
347.304241	2501.475991
347.695159	2501.667555
348.086012	2500.966835
348.476802	2496.182780
348.867528	2497.498521
349.258191	2493.793273
349.648789	2494.554487
350.039324	2490.909733
350.429796	2492.762357
350.820203	2489.974599
351.210548	2491.144146
351.600828	2487.998466
351.991045	2489.561224
352.381198	2488.253045
352.771288	2487.338075
353.161314	2485.535863
353.551276	2489.727582
353.941175	2484.767087
354.331010	2487.789258
354.720782	2487.814464
355.110490	2488.328662
355.500135	2486.743219
355.889717	2488.565596
356.279235	2487.542242
356.668689	2488.419403
357.058080	2487.622900
357.447408	2487.219608
357.836672	2486.624752
358.225873	2486.050060
358.615010	2482.778352
359.004084	2491.633138
359.393095	2490.357726
359.782043	2491.819661
360.170927	2492.613643
360.559748	2494.297388
360.948505	2492.903509
361.337199	2491.716317
361.725830	2494.199086
362.114398	2497.007008
362.502903	2495.340907
362.891344	2498.703357
363.279722	2495.343428
363.668037	2499.104128
364.056289	2497.153202
364.444478	2497.090187
364.832603	2498.718480
365.220665	2498.872235
365.608665	2499.958604
365.996601	2501.521362
366.384474	2502.811897
366.772284	2506.673421
367.160031	2504.006650
367.547715	2507.013699
367.935336	2509.650222
368.322893	2515.099709
368.710388	2514.136849
369.097820	2522.842922
369.485189	2524.710669
369.872495	2531.173428
370.259738	2538.662062
370.646918	2546.821170
371.034035	2552.431974
371.421090	2564.205589
371.808081	2575.354101
372.195010	2582.136973
372.581875	2593.177100
372.968678	2608.108998
373.355418	2620.822788
373.742096	2637.451034
374.128710	2652.352685
374.515262	2665.878100
374.901751	2681.830832
375.288177	2692.823068
375.674540	2718.270812
376.060841	2734.520972
376.447079	2754.892274
376.833254	2777.204421
377.219367	2787.848818
377.605417	2827.527740
377.991404	2835.933864
378.377329	2855.901874
378.763191	2876.689072
379.148991	2911.266346
379.534727	2938.019750
379.920402	2966.149388
380.306013	2977.839824
380.691563	3030.245139
381.077049	3049.328427
381.462474	3069.646797
381.847835	3105.083588
382.233134	3127.665437
382.618371	3130.609471
383.003545	3195.388297
383.388657	3203.040769
383.773706	3235.039493
384.158693	3252.335692
384.543618	3279.885598
384.928480	3316.486895
385.313280	3358.570448
385.698017	3358.288143
386.082692	3414.234868
386.467305	3416.062287
386.851856	3453.460086
387.236344	3469.523723
387.620770	3502.263497
388.005133	3528.326262
388.389435	3558.101837
388.773674	3565.915626
389.157851	3608.893983
389.541965	3625.471817
389.926018	3592.323710
390.310008	3659.849966
390.693936	3680.685055
391.077802	3723.360943
391.461606	3710.700085
391.845348	3771.957666
392.229027	3771.950104
392.612645	3784.583236
392.996200	3861.249103
393.379694	3901.532964
393.763125	3964.996049
394.146494	3937.113427
394.529801	3997.065350
394.913047	4045.135272
395.296230	4012.486239
395.679351	4066.343406
396.062410	4092.396089
396.445408	4072.032348
396.828343	4104.260445
397.211217	4127.260709
397.594028	4051.817322
397.976778	4115.865181
398.359466	4137.605157
398.742092	4169.175383
399.124656	4091.745781
399.507158	4171.653110
399.889598	4196.937017
400.271977	4257.534207
400.654294	4231.713417
401.036549	4235.900095
401.418742	4207.036969
401.800874	4312.460099
402.182944	4330.477183
402.564952	4398.764653
402.946898	4386.401223
403.328783	4377.571642
403.710606	4292.353457
404.092367	4489.260926
404.474067	4448.541006
404.855705	4457.937717
405.237282	4383.305954
405.618797	4496.114375
406.000250	4529.849776
406.381642	4613.220378
406.762972	4574.146395
407.144240	4579.313578
407.525447	4577.743258
407.906593	4642.277589
408.287677	4684.885422
408.668700	4616.255153
409.049661	4667.634593
409.430560	4707.706725
409.811399	4631.227380
410.192176	4794.013799
410.572891	4734.974326
410.953545	4836.112475
411.334138	4718.840113
411.714669	4783.203045
412.095139	4679.987941
412.475547	4819.585052
412.855894	4802.193072
413.236180	4812.061130
413.616405	4766.032875
413.996568	4853.643088
414.376670	4796.138646
414.756711	4750.780864
415.136691	4782.759423
415.516609	4854.505125
415.896466	4896.828132
416.276262	4930.293832
416.655997	4910.547632
417.035670	5091.537658
417.415283	5183.289179
417.794834	5129.248010
418.174324	5077.021656
418.553753	4988.214169
418.933121	5172.773332
419.312428	5240.559207
419.691674	5179.190721
420.070859	5306.832736
420.449983	5217.921906
420.829045	5331.652857
421.208047	5239.785390
421.586988	5312.791380
421.965867	5321.593235
422.344686	5454.029387
422.723444	5309.970854
423.102141	5126.301455
423.480777	5427.417136
423.859352	5199.219225
424.237866	5456.358400
424.616319	5447.400270
424.994712	5555.583432
425.373044	5433.128763
425.751314	5576.579837
426.129524	5377.353437
426.507673	5571.949537
426.885762	5659.257281
427.263789	5588.119038
427.641756	5468.928517
428.019662	5589.669193
428.397508	5595.262353
428.775292	5541.138005
429.153016	5643.796062
429.530679	5570.091872
429.908282	5657.132435
430.285824	5524.134193
430.663305	5800.674249
431.040726	5536.575761
431.418086	5536.031316
431.795385	5640.456298
432.172624	5653.878370
432.549802	5648.539788
432.926920	5658.538917
433.303977	5668.606101
433.680974	5708.043047
434.057910	5723.267332
434.434786	5732.119598
434.811601	5699.727664
435.188355	5937.609632
435.565050	5806.340506
435.941683	5788.252846
436.318257	6002.123798
436.694770	5987.025542
437.071222	6020.876890
437.447614	5952.251663
437.823946	5865.432912
438.200218	6021.670872
438.576429	5887.346807
438.952580	5984.555377
439.328670	6024.619947
439.704700	5934.259785
440.080670	5918.007105
440.456580	6191.807294
440.832429	6075.805303
441.208218	5921.374596
441.583947	6078.459470
441.959616	6078.262865
442.335224	6005.854252
442.710773	6141.683101
443.086261	6171.579664
443.461689	5966.606349
443.837057	6117.571262
444.212365	6266.333192
444.587612	6166.699827
444.962800	6316.641387
445.337927	6302.042205
445.712995	5906.362040
446.088002	6482.888558
446.462949	6314.138454
446.837837	6245.949286
447.212664	6416.965389
447.587431	6559.987965
447.962139	7101.977538
448.336786	8026.928446
448.711374	7765.340453
449.085901	6844.188054
449.460369	6762.012205
449.834776	6699.746394
450.209124	7098.179029
450.583412	7245.020279
450.957640	7389.532516
451.331808	7156.240518
451.705917	6704.711930
452.079965	6631.350539
452.453954	6839.651016
452.827883	6712.921449
453.201752	6809.908208
453.575562	6612.907477
453.949311	6810.067004
454.323001	6704.301076
454.696632	6778.524505
455.070202	6915.338900
455.443713	7066.039153
455.817164	7171.583270
456.190556	7252.118223
456.563888	7324.786456
456.937160	7369.998044
457.310373	7026.587083
457.683526	7046.872686
458.056619	6942.172962
458.429653	6927.591424
458.802628	6864.665221
459.175542	6975.817622
459.548398	7324.960376
459.921194	7491.827609
460.293930	7492.346848
460.666607	8024.241511
461.039224	8336.709871
461.411782	8455.532387
461.784280	8475.301272
462.156719	8363.357410
462.529099	8240.627999
462.901419	7831.906368
463.273680	7726.513486
463.645882	7737.011688
464.018024	7601.772654
464.390106	7769.915300
464.762130	8156.959968
465.134094	8623.352399
465.505999	9657.494699
465.877845	10875.986954
466.249631	11520.284224
466.621358	11134.938424
466.993026	10500.945272
467.364634	10245.560418
467.736184	9882.309996
468.107674	9546.233913
468.479105	9581.355632
468.850477	9349.119756
469.221790	9119.139797
469.593043	8789.954972
469.964238	8645.793095
470.335373	8660.208275
470.706449	8718.080721
471.077467	8701.301240
471.448425	10005.354479
471.819324	11077.617984
472.190164	11099.915008
472.560945	9857.136994
472.931667	9066.842867
473.302330	8926.618132
473.672934	8571.146210
474.043479	8929.995705
474.413965	8865.289975
474.784393	8745.542406
475.154761	8895.277278
475.525070	8981.191143
475.895321	8811.198394
476.265513	8981.044949
476.635645	9152.000559
477.005719	9145.457141
477.375734	9252.939582
477.745691	9479.179005
478.115588	9610.052400
478.485427	9846.618627
478.855207	10371.193534
479.224928	11172.517705
479.594591	11783.929008
479.964194	11590.358783
480.333739	11521.584842
480.703226	11429.639237
481.072653	11508.208140
481.442022	11725.728887
481.811333	11900.432594
482.180584	11702.000176
482.549777	11403.132850
482.918912	11217.139479
483.287988	11227.047867
483.657005	11222.858668
484.025964	10900.431509
484.394864	11016.718325
484.763706	10969.525563
485.132489	10725.614376
485.501213	10671.563124
485.869879	10728.142514
486.238487	10551.772706
486.607036	10639.181272
486.975527	10410.343135
487.343959	10570.543442
487.712333	10595.260220
488.080648	10509.729483
488.448905	10526.748418
488.817104	10449.754876
489.185244	10678.686275
489.553326	10783.832141
489.921350	11256.881415
490.289315	12177.728823
490.657222	12464.915796
491.025070	12335.622803
491.392861	12187.725432
491.760593	11829.039774
492.128267	11486.780716
492.495883	11154.205714
492.863440	10814.580659
493.230939	10471.066353
493.598380	10370.064316
493.965763	10209.730417
494.333088	10092.276574
494.700354	9975.866249
495.067563	9993.159928
495.434713	9795.377818
495.801805	9868.388849
496.168839	9760.389690
496.535815	9652.879522
496.902733	9613.770251
497.269593	9496.276078
497.636395	9546.922030
498.003139	9478.490887
498.369825	9326.648813
498.736453	9401.958610
499.103023	9298.952714
499.469535	9260.266899
499.835989	9213.303510
500.202385	9120.483265
500.568723	8942.051624
500.935003	9070.984175
501.301226	8842.428342
501.667390	9002.104370
502.033497	9016.937965
502.399546	8856.417544
502.765537	8721.312100
503.131470	8712.023774
503.497345	8779.925596
503.863163	8440.383720
504.228923	8594.174200
504.594625	8587.091379
504.960269	8345.090789
505.325856	8433.696629
505.691385	8218.656130
506.056856	8268.051876
506.422270	8204.999644
506.787625	8087.558403
507.152924	8080.296621
507.518164	8015.550562
507.883347	7888.195892
508.248472	7764.604444
508.613540	7841.905497
508.978550	7696.216151
509.343503	7613.468131
509.708398	7616.807896
510.073236	7617.571630
510.438016	7544.409365
510.802738	7437.874660
511.167403	7397.454689
511.532010	7259.390088
511.896561	7332.459092
512.261053	7297.420552
512.625488	7145.402038
512.989866	7063.810963
513.354186	6989.774057
513.718449	6858.623398
514.082655	6895.517083
514.446803	6769.508401
514.810894	6758.077585
515.174927	6615.181038
515.538904	6569.603966
515.902822	6556.675927
516.266684	6437.205622
516.630488	6335.563357
516.994235	6301.560775
517.357925	6249.667137
517.721558	6215.556170
518.085133	6145.209388
518.448651	6091.568991
518.812112	5979.189069
519.175516	5903.927162
519.538863	5885.942846
519.902152	5800.482685
520.265385	5774.780363
520.628560	5689.957908
520.991678	5597.268733
521.354739	5566.129525
521.717743	5481.758254
522.080690	5409.551287
522.443580	5382.482811
522.806413	5306.656296
523.169189	5256.766517
523.531908	5206.460843
523.894569	5096.311631
524.257174	5032.122619
524.619722	5005.013814
524.982213	4944.325884
525.344647	4887.930496
525.707025	4823.020599
526.069345	4785.451400
526.431608	4705.314697
526.793815	4680.915513
527.155964	4577.339966
527.518057	4543.896951
527.880093	4475.276765
528.242072	4442.242084
528.603995	4365.170403
528.965860	4302.644972
529.327669	4262.318262
529.689421	4210.875808
530.051117	4159.546779
530.412755	4126.423878
530.774337	4067.815423
531.135862	4012.322402
531.497331	3981.170592
531.858743	3906.538829
532.220098	3900.083632
532.581396	3839.894776
532.942638	3799.557983
533.303824	3760.025255
533.664953	3719.214594
534.026025	3677.735980
534.387040	3655.345695
534.747999	3620.990232
535.108902	3592.671550
535.469748	3533.783311
535.830537	3514.510980
536.191270	3478.063438
536.551947	3451.357925
536.912567	3421.468924
537.273131	3386.984911
537.633638	3354.217411
537.994089	3326.339830
538.354483	3295.568627
538.714821	3285.105713
539.075103	3262.642331
539.435328	3232.319791
539.795497	3200.855429
540.155609	3189.288501
540.515665	3173.786953
540.875665	3133.271200
541.235609	3114.313941
541.595496	3095.530602
541.955328	3086.075917
542.315102	3062.294274
542.674821	3040.705533
543.034483	3025.720703
543.394090	3004.678927
543.753640	2984.332830
544.113134	2979.062304
544.472571	2960.566310
544.831953	2947.953343
545.191278	2925.215219
545.550548	2918.724733
545.909761	2908.465985
546.268918	2894.549880
546.628019	2884.167624
546.987064	2868.383771
547.346053	2853.850124
547.704986	2846.767303
548.063863	2834.383709
548.422684	2827.381546
548.781449	2815.723878
549.140158	2805.495377
549.498811	2797.157308
549.857408	2783.473096
550.215949	2781.219700
550.574434	2766.068512
550.932864	2764.021804
551.291237	2756.850763
551.649555	2751.842376
552.007817	2747.764083
552.366022	2739.279821
552.724173	2733.643811
553.082267	2728.658110
553.440305	2724.305073
553.798288	2715.835935
554.156215	2714.132025
554.514086	2710.784699
554.871902	2704.271528
555.229661	2699.903368
555.587365	2695.409180
555.945014	2693.062522
556.302606	2687.693694
556.660143	2684.474917
557.017625	2683.575071
557.375050	2681.392251
557.732421	2679.461489
558.089735	2674.546364
558.446994	2672.708864
558.804197	2670.004285
559.161345	2666.588903
559.518437	2664.789211
559.875474	2663.176042
560.232455	2662.805517
560.589381	2658.684374
560.946251	2661.900630
561.303065	2657.129178
561.659825	2655.268992
562.016528	2653.202119
562.373177	2651.767911
562.729770	2650.406799
563.086307	2648.685245
563.442789	2649.534680
563.799216	2644.904380
564.155587	2644.150727
564.511904	2641.599903
564.868164	2641.231899
565.224370	2641.317599
565.580520	2636.687299
565.936615	2638.096302
566.292654	2638.456744
566.648638	2637.889614
567.004567	2634.892648
567.360441	2634.103708
567.716260	2633.350055
568.072023	2631.449540
568.427732	2627.388891
568.783385	2629.289406
569.138982	2625.579117
569.494525	2625.677419
569.850013	2625.173304
570.205445	2629.307050
570.560823	2626.690691
570.916145	2628.124899
571.271412	2627.010804
571.626625	2626.025259
571.981782	2625.647172
572.336884	2624.197840
572.691931	2622.501492
573.046923	2620.154835
573.401860	2620.832870
573.756743	2621.949486
574.111570	2619.804475
574.466342	2616.759618
574.821059	2620.661471
575.175722	2614.763321
575.530330	2617.576285
575.884882	2616.484875
576.239380	2614.881788
576.593823	2616.527725
576.948211	2616.144597
577.302544	2614.702827
577.656823	2613.981942
578.011047	2615.524535
578.365216	2613.117384
578.719330	2610.029677
579.073389	2613.099740
579.427394	2609.598659
579.781344	2609.611262
580.135239	2610.611931
580.489080	2613.797940
580.842866	2609.681838
581.196597	2610.780809
581.550273	2608.376179
581.903895	2609.323916
582.257463	2608.832403
582.610975	2607.383072
582.964434	2610.163268
583.317837	2605.686723
583.671186	2610.901797
584.024481	2605.396857
584.377721	2607.108329
584.730906	2607.398195
585.084037	2607.327619
585.437113	2607.647732
585.790135	2604.386106
586.143103	2604.993565
586.496016	2605.893411
586.848874	2601.124479
587.201679	2604.381065
587.554428	2600.721187
587.907124	2601.832761
588.259765	2599.526433
588.612352	2605.278390
588.964884	2598.530806
589.317362	2601.878132
589.669786	2600.771598
590.022155	2605.936261
590.374470	2602.369644
590.726731	2604.328132
591.078937	2601.709253
591.431090	2603.443410
591.783188	2599.034921
592.135232	2602.016763
592.487222	2601.129520
592.839157	2605.727053
593.191038	2596.143819
593.542866	2598.838316
593.894639	2598.089705
594.246358	2600.141454
594.598022	2599.208841
594.949633	2598.172884
595.301190	2594.923860
595.652692	2598.082143
596.004141	2601.386619
596.355535	2598.861001
596.706876	2597.741865
597.058162	2593.247676
597.409395	2597.071392
597.760573	2598.639190
598.111698	2596.428644
598.462768	2597.572986
598.813785	2596.443768
599.164748	2595.196082
599.515657	2595.836309
599.866511	2594.041658
600.217312	2595.554004
600.568060	2594.235742
600.918753	2597.787235
601.269392	2596.176587
601.619978	2591.571493
601.970510	2594.913778
602.320988	2597.336052
602.671412	2596.045517
603.021783	2592.539394
603.372100	2593.943356
603.722363	2593.661051
604.072572	2594.898654
604.422728	2596.106011
604.772830	2593.897985
605.122878	2591.183324
605.472872	2593.219950
605.822813	2589.973447
606.172701	2593.424117
606.522534	2596.388315
606.872314	2592.854466
607.222041	2595.990064
607.571714	2595.354879
607.921333	2592.786411
608.270899	2594.830599
608.620411	2594.964189
608.969870	2596.907554
609.319276	2596.423603
609.668627	2600.055755
610.017926	2600.942998
610.367171	2603.203955
610.716362	2602.258739
611.065500	2602.742690
611.414585	2600.847216
611.763616	2600.721187
612.112594	2599.355034
612.461518	2597.610795
612.810389	2595.554004
613.159207	2597.003336
613.507971	2595.521237
613.856682	2594.422265
614.205340	2599.019797
614.553945	2595.889241
614.902496	2597.691453
615.250994	2595.574169
615.599439	2594.024014
615.947830	2598.372009
616.296169	2595.934611
616.644454	2595.561566
616.992686	2594.656679
617.340864	2595.765733
617.688990	2594.659199
618.037063	2594.555856
618.385082	2595.816144
618.733048	2595.165835
619.080961	2596.035434
619.428821	2596.184148
619.776628	2594.117275
620.124382	2598.523244
620.472083	2593.330855
620.819731	2597.683892
621.167326	2592.244487
621.514868	2597.159612
621.862357	2590.462439
622.209793	2594.253387
622.557176	2593.640886
622.904506	2591.090063
623.251783	2589.948241
623.599007	2587.911615
623.946179	2589.290371
624.293297	2588.763570
624.640363	2591.364805
624.987376	2591.095104
625.334336	2591.626945
625.681243	2590.084352
626.028097	2588.526636
626.374899	2588.705597
626.721647	2588.453539
627.068343	2589.030751
627.414987	2587.427664
627.761577	2588.211564
628.108115	2589.686101
628.454600	2588.453539
628.801032	2587.757860
629.147412	2589.935638
629.493739	2584.450863
629.840014	2585.938003
630.186236	2586.666450
630.532405	2586.109402
630.878521	2587.977150
631.224585	2587.445308
631.570597	2585.421285
631.916556	2586.026223
632.262462	2586.006059
632.608316	2582.870461
632.954117	2584.312231
633.299866	2584.876840
633.645562	2582.328537
633.991206	2582.610842
634.336797	2583.119998
634.682336	2584.806264
635.027823	2580.851479
635.373257	2578.731674
635.718639	2578.988773
636.063968	2580.745615
636.409245	2579.155131
636.754470	2579.732343
637.099642	2581.181675
637.444762	2582.230235
637.789829	2579.535738
638.134845	2580.803588
638.479808	2581.214442
638.824719	2577.680593
639.169577	2579.369380
639.514383	2578.948443
639.859137	2576.778227
640.203839	2578.247723
640.548489	2575.964080
640.893086	2575.444842
641.237632	2572.896538
641.582125	2574.555078
641.926566	2571.540468
642.270955	2579.248392
642.615292	2575.454924
642.959576	2577.700758
643.303809	2578.247723
643.647990	2578.540110
