Dividing Wavelength (nm)	Counts (n)	Blue Motor Position (mm): 0.000000	Red Motor Position (mm): 19.500000	
326.493990	2127.230812
326.888308	2127.230812
327.282561	2127.230812
327.676750	2094.987592
328.070874	2093.674371
328.464933	2096.005905
328.858929	2101.659559
329.252859	2112.984511
329.646726	2124.581686
330.040528	2138.134828
330.434265	2154.755512
330.827938	2172.354180
331.221547	2190.877900
331.615091	2209.633513
332.008571	2227.879969
332.401986	2250.358474
332.795338	2265.955804
333.188625	2284.923145
333.581847	2304.409726
333.975006	2323.677016
334.368100	2341.636126
334.761129	2354.985102
335.154095	2375.903369
335.546996	2393.653272
335.939833	2407.110632
336.332606	2424.734506
336.725315	2437.702874
337.117960	2445.932558
337.510540	2454.999073
337.903056	2466.976855
338.295508	2473.111939
338.687896	2479.388176
339.080220	2490.592140
339.472480	2498.761330
339.864676	2499.840137
340.256807	2503.457165
340.648875	2506.277690
341.040879	2512.667353
341.432818	2512.569050
341.824694	2514.570388
342.216506	2512.677435
342.608253	2515.439987
342.999937	2516.251613
343.391557	2514.857734
343.783113	2511.608710
344.174605	2512.125429
344.566033	2510.010665
344.957397	2510.043432
345.348697	2507.399347
345.739934	2507.298524
346.131106	2500.903820
346.522215	2503.467247
346.913260	2499.643532
347.304241	2498.058089
347.695159	2495.005670
348.086012	2493.626915
348.476802	2496.328973
348.867528	2490.269506
349.258191	2492.432161
349.648789	2487.580051
350.039324	2486.657519
350.429796	2488.837818
350.820203	2484.194916
351.210548	2486.571820
351.600828	2484.232724
351.991045	2485.719865
352.381198	2484.295739
352.771288	2485.437560
353.161314	2481.288691
353.551276	2484.202477
353.941175	2482.443115
354.331010	2485.127529
354.720782	2482.662405
355.110490	2480.928248
355.500135	2483.239617
355.889717	2483.239617
356.279235	2486.526449
356.668689	2483.254741
357.058080	2483.479072
357.447408	2482.362456
357.836672	2482.107878
358.225873	2480.749287
358.615010	2482.347333
359.004084	2487.451501
359.393095	2484.610811
359.782043	2487.819505
360.170927	2490.811430
360.559748	2488.195071
360.948505	2488.981491
361.337199	2487.103662
361.725830	2490.813951
362.114398	2491.900319
362.502903	2490.672798
362.891344	2491.461739
363.279722	2493.604229
363.668037	2493.286637
364.056289	2494.466267
364.444478	2494.889724
364.832603	2496.180259
365.220665	2494.090701
365.608665	2493.896616
365.996601	2497.246463
366.384474	2498.544560
366.772284	2498.327791
367.160031	2499.615805
367.547715	2503.134531
367.935336	2506.320540
368.322893	2508.808349
368.710388	2511.540655
369.097820	2518.535256
369.485189	2520.685308
369.872495	2524.093128
370.259738	2534.321629
370.646918	2542.420243
371.034035	2547.819318
371.421090	2555.307952
371.808081	2569.501321
372.195010	2577.564647
372.581875	2589.388673
372.968678	2602.999788
373.355418	2614.271808
373.742096	2632.488018
374.128710	2645.290028
374.515262	2662.094714
374.901751	2678.513752
375.288177	2689.067408
375.674540	2711.228320
376.060841	2731.692884
376.447079	2751.313055
376.833254	2772.122938
377.219367	2783.808333
377.605417	2820.933910
377.991404	2832.019408
378.377329	2851.765607
378.763191	2867.819162
379.148991	2907.190573
379.534727	2932.724018
379.920402	2960.442802
380.306013	2971.074595
380.691563	3020.596370
381.077049	3044.143600
381.462474	3062.435427
381.847835	3099.908844
382.233134	3123.083028
382.618371	3120.922893
383.003545	3188.103830
383.388657	3198.934749
383.773706	3229.968092
384.158693	3248.653129
384.543618	3275.847633
384.928480	3308.158909
385.313280	3351.346474
385.698017	3352.579036
386.082692	3406.194228
386.467305	3409.884353
386.851856	3442.183025
387.236344	3468.684371
387.620770	3495.815861
388.005133	3524.570603
388.389435	3545.950136
388.773674	3561.214750
389.157851	3603.487345
389.541965	3619.253554
389.926018	3583.055549
390.310008	3654.579440
390.693936	3674.184487
391.077802	3713.848285
391.461606	3702.556101
391.845348	3767.085391
392.229027	3769.260648
392.612645	3778.012092
392.996200	3856.487733
393.379694	3897.152201
393.763125	3958.061942
394.146494	3929.433230
394.529801	3986.368021
394.913047	4036.517420
395.296230	4001.292357
395.679351	4057.488620
396.062410	4081.736570
396.445408	4061.324938
396.828343	4095.025051
397.211217	4115.300572
397.594028	4038.954817
397.976778	4102.475877
398.359466	4129.967809
398.742092	4160.393693
399.124656	4080.478802
399.507158	4161.588447
399.889598	4190.544834
400.271977	4246.852002
400.654294	4220.872416
401.036549	4230.339703
401.418742	4197.569682
401.800874	4299.607677
402.182944	4320.682221
402.564952	4383.253022
402.946898	4369.548646
403.328783	4364.736864
403.710606	4279.281745
404.092367	4472.567145
404.474067	4436.941311
404.855705	4443.043627
405.237282	4369.213409
405.618797	4480.063341
406.000250	4510.801776
406.381642	4596.660188
406.762972	4553.333991
407.144240	4564.580806
407.525447	4562.221546
407.906593	4614.548722
408.287677	4652.037263
408.668700	4583.230554
409.049661	4629.906598
409.430560	4672.590047
409.811399	4586.885391
410.192176	4744.464298
410.572891	4679.733362
410.953545	4772.306591
411.334138	4645.917302
411.714669	4702.594995
412.095139	4590.638530
412.475547	4718.265422
412.855894	4692.880692
413.236180	4688.807439
413.616405	4627.275115
413.996568	4695.834808
414.376670	4626.292090
414.756711	4567.996187
415.136691	4585.355401
415.516609	4634.166373
415.896466	4649.786388
416.276262	4664.493954
416.655997	4623.108602
417.035670	4764.734778
417.415283	4815.378209
417.794834	4739.022373
418.174324	4675.150953
418.553753	4570.655396
418.933121	4697.634500
419.312428	4723.523345
419.691674	4643.000995
420.070859	4711.371644
420.449983	4604.045478
420.829045	4660.821474
421.208047	4556.542686
421.586988	4568.462494
421.965867	4533.890261
422.344686	4584.258950
422.723444	4449.468578
423.102141	4281.255357
423.480777	4444.929019
423.859352	4245.886621
424.237866	4362.480948
424.616319	4317.387827
424.994712	4333.640507
425.373044	4214.223134
425.751314	4242.239346
426.129524	4086.578598
426.507673	4143.478101
426.885762	4141.736383
427.263789	4049.760531
427.641756	3949.479378
428.019662	3955.450625
428.397508	3906.783325
428.775292	3831.879341
429.153016	3827.304494
429.530679	3750.941095
429.908282	3736.596492
430.285824	3640.131493
430.663305	3690.129657
431.040726	3548.425342
431.418086	3507.612161
431.795385	3495.402486
432.172624	3454.919500
432.549802	3410.151534
432.926920	3370.298692
433.303977	3330.481138
433.680974	3303.057261
434.057910	3264.938577
434.434786	3226.393914
434.811601	3185.502595
435.188355	3192.580375
435.565050	3135.176756
435.941683	3093.499017
436.318257	3095.812906
436.694770	3054.435115
437.071222	3029.335210
437.447614	2987.927173
437.823946	2945.803291
438.200218	2938.004626
438.576429	2897.327556
438.952580	2879.880122
439.328670	2859.478573
439.704700	2828.170487
440.080670	2808.404122
440.456580	2803.418421
440.832429	2773.834410
441.208218	2745.067066
441.583947	2737.424676
441.959616	2721.996225
442.335224	2706.716488
442.710773	2695.336083
443.086261	2681.309072
443.461689	2661.202430
443.837057	2657.729075
444.212365	2653.660864
444.587612	2637.413225
444.962800	2631.515075
445.337927	2624.525515
445.712995	2602.984665
446.088002	2613.308948
446.462949	2600.766557
446.837837	2597.484766
447.212664	2591.107707
447.587431	2589.161821
447.962139	2594.507965
448.336786	2601.026177
448.711374	2595.138109
449.085901	2581.295101
449.460369	2575.974163
449.834776	2568.987123
450.209124	2570.665828
450.583412	2573.370407
450.957640	2571.815211
451.331808	2565.271793
451.705917	2558.897254
452.079965	2563.477142
452.453954	2559.668551
452.827883	2560.049158
453.201752	2558.713252
453.575562	2555.197047
453.949311	2559.139229
454.323001	2555.086142
454.696632	2554.594629
455.070202	2556.081770
455.443713	2555.789383
455.817164	2553.450287
456.190556	2550.982642
456.563888	2553.467931
456.937160	2553.972047
457.310373	2553.586398
457.683526	2548.643547
458.056619	2553.135215
458.429653	2550.670091
458.802628	2551.632951
459.175542	2551.821995
459.548398	2556.580844
459.921194	2556.288457
460.293930	2555.199568
460.666607	2553.866182
461.039224	2558.241904
461.411782	2558.985474
461.784280	2560.472615
462.156719	2555.156718
462.529099	2560.076884
462.901419	2554.526574
463.273680	2553.417520
463.645882	2555.575134
464.018024	2555.557490
464.390106	2556.543035
464.762130	2557.838612
465.134094	2561.619477
465.505999	2566.433779
465.877845	2569.213975
466.249631	2573.952660
466.621358	2573.738411
466.993026	2570.701116
467.364634	2572.044583
467.736184	2567.941084
468.107674	2568.253636
468.479105	2565.518810
468.850477	2565.738100
469.221790	2563.383881
469.593043	2563.673747
469.964238	2561.831206
470.335373	2562.005125
470.706449	2561.664847
471.077467	2565.007133
471.448425	2569.546692
471.819324	2575.288566
472.190164	2575.694379
472.560945	2569.380333
472.931667	2567.389078
473.302330	2563.605692
473.672934	2560.931360
474.043479	2566.085939
474.413965	2564.467729
474.784393	2560.588561
475.154761	2565.453275
475.525070	2562.405897
475.895321	2560.875907
476.265513	2561.846329
476.635645	2569.826476
477.005719	2567.021073
477.375734	2568.089798
477.745691	2568.513255
478.115588	2569.783626
478.485427	2571.792526
478.855207	2573.667835
479.224928	2579.397106
479.594591	2582.079000
479.964194	2579.717219
480.333739	2581.337950
480.703226	2578.953485
481.072653	2580.289390
481.442022	2580.133115
481.811333	2584.584453
482.180584	2581.521952
482.549777	2580.833835
482.918912	2579.160172
483.287988	2579.384503
483.657005	2579.578588
484.025964	2577.168916
484.394864	2579.359297
484.763706	2580.617065
485.132489	2577.547003
485.501213	2576.460634
485.869879	2574.242526
486.238487	2577.899883
486.607036	2577.680593
486.975527	2576.506004
487.343959	2574.552557
487.712333	2578.789647
488.080648	2576.483319
488.448905	2575.873340
488.817104	2577.012640
489.185244	2576.566498
489.553326	2577.849472
489.921350	2582.830132
490.289315	2583.472879
490.657222	2583.510688
491.025070	2585.607808
491.392861	2588.521595
491.760593	2584.534042
492.128267	2577.839390
492.495883	2577.168916
492.863440	2579.518094
493.230939	2575.525500
493.598380	2574.497105
493.965763	2570.638101
494.333088	2570.333112
494.700354	2570.191959
495.067563	2570.161712
495.434713	2567.777247
495.801805	2575.843093
496.168839	2573.012485
496.535815	2572.127762
496.902733	2572.276476
497.269593	2571.500139
497.636395	2573.791343
498.003139	2569.874367
498.369825	2570.993503
498.736453	2573.146075
499.103023	2572.520972
499.469535	2573.249419
499.835989	2570.963256
500.202385	2572.440314
500.568723	2569.561815
500.935003	2574.285376
501.301226	2572.309244
501.667390	2572.026939
502.033497	2572.483164
502.399546	2572.430232
502.765537	2568.235992
503.131470	2572.226065
503.497345	2570.358317
503.863163	2573.519121
504.228923	2572.246229
504.594625	2572.818400
504.960269	2573.279666
505.325856	2573.665314
505.691385	2572.601631
506.056856	2575.401992
506.422270	2572.851168
506.787625	2573.176322
507.152924	2572.767989
507.518164	2572.735221
507.883347	2571.235478
508.248472	2574.633216
508.613540	2574.756724
508.978550	2572.581466
509.343503	2573.695561
509.708398	2574.547516
510.073236	2577.156313
510.438016	2578.046077
510.802738	2577.718402
511.167403	2575.344018
511.532010	2575.822928
511.896561	2578.187229
512.261053	2578.782085
512.625488	2572.762948
512.989866	2568.268759
513.354186	2573.294789
513.718449	2571.542988
514.082655	2573.640108
514.446803	2574.625654
514.810894	2577.854513
515.174927	2576.395099
515.538904	2576.044739
515.902822	2576.604307
516.266684	2578.887950
516.630488	2574.814697
516.994235	2578.429205
517.357925	2576.563978
517.721558	2576.939544
518.085133	2576.833679
518.448651	2579.956674
518.812112	2578.424163
519.175516	2580.468351
519.538863	2576.745459
519.902152	2578.524987
520.265385	2576.458113
520.628560	2578.746797
520.991678	2577.700758
521.354739	2578.734194
521.717743	2579.311407
522.080690	2581.032961
522.443580	2579.472723
522.806413	2579.704617
523.169189	2578.507343
523.531908	2578.875347
523.894569	2579.881057
524.257174	2577.448700
524.619722	2579.941551
524.982213	2582.951120
525.344647	2579.311407
525.707025	2578.300655
526.069345	2577.549523
526.431608	2579.392065
526.793815	2578.794688
527.155964	2577.375603
527.518057	2578.358628
527.880093	2580.662436
528.242072	2579.273598
528.603995	2579.034143
528.965860	2576.788309
529.327669	2576.707651
529.689421	2578.792168
530.051117	2578.610686
530.412755	2577.857034
530.774337	2579.180337
531.135862	2577.657908
531.497331	2577.917527
531.858743	2577.078175
532.220098	2575.333936
532.581396	2577.524317
532.942638	2574.930644
533.303824	2578.714030
533.664953	2578.824935
534.026025	2576.944585
534.387040	2576.105233
534.747999	2579.553382
535.108902	2578.300655
535.469748	2578.908114
535.830537	2576.899214
536.191270	2578.411561
536.551947	2577.037846
536.912567	2578.724112
537.273131	2578.071283
537.633638	2577.350398
537.994089	2576.526169
538.354483	2577.582291
538.714821	2579.760069
539.075103	2576.054821
539.435328	2576.684965
539.795497	2575.349060
540.155609	2578.509863
540.515665	2576.962229
540.875665	2575.732187
541.235609	2577.408371
541.595496	2580.017168
541.955328	2578.099009
542.315102	2577.821746
542.674821	2578.154462
543.034483	2579.815522
543.394090	2577.501632
543.753640	2579.762590
544.113134	2578.777044
544.472571	2577.642785
544.831953	2578.398958
545.191278	2577.413412
545.550548	2575.555747
545.909761	2576.997517
546.268918	2575.732187
546.628019	2581.806778
546.987064	2576.455593
547.346053	2575.152455
547.704986	2580.223855
548.063863	2578.651015
548.422684	2575.439800
548.781449	2575.651529
549.140158	2576.233782
549.498811	2574.779409
549.857408	2578.915676
550.215949	2576.090109
550.574434	2573.940057
550.932864	2575.129769
551.291237	2571.646332
551.649555	2576.387537
552.007817	2578.938361
552.366022	2576.513566
552.724173	2572.901579
553.082267	2576.168247
553.440305	2577.299986
553.798288	2578.414081
554.156215	2578.814853
554.514086	2577.491550
554.871902	2576.455593
555.229661	2577.224369
555.587365	2577.476427
555.945014	2577.504153
556.302606	2576.322002
556.660143	2575.389389
557.017625	2577.211766
557.375050	2577.446180
557.732421	2577.388206
558.089735	2577.100861
558.446994	2577.468865
558.804197	2577.582291
559.161345	2576.440469
559.518437	2576.526169
559.875474	2575.568350
560.232455	2575.830490
560.589381	2579.162692
560.946251	2578.880388
561.303065	2577.325192
561.659825	2576.712692
562.016528	2576.442990
562.373177	2578.419122
562.729770	2577.695717
563.086307	2576.616910
563.442789	2575.243195
563.799216	2577.935172
564.155587	2576.710171
564.511904	2575.918710
564.868164	2576.029615
565.224370	2576.115315
565.580520	2573.375448
565.936615	2576.942064
566.292654	2574.141703
566.648638	2576.642116
567.004567	2578.535069
567.360441	2573.619944
567.716260	2576.601786
568.072023	2575.580953
568.427732	2569.955025
568.783385	2572.954512
569.138982	2570.421332
569.494525	2572.828483
569.850013	2570.915365
570.205445	2575.359142
570.560823	2573.967783
570.916145	2572.609192
571.271412	2575.076837
571.626625	2577.327712
571.981782	2570.829665
572.336884	2572.722618
572.691931	2576.836200
573.046923	2573.125911
573.401860	2571.681620
573.756743	2570.756568
574.111570	2572.160530
574.466342	2573.519121
574.821059	2573.015005
575.175722	2570.990982
575.530330	2570.771692
575.884882	2572.929306
576.239380	2571.411918
576.593823	2575.528021
576.948211	2570.880077
577.302544	2573.630026
577.656823	2569.639953
578.011047	2573.435942
578.365216	2570.096177
578.719330	2571.114490
579.073389	2570.040725
579.427394	2570.819583
579.781344	2572.163050
580.135239	2570.766651
580.489080	2572.694892
580.842866	2573.153637
581.196597	2570.466702
581.550273	2570.302865
581.903895	2571.414439
582.257463	2570.204562
582.610975	2568.367062
582.964434	2570.176836
583.317837	2568.735066
583.671186	2569.113152
584.024481	2568.656928
584.377721	2566.832030
584.730906	2570.179356
585.084037	2569.143399
585.437113	2570.333112
585.790135	2568.876218
586.143103	2568.992165
586.496016	2568.772874
586.848874	2565.067626
587.201679	2567.976372
587.554428	2564.455126
587.907124	2566.073337
588.259765	2564.127451
588.612352	2566.685837
588.964884	2569.710529
589.317362	2567.416804
589.669786	2566.884962
590.022155	2569.274469
590.374470	2567.938563
590.726731	2567.179870
591.078937	2566.993347
591.431090	2569.455951
591.783188	2567.053841
592.135232	2566.590055
592.487222	2569.100549
592.839157	2569.246743
593.191038	2569.589541
593.542866	2567.870508
593.894639	2569.607185
594.246358	2567.512586
594.598022	2568.122566
594.949633	2569.171126
595.301190	2566.196845
595.652692	2564.921433
596.004141	2565.269272
596.355535	2566.484191
596.706876	2566.292627
597.058162	2565.002091
597.409395	2567.265569
597.760573	2567.018553
598.111698	2564.825651
598.462768	2565.783470
598.813785	2564.538305
599.164748	2564.545867
599.515657	2564.681978
599.866511	2563.381360
600.217312	2565.264231
600.568060	2567.268090
600.918753	2569.239181
601.269392	2565.982596
601.619978	2564.306412
601.970510	2566.753892
602.320988	2565.977555
602.671412	2565.607030
603.021783	2564.702143
603.372100	2563.174673
603.722363	2562.494117
604.072572	2564.772719
604.422728	2568.528378
604.772830	2559.575289
605.122878	2562.443706
605.472872	2560.371792
605.822813	2561.833726
606.172701	2565.009653
606.522534	2563.149467
606.872314	2566.252298
607.222041	2566.247256
607.571714	2562.471432
607.921333	2565.697771
608.270899	2562.746175
608.620411	2565.312122
608.969870	2565.516289
609.319276	2565.067626
609.668627	2565.569221
610.017926	2569.027453
610.367171	2571.996692
610.716362	2573.297310
611.065500	2570.040725
611.414585	2568.964438
611.763616	2568.321691
612.112594	2564.883624
612.461518	2568.145251
612.810389	2568.155333
613.159207	2564.797925
613.507971	2565.796073
613.856682	2567.988975
614.205340	2563.865311
614.553945	2563.363716
614.902496	2563.419169
615.250994	2567.502504
615.599439	2563.588048
615.947830	2564.684499
616.296169	2564.719787
616.644454	2564.802966
616.992686	2565.042421
617.340864	2566.274983
617.688990	2563.988819
618.037063	2567.421845
618.385082	2566.355641
618.733048	2565.291958
619.080961	2565.128120
619.428821	2565.352452
619.776628	2564.137533
620.124382	2567.305899
620.472083	2566.653069
620.819731	2566.159036
621.167326	2562.035372
621.514868	2565.458316
621.862357	2562.398335
622.209793	2563.640980
622.557176	2562.204251
622.904506	2561.256514
623.251783	2560.465053
623.599007	2560.497820
623.946179	2556.883313
624.293297	2560.049158
624.640363	2561.475804
624.987376	2562.325239
625.334336	2561.674930
625.681243	2562.121072
626.028097	2561.062430
626.374899	2561.301884
626.721647	2559.534960
627.068343	2561.984961
627.414987	2559.857594
627.761577	2559.711400
628.108115	2561.148129
628.454600	2561.082594
628.801032	2560.959086
629.147412	2561.153170
629.493739	2559.358520
629.840014	2558.468756
630.186236	2559.799621
630.532405	2557.556307
630.878521	2560.260886
631.224585	2559.870197
631.570597	2558.982954
631.916556	2558.922460
632.262462	2560.185269
632.608316	2556.790052
632.954117	2559.008159
633.299866	2560.739796
633.645562	2556.905998
633.991206	2558.778787
634.336797	2555.280226
634.682336	2556.464897
635.027823	2558.211657
635.373257	2557.689898
635.718639	2556.676626
636.063968	2558.541853
636.409245	2557.626883
636.754470	2557.397511
637.099642	2558.864487
637.444762	2559.484548
637.789829	2553.135215
638.134845	2558.100752
638.479808	2556.275854
638.824719	2555.789383
639.169577	2555.481872
639.514383	2554.849208
639.859137	2554.340051
640.203839	2555.098745
640.548489	2554.977757
640.893086	2552.704197
641.237632	2548.121788
641.582125	2552.474824
641.926566	2549.311500
642.270955	2554.244269
642.615292	2553.140256
642.959576	2554.201419
643.303809	2555.234856
643.647990	2554.309804
643.992118	2553.614125
644.336195	2552.144628
