Dividing Wavelength (nm)	Counts (n)	Blue Motor Position (mm): 0.000000	Red Motor Position (mm): 27.200000	
326.493990	2127.850874
326.888308	2127.850874
327.282561	2127.850874
327.676750	2096.668817
328.070874	2094.049937
328.464933	2098.347521
328.858929	2104.293562
329.252859	2111.840169
329.646726	2123.981788
330.040528	2137.545013
330.434265	2153.175110
330.827938	2170.549447
331.221547	2190.131809
331.615091	2209.381455
332.008571	2226.150853
332.401986	2246.426374
332.795338	2267.858840
333.188625	2287.771397
333.581847	2304.240847
333.975006	2323.351861
334.368100	2341.588235
334.761129	2359.292768
335.154095	2374.786754
335.546996	2393.839795
335.939833	2412.086251
336.332606	2425.140319
336.725315	2438.786722
337.117960	2449.105964
337.510540	2457.872531
337.903056	2467.120528
338.295508	2474.616723
338.687896	2482.546458
339.080220	2489.399907
339.472480	2500.359376
339.864676	2502.597648
340.256807	2505.844151
340.648875	2508.773061
341.040879	2511.200377
341.432818	2512.868999
341.824694	2515.079545
342.216506	2515.523166
342.608253	2518.247910
342.999937	2515.820594
343.391557	2515.699607
343.783113	2516.458300
344.174605	2511.210459
344.566033	2515.417302
344.957397	2512.538803
345.348697	2510.333298
345.739934	2507.946312
346.131106	2504.067144
346.522215	2504.966990
346.913260	2499.658655
347.304241	2502.264932
347.695159	2499.245281
348.086012	2495.590444
348.476802	2495.091370
348.867528	2493.742861
349.258191	2493.742861
349.648789	2490.478714
350.039324	2489.122644
350.429796	2489.417551
350.820203	2489.233549
351.210548	2486.866727
351.600828	2486.039978
351.991045	2484.497385
352.381198	2484.053763
352.771288	2483.395893
353.161314	2485.540904
353.551276	2484.298259
353.941175	2482.793475
354.331010	2484.759525
354.720782	2483.113588
355.110490	2482.700214
355.500135	2484.678867
355.889717	2487.055771
356.279235	2486.402941
356.668689	2486.649958
357.058080	2487.960658
357.447408	2484.212560
357.836672	2482.584267
358.225873	2485.994608
358.615010	2480.824904
359.004084	2488.368991
359.393095	2486.125678
359.782043	2485.553507
360.170927	2490.617346
360.559748	2492.510299
360.948505	2492.679178
361.337199	2491.436533
361.725830	2492.976606
362.114398	2495.187152
362.502903	2495.474498
362.891344	2495.678664
363.279722	2493.863849
363.668037	2496.003819
364.056289	2496.187821
364.444478	2493.289157
364.832603	2497.662358
365.220665	2498.622698
365.608665	2495.902996
365.996601	2501.816269
366.384474	2500.929026
366.772284	2501.843995
367.160031	2500.896258
367.547715	2505.526558
367.935336	2506.522186
368.322893	2510.418998
368.710388	2512.979904
369.097820	2519.228414
369.485189	2521.769156
369.872495	2531.422966
370.259738	2536.388502
370.646918	2542.856303
371.034035	2550.970040
371.421090	2558.113355
371.808081	2571.162381
372.195010	2579.019020
372.581875	2592.549477
372.968678	2602.989706
373.355418	2615.925307
373.742096	2635.258132
374.128710	2647.671973
374.515262	2664.496824
374.901751	2678.392765
375.288177	2692.008921
375.674540	2717.285267
376.060841	2733.217833
376.447079	2752.429671
376.833254	2772.664862
377.219367	2783.888991
377.605417	2823.608242
377.991404	2834.169460
378.377329	2854.424816
378.763191	2871.219420
379.148991	2909.088568
379.534727	2933.505396
379.920402	2964.266517
380.306013	2975.369658
380.691563	3026.239942
381.077049	3048.869682
381.462474	3065.881055
381.847835	3102.189966
382.233134	3124.683594
382.618371	3123.133439
383.003545	3194.765715
383.388657	3200.318546
383.773706	3230.981364
384.158693	3249.994076
384.543618	3273.677417
384.928480	3311.773416
385.313280	3355.041640
385.698017	3353.761187
386.082692	3408.694640
386.467305	3413.695465
386.851856	3446.475568
387.236344	3467.202272
387.620770	3498.896006
388.005133	3522.385262
388.389435	3552.443142
388.773674	3564.735996
389.157851	3607.028756
389.541965	3620.720530
389.926018	3587.040581
390.310008	3660.704442
390.693936	3678.000640
391.077802	3717.094788
391.461606	3707.224209
391.845348	3768.895165
392.229027	3769.605967
392.612645	3781.230868
392.996200	3859.396479
393.379694	3899.405597
393.763125	3959.841470
394.146494	3931.308539
394.529801	3993.118126
394.913047	4040.217627
395.296230	4008.728059
395.679351	4061.768559
396.062410	4086.434925
396.445408	4067.339034
396.828343	4101.664251
397.211217	4123.827684
397.594028	4046.869429
397.976778	4110.098101
398.359466	4139.026763
398.742092	4161.515350
399.124656	4085.701437
399.507158	4166.385104
399.889598	4192.208415
400.271977	4252.760234
400.654294	4226.334506
401.036549	4233.865990
401.418742	4200.962379
401.800874	4309.082526
402.182944	4325.685566
402.564952	4393.002614
402.946898	4374.579717
403.328783	4375.096435
403.710606	4284.731232
404.092367	4476.897496
404.474067	4445.768371
404.855705	4451.598466
405.237282	4379.981313
405.618797	4487.743539
406.000250	4521.025236
406.381642	4600.859469
406.762972	4568.459973
407.144240	4578.754010
407.525447	4576.377106
407.906593	4636.485303
408.287677	4680.713867
408.668700	4605.668730
409.049661	4660.622348
409.430560	4700.444943
409.811399	4628.893326
410.192176	4789.920382
410.572891	4726.106937
410.953545	4826.821629
411.334138	4710.285275
411.714669	4779.233136
412.095139	4670.470242
412.475547	4816.683868
412.855894	4793.663439
413.236180	4800.589985
413.616405	4754.564250
413.996568	4847.460112
414.376670	4788.597080
414.756711	4740.958176
415.136691	4774.554946
415.516609	4852.062686
415.896466	4888.106936
416.276262	4923.926855
416.655997	4902.696035
417.035670	5085.755455
417.415283	5175.167880
417.794834	5121.373727
418.174324	5074.652313
418.553753	4982.764682
418.933121	5162.900232
419.312428	5231.908587
419.691674	5174.754505
420.070859	5296.531138
420.449983	5204.199885
420.829045	5322.278832
421.208047	5231.480089
421.586988	5299.132374
421.965867	5313.696267
422.344686	5447.846412
422.723444	5300.904339
423.102141	5119.977328
423.480777	5416.528244
423.859352	5189.260426
424.237866	5445.512358
424.616319	5439.089928
424.994712	5545.798552
425.373044	5428.122898
425.751314	5565.378393
426.129524	5367.263568
426.507673	5558.998813
426.885762	5645.142050
427.263789	5578.553449
427.641756	5459.173885
428.019662	5578.074539
428.397508	5586.853709
428.775292	5531.842117
429.153016	5631.977077
429.530679	5555.487650
429.908282	5644.093490
430.285824	5511.001987
430.663305	5786.982475
431.040726	5524.275346
431.418086	5526.987486
431.795385	5629.640502
432.172624	5645.883100
432.549802	5636.032685
432.926920	5647.697915
433.303977	5652.965921
433.680974	5692.977559
434.057910	5710.515733
434.434786	5719.715839
434.811601	5687.785171
435.188355	5917.349234
435.565050	5792.875584
435.941683	5778.185662
436.318257	5988.638712
436.694770	5971.294622
437.071222	6009.216702
437.447614	5936.883706
437.823946	5848.545046
438.200218	6006.514643
438.576429	5871.988932
438.952580	5968.378314
439.328670	6007.074211
439.704700	5919.201858
440.080670	5899.987501
440.456580	6176.774573
440.832429	6059.265277
441.208218	5907.163583
441.583947	6057.218568
441.959616	6061.952212
442.335224	5986.551674
442.710773	6121.367251
443.086261	6149.930429
443.461689	5944.301763
443.837057	6089.696202
444.212365	6239.665488
444.587612	6134.562471
444.962800	6283.422703
445.337927	6258.960504
445.712995	5872.629159
446.088002	6441.044461
446.462949	6272.072545
446.837837	6197.720567
447.212664	6365.354056
447.587431	6504.999059
447.962139	7030.622526
448.336786	7931.814476
448.711374	7665.684403
449.085901	6754.914261
449.460369	6667.367063
449.834776	6602.237875
450.209124	6967.852599
450.583412	7103.273115
450.957640	7236.258753
451.331808	7001.497260
451.705917	6557.316153
452.079965	6469.048070
452.453954	6662.114180
452.827883	6532.949736
453.201752	6606.769873
453.575562	6404.637247
453.949311	6580.732313
454.323001	6463.091947
454.696632	6520.465319
455.070202	6628.403984
455.443713	6757.875939
455.817164	6833.440314
456.190556	6887.337811
456.563888	6930.666528
456.937160	6950.511030
457.310373	6616.592561
457.683526	6619.458457
458.056619	6495.420867
458.429653	6458.590197
458.802628	6376.235387
459.175542	6444.948834
459.548398	6729.476598
459.921194	6834.514080
460.293930	6801.290356
460.666607	7194.732249
461.039224	7414.728203
461.411782	7477.601473
461.784280	7460.680840
462.156719	7333.726942
462.529099	7188.685385
462.901419	6815.844167
463.273680	6691.055444
463.645882	6668.435787
464.018024	6510.972826
464.390106	6593.511638
464.762130	6839.751839
465.134094	7121.748944
465.505999	7801.659445
465.877845	8616.040205
466.249631	9030.239049
466.621358	8695.761012
466.993026	8163.737800
467.364634	7930.032428
467.736184	7589.860408
468.107674	7290.494007
468.479105	7217.971968
468.850477	7011.884558
469.221790	6780.419979
469.593043	6504.263050
469.964238	6338.598132
470.335373	6281.665861
470.706449	6242.085242
471.077467	6170.642009
471.448425	6841.727971
471.819324	7361.060079
472.190164	7314.096689
472.560945	6539.533483
472.931667	6023.894021
473.302330	5884.115428
473.672934	5623.069358
474.043479	5732.681687
474.413965	5635.011852
474.784393	5497.834494
475.154761	5504.037633
475.525070	5466.289473
475.895321	5325.855530
476.265513	5326.558771
476.635645	5341.326831
477.005719	5257.880612
477.375734	5238.842694
477.745691	5259.972691
478.115588	5227.943720
478.485427	5244.335031
478.855207	5362.161920
479.224928	5573.166976
479.594591	5717.520417
479.964194	5557.897321
480.333739	5441.708807
480.703226	5300.750584
481.072653	5249.408953
481.442022	5239.223301
481.811333	5220.681938
482.180584	5075.257252
482.549777	4899.573040
482.918912	4782.953508
483.287988	4711.364082
483.657005	4643.633660
484.025964	4491.244620
484.394864	4443.993885
484.763706	4360.242676
485.132489	4251.149586
485.501213	4173.097401
485.869879	4129.834218
486.238487	4029.694218
486.607036	3998.796986
486.975527	3900.436513
487.343959	3874.519941
487.712333	3827.634689
488.080648	3769.938684
488.448905	3712.537585
488.817104	3659.688649
489.185244	3645.722132
489.553326	3612.226186
489.921350	3638.089825
490.289315	3713.384499
490.657222	3703.062737
491.025070	3639.219044
491.392861	3576.272676
491.760593	3484.642143
492.128267	3404.046696
492.495883	3332.986592
492.863440	3263.736261
493.230939	3201.974565
493.598380	3164.806138
493.965763	3113.555247
494.333088	3087.497523
494.700354	3045.650905
495.067563	3029.375540
495.434713	2990.621669
495.801805	2975.142807
496.168839	2948.916204
496.535815	2923.571803
496.902733	2904.964904
497.269593	2881.359701
497.636395	2871.428628
498.003139	2850.890967
498.369825	2829.206444
498.736453	2818.851914
499.103023	2804.106539
499.469535	2791.082718
499.835989	2778.373969
500.202385	2764.253697
500.568723	2747.494381
500.935003	2746.140831
501.301226	2728.869838
501.667390	2729.404201
502.033497	2722.560834
502.399546	2711.946685
502.765537	2703.074254
503.131470	2696.561083
503.497345	2691.719055
503.863163	2682.844104
504.228923	2681.982066
504.594625	2677.192970
504.960269	2668.378513
505.325856	2667.173677
505.691385	2663.042451
506.056856	2657.739157
506.422270	2654.674136
506.787625	2653.045843
507.152924	2650.641213
507.518164	2647.616521
507.883347	2641.889770
508.248472	2639.943884
508.613540	2642.540079
508.978550	2635.989099
509.343503	2634.194448
509.708398	2634.882566
510.073236	2635.618574
510.438016	2631.668830
510.802738	2628.381998
511.167403	2632.064561
511.532010	2625.732872
511.896561	2628.886113
512.261053	2627.908130
512.625488	2622.733385
512.989866	2619.340689
513.354186	2619.128960
513.718449	2614.624689
514.082655	2618.917232
514.446803	2616.436984
514.810894	2616.328599
515.174927	2616.943620
515.538904	2614.952364
515.902822	2616.212653
516.266684	2613.324072
516.630488	2614.453290
516.994235	2614.370111
517.357925	2612.812394
517.721558	2612.068824
518.085133	2611.058073
518.448651	2614.801130
518.812112	2609.681838
519.175516	2609.276025
519.538863	2611.904987
519.902152	2609.684358
520.265385	2610.286776
520.628560	2608.862650
520.991678	2612.893053
521.354739	2609.434821
521.717743	2606.722681
522.080690	2606.200921
522.443580	2605.354007
522.806413	2610.541355
523.169189	2607.746035
523.531908	2604.252515
523.894569	2603.584562
524.257174	2606.155551
524.619722	2607.864502
524.982213	2607.670417
525.344647	2607.977928
525.707025	2606.508432
526.069345	2607.052876
526.431608	2605.119594
526.793815	2606.763010
527.155964	2606.652104
527.518057	2606.863833
527.880093	2605.457351
528.242072	2607.367948
528.603995	2604.050869
528.965860	2605.724532
529.327669	2605.883328
529.689421	2606.798298
530.051117	2603.839141
530.412755	2605.936261
530.774337	2604.192021
531.135862	2600.169181
531.497331	2600.733790
531.858743	2594.646597
532.220098	2602.926692
532.581396	2598.127513
532.942638	2598.440065
533.303824	2600.043152
533.664953	2601.951228
534.026025	2600.753954
534.387040	2600.751434
534.747999	2601.550457
535.108902	2602.362082
535.469748	2601.724377
535.830537	2601.668924
536.191270	2602.697319
536.551947	2602.994747
536.912567	2599.838985
537.273131	2599.569283
537.633638	2600.706063
537.994089	2600.272524
538.354483	2599.135744
538.714821	2600.146495
539.075103	2598.598861
539.435328	2599.869232
539.795497	2602.316712
540.155609	2598.654314
540.515665	2598.825713
540.875665	2599.493666
541.235609	2599.309664
541.595496	2597.341093
541.955328	2602.188163
542.315102	2601.227823
542.674821	2601.424428
543.034483	2598.800507
543.394090	2599.370158
543.753640	2603.531630
544.113134	2599.337390
544.472571	2598.795466
544.831953	2599.329828
545.191278	2600.552308
545.550548	2598.659355
545.909761	2601.764706
546.268918	2600.786722
546.628019	2602.026846
546.987064	2598.321598
547.346053	2600.784201
547.704986	2598.399736
548.063863	2600.549788
548.422684	2601.784870
548.781449	2597.716659
549.140158	2597.787235
549.498811	2599.876794
549.857408	2599.483584
550.215949	2597.850250
550.574434	2595.231370
550.932864	2598.114910
551.291237	2596.151381
551.649555	2599.067688
552.007817	2600.244798
552.366022	2601.532813
552.724173	2600.592637
553.082267	2602.944336
553.440305	2601.658842
553.798288	2600.927874
554.156215	2600.254880
554.514086	2602.692278
554.871902	2600.973245
555.229661	2598.172884
555.587365	2603.138420
555.945014	2601.875611
556.302606	2600.174222
556.660143	2598.777822
557.017625	2599.420569
557.375050	2599.871752
557.732421	2601.061465
558.089735	2601.000971
558.446994	2599.201279
558.804197	2601.217741
559.161345	2602.823348
559.518437	2599.072730
559.875474	2599.549119
560.232455	2598.918974
560.589381	2601.898296
560.946251	2599.397884
561.303065	2601.406784
561.659825	2601.409304
562.016528	2596.836978
562.373177	2597.782194
562.729770	2601.391660
563.086307	2600.549788
563.442789	2602.099942
563.799216	2600.227154
564.155587	2598.997112
564.511904	2598.901330
564.868164	2599.571804
565.224370	2601.608430
565.580520	2600.862339
565.936615	2600.380909
566.292654	2599.244129
566.648638	2598.926536
567.004567	2594.024014
567.360441	2598.485435
567.716260	2598.245980
568.072023	2597.845209
568.427732	2591.231215
568.783385	2598.533326
569.138982	2593.882862
569.494525	2594.197934
569.850013	2594.606267
570.205445	2595.977461
570.560823	2597.003336
570.916145	2595.884200
571.271412	2596.549632
571.626625	2598.220775
571.981782	2595.206165
572.336884	2597.083994
572.691931	2595.392687
573.046923	2596.899992
573.401860	2597.182297
573.756743	2594.084508
574.111570	2593.567790
574.466342	2597.020980
574.821059	2594.833119
575.175722	2595.501072
575.530330	2596.632811
575.884882	2595.916967
576.239380	2594.938983
576.593823	2594.661720
576.948211	2594.515527
577.302544	2595.773294
577.656823	2592.635176
578.011047	2592.642738
578.365216	2594.633994
578.719330	2592.788931
579.073389	2591.826071
579.427394	2592.052923
579.781344	2592.073088
580.135239	2592.347830
580.489080	2593.819847
580.842866	2594.560897
581.196597	2600.824531
581.550273	2593.091401
581.903895	2593.749271
582.257463	2592.549477
582.610975	2591.503437
582.964434	2592.849425
583.317837	2590.487645
583.671186	2593.487131
584.024481	2592.153746
584.377721	2591.011925
584.730906	2591.011925
585.084037	2591.059816
585.437113	2588.955134
585.790135	2590.742223
586.143103	2589.847418
586.496016	2591.649631
586.848874	2585.683425
587.201679	2587.946903
587.554428	2587.750298
587.907124	2588.040164
588.259765	2586.704259
588.612352	2589.774321
588.964884	2590.863211
589.317362	2591.458067
589.669786	2587.649475
590.022155	2590.878334
590.374470	2589.998653
590.726731	2592.678026
591.078937	2586.484968
591.431090	2591.558890
591.783188	2587.674681
592.135232	2589.398755
592.487222	2591.702563
592.839157	2590.684250
593.191038	2587.760380
593.542866	2588.740885
593.894639	2587.939341
594.246358	2584.697879
594.598022	2589.638210
594.949633	2584.539083
595.301190	2588.816502
595.652692	2585.282653
596.004141	2585.811974
596.355535	2587.793148
596.706876	2585.305338
597.058162	2585.764083
597.409395	2587.546131
597.760573	2586.842890
598.111698	2587.243662
598.462768	2588.519074
598.813785	2586.704259
599.164748	2584.531521
599.515657	2585.801892
599.866511	2582.477251
600.217312	2584.985225
600.568060	2583.324165
600.918753	2585.658219
601.269392	2585.312900
601.619978	2583.503126
601.970510	2587.682243
602.320988	2583.979515
602.671412	2587.687284
603.021783	2582.875502
603.372100	2582.285687
603.722363	2585.665781
604.072572	2585.345668
604.422728	2586.326172
604.772830	2582.131932
605.122878	2578.842579
605.472872	2584.312231
605.822813	2578.532548
606.172701	2583.399782
606.522534	2583.140163
606.872314	2585.582602
607.222041	2584.297108
607.571714	2584.395410
607.921333	2584.770976
608.270899	2584.324834
608.620411	2586.096800
608.969870	2587.347006
609.319276	2587.127716
609.668627	2588.216605
610.017926	2590.575865
610.367171	2591.768098
610.716362	2594.513006
611.065500	2592.539394
611.414585	2589.519743
611.763616	2586.530339
612.112594	2588.529156
612.461518	2588.965216
612.810389	2586.132088
613.159207	2586.850452
613.507971	2587.412541
613.856682	2586.802561
614.205340	2585.882551
614.553945	2588.372881
614.902496	2585.688466
615.250994	2582.552868
615.599439	2585.517067
615.947830	2583.508167
616.296169	2584.460945
616.644454	2584.912128
616.992686	2584.776017
617.340864	2585.978332
617.688990	2584.123188
618.037063	2589.134095
618.385082	2584.508836
618.733048	2586.149732
619.080961	2585.602767
619.428821	2585.902715
619.776628	2587.339444
620.124382	2587.503282
620.472083	2586.454722
620.819731	2585.955647
621.167326	2584.634865
621.514868	2583.198136
621.862357	2584.080338
622.209793	2584.924731
622.557176	2582.245358
622.904506	2586.270719
623.251783	2578.683783
623.599007	2580.458269
623.946179	2579.384503
624.293297	2577.340315
624.640363	2582.283167
624.987376	2582.129412
625.334336	2580.357446
625.681243	2580.609504
626.028097	2578.925758
626.374899	2581.922724
626.721647	2580.115471
627.068343	2582.263002
627.414987	2581.080852
627.761577	2579.104719
628.108115	2580.599421
628.454600	2582.212591
628.801032	2581.690831
629.147412	2575.550706
629.493739	2579.835687
629.840014	2578.381314
630.186236	2579.366859
630.532405	2578.396437
630.878521	2579.059349
631.224585	2577.907445
631.570597	2575.953998
631.916556	2577.136149
632.262462	2575.792681
632.608316	2577.423494
632.954117	2576.753021
633.299866	2576.432908
633.645562	2576.944585
633.991206	2575.265881
634.336797	2575.475088
634.682336	2574.139183
635.027823	2575.676735
635.373257	2574.711354
635.718639	2571.250602
636.063968	2573.693041
636.409245	2571.185067
636.754470	2573.501477
637.099642	2570.819583
637.444762	2573.874522
637.789829	2571.094326
638.134845	2572.669686
638.479808	2571.676579
638.824719	2571.101887
639.169577	2570.587690
639.514383	2569.463512
639.859137	2569.972669
640.203839	2572.790674
640.548489	2572.354614
640.893086	2567.671382
641.237632	2565.160888
641.582125	2571.941240
641.926566	2565.367575
642.270955	2570.764130
642.615292	2571.822772
642.959576	2571.706826
643.303809	2568.513255
643.647990	2568.102401
643.992118	2569.408060
644.336195	2572.094995
