Dividing Wavelength (nm)	Counts (n)	Blue Motor Position (mm): 0.000000	Red Motor Position (mm): 7.900000	
326.493990	2129.174177
326.888308	2129.174177
327.282561	2129.174177
327.676750	2096.018508
328.070874	2095.310226
328.464933	2097.165370
328.858929	2101.964549
329.252859	2114.131374
329.646726	2125.993209
330.040528	2138.835548
330.434265	2152.744092
330.827938	2173.014571
331.221547	2189.368074
331.615091	2208.942875
332.008571	2228.769733
332.401986	2247.903432
332.795338	2267.780702
333.188625	2286.710234
333.581847	2306.237144
333.975006	2323.525781
334.368100	2341.615962
334.761129	2359.469208
335.154095	2377.561909
335.546996	2393.756616
335.939833	2406.989645
336.332606	2422.097983
336.725315	2437.223965
337.117960	2443.906014
337.510540	2453.511933
337.903056	2464.093315
338.295508	2472.784264
338.687896	2481.492857
339.080220	2485.845894
339.472480	2494.446102
339.864676	2498.874756
340.256807	2503.310971
340.648875	2506.880108
341.040879	2512.266581
341.432818	2510.048473
341.824694	2510.960922
342.216506	2510.678617
342.608253	2512.450583
342.999937	2511.611231
343.391557	2512.367404
343.783113	2510.953360
344.174605	2509.763648
344.566033	2510.678617
344.957397	2508.576456
345.348697	2504.810714
345.739934	2503.920951
346.131106	2504.019253
346.522215	2503.492453
346.913260	2498.847029
347.304241	2496.069354
347.695159	2493.006853
348.086012	2492.391832
348.476802	2491.353354
348.867528	2492.787562
349.258191	2488.149701
349.648789	2488.038796
350.039324	2484.716675
350.429796	2488.638693
350.820203	2483.726088
351.210548	2483.537045
351.600828	2483.957982
351.991045	2480.751808
352.381198	2476.391210
352.771288	2481.182826
353.161314	2477.091930
353.551276	2482.609473
353.941175	2480.482106
354.331010	2480.204842
354.720782	2480.787096
355.110490	2480.981180
355.500135	2482.180975
355.889717	2480.121663
356.279235	2481.165182
356.668689	2481.828094
357.058080	2479.473875
357.447408	2480.018320
357.836672	2477.739718
358.225873	2481.792806
358.615010	2479.189050
359.004084	2482.007055
359.393095	2482.639720
359.782043	2484.976295
360.170927	2483.476551
360.559748	2486.614670
360.948505	2482.816160
361.337199	2489.873776
361.725830	2486.120637
362.114398	2488.426964
362.502903	2487.053250
362.891344	2489.319249
363.279722	2486.571820
363.668037	2487.900164
364.056289	2489.553662
364.444478	2491.701194
364.832603	2490.892089
365.220665	2489.825885
365.608665	2489.258755
365.996601	2492.389311
366.384474	2491.756647
366.772284	2494.993067
367.160031	2496.235712
367.547715	2496.699498
367.935336	2500.467760
368.322893	2502.272493
368.710388	2505.062772
369.097820	2512.518639
369.485189	2513.491581
369.872495	2519.256141
370.259738	2528.536905
370.646918	2534.177956
371.034035	2541.394368
371.421090	2549.238403
371.808081	2559.897923
372.195010	2570.358317
372.581875	2581.774010
372.968678	2595.057451
373.355418	2604.625561
373.742096	2623.976030
374.128710	2636.072278
374.515262	2651.525935
374.901751	2661.895589
375.288177	2669.469922
375.674540	2693.811134
376.060841	2704.178267
376.447079	2716.561861
376.833254	2732.317987
377.219367	2736.958370
377.605417	2766.154212
377.991404	2768.442896
378.377329	2776.695265
378.763191	2781.499484
379.148991	2806.392702
379.534727	2817.251347
379.920402	2829.334993
380.306013	2828.389777
380.691563	2856.133767
381.077049	2856.983202
381.462474	2860.156608
381.847835	2866.926878
382.233134	2867.239429
382.618371	2855.092769
383.003545	2877.896428
383.388657	2869.591127
383.773706	2867.620036
384.158693	2861.968903
384.543618	2854.762573
384.928480	2854.969261
385.313280	2857.504961
385.698017	2839.084585
386.082692	2843.656911
386.467305	2823.837615
386.851856	2813.263795
387.236344	2805.119811
387.620770	2793.893161
388.005133	2782.686676
388.389435	2771.066817
388.773674	2754.383118
389.157851	2744.429360
389.541965	2732.267576
389.926018	2708.543906
390.310008	2702.602906
390.693936	2690.834332
391.077802	2679.874864
391.461606	2663.307112
391.845348	2655.238745
392.229027	2643.565953
392.612645	2630.895013
392.996200	2626.428551
393.379694	2616.714247
393.763125	2610.553957
394.146494	2596.340424
394.529801	2591.516040
394.913047	2583.906418
395.296230	2570.398647
395.679351	2569.599624
396.062410	2556.853066
396.445408	2549.460214
396.828343	2545.414688
397.211217	2533.681402
397.594028	2531.848943
397.976778	2527.697553
398.359466	2530.260980
398.742092	2524.509023
399.124656	2519.760256
399.507158	2523.389887
399.889598	2523.783097
400.271977	2520.395442
400.654294	2521.154135
401.036549	2516.365039
401.418742	2518.520132
401.800874	2516.395286
402.182944	2516.105420
402.564952	2514.766993
402.946898	2518.154649
403.328783	2515.228259
403.710606	2516.871675
404.092367	2516.047446
404.474067	2517.176665
404.855705	2514.046108
405.237282	2516.183557
405.618797	2514.656088
406.000250	2515.442508
406.381642	2516.410409
406.762972	2514.348577
407.144240	2515.606345
407.525447	2519.243538
407.906593	2517.763959
408.287677	2517.758918
408.668700	2516.307066
409.049661	2518.341171
409.430560	2517.262364
409.811399	2517.108609
410.192176	2516.130625
410.572891	2519.752694
410.953545	2514.585512
411.334138	2514.940913
411.714669	2516.337313
412.095139	2514.852693
412.475547	2517.930317
412.855894	2519.006604
413.236180	2516.793537
413.616405	2518.172293
413.996568	2520.208919
414.376670	2519.966943
414.756711	2519.815709
415.136691	2516.896881
415.516609	2517.711027
415.896466	2517.133815
416.276262	2518.683970
416.655997	2514.764473
417.035670	2515.548372
417.415283	2519.319155
417.794834	2517.403517
418.174324	2517.839577
418.553753	2522.782428
418.933121	2519.356964
419.312428	2519.067098
419.691674	2522.376615
420.070859	2520.085411
420.449983	2518.943589
420.829045	2525.119003
421.208047	2518.820081
421.586988	2520.808816
421.965867	2522.159845
422.344686	2521.597757
422.723444	2523.951976
423.102141	2523.989784
423.480777	2521.680936
423.859352	2524.516585
424.237866	2521.948117
424.616319	2520.650020
424.994712	2522.701769
425.373044	2523.498272
425.751314	2521.151615
426.129524	2521.043230
426.507673	2525.817203
426.885762	2524.262007
427.263789	2525.348375
427.641756	2523.513395
428.019662	2522.979033
428.397508	2521.915349
428.775292	2522.807634
429.153016	2522.290915
429.530679	2525.058509
429.908282	2524.559435
430.285824	2526.268386
430.663305	2524.554393
431.040726	2521.396111
431.418086	2524.398118
431.795385	2524.808972
432.172624	2525.794517
432.549802	2524.564476
432.926920	2524.929959
433.303977	2522.880730
433.680974	2526.089425
434.057910	2523.462984
434.434786	2524.418282
434.811601	2526.207892
435.188355	2524.624970
435.565050	2523.677233
435.941683	2525.224867
436.318257	2524.289733
436.694770	2521.015503
437.071222	2525.471883
437.447614	2521.960720
437.823946	2523.185720
438.200218	2524.083046
438.576429	2526.510361
438.952580	2526.737213
439.328670	2527.697553
439.704700	2525.108920
440.080670	2527.329549
440.456580	2525.706297
440.832429	2528.909950
441.208218	2527.054806
441.583947	2526.984230
441.959616	2527.793335
442.335224	2528.133613
442.710773	2528.471370
443.086261	2527.586647
443.461689	2527.904240
443.837057	2525.431554
444.212365	2529.076308
444.587612	2527.601771
444.962800	2530.810465
445.337927	2531.138140
445.712995	2528.889786
446.088002	2530.944056
446.462949	2529.673685
446.837837	2528.524302
447.212664	2528.468849
447.587431	2527.362316
447.962139	2528.995650
448.336786	2532.990764
448.711374	2532.640404
449.085901	2531.279293
449.460369	2530.510517
449.834776	2533.005888
450.209124	2529.698891
450.583412	2530.321473
450.957640	2531.929602
451.331808	2531.551515
451.705917	2532.063192
452.079965	2529.121679
452.453954	2529.789632
452.827883	2528.773839
453.201752	2530.694519
453.575562	2529.378778
453.949311	2529.502286
454.323001	2528.932636
454.696632	2530.460105
455.070202	2528.791483
455.443713	2530.916330
455.817164	2527.964734
456.190556	2527.884076
456.563888	2529.091432
456.937160	2527.755526
457.310373	2530.669313
457.683526	2532.610157
458.056619	2530.858356
458.429653	2533.580579
458.802628	2528.776360
459.175542	2531.745599
459.548398	2533.862884
459.921194	2531.478418
460.293930	2531.773326
460.666607	2535.203831
461.039224	2534.054448
461.411782	2533.295754
461.784280	2533.933460
462.156719	2533.172246
462.529099	2534.210724
462.901419	2532.955476
463.273680	2533.235260
463.645882	2532.834489
464.018024	2533.673841
464.390106	2533.285672
464.762130	2537.651311
465.134094	2535.536547
465.505999	2533.333563
465.877845	2537.071578
466.249631	2535.985210
466.621358	2536.756506
466.993026	2536.877494
467.364634	2540.181970
467.736184	2536.869932
468.107674	2535.418080
468.479105	2536.247350
468.850477	2532.292565
469.221790	2537.792463
469.593043	2532.247194
469.964238	2535.337422
470.335373	2536.819521
470.706449	2532.703419
471.077467	2533.946063
471.448425	2537.386651
471.819324	2535.715508
472.190164	2536.388502
472.560945	2536.819521
472.931667	2538.374717
473.302330	2535.007226
473.672934	2533.479756
474.043479	2535.372710
474.413965	2533.598223
474.784393	2532.579910
475.154761	2532.779036
475.525070	2532.854653
475.895321	2530.898686
476.265513	2529.487163
476.635645	2534.291382
477.005719	2536.199459
477.375734	2531.662420
477.745691	2537.648791
478.115588	2536.713657
478.485427	2538.105015
478.855207	2536.307844
479.224928	2537.096784
479.594591	2535.309695
479.964194	2537.850437
480.333739	2535.319778
480.703226	2536.534696
481.072653	2540.214738
481.442022	2538.820859
481.811333	2539.357742
482.180584	2535.728111
482.549777	2535.425642
482.918912	2536.801877
483.287988	2539.483771
483.657005	2536.655683
484.025964	2539.241795
484.394864	2536.532175
484.763706	2539.561908
485.132489	2537.426980
485.501213	2537.910931
485.869879	2539.108205
486.238487	2536.718698
486.607036	2541.815304
486.975527	2537.837834
487.343959	2537.913451
487.712333	2541.026364
488.080648	2538.462937
488.448905	2540.980993
488.817104	2537.106867
489.185244	2536.350693
489.553326	2538.042001
489.921350	2540.882691
490.289315	2540.802032
490.657222	2538.757844
491.025070	2541.522917
491.392861	2540.237423
491.760593	2540.660880
492.128267	2540.136600
492.495883	2539.226672
492.863440	2538.415046
493.230939	2539.577032
493.598380	2538.828421
493.965763	2534.364479
494.333088	2538.289017
494.700354	2533.015970
495.067563	2539.577032
495.434713	2533.729293
495.801805	2541.364121
496.168839	2541.371683
496.535815	2538.329346
496.902733	2538.878832
497.269593	2537.404295
497.636395	2540.272711
498.003139	2539.375386
498.369825	2540.494522
498.736453	2538.105015
499.103023	2540.544933
499.469535	2538.462937
499.835989	2539.766075
500.202385	2538.175591
500.568723	2538.752803
500.935003	2539.115766
501.301226	2537.590817
501.667390	2539.763555
502.033497	2540.567619
502.399546	2540.804553
502.765537	2538.588966
503.131470	2538.669624
503.497345	2538.843544
503.863163	2541.744728
504.228923	2543.151210
504.594625	2541.832948
504.960269	2540.887732
505.325856	2538.034439
505.691385	2540.920499
506.056856	2542.624409
506.422270	2539.219110
506.787625	2541.487629
507.152924	2539.355221
507.518164	2541.754810
507.883347	2538.183153
508.248472	2539.456044
508.613540	2542.725233
508.978550	2540.509645
509.343503	2540.771785
509.708398	2540.698689
510.073236	2543.322609
510.438016	2541.293545
510.802738	2540.539892
511.167403	2541.076775
511.532010	2538.498225
511.896561	2544.093906
512.261053	2540.676003
512.625488	2537.096784
512.989866	2535.760878
513.354186	2539.803884
513.718449	2536.320447
514.082655	2540.819676
514.446803	2540.837320
514.810894	2542.064841
515.174927	2542.110212
515.538904	2540.403781
515.902822	2541.429656
516.266684	2541.749769
516.630488	2540.784388
516.994235	2538.989738
517.357925	2540.716333
517.721558	2543.322609
518.085133	2540.207176
518.448651	2541.651467
518.812112	2543.622558
519.175516	2539.690458
519.538863	2540.643236
519.902152	2539.692978
520.265385	2544.403937
520.628560	2542.092568
520.991678	2538.135262
521.354739	2539.203987
521.717743	2540.867567
522.080690	2543.108360
522.443580	2539.844213
522.806413	2542.609286
523.169189	2541.825387
523.531908	2539.571991
523.894569	2542.712630
524.257174	2542.634492
524.619722	2542.891591
524.982213	2541.296065
525.344647	2542.349667
525.707025	2543.375541
526.069345	2539.962680
526.431608	2542.705068
526.793815	2542.301776
527.155964	2541.958977
527.518057	2542.148020
527.880093	2542.568957
528.242072	2543.005017
528.603995	2542.276570
528.965860	2542.274049
529.327669	2543.022661
529.689421	2542.450490
530.051117	2543.189019
530.412755	2540.751621
530.774337	2541.883360
531.135862	2543.178936
531.497331	2542.546272
531.858743	2539.514017
532.220098	2538.909079
532.581396	2538.137782
532.942638	2542.929399
533.303824	2541.303627
533.664953	2543.821683
534.026025	2539.917310
534.387040	2540.925541
534.747999	2541.931251
535.108902	2538.432690
535.469748	2544.691283
535.830537	2540.953267
536.191270	2541.490150
536.551947	2541.117104
536.912567	2541.016281
537.273131	2543.778834
537.633638	2542.236241
537.994089	2541.767413
538.354483	2539.755993
538.714821	2543.108360
539.075103	2540.706250
539.435328	2543.367980
539.795497	2541.255736
540.155609	2543.272198
540.515665	2543.899821
540.875665	2543.809081
541.235609	2544.572815
541.595496	2542.175747
541.955328	2541.485109
542.315102	2542.783206
542.674821	2542.274049
543.034483	2542.110212
543.394090	2543.836807
543.753640	2542.077444
544.113134	2539.902186
544.472571	2542.546272
544.831953	2542.100129
545.191278	2544.648433
545.550548	2542.642053
545.909761	2542.591642
546.268918	2542.253885
546.628019	2542.505942
546.987064	2541.525438
547.346053	2544.303114
547.704986	2544.167003
548.063863	2541.795140
548.422684	2544.151879
548.781449	2542.130376
549.140158	2541.966539
549.498811	2543.509132
549.857408	2542.783206
550.215949	2541.013761
550.574434	2541.616179
550.932864	2539.355221
551.291237	2538.730118
551.649555	2541.785057
552.007817	2539.819007
552.366022	2544.587939
552.724173	2543.526776
553.082267	2545.729760
553.440305	2544.547610
553.798288	2542.639533
554.156215	2545.732281
554.514086	2545.318906
554.871902	2541.348997
555.229661	2543.526776
555.587365	2545.260933
555.945014	2544.293031
556.302606	2543.327650
556.660143	2545.152548
557.017625	2543.660367
557.375050	2543.567105
557.732421	2542.024512
558.089735	2545.848227
558.446994	2543.985521
558.804197	2543.872095
559.161345	2541.447300
559.518437	2542.412681
559.875474	2544.033412
560.232455	2542.964687
560.589381	2543.320089
560.946251	2546.349822
561.303065	2540.686086
561.659825	2547.194215
562.016528	2544.529966
562.373177	2543.846889
562.729770	2543.504091
563.086307	2547.277394
563.442789	2544.182126
563.799216	2544.396375
564.155587	2544.479554
564.511904	2543.274718
564.868164	2545.356715
565.224370	2544.958464
565.580520	2542.674821
565.936615	2543.670449
566.292654	2543.640202
566.648638	2544.635830
567.004567	2547.375697
567.360441	2543.604914
567.716260	2544.618186
568.072023	2541.038967
568.427732	2541.830428
568.783385	2541.853113
569.138982	2540.786909
569.494525	2539.025026
569.850013	2538.689789
570.205445	2545.112219
570.560823	2545.283618
570.916145	2542.122815
571.271412	2541.394368
571.626625	2546.438042
571.981782	2541.406971
572.336884	2542.702547
572.691931	2544.782023
573.046923	2545.172713
573.401860	2539.803884
573.756743	2546.238917
574.111570	2541.863195
574.466342	2545.505429
574.821059	2543.393185
575.175722	2542.203473
575.530330	2543.688093
575.884882	2543.292362
576.239380	2544.890408
576.593823	2543.209183
576.948211	2541.301107
577.302544	2544.968546
577.656823	2542.402599
578.011047	2544.577857
578.365216	2544.514842
578.719330	2542.843700
579.073389	2546.259081
579.427394	2542.989893
579.781344	2541.351518
580.135239	2547.257230
580.489080	2544.746735
580.842866	2543.015099
581.196597	2544.552651
581.550273	2541.895963
581.903895	2543.370500
582.257463	2544.930737
582.610975	2542.407640
582.964434	2542.649615
583.317837	2544.590459
583.671186	2542.818494
584.024481	2544.436704
584.377721	2542.868905
584.730906	2541.774975
585.084037	2543.088196
585.437113	2543.458720
585.790135	2544.436704
586.143103	2544.950902
586.496016	2545.104657
586.848874	2540.713812
587.201679	2542.755479
587.554428	2540.035777
587.907124	2542.208514
588.259765	2538.586445
588.612352	2542.047197
588.964884	2542.815973
589.317362	2542.483257
589.669786	2543.919986
590.022155	2542.626930
590.374470	2542.851261
590.726731	2544.950902
591.078937	2540.905376
591.431090	2541.364121
591.783188	2543.375541
592.135232	2545.023999
592.487222	2543.519214
592.839157	2542.357228
593.191038	2541.553164
593.542866	2542.717671
593.894639	2546.032229
594.246358	2545.518032
594.598022	2542.180788
594.949633	2545.114739
595.301190	2543.713299
595.652692	2542.412681
596.004141	2542.309337
596.355535	2545.994421
596.706876	2543.798998
597.058162	2540.071065
597.409395	2542.311858
597.760573	2543.476364
598.111698	2542.329502
598.462768	2543.839327
598.813785	2540.698689
599.164748	2543.494008
599.515657	2542.916796
599.866511	2540.474357
600.217312	2542.090047
600.568060	2541.517876
600.918753	2545.054246
601.269392	2542.848741
601.619978	2543.020140
601.970510	2544.046015
602.320988	2543.723381
602.671412	2545.127342
603.021783	2541.467465
603.372100	2541.139790
603.722363	2540.451672
604.072572	2542.503422
604.422728	2541.936292
604.772830	2537.358924
605.122878	2537.583256
605.472872	2539.592155
605.822813	2537.046373
606.172701	2538.528472
606.522534	2540.867567
606.872314	2542.183308
607.222041	2542.092568
607.571714	2542.589121
607.921333	2543.037784
608.270899	2541.500232
608.620411	2541.984183
608.969870	2544.056097
609.319276	2542.969728
609.668627	2545.893598
610.017926	2549.117416
610.367171	2551.418702
610.716362	2550.317210
611.065500	2548.749411
611.414585	2546.102806
611.763616	2545.245809
612.112594	2543.509132
612.461518	2543.315048
612.810389	2544.678680
613.159207	2543.957795
613.507971	2543.483926
613.856682	2543.133566
614.205340	2543.161292
614.553945	2544.517363
614.902496	2542.263967
615.250994	2546.848896
615.599439	2542.790768
615.947830	2540.290355
616.296169	2544.169523
616.644454	2543.252033
616.992686	2541.278421
617.340864	2543.078113
617.688990	2543.791437
618.037063	2540.071065
618.385082	2542.195911
618.733048	2543.594832
619.080961	2544.303114
619.428821	2544.169523
619.776628	2543.980480
620.124382	2542.798329
620.472083	2541.202804
620.819731	2543.211704
621.167326	2539.156096
621.514868	2542.936961
621.862357	2541.124666
622.209793	2542.712630
622.557176	2542.337064
622.904506	2542.362269
623.251783	2536.706095
623.599007	2539.609799
623.946179	2538.420087
624.293297	2536.897659
624.640363	2540.983514
624.987376	2544.353525
625.334336	2540.469316
625.681243	2540.713812
626.028097	2541.608617
626.374899	2541.210366
626.721647	2537.457227
627.068343	2540.179450
627.414987	2541.434697
627.761577	2542.664739
628.108115	2540.159285
628.454600	2538.213400
628.801032	2540.134079
629.147412	2540.615510
629.493739	2543.312527
629.840014	2542.669780
630.186236	2539.541744
630.532405	2542.689944
630.878521	2543.889739
631.224585	2540.373534
631.570597	2541.522917
631.916556	2541.880839
632.262462	2539.519059
632.608316	2540.212217
632.954117	2540.219779
633.299866	2543.199101
633.645562	2542.231199
633.991206	2542.994934
634.336797	2540.827238
634.682336	2540.819676
635.027823	2540.023174
635.373257	2539.481250
635.718639	2539.607279
636.063968	2542.027033
636.409245	2540.640715
636.754470	2540.350849
637.099642	2538.591486
637.444762	2541.709440
637.789829	2540.000489
638.134845	2540.809594
638.479808	2538.462937
638.824719	2541.366642
639.169577	2541.656508
639.514383	2537.981507
639.859137	2542.110212
640.203839	2541.840510
640.548489	2538.208359
640.893086	2538.180632
641.237632	2536.161650
641.582125	2534.810621
641.926566	2533.262987
642.270955	2540.187012
642.615292	2539.524100
642.959576	2539.617361
643.303809	2539.730787
643.647990	2539.927392
643.992118	2540.585263
644.336195	2541.066693
