Dividing Wavelength (nm)	Counts (n)	Blue Motor Position (mm): 0.000000	Red Motor Position (mm): 13.300000	
326.493990	2126.996398
326.888308	2126.996398
327.282561	2126.996398
327.676750	2094.342324
328.070874	2093.865935
328.464933	2095.602613
328.858929	2104.608634
329.252859	2116.651951
329.646726	2123.838115
330.040528	2138.094498
330.434265	2154.536222
330.827938	2170.572132
331.221547	2191.039217
331.615091	2208.700899
332.008571	2228.368961
332.401986	2249.841756
332.795338	2268.778850
333.188625	2285.076901
333.581847	2305.543985
333.975006	2322.991419
334.368100	2342.389779
334.761129	2359.358303
335.154095	2376.117618
335.546996	2394.727038
335.939833	2406.853533
336.332606	2423.486821
336.725315	2434.171546
337.117960	2445.501539
337.510540	2453.562344
337.903056	2464.337811
338.295508	2472.791826
338.687896	2478.813484
339.080220	2491.802017
339.472480	2495.575321
339.864676	2501.609582
340.256807	2502.703512
340.648875	2508.246261
341.040879	2512.211128
341.432818	2511.495284
341.824694	2512.662312
342.216506	2512.811026
342.608253	2514.371263
342.999937	2513.751201
343.391557	2511.830521
343.783113	2510.088803
344.174605	2509.400685
344.566033	2508.117711
344.957397	2507.366579
345.348697	2506.968328
345.739934	2504.639315
346.131106	2503.058913
346.522215	2503.507576
346.913260	2497.163284
347.304241	2495.325783
347.695159	2496.021463
348.086012	2494.229333
348.476802	2491.136585
348.867528	2491.345792
349.258191	2490.004846
349.648789	2490.723210
350.039324	2484.789772
350.429796	2487.668271
350.820203	2483.463948
351.210548	2482.906901
351.600828	2481.376911
351.991045	2482.191057
352.381198	2482.669967
352.771288	2481.185347
353.161314	2481.848259
353.551276	2481.830615
353.941175	2481.898670
354.331010	2480.988742
354.720782	2482.922024
355.110490	2481.112250
355.500135	2482.208701
355.889717	2484.159628
356.279235	2479.935141
356.668689	2482.571664
357.058080	2480.877837
357.447408	2479.196612
357.836672	2480.207363
358.225873	2483.191726
358.615010	2480.557723
359.004084	2484.041161
359.393095	2485.671974
359.782043	2485.850935
360.170927	2485.772797
360.559748	2488.084166
360.948505	2485.293887
361.337199	2489.609115
361.725830	2490.062819
362.114398	2489.425113
362.502903	2492.716986
362.891344	2490.423261
363.279722	2493.226143
363.668037	2494.075577
364.056289	2489.830926
364.444478	2490.231697
364.832603	2495.534991
365.220665	2494.473828
365.608665	2496.071874
365.996601	2494.436020
366.384474	2494.357882
366.772284	2501.607061
367.160031	2500.296361
367.547715	2503.142092
367.935336	2499.913233
368.322893	2507.661487
368.710388	2508.515963
369.097820	2515.099709
369.485189	2515.921418
369.872495	2523.374763
370.259738	2530.681916
370.646918	2539.115766
371.034035	2543.118443
371.421090	2556.447253
371.808081	2563.638459
372.195010	2574.479461
372.581875	2586.159814
372.968678	2599.818820
373.355418	2607.932557
373.742096	2627.348562
374.128710	2642.414050
374.515262	2657.681184
374.901751	2675.078206
375.288177	2686.849300
375.674540	2709.789071
376.060841	2723.344734
376.447079	2747.156624
376.833254	2764.765374
377.219367	2779.167951
377.605417	2814.503919
377.991404	2822.030361
378.377329	2845.249916
378.763191	2865.946373
379.148991	2902.550191
379.534727	2925.061464
379.920402	2955.789817
380.306013	2967.039152
380.691563	3016.439939
381.077049	3034.643545
381.462474	3056.254972
381.847835	3094.638317
382.233134	3116.675721
382.618371	3112.930144
383.003545	3179.972449
383.388657	3187.546783
383.773706	3223.578430
384.158693	3240.678024
384.543618	3265.440171
384.928480	3299.974596
385.313280	3345.372707
385.698017	3345.367666
386.082692	3400.543094
386.467305	3403.058630
386.851856	3431.379832
387.236344	3452.703913
387.620770	3482.890343
388.005133	3508.164167
388.389435	3531.671068
388.773674	3539.154661
389.157851	3576.812080
389.541965	3587.098554
389.926018	3547.734704
390.310008	3608.407512
390.693936	3618.189871
391.077802	3649.576094
391.461606	3623.357053
391.845348	3676.173222
392.229027	3660.200326
392.612645	3656.701765
392.996200	3711.521793
393.379694	3733.813775
393.763125	3769.845422
394.146494	3719.040674
394.529801	3750.333636
394.913047	3769.507665
395.296230	3719.322978
395.679351	3739.578335
396.062410	3730.726068
396.445408	3690.646375
396.828343	3683.795447
397.211217	3673.645083
397.594028	3588.673915
397.976778	3603.174794
398.359466	3588.983946
398.742092	3571.281934
399.124656	3492.282012
399.507158	3509.767254
399.889598	3495.044564
400.271977	3491.281343
400.654294	3435.614402
401.036549	3404.878487
401.418742	3352.679859
401.800874	3364.826519
402.182944	3339.340966
402.564952	3330.319821
402.946898	3287.724592
403.328783	3246.513159
403.710606	3175.226203
404.092367	3210.476471
404.474067	3161.438647
404.855705	3133.104842
405.237282	3074.914803
405.618797	3072.885738
406.000250	3047.377500
406.381642	3037.282589
406.762972	2994.465549
407.144240	2963.835498
407.525447	2935.990685
407.906593	2915.637027
408.287677	2895.542987
408.668700	2853.552696
409.049661	2838.746827
409.430560	2822.254693
409.811399	2786.235648
410.192176	2783.044598
410.572891	2753.445463
410.953545	2744.250399
411.334138	2712.803681
411.714669	2702.587783
412.095139	2679.032991
412.475547	2673.185253
412.855894	2657.005670
413.236180	2642.519914
413.616405	2629.501134
413.996568	2617.709875
414.376670	2608.169492
414.756711	2594.444950
415.136691	2588.667788
415.516609	2582.870461
415.896466	2581.539597
416.276262	2570.635581
416.655997	2561.798438
417.035670	2561.405228
417.415283	2556.719476
417.794834	2553.687222
418.174324	2551.295194
418.553753	2547.005172
418.933121	2543.819163
419.312428	2541.863195
419.691674	2540.557536
420.070859	2539.725746
420.449983	2540.796991
420.829045	2536.249870
421.208047	2536.945550
421.586988	2536.038142
421.965867	2532.526978
422.344686	2533.441948
422.723444	2531.193593
423.102141	2532.801721
423.480777	2533.119314
423.859352	2531.231402
424.237866	2533.739376
424.616319	2528.864580
424.994712	2530.981865
425.373044	2528.184024
425.751314	2531.332225
426.129524	2528.093283
426.507673	2532.773995
426.885762	2530.407173
427.263789	2528.640249
427.641756	2532.615198
428.019662	2530.119827
428.397508	2529.933305
428.775292	2529.073788
429.153016	2529.527492
429.530679	2530.586134
429.908282	2529.640918
430.285824	2529.451874
430.663305	2526.429703
431.040726	2529.378778
431.418086	2529.351051
431.795385	2529.782070
432.172624	2528.806607
432.549802	2529.429189
432.926920	2529.126720
433.303977	2533.484797
433.680974	2530.800383
434.057910	2529.648479
434.434786	2528.375588
434.811601	2533.313398
435.188355	2528.927594
435.565050	2531.493542
435.941683	2531.755682
436.318257	2529.978675
436.694770	2526.356606
437.071222	2529.507327
437.447614	2526.936339
437.823946	2529.603109
438.200218	2531.518748
438.576429	2534.067051
438.952580	2531.428007
439.328670	2532.307688
439.704700	2532.867256
440.080670	2532.005219
440.456580	2532.577390
440.832429	2533.152081
441.208218	2532.342976
441.583947	2533.598223
441.959616	2529.640918
442.335224	2533.252904
442.710773	2531.543953
443.086261	2530.918850
443.461689	2533.431865
443.837057	2531.473377
444.212365	2534.450178
444.587612	2534.356917
444.962800	2535.362627
445.337927	2530.810465
445.712995	2530.722245
446.088002	2534.994623
446.462949	2532.837009
446.837837	2533.136958
447.212664	2534.949253
447.587431	2532.910106
447.962139	2535.917154
448.336786	2540.134079
448.711374	2537.064017
449.085901	2535.385312
449.460369	2533.562935
449.834776	2534.911444
450.209124	2534.593851
450.583412	2536.055786
450.957640	2535.844057
451.331808	2538.883873
451.705917	2535.980169
452.079965	2537.802546
452.453954	2538.848585
452.827883	2536.585107
453.201752	2535.158461
453.575562	2537.056455
453.949311	2535.816331
454.323001	2536.844727
454.696632	2536.421270
455.070202	2538.846065
455.443713	2539.642567
455.817164	2534.487987
456.190556	2536.040663
456.563888	2537.275745
456.937160	2536.885056
457.310373	2539.559388
457.683526	2537.361445
458.056619	2538.074768
458.429653	2539.743390
458.802628	2538.188194
459.175542	2540.418905
459.548398	2540.706250
459.921194	2541.406971
460.293930	2541.374203
460.666607	2541.119625
461.039224	2543.146169
461.411782	2542.226158
461.784280	2545.392003
462.156719	2543.526776
462.529099	2544.136756
462.901419	2541.023843
463.273680	2541.270860
463.645882	2541.260777
464.018024	2543.632640
464.390106	2541.475026
464.762130	2546.753114
465.134094	2544.832435
465.505999	2547.269833
465.877845	2551.983312
466.249631	2552.623538
466.621358	2551.809392
466.993026	2555.043292
467.364634	2553.843497
467.736184	2549.029195
468.107674	2547.035419
468.479105	2547.297559
468.850477	2547.169010
469.221790	2549.855945
469.593043	2546.559030
469.964238	2546.193546
470.335373	2546.874102
470.706449	2549.739998
471.077467	2547.171530
471.448425	2553.982129
471.819324	2552.742005
472.190164	2556.502706
472.560945	2552.605894
472.931667	2549.525749
473.302330	2548.681356
473.672934	2547.776469
474.043479	2548.940975
474.413965	2550.060111
474.784393	2543.834286
475.154761	2546.387631
475.525070	2544.179605
475.895321	2544.318237
476.265513	2542.836138
476.635645	2550.070194
477.005719	2546.034750
477.375734	2551.305276
477.745691	2548.396531
478.115588	2550.261757
478.485427	2550.221428
478.855207	2553.631769
479.224928	2551.872406
479.594591	2556.217881
479.964194	2555.983467
480.333739	2554.705535
480.703226	2553.450287
481.072653	2555.244938
481.442022	2555.454146
481.811333	2553.994732
482.180584	2553.858621
482.549777	2554.672767
482.918912	2553.883827
483.287988	2554.057746
483.657005	2554.551779
484.025964	2553.344423
484.394864	2554.491286
484.763706	2553.881306
485.132489	2552.928528
485.501213	2552.643703
485.869879	2552.618497
486.238487	2550.816284
486.607036	2553.364588
486.975527	2550.775955
487.343959	2550.256716
487.712333	2551.557334
488.080648	2552.283260
488.448905	2553.651933
488.817104	2552.245452
489.185244	2554.340051
489.553326	2552.494989
489.921350	2554.730740
490.289315	2555.814588
490.657222	2560.553273
491.025070	2558.420865
491.392861	2556.260731
491.760593	2559.131668
492.128267	2556.207798
492.495883	2553.662016
492.863440	2555.557490
493.230939	2553.472972
493.598380	2552.787376
493.965763	2545.255892
494.333088	2552.119423
494.700354	2549.059442
495.067563	2551.219577
495.434713	2550.057591
495.801805	2552.752088
496.168839	2553.364588
496.535815	2554.874413
496.902733	2552.111861
497.269593	2554.145967
497.636395	2551.879968
498.003139	2552.270657
498.369825	2553.457849
498.736453	2554.148487
499.103023	2551.907694
499.469535	2550.407951
499.835989	2553.727551
500.202385	2554.166131
500.568723	2551.648075
500.935003	2551.827036
501.301226	2551.259906
501.667390	2551.985832
502.033497	2552.414330
502.399546	2552.207643
502.765537	2553.462890
503.131470	2553.687222
503.497345	2552.734443
503.863163	2556.653941
504.228923	2555.963302
504.594625	2551.869886
504.960269	2551.726213
505.325856	2555.441543
505.691385	2552.648744
506.056856	2554.556821
506.422270	2552.983981
506.787625	2551.585060
507.152924	2552.532797
507.518164	2554.443395
507.883347	2550.433157
508.248472	2553.793086
508.613540	2554.055226
508.978550	2553.556152
509.343503	2554.329969
509.708398	2554.080432
510.073236	2555.822150
510.438016	2555.799465
510.802738	2553.525905
511.167403	2556.316183
511.532010	2553.740154
511.896561	2557.483210
512.261053	2555.267623
512.625488	2551.401058
512.989866	2549.238403
513.354186	2554.400545
513.718449	2549.172868
514.082655	2554.642520
514.446803	2553.987170
514.810894	2556.359033
515.174927	2554.350133
515.538904	2552.530277
515.902822	2554.435833
516.266684	2555.249979
516.630488	2554.997922
516.994235	2554.571944
517.357925	2555.781821
517.721558	2555.073539
518.085133	2556.991698
518.448651	2552.857952
518.812112	2555.365926
519.175516	2555.391132
519.538863	2556.815257
519.902152	2554.362736
520.265385	2556.197716
520.628560	2553.606563
520.991678	2553.316697
521.354739	2555.401214
521.717743	2557.836091
522.080690	2554.035061
522.443580	2556.757284
522.806413	2554.985319
523.169189	2553.520863
523.531908	2556.313663
523.894569	2556.049002
524.257174	2554.113199
524.619722	2554.390462
524.982213	2557.145453
525.344647	2554.889537
525.707025	2554.403065
526.069345	2554.151008
526.431608	2558.521688
526.793815	2554.206460
527.155964	2556.195196
527.518057	2556.696790
527.880093	2555.779300
528.242072	2557.195865
528.603995	2556.785011
528.965860	2556.432130
529.327669	2556.601008
529.689421	2554.690411
530.051117	2557.284085
530.412755	2555.300391
530.774337	2557.238714
531.135862	2556.590926
531.497331	2553.964485
531.858743	2552.522715
532.220098	2553.266285
532.581396	2550.962478
532.942638	2552.772252
533.303824	2555.809547
533.664953	2553.926676
534.026025	2554.080432
534.387040	2554.753426
534.747999	2556.233004
535.108902	2555.953220
535.469748	2557.190823
535.830537	2556.117058
536.191270	2554.299722
536.551947	2553.911553
536.912567	2556.744681
537.273131	2555.350802
537.633638	2557.263920
537.994089	2555.794424
538.354483	2551.857283
538.714821	2554.430792
539.075103	2555.277706
539.435328	2555.290308
539.795497	2553.861141
540.155609	2561.090156
540.515665	2553.921635
540.875665	2552.157231
541.235609	2553.825853
541.595496	2557.977243
541.955328	2557.344579
542.315102	2554.662685
542.674821	2555.045812
543.034483	2555.650751
543.394090	2558.065464
543.753640	2557.362223
544.113134	2552.643703
544.472571	2554.324928
544.831953	2555.751574
545.191278	2555.469269
545.550548	2554.387942
545.909761	2553.896429
546.268918	2555.481872
546.628019	2556.298539
546.987064	2555.484393
547.346053	2554.191337
547.704986	2555.784342
548.063863	2555.426420
548.422684	2555.736451
548.781449	2555.219732
549.140158	2553.939279
549.498811	2553.906512
549.857408	2553.566234
550.215949	2553.621687
550.574434	2552.197561
550.932864	2552.421892
551.291237	2552.653785
551.649555	2558.680484
552.007817	2555.247459
552.366022	2557.684857
552.724173	2556.613611
553.082267	2555.010524
553.440305	2555.832232
553.798288	2556.984136
554.156215	2554.854249
554.514086	2555.496996
554.871902	2552.830225
555.229661	2555.839794
555.587365	2554.579506
555.945014	2557.576472
556.302606	2557.274002
556.660143	2556.792572
557.017625	2555.915412
557.375050	2554.105637
557.732421	2555.229815
558.089735	2558.229301
558.446994	2556.545556
558.804197	2557.578992
559.161345	2554.453477
559.518437	2556.253169
559.875474	2556.129661
560.232455	2555.789383
560.589381	2556.449774
560.946251	2558.093190
561.303065	2558.151163
561.659825	2554.985319
562.016528	2554.125802
562.373177	2555.817109
562.729770	2558.204095
563.086307	2555.575134
563.442789	2555.849877
563.799216	2554.511450
564.155587	2555.827191
564.511904	2556.248128
564.868164	2555.161759
565.224370	2554.254351
565.580520	2556.323745
565.936615	2560.311298
566.292654	2556.016235
566.648638	2555.759136
567.004567	2556.323745
567.360441	2556.066646
567.716260	2554.309804
568.072023	2552.149670
568.427732	2551.605225
568.783385	2552.913404
569.138982	2552.404248
569.494525	2552.293343
569.850013	2549.760163
570.205445	2556.112017
570.560823	2555.580175
570.916145	2556.069167
571.271412	2552.132026
571.626625	2556.512788
571.981782	2556.379198
572.336884	2555.708724
572.691931	2554.176213
573.046923	2557.352140
573.401860	2554.297201
573.756743	2554.934907
574.111570	2554.501368
574.466342	2554.997922
574.821059	2554.892057
575.175722	2557.059753
575.530330	2555.318035
575.884882	2554.040102
576.239380	2552.497509
576.593823	2558.073025
576.948211	2556.260731
577.302544	2555.953220
577.656823	2554.934907
578.011047	2558.423386
578.365216	2554.680329
578.719330	2553.049516
579.073389	2553.523384
579.427394	2552.421892
579.781344	2553.241079
580.135239	2554.471121
580.489080	2555.398693
580.842866	2553.551110
581.196597	2551.131357
581.550273	2555.262582
581.903895	2553.442726
582.257463	2554.468600
582.610975	2554.425751
582.964434	2555.605381
583.317837	2555.403734
583.671186	2553.465411
584.024481	2554.675288
584.377721	2555.378529
584.730906	2551.935421
585.084037	2554.692932
585.437113	2552.787376
585.790135	2555.376008
586.143103	2554.602191
586.496016	2554.927345
586.848874	2550.349978
587.201679	2550.425595
587.554428	2553.137736
587.907124	2549.215718
588.259765	2549.465255
588.612352	2554.249310
588.964884	2553.493137
589.317362	2553.243600
589.669786	2551.380894
590.022155	2556.313663
590.374470	2552.038764
590.726731	2554.524053
591.078937	2553.291491
591.431090	2552.832746
591.783188	2553.442726
592.135232	2553.576316
592.487222	2552.384083
592.839157	2551.718651
593.191038	2551.549772
593.542866	2553.593960
593.894639	2552.558003
594.246358	2551.275029
594.598022	2551.388455
594.949633	2551.093548
595.301190	2550.959957
595.652692	2551.312838
596.004141	2551.078424
596.355535	2552.263096
596.706876	2550.922149
597.058162	2550.342416
597.409395	2553.379711
597.760573	2552.202602
598.111698	2552.684032
598.462768	2552.802499
598.813785	2551.002807
599.164748	2552.111861
599.515657	2552.217725
599.866511	2552.928528
600.217312	2551.131357
600.568060	2552.200081
600.918753	2551.343085
601.269392	2552.230328
601.619978	2551.501881
601.970510	2552.535318
602.320988	2551.617828
602.671412	2550.256716
603.021783	2550.549103
603.372100	2551.085986
603.722363	2552.154711
604.072572	2549.893753
604.422728	2554.077911
604.772830	2547.128680
605.122878	2549.964329
605.472872	2550.143290
605.822813	2549.218239
606.172701	2548.593136
606.522534	2548.353681
606.872314	2551.668239
607.222041	2551.459032
607.571714	2553.011707
607.921333	2549.853424
608.270899	2552.066491
608.620411	2552.011038
608.969870	2552.447098
609.319276	2554.824002
609.668627	2558.015052
610.017926	2557.238714
610.367171	2559.242573
610.716362	2555.668395
611.065500	2553.170503
611.414585	2555.192006
611.763616	2556.162428
612.112594	2553.044474
612.461518	2555.391132
612.810389	2554.292160
613.159207	2553.180586
613.507971	2549.329144
613.856682	2554.972716
614.205340	2552.200081
614.553945	2552.089176
614.902496	2548.653629
615.250994	2551.816953
615.599439	2549.044319
615.947830	2553.921635
616.296169	2555.428940
616.644454	2553.094886
616.992686	2551.474155
617.340864	2553.530946
617.688990	2549.974412
618.037063	2551.123795
618.385082	2550.937272
618.733048	2553.092365
619.080961	2550.468445
619.428821	2552.018600
619.776628	2550.919628
620.124382	2552.157231
620.472083	2552.023641
620.819731	2551.590102
621.167326	2550.886861
621.514868	2552.129505
621.862357	2553.916594
622.209793	2550.302087
622.557176	2548.986346
622.904506	2552.678991
623.251783	2546.896787
623.599007	2547.829401
623.946179	2548.638506
624.293297	2547.090872
624.640363	2552.237890
624.987376	2550.901984
625.334336	2548.242775
625.681243	2550.801161
626.028097	2551.869886
626.374899	2552.489948
626.721647	2548.580533
627.068343	2549.369473
627.414987	2551.121274
627.761577	2549.003990
628.108115	2548.600697
628.454600	2550.934752
628.801032	2548.751932
629.147412	2549.825698
629.493739	2548.104144
629.840014	2547.199257
630.186236	2548.915769
630.532405	2547.353012
630.878521	2549.939124
631.224585	2547.710934
631.570597	2549.248486
631.916556	2548.114226
632.262462	2550.458363
632.608316	2549.099772
632.954117	2546.808567
633.299866	2547.002652
633.645562	2544.492157
633.991206	2547.615152
634.336797	2546.380069
634.682336	2550.491130
635.027823	2546.828732
635.373257	2546.997610
635.718639	2545.144986
636.063968	2549.674463
636.409245	2546.664894
636.754470	2546.911911
637.099642	2545.639019
637.444762	2546.130532
637.789829	2547.766386
638.134845	2545.797816
638.479808	2546.843855
638.824719	2549.225800
639.169577	2549.301418
639.514383	2546.029709
639.859137	2546.417878
640.203839	2545.991900
640.548489	2547.088351
640.893086	2545.891077
641.237632	2542.919317
641.582125	2546.811088
641.926566	2543.037784
642.270955	2546.881664
642.615292	2546.090203
642.959576	2546.354863
643.303809	2546.294369
643.647990	2548.572971
643.992118	2546.241437
644.336195	2545.931406
