Dividing Wavelength (nm)	Counts (n)	Blue Motor Position (mm): 0.000000	Red Motor Position (mm): 40.400000	
326.493990	2128.586882
326.888308	2128.586882
327.282561	2128.586882
327.676750	2094.465833
328.070874	2093.200503
328.464933	2099.123859
328.858929	2101.152923
329.252859	2111.996445
329.646726	2125.572272
330.040528	2137.348408
330.434265	2152.741571
330.827938	2169.836124
331.221547	2191.762622
331.615091	2208.685776
332.008571	2226.213868
332.401986	2246.854872
332.795338	2265.476894
333.188625	2282.896602
333.581847	2303.129273
333.975006	2320.775832
334.368100	2341.258040
334.761129	2359.688498
335.154095	2373.390354
335.546996	2393.255021
335.939833	2416.041036
336.332606	2432.848243
336.725315	2444.480706
337.117960	2454.142077
337.510540	2462.147429
337.903056	2475.824080
338.295508	2478.702579
338.687896	2488.610967
339.080220	2498.050527
339.472480	2505.541682
339.864676	2507.782475
340.256807	2513.647857
340.648875	2514.706499
341.040879	2514.953516
341.432818	2518.336130
341.824694	2519.825791
342.216506	2521.837212
342.608253	2520.791172
342.999937	2523.223529
343.391557	2520.266892
343.783113	2519.699762
344.174605	2520.589526
344.566033	2517.332941
344.957397	2519.253620
345.348697	2515.518125
345.739934	2513.695748
346.131106	2512.127949
346.522215	2511.485202
346.913260	2508.523524
347.304241	2505.571929
347.695159	2502.857267
348.086012	2504.687206
348.476802	2498.184118
348.867528	2500.644201
349.258191	2494.534322
349.648789	2495.847543
350.039324	2497.735455
350.429796	2494.506596
350.820203	2492.147336
351.210548	2491.746564
351.600828	2494.065495
351.991045	2492.137254
352.381198	2491.013076
352.771288	2489.863693
353.161314	2488.822695
353.551276	2490.897130
353.941175	2487.658188
354.331010	2493.205978
354.720782	2488.235401
355.110490	2491.373519
355.500135	2489.094917
355.889717	2489.319249
356.279235	2488.931080
356.668689	2490.950062
357.058080	2495.545074
357.447408	2490.294712
357.836672	2489.019300
358.225873	2490.035093
358.615010	2490.818992
359.004084	2494.204127
359.393095	2493.238746
359.782043	2495.028355
360.170927	2495.121617
360.559748	2495.431648
360.948505	2498.186638
361.337199	2498.352996
361.725830	2500.611433
362.114398	2500.699653
362.502903	2500.460199
362.891344	2501.317195
363.279722	2501.087822
363.668037	2501.899448
364.056289	2500.792915
364.444478	2502.827020
364.832603	2501.881804
365.220665	2503.079078
365.608665	2503.447082
365.996601	2506.837258
366.384474	2506.370952
366.772284	2506.612927
367.160031	2510.066117
367.547715	2510.890346
367.935336	2514.066273
368.322893	2515.359329
368.710388	2517.542148
369.097820	2530.145033
369.485189	2528.897348
369.872495	2534.334232
370.259738	2542.664739
370.646918	2549.293856
371.034035	2556.454815
371.421090	2564.913871
371.808081	2575.933833
372.195010	2586.109402
372.581875	2598.180445
372.968678	2610.440532
373.355418	2619.154166
373.742096	2640.901704
374.128710	2656.526760
374.515262	2668.585200
374.901751	2686.123374
375.288177	2697.828933
375.674540	2720.577140
376.060841	2739.995665
376.447079	2762.378388
376.833254	2780.292128
377.219367	2793.764612
377.605417	2829.249294
377.991404	2838.363700
378.377329	2862.871269
378.763191	2876.989021
379.148991	2913.968405
379.534727	2940.792384
379.920402	2969.892445
380.306013	2981.008189
380.691563	3028.798328
381.077049	3052.030485
381.462474	3069.619071
381.847835	3109.539968
382.233134	3133.356899
382.618371	3129.185345
383.003545	3201.503217
383.388657	3205.823486
383.773706	3240.428487
384.158693	3256.724016
384.543618	3281.874333
384.928480	3318.009324
385.313280	3360.607074
385.698017	3362.590768
386.082692	3416.556320
386.467305	3421.156373
386.851856	3452.320786
387.236344	3475.013540
387.620770	3505.651152
388.005133	3536.082077
388.389435	3556.105540
388.773674	3571.246646
389.157851	3613.521762
389.541965	3626.361581
389.926018	3591.164245
390.310008	3664.124864
390.693936	3682.061290
391.077802	3723.547465
391.461606	3711.985579
391.845348	3775.597379
392.229027	3774.170732
392.612645	3790.277219
392.996200	3865.390411
393.379694	3906.080084
393.763125	3973.245898
394.146494	3941.136268
394.529801	4002.653469
394.913047	4047.875139
395.296230	4015.175695
395.679351	4071.558480
396.062410	4091.707972
396.445408	4074.212647
396.828343	4106.256742
397.211217	4131.059219
397.594028	4049.067372
397.976778	4118.499184
398.359466	4141.484325
398.742092	4173.672092
399.124656	4094.878858
399.507158	4174.899613
399.889598	4197.254610
400.271977	4264.879168
400.654294	4232.436823
401.036549	4247.542640
401.418742	4210.003688
401.800874	4313.894307
402.182944	4332.443233
402.564952	4398.605856
402.946898	4387.986666
403.328783	4386.544896
403.710606	4298.072646
404.092367	4488.711440
404.474067	4453.783806
404.855705	4465.040702
405.237282	4392.775762
405.618797	4496.860465
406.000250	4532.627452
406.381642	4612.537302
406.762972	4577.675203
407.144240	4583.263322
407.525447	4584.170729
407.906593	4643.046365
408.287677	4690.299621
408.668700	4616.671048
409.049661	4669.300694
409.430560	4709.801324
409.811399	4639.482269
410.192176	4798.712155
410.572891	4735.042382
410.953545	4835.744471
411.334138	4719.127459
411.714669	4789.227224
412.095139	4681.081871
412.475547	4825.117719
412.855894	4803.463442
413.236180	4813.686902
413.616405	4766.902474
413.996568	4859.329509
414.376670	4795.271567
414.756711	4752.388992
415.136691	4785.471564
415.516609	4861.212380
415.896466	4898.716044
416.276262	4930.382052
416.655997	4912.329680
417.035670	5094.600159
417.415283	5183.279097
417.794834	5133.550634
418.174324	5087.865178
418.553753	4995.163400
418.933121	5173.973127
419.312428	5244.272017
419.691674	5182.648952
420.070859	5308.992871
420.449983	5217.982400
420.829045	5337.901367
421.208047	5242.351337
421.586988	5314.588551
421.965867	5322.656918
422.344686	5456.323112
422.723444	5311.556297
423.102141	5129.963853
423.480777	5434.701603
423.859352	5201.162590
424.237866	5457.112053
424.616319	5449.419252
424.994712	5561.678187
425.373044	5437.650678
425.751314	5579.319704
426.129524	5385.449530
426.507673	5577.557821
426.885762	5661.160317
427.263789	5591.121046
427.641756	5475.318180
428.019662	5594.264205
428.397508	5601.389876
428.775292	5549.614705
429.153016	5647.750847
429.530679	5574.097069
429.908282	5659.816849
430.285824	5533.120050
430.663305	5804.460156
431.040726	5536.878230
431.418086	5538.534249
431.795385	5644.655579
432.172624	5656.353576
432.549802	5652.527341
432.926920	5662.700389
433.303977	5668.558210
433.680974	5709.658737
434.057910	5727.723712
434.434786	5734.988015
434.811601	5704.791503
435.188355	5939.721875
435.565050	5814.393749
435.941683	5794.156037
436.318257	6009.635117
436.694770	5989.984700
437.071222	6024.662797
437.447614	5961.376152
437.823946	5868.931472
438.200218	6027.367376
438.576429	5890.452158
438.952580	5988.560574
439.328670	6033.948602
439.704700	5940.561227
440.080670	5930.962870
440.456580	6198.854827
440.832429	6081.675726
441.208218	5931.388848
441.583947	6083.785449
441.959616	6082.893165
442.335224	6011.729717
442.710773	6151.485625
443.086261	6179.932856
443.461689	5969.197502
443.837057	6119.635615
444.212365	6278.510099
444.587612	6168.010527
444.962800	6325.168498
445.337927	6305.308873
445.712995	5909.043933
446.088002	6489.684033
446.462949	6320.550801
446.837837	6251.963383
447.212664	6427.266987
447.587431	6566.387710
447.962139	7109.423323
448.336786	8033.902882
448.711374	7774.255733
449.085901	6848.954465
449.460369	6774.461335
449.834776	6705.208484
450.209124	7098.703309
450.583412	7247.671926
450.957640	7394.815645
451.331808	7161.258987
451.705917	6712.452622
452.079965	6637.052084
452.453954	6842.985739
452.827883	6720.306740
453.201752	6818.856256
453.575562	6616.922757
453.949311	6822.115362
454.323001	6707.156890
454.696632	6786.111441
455.070202	6920.264107
455.443713	7076.683549
455.817164	7176.379928
456.190556	7256.579645
456.563888	7331.526479
456.937160	7375.215639
457.310373	7030.783843
457.683526	7057.378450
458.056619	6948.892820
458.429653	6939.596932
458.802628	6873.474638
459.175542	6976.520863
459.548398	7337.651481
459.921194	7498.555029
460.293930	7497.786253
460.666607	8029.847274
461.039224	8340.367228
461.411782	8469.108215
461.784280	8485.988518
462.156719	8374.916776
462.529099	8254.750791
462.901419	7840.569591
463.273680	7735.990855
463.645882	7749.770849
464.018024	7615.703883
464.390106	7779.654809
464.762130	8166.238212
465.134094	8635.136096
465.505999	9655.344647
465.877845	10885.055990
466.249631	11531.536079
466.621358	11143.402521
466.993026	10510.788125
467.364634	10257.984342
467.736184	9897.549404
468.107674	9566.539681
468.479105	9595.549000
468.850477	9355.993370
469.221790	9134.147312
469.593043	8796.871435
469.964238	8666.764295
470.335373	8675.248557
470.706449	8733.867094
471.077467	8714.083086
471.448425	10029.199137
471.819324	11106.022366
472.190164	11125.761003
472.560945	9876.580724
472.931667	9088.381197
473.302330	8952.746432
473.672934	8594.287626
474.043479	8957.971588
474.413965	8895.539418
474.784393	8779.557592
475.154761	8934.716746
475.525070	9024.270323
475.895321	8847.197274
476.265513	9025.051702
476.635645	9193.292650
477.005719	9188.138070
477.375734	9309.697933
477.745691	9543.305002
478.115588	9678.841465
478.485427	9921.099154
478.855207	10462.566968
479.224928	11272.587130
479.594591	11903.527863
479.964194	11720.244112
480.333739	11650.061168
480.703226	11570.337841
481.072653	11666.248313
481.442022	11899.613407
481.811333	12083.948238
482.180584	11895.756924
482.549777	11599.291708
482.918912	11430.128229
483.287988	11450.461723
483.657005	11469.270268
484.025964	11138.568055
484.394864	11270.858014
484.763706	11247.572924
485.132489	10999.543114
485.501213	10965.041457
485.869879	11037.898733
486.238487	10879.850998
486.607036	10991.525159
486.975527	10772.504668
487.343959	10962.029368
487.712333	11006.129382
488.080648	10939.918867
488.448905	10980.734569
488.817104	10918.337687
489.185244	11182.549602
489.553326	11338.442243
489.921350	11878.483411
490.289315	12943.127212
490.657222	13285.603040
491.025070	13194.915203
491.392861	13069.019947
491.760593	12691.145137
492.128267	12338.455932
492.495883	12009.140036
492.863440	11676.383553
493.230939	11338.038951
493.598380	11274.807758
493.965763	11137.766511
494.333088	11041.195648
494.700354	10963.176230
495.067563	11023.705364
495.434713	10843.282468
495.801805	10978.942439
496.168839	10898.921683
496.535815	10837.631335
496.902733	10834.387352
497.269593	10767.602146
497.636395	10870.056036
498.003139	10855.613131
498.369825	10728.447504
498.736453	10880.065247
499.103023	10806.121603
499.469535	10839.181490
499.835989	10818.144755
500.202385	10793.662391
500.568723	10637.270675
500.935003	10865.619821
501.301226	10665.337299
501.667390	10921.485888
502.033497	11027.942454
502.399546	10883.215968
502.765537	10790.491505
503.131470	10866.151663
503.497345	11032.431602
503.863163	10650.004630
504.228923	10958.495519
504.594625	11020.436176
504.960269	10771.206571
505.325856	10996.246199
505.691385	10784.973962
506.056856	10941.428693
506.422270	10963.067845
506.787625	10851.166833
507.152924	10970.637138
507.518164	10950.303644
507.883347	10876.299505
508.248472	10790.269694
508.613540	11027.244254
508.978550	10907.491645
509.343503	10881.338139
509.708398	11001.678043
510.073236	11115.761875
510.438016	11112.628798
510.802738	11068.715307
511.167403	11118.163985
511.532010	11021.053717
511.896561	11242.201575
512.261053	11323.928761
512.625488	11194.353463
512.989866	11166.012096
513.354186	11156.590180
513.718449	11060.568802
514.082655	11250.567370
514.446803	11152.229582
514.810894	11272.642582
515.174927	11139.049485
515.538904	11162.989925
515.902822	11317.791156
516.266684	11204.191275
516.630488	11142.873200
516.994235	11199.016531
517.357925	11259.089440
517.721558	11347.463388
518.085133	11357.578463
518.448651	11371.595391
518.812112	11254.784295
519.175516	11274.104517
519.538863	11394.900646
519.902152	11312.601288
520.265385	11465.660802
520.628560	11375.232584
520.991678	11363.277487
521.354739	11411.228943
521.717743	11354.989831
522.080690	11332.241624
522.443580	11464.521501
522.806413	11418.810838
523.169189	11449.713111
523.531908	11512.067143
523.894569	11320.440283
524.257174	11333.829587
524.619722	11452.077412
524.982213	11399.788044
525.344647	11447.734458
525.707025	11393.572302
526.069345	11490.339770
526.431608	11413.815055
526.793815	11518.444203
527.155964	11311.197327
527.518057	11359.539472
527.880093	11310.287399
528.242072	11378.426155
528.603995	11282.417380
528.965860	11204.677746
529.327669	11256.329409
529.689421	11204.476100
530.051117	11176.134733
530.412755	11279.392687
530.774337	11171.151553
531.135862	11148.105918
531.497331	11176.522902
531.858743	11025.893225
532.220098	11193.677949
532.581396	11059.172402
532.942638	11048.021370
533.303824	11004.869093
533.664953	11017.046000
534.026025	10937.552045
534.387040	11041.606502
534.747999	11036.560307
535.108902	11097.001221
535.469748	10848.953766
535.830537	10949.544950
536.191270	10929.892012
536.551947	10954.434869
536.912567	10954.757503
537.273131	10877.211954
537.633638	10855.429128
537.994089	10844.590648
538.354483	10796.629110
538.714821	10943.142685
539.075103	10945.262490
539.435328	10914.758468
539.795497	10737.458567
540.155609	10898.394883
540.515665	10985.967287
540.875665	10721.785619
541.235609	10790.657863
541.595496	10782.592017
541.955328	10938.701428
542.315102	10825.850158
542.674821	10774.090111
543.034483	10778.266707
543.394090	10781.067068
543.753640	10707.859432
544.113134	10929.392938
544.472571	10782.876842
544.831953	10916.099415
545.191278	10731.724254
545.550548	10761.399006
545.909761	10899.022506
546.268918	10877.282530
546.628019	10955.715322
546.987064	10818.537965
547.346053	10744.145657
547.704986	10839.730975
548.063863	10824.930148
548.422684	10820.662811
548.781449	10729.309542
549.140158	10832.534728
549.498811	10713.994516
549.857408	10567.362474
550.215949	10791.789602
550.574434	10652.469754
550.932864	10744.589279
551.291237	10800.024327
551.649555	10750.794939
552.007817	10762.281208
552.366022	10728.573533
552.724173	10719.388551
553.082267	10702.147805
553.440305	10844.769609
553.798288	10643.219237
554.156215	10796.472834
554.514086	10777.029104
554.871902	10623.256267
555.229661	10661.274129
555.587365	10636.242280
555.945014	10530.693121
556.302606	10654.798767
556.660143	10544.279031
557.017625	10699.599501
557.375050	10599.915725
557.732421	10735.540408
558.089735	10655.348253
558.446994	10648.668724
558.804197	10684.342449
559.161345	10688.216576
559.518437	10532.570951
559.875474	10624.748449
560.232455	10650.412963
560.589381	10604.964441
560.946251	10593.387431
561.303065	10700.824502
561.659825	10629.250199
562.016528	10566.863400
562.373177	10440.973186
562.729770	10563.425333
563.086307	10475.467281
563.442789	10569.850284
563.799216	10441.920922
564.155587	10491.344395
564.511904	10443.428227
564.868164	10435.962279
565.224370	10455.741246
565.580520	10364.733295
565.936615	10380.179391
566.292654	10243.352393
566.648638	10374.402228
567.004567	10329.525877
567.360441	10314.563732
567.716260	10222.146779
568.072023	10321.177726
568.427732	10262.591957
568.783385	10181.976345
569.138982	10242.772660
569.494525	10263.726216
569.850013	10131.587492
570.205445	10210.912568
570.560823	10107.107649
570.916145	10026.728971
571.271412	10094.260268
571.626625	10042.374192
571.981782	10016.533238
572.336884	9991.113219
572.691931	9990.019289
573.046923	9935.446278
573.401860	9891.079083
573.756743	9823.169699
574.111570	9864.827274
574.466342	9851.463175
574.821059	9872.666268
575.175722	9768.873952
575.530330	9769.945197
575.884882	9762.078477
576.239380	9688.459986
576.593823	9663.037447
576.948211	9673.061782
577.302544	9557.649606
577.656823	9565.591944
578.011047	9569.309795
578.365216	9532.252273
578.719330	9453.380900
579.073389	9463.808527
579.427394	9410.790712
579.781344	9383.354232
580.135239	9332.587292
580.489080	9337.973765
580.842866	9231.179442
581.196597	9234.388136
581.550273	9268.436089
581.903895	9237.271676
582.257463	9296.394328
582.610975	9171.015791
582.964434	9197.045789
583.317837	9112.921534
583.671186	9099.096170
584.024481	9079.907018
584.377721	8995.182865
584.730906	8972.522879
585.084037	8998.941046
585.437113	8935.152805
585.790135	8943.420298
586.143103	8842.708126
586.496016	8804.294534
586.848874	8857.932411
587.201679	8844.235596
587.554428	8723.938542
587.907124	8762.251311
588.259765	8734.058658
588.612352	8726.532215
588.964884	8600.125282
589.317362	8611.848486
589.669786	8602.202238
590.022155	8646.335019
590.374470	8655.358685
590.726731	8595.563038
591.078937	8439.441024
591.431090	8541.713433
591.783188	8407.316271
592.135232	8394.158860
592.487222	8388.142243
592.839157	8429.711597
593.191038	8358.787604
593.542866	8299.896845
593.894639	8194.342645
594.246358	8237.628512
594.598022	8242.891477
594.949633	8136.830641
595.301190	8099.652132
595.652692	8121.873538
596.004141	8221.388435
596.355535	7999.708736
596.706876	7972.375600
597.058162	7898.265597
597.409395	7959.926470
597.760573	8010.572422
598.111698	7915.650016
598.462768	7892.259062
598.813785	7857.797735
599.164748	7810.468862
599.515657	7795.630225
599.866511	7698.368724
600.217312	7813.886764
600.568060	7670.017274
600.918753	7748.079542
601.269392	7714.336578
601.619978	7613.667257
601.970510	7666.687592
602.320988	7651.922053
602.671412	7689.657610
603.021783	7620.172866
603.372100	7587.909481
603.722363	7574.179899
604.072572	7543.670836
604.422728	7539.189250
604.772830	7459.087836
605.122878	7454.608771
605.472872	7440.722912
605.822813	7454.533153
606.172701	7390.921353
606.522534	7446.154756
606.872314	7429.539113
607.222041	7388.793987
607.571714	7425.521313
607.921333	7370.771862
608.270899	7359.446909
608.620411	7431.618588
608.969870	7335.314906
609.319276	7307.767521
609.668627	7309.877244
610.017926	7325.436765
610.367171	7345.293870
610.716362	7317.098697
611.065500	7287.577700
611.414585	7285.349510
611.763616	7267.153465
612.112594	7232.918989
612.461518	7226.552012
612.810389	7258.258349
613.159207	7191.858791
613.507971	7131.843854
613.856682	7215.380815
614.205340	7161.848802
614.553945	7205.840431
614.902496	7105.339988
615.250994	7135.455841
615.599439	7100.477795
615.947830	7087.688388
616.296169	7051.150105
616.644454	7039.505039
616.992686	7024.341249
617.340864	7046.260186
617.688990	6948.053467
618.037063	7004.960533
618.385082	6943.118178
618.733048	6989.630384
619.080961	6928.667710
619.428821	6921.073212
619.776628	6900.742239
620.124382	6844.306521
620.472083	6808.700852
620.819731	6811.123126
621.167326	6715.134516
621.514868	6704.379214
621.862357	6607.762980
622.209793	6603.541014
622.557176	6533.353029
622.904506	6494.082440
623.251783	6432.156906
623.599007	6383.217385
623.946179	6361.762234
624.293297	6313.248690
624.640363	6245.430047
624.987376	6217.406273
625.334336	6160.642881
625.681243	6102.183140
626.028097	6078.230098
626.374899	6052.502569
626.721647	6019.228433
627.068343	5958.795081
627.414987	5922.980203
627.761577	5865.379979
628.108115	5879.134768
628.454600	5789.682013
628.801032	5801.614424
629.147412	5769.242655
629.493739	5741.773408
629.840014	5679.537843
630.186236	5699.135328
630.532405	5605.634527
630.878521	5623.669255
631.224585	5576.494138
631.570597	5511.901833
631.916556	5512.136247
632.262462	5494.164534
632.608316	5448.491680
632.954117	5423.540489
633.299866	5402.193723
633.645562	5370.880596
633.991206	5312.113345
634.336797	5254.452627
634.682336	5217.377461
635.027823	5180.103170
635.373257	5161.468544
635.718639	5098.683494
636.063968	5093.158389
636.409245	5019.028222
636.754470	4995.692721
637.099642	4961.642247
637.444762	4913.698353
637.789829	4900.813164
638.134845	4853.428839
638.479808	4831.429243
638.824719	4820.084127
639.169577	4769.407927
639.514383	4764.003811
639.859137	4706.212023
640.203839	4705.586920
640.548489	4678.576417
