Dividing Wavelength (nm)	Counts (n)	Blue Motor Position (mm): 0.000000	Red Motor Position (mm): 37.400000	
326.493990	2130.000926
326.888308	2130.000926
327.282561	2130.000926
327.676750	2096.142016
328.070874	2093.694536
328.464933	2098.259301
328.858929	2104.724581
329.252859	2114.433843
329.646726	2126.043620
330.040528	2135.866308
330.434265	2154.392549
330.827938	2171.479540
331.221547	2190.507375
331.615091	2209.825077
332.008571	2229.488097
332.401986	2249.710686
332.795338	2266.207862
333.188625	2286.120419
333.581847	2305.959880
333.975006	2323.982005
334.368100	2340.514469
334.761129	2361.102542
335.154095	2374.743904
335.546996	2396.196534
335.939833	2418.301994
336.332606	2432.465116
336.725315	2445.103288
337.117960	2451.555965
337.510540	2461.421503
337.903056	2474.289048
338.295508	2480.497229
338.687896	2490.040134
339.080220	2500.349293
339.472480	2505.100581
339.864676	2510.398833
340.256807	2514.593073
340.648875	2515.409740
341.040879	2518.656243
341.432818	2520.569361
341.824694	2520.733199
342.216506	2520.733199
342.608253	2524.748478
342.999937	2522.235463
343.391557	2520.372756
343.783113	2522.086749
344.174605	2520.377798
344.566033	2516.405368
344.957397	2518.585667
345.348697	2516.697755
345.739934	2513.284894
346.131106	2510.852537
346.522215	2512.064935
346.913260	2507.364059
347.304241	2506.940602
347.695159	2506.267608
348.086012	2503.530261
348.476802	2503.021105
348.867528	2499.164622
349.258191	2499.353665
349.648789	2498.920126
350.039324	2496.331494
350.429796	2495.925681
350.820203	2492.170021
351.210548	2492.341420
351.600828	2495.260248
351.991045	2494.854436
352.381198	2491.580206
352.771288	2491.159270
353.161314	2491.686070
353.551276	2490.483755
353.941175	2488.298415
354.331010	2492.427120
354.720782	2489.538539
355.110490	2493.420227
355.500135	2488.845380
355.889717	2491.091214
356.279235	2492.371667
356.668689	2493.841164
357.058080	2491.764208
357.447408	2490.753457
357.836672	2490.256903
358.225873	2489.924187
358.615010	2488.827736
359.004084	2493.878972
359.393095	2493.803355
359.782043	2494.481390
360.170927	2495.446771
360.559748	2495.086329
360.948505	2496.328973
361.337199	2497.793428
361.725830	2498.257214
362.114398	2500.777791
362.502903	2499.366268
362.891344	2500.003974
363.279722	2500.092194
363.668037	2503.048831
364.056289	2500.102277
364.444478	2503.603358
364.832603	2502.948008
365.220665	2504.515807
365.608665	2504.014212
365.996601	2506.749038
366.384474	2508.553771
366.772284	2507.681652
367.160031	2509.456138
367.547715	2510.905469
367.935336	2514.550224
368.322893	2515.104751
368.710388	2518.988960
369.097820	2524.566996
369.485189	2529.502286
369.872495	2537.981507
370.259738	2539.229192
370.646918	2549.747560
371.034035	2554.791234
371.421090	2565.722976
371.808081	2579.790316
372.195010	2584.672674
372.581875	2599.342431
372.968678	2611.007661
373.355418	2622.544342
373.742096	2639.495222
374.128710	2654.921153
374.515262	2669.275838
374.901751	2685.498271
375.288177	2697.413038
375.674540	2722.565875
376.060841	2738.241343
376.447079	2758.920156
376.833254	2780.002262
377.219367	2792.348047
377.605417	2830.880107
377.991404	2839.525686
378.377329	2863.226671
378.763191	2878.188815
379.148991	2919.548962
379.534727	2938.239040
379.920402	2969.978144
380.306013	2982.767552
380.691563	3031.560880
381.077049	3054.863613
381.462474	3070.317271
381.847835	3110.434773
382.233134	3134.896972
382.618371	3131.075777
383.003545	3199.383412
383.388657	3210.017726
383.773706	3239.783219
384.158693	3257.976743
384.543618	3281.687810
384.928480	3316.741473
385.313280	3365.668392
385.698017	3365.686036
386.082692	3415.903490
386.467305	3422.709048
386.851856	3455.847073
387.236344	3478.691061
387.620770	3509.731966
388.005133	3534.186603
388.389435	3561.736509
388.773674	3573.031214
389.157851	3613.458748
389.541965	3631.538846
389.926018	3594.705655
390.310008	3666.153929
390.693936	3685.113708
391.077802	3727.749267
391.461606	3717.697206
391.845348	3778.322123
392.229027	3777.875980
392.612645	3790.700676
392.996200	3867.865618
393.379694	3908.754417
393.763125	3974.448213
394.146494	3942.023511
394.529801	4002.789580
394.913047	4047.113925
395.296230	4013.948174
395.679351	4073.332966
396.062410	4090.596397
396.445408	4080.168771
396.828343	4111.663379
397.211217	4132.165752
397.594028	4052.225655
397.976778	4121.070173
398.359466	4147.042197
398.742092	4174.035055
399.124656	4099.962861
399.507158	4178.357845
399.889598	4202.983881
400.271977	4265.151391
400.654294	4236.633583
401.036549	4247.315788
401.418742	4214.356724
401.800874	4317.113084
402.182944	4340.723328
402.564952	4399.200712
402.946898	4391.034043
403.328783	4388.029516
403.710606	4300.918377
404.092367	4495.239734
404.474067	4454.774392
404.855705	4468.130930
405.237282	4393.237027
405.618797	4496.164786
406.000250	4534.694325
406.381642	4618.075010
406.762972	4580.588990
407.144240	4591.407306
407.525447	4589.547120
407.906593	4649.360410
408.287677	4689.540927
408.668700	4621.417295
409.049661	4671.632228
409.430560	4711.633784
409.811399	4638.784070
410.192176	4799.337258
410.572891	4739.309718
410.953545	4838.948124
411.334138	4721.910176
411.714669	4794.500271
412.095139	4685.142520
412.475547	4826.950178
412.855894	4804.653155
413.236180	4815.403415
413.616405	4767.474645
413.996568	4859.377400
414.376670	4801.260458
414.756711	4751.799177
415.136691	4784.780926
415.516609	4870.137743
415.896466	4900.525818
416.276262	4937.578299
416.655997	4914.134413
417.035670	5099.570737
417.415283	5191.687741
417.794834	5134.952075
418.174324	5087.224951
418.553753	4994.021578
418.933121	5179.316750
419.312428	5246.989199
419.691674	5182.991751
420.070859	5312.977903
420.449983	5224.989603
420.829045	5336.673846
421.208047	5247.180763
421.586988	5316.635260
421.965867	5327.904759
422.344686	5460.565243
422.723444	5313.449251
423.102141	5137.518023
423.480777	5432.506181
423.859352	5202.324576
424.237866	5460.958453
424.616319	5455.032577
424.994712	5562.688938
425.373044	5439.294095
425.751314	5584.237350
426.129524	5387.264346
426.507673	5578.591258
426.885762	5665.236089
427.263789	5591.171457
427.641756	5474.546883
428.019662	5602.246872
428.397508	5604.487665
428.775292	5546.569848
429.153016	5652.950797
429.530679	5573.913067
429.908282	5657.795346
430.285824	5534.009814
430.663305	5806.166586
431.040726	5535.887643
431.418086	5542.347882
431.795385	5648.890148
432.172624	5661.974463
432.549802	5653.593545
432.926920	5663.874978
433.303977	5670.977964
433.680974	5711.201330
434.057910	5729.402416
434.434786	5739.144446
434.811601	5706.858376
435.188355	5942.262617
435.565050	5812.261341
435.941683	5795.698630
436.318257	6013.123596
436.694770	5989.780533
437.071222	6027.248909
437.447614	5959.218538
437.823946	5873.589498
438.200218	6027.029619
438.576429	5895.084978
438.952580	5994.907386
439.328670	6030.815525
439.704700	5940.490651
440.080670	5928.283497
440.456580	6199.764755
440.832429	6085.794349
441.208218	5924.270739
441.583947	6084.244194
441.959616	6086.837868
442.335224	6011.921281
442.710773	6151.730121
443.086261	6182.806314
443.461689	5976.149253
443.837057	6118.811386
444.212365	6278.651251
444.587612	6167.093037
444.962800	6324.384599
445.337927	6304.129243
445.712995	5918.365027
446.088002	6494.193346
446.462949	6319.224978
446.837837	6251.877683
447.212664	6428.910403
447.587431	6567.015333
447.962139	7112.301822
448.336786	8038.170219
448.711374	7780.521887
449.085901	6853.753644
449.460369	6777.251613
449.834776	6705.316869
450.209124	7094.995540
450.583412	7248.806185
450.957640	7392.736169
451.331808	7159.557598
451.705917	6713.254165
452.079965	6634.753318
452.453954	6846.554876
452.827883	6724.455609
453.201752	6816.013045
453.575562	6615.591892
453.949311	6822.911864
454.323001	6711.598146
454.696632	6788.042203
455.070202	6921.610095
455.443713	7075.420740
455.817164	7176.826070
456.190556	7262.074502
456.563888	7328.045562
456.937160	7380.324848
457.310373	7036.969339
457.683526	7057.116310
458.056619	6942.467869
458.429653	6941.726819
458.802628	6876.829525
459.175542	6981.637634
459.548398	7337.243147
459.921194	7495.691654
460.293930	7501.650298
460.666607	8033.020681
461.039224	8337.216507
461.411782	8463.446999
461.784280	8483.372159
462.156719	8377.013896
462.529099	8253.480421
462.901419	7844.158893
463.273680	7736.550423
463.645882	7748.371929
464.018024	7611.446628
464.390106	7778.636496
464.762130	8165.965990
465.134094	8630.483111
465.505999	9662.412344
465.877845	10883.349559
466.249631	11527.936696
466.621358	11149.651032
466.993026	10520.136945
467.364634	10263.078428
467.736184	9896.856245
468.107674	9558.551972
468.479105	9593.328372
468.850477	9360.517805
469.221790	9135.699988
469.593043	8807.838465
469.964238	8672.241509
470.335373	8680.461110
470.706449	8737.355572
471.077467	8718.635248
471.448425	10023.840390
471.819324	11100.948444
472.190164	11133.542024
472.560945	9880.205314
472.931667	9087.763656
473.302330	8957.205333
473.672934	8596.631763
474.043479	8954.097462
474.413965	8894.475735
474.784393	8775.300337
475.154761	8932.246580
475.525070	9022.952061
475.895321	8847.958488
476.265513	9023.539356
476.635645	9193.837094
477.005719	9192.100417
477.375734	9307.552922
477.745691	9543.557060
478.115588	9675.922637
478.485427	9919.874154
478.855207	10457.054466
479.224928	11272.529157
479.594591	11905.035168
479.964194	11714.792104
480.333739	11655.639205
480.703226	11569.395145
481.072653	11653.408494
481.442022	11900.591391
481.811333	12094.958118
482.180584	11899.472255
482.549777	11601.976122
482.918912	11423.390727
483.287988	11447.575662
483.657005	11465.990997
484.025964	11140.455967
484.394864	11277.547625
484.763706	11243.235012
485.132489	11003.087045
485.501213	10968.471962
485.869879	11039.486697
486.238487	10877.189269
486.607036	10997.985398
486.975527	10773.243197
487.343959	10958.266146
487.712333	11010.479897
488.080648	10946.179980
488.448905	10982.715743
488.817104	10924.976887
489.185244	11194.797085
489.553326	11340.975423
489.921350	11880.686395
490.289315	12942.663426
490.657222	13286.916260
491.025070	13195.729349
491.392861	13062.594996
491.760593	12688.498531
492.128267	12337.664470
492.495883	12010.962413
492.863440	11674.982112
493.230939	11343.364930
493.598380	11269.290215
493.965763	11130.686211
494.333088	11039.940400
494.700354	10959.985180
495.067563	11024.806857
495.434713	10852.762358
495.801805	10978.713066
496.168839	10903.430995
496.535815	10839.483959
496.902733	10836.933135
497.269593	10773.654051
497.636395	10862.965653
498.003139	10860.573626
498.369825	10723.171937
498.736453	10888.932637
499.103023	10815.067130
499.469535	10844.850267
499.835989	10820.178860
500.202385	10779.050607
500.568723	10635.778494
500.935003	10861.642351
501.301226	10667.598257
501.667390	10925.629716
502.033497	11022.591269
502.399546	10881.035669
502.765537	10790.307503
503.131470	10865.309790
503.497345	11039.748837
503.863163	10648.419187
504.228923	10960.648092
504.594625	11025.976404
504.960269	10775.494073
505.325856	10993.932310
505.691385	10783.164188
506.056856	10944.458426
506.422270	10956.388317
506.787625	10853.523572
507.152924	10973.921450
507.518164	10953.751793
507.883347	10864.626714
508.248472	10787.854982
508.613540	11020.955415
508.978550	10905.860832
509.343503	10873.690708
509.708398	11000.352219
510.073236	11108.137130
510.438016	11119.479726
510.802738	11068.838815
511.167403	11117.576690
511.532010	11015.180773
511.896561	11240.417007
512.261053	11313.211268
512.625488	11184.611433
512.989866	11165.729792
513.354186	11157.205201
513.718449	11057.569315
514.082655	11250.998388
514.446803	11144.914868
514.810894	11266.036150
515.174927	11135.351799
515.538904	11154.137658
515.902822	11308.661627
516.266684	11194.852537
516.630488	11140.047633
516.994235	11194.424039
517.357925	11256.614234
517.721558	11341.532470
518.085133	11355.486384
518.448651	11369.457942
518.812112	11247.225085
519.175516	11265.453897
519.538863	11389.793957
519.902152	11301.331789
520.265385	11459.578649
520.628560	11372.013807
520.991678	11348.592606
521.354739	11408.421020
521.717743	11350.344407
522.080690	11330.020996
522.443580	11452.926847
522.806413	11405.454301
523.169189	11437.518560
523.531908	11500.946358
523.894569	11311.545167
524.257174	11316.089767
524.619722	11435.837335
524.982213	11376.260979
525.344647	11430.239134
525.707025	11383.585776
526.069345	11470.971657
526.431608	11383.477391
526.793815	11499.786893
527.155964	11278.742379
527.518057	11336.501399
527.880093	11281.149530
528.242072	11358.773217
528.603995	11249.218861
528.965860	11174.009887
529.327669	11229.134904
529.689421	11172.731954
530.051117	11138.096707
530.412755	11243.600495
530.774337	11134.406582
531.135862	11110.597213
531.497331	11134.595626
531.858743	10977.321708
532.220098	11141.411266
532.581396	11015.029539
532.942638	10986.920065
533.303824	10950.452358
533.664953	10957.678852
534.026025	10872.813548
534.387040	10965.825357
534.747999	10959.753287
535.108902	11019.886690
535.469748	10775.347879
535.830537	10865.070335
536.191270	10841.886069
536.551947	10867.548062
536.912567	10856.684376
537.273131	10776.651017
537.633638	10747.656821
537.994089	10736.755326
538.354483	10679.737355
538.714821	10816.972686
539.075103	10825.066259
539.435328	10775.093301
539.795497	10598.791548
540.155609	10746.149516
540.515665	10823.649695
540.875665	10562.769983
541.235609	10620.672676
541.595496	10610.683630
541.955328	10753.159240
542.315102	10627.949582
542.674821	10576.988558
543.034483	10568.569831
543.394090	10558.321165
543.753640	10479.570780
544.113134	10689.683552
544.472571	10537.002125
544.831953	10669.216467
545.191278	10473.942332
545.550548	10490.820115
545.909761	10608.463002
546.268918	10561.618079
546.628019	10636.033072
546.987064	10489.864816
547.346053	10411.885728
547.704986	10487.258540
548.063863	10464.827926
548.422684	10445.784967
548.781449	10351.966573
549.140158	10431.894067
549.498811	10305.250201
549.857408	10158.222428
550.215949	10340.689512
550.574434	10197.760198
550.932864	10270.809037
551.291237	10317.028857
551.649555	10247.221479
552.007817	10242.223175
552.366022	10198.052585
552.724173	10166.507564
553.082267	10134.453388
553.440305	10231.641793
553.798288	10043.291682
554.156215	10162.426750
554.514086	10114.956725
554.871902	9965.468870
555.229661	9980.678031
555.587365	9935.206823
555.945014	9820.225666
556.302606	9899.396987
556.660143	9796.164238
557.017625	9904.899406
557.375050	9792.529566
557.732421	9889.566737
558.089735	9786.785172
558.446994	9763.406821
558.804197	9771.971741
559.161345	9749.478113
559.518437	9595.601932
559.875474	9639.646494
560.232455	9638.696236
560.589381	9581.993338
560.946251	9535.307212
561.303065	9616.484912
561.659825	9528.748671
562.016528	9442.197100
562.373177	9320.778389
562.729770	9369.354948
563.086307	9282.311865
563.442789	9334.797838
563.799216	9187.046660
564.155587	9201.691212
564.511904	9136.947673
564.868164	9090.100231
565.224370	9085.540507
565.580520	8975.330802
565.936615	8966.039955
566.292654	8825.386722
566.648638	8903.746417
567.004567	8829.306219
567.360441	8790.713665
567.716260	8681.910442
568.072023	8728.089932
568.427732	8648.943816
568.783385	8558.903767
569.138982	8563.614726
569.494525	8551.652068
569.850013	8422.215402
570.205445	8441.994369
570.560823	8334.622833
570.916145	8229.855053
571.271412	8252.469669
571.626625	8173.802463
571.981782	8129.468036
572.336884	8069.768172
572.691931	8053.535656
573.046923	7959.777756
573.401860	7897.388436
573.756743	7817.360119
574.111570	7815.890623
574.466342	7774.961495
574.821059	7758.035821
575.175722	7643.311762
575.530330	7619.073894
575.884882	7577.781803
576.239380	7483.025755
576.593823	7437.171419
576.948211	7412.898264
577.302544	7309.075700
577.656823	7266.019205
578.011047	7236.775472
578.365216	7184.271854
578.719330	7103.938547
579.073389	7068.642909
579.427394	7013.583426
579.781344	6968.545758
580.135239	6890.269242
580.489080	6865.698658
580.842866	6765.793071
581.196597	6732.750828
581.550273	6726.671196
581.903895	6667.649367
582.257463	6681.588158
582.610975	6558.611730
582.964434	6552.073353
583.317837	6467.059335
583.671186	6432.676145
584.024481	6393.496297
584.377721	6316.517878
584.730906	6269.302431
585.084037	6248.343834
585.437113	6194.690834
585.790135	6159.790926
586.143103	6075.835550
586.496016	6031.551534
586.848874	6022.434607
587.201679	5997.788406
587.554428	5896.438528
587.907124	5884.813628
588.259765	5843.657648
588.612352	5804.639117
588.964884	5723.526951
589.317362	5691.440007
589.669786	5659.564791
590.022155	5662.521428
590.374470	5628.531448
590.726731	5578.997071
591.078937	5464.295697
591.431090	5482.630374
591.783188	5407.365947
592.135232	5362.318196
592.487222	5345.442933
592.839157	5331.486499
593.191038	5276.376605
593.542866	5222.002720
593.894639	5146.781143
594.246358	5141.682016
594.598022	5121.277945
594.949633	5047.162902
595.301190	5006.561448
595.652692	4992.418491
596.004141	5002.621787
596.355535	4887.166761
596.706876	4850.865412
597.058162	4797.086383
597.409395	4805.757167
597.760573	4799.291887
598.111698	4743.680399
598.462768	4702.191703
598.813785	4678.692364
599.164748	4626.891988
599.515657	4609.983958
599.866511	4540.284965
600.217312	4571.966096
600.568060	4491.773941
600.918753	4505.012011
601.269392	4464.897029
601.619978	4413.396602
601.970510	4408.186569
602.320988	4385.876943
602.671412	4373.538719
603.021783	4335.036906
603.372100	4303.454078
603.722363	4271.402421
604.072572	4250.892487
604.422728	4230.926997
604.772830	4186.716078
605.122878	4161.134743
605.472872	4143.795694
605.822813	4120.790388
606.172701	4088.113629
606.522534	4090.992128
606.872314	4069.673088
607.222041	4034.153118
607.571714	4031.312428
607.921333	4000.732789
608.270899	3977.177998
608.620411	3979.779233
608.969870	3938.290537
609.319276	3920.497784
609.668627	3904.630753
610.017926	3897.240421
610.367171	3884.453534
610.716362	3860.508054
611.065500	3841.449972
611.414585	3822.114626
611.763616	3804.485711
612.112594	3780.522586
612.461518	3765.862911
612.810389	3761.093979
613.159207	3725.357240
613.507971	3701.626008
613.856682	3707.768654
614.205340	3679.918799
614.553945	3682.497350
614.902496	3641.749703
615.250994	3635.430617
615.599439	3615.124849
615.947830	3598.627673
616.296169	3582.311979
616.644454	3570.752613
616.992686	3552.428019
617.340864	3548.947102
617.688990	3515.075589
618.037063	3523.443905
618.385082	3501.219978
618.733048	3500.093280
619.080961	3477.760968
619.428821	3466.725883
619.776628	3452.963533
620.124382	3430.951334
620.472083	3410.121287
620.819731	3402.299937
621.167326	3369.237529
621.514868	3355.734798
621.862357	3325.782783
622.209793	3316.229796
622.557176	3291.364305
622.904506	3268.079215
623.251783	3247.297059
623.599007	3228.002042
623.946179	3213.735577
624.293297	3194.377546
624.640363	3176.141172
624.987376	3162.646003
625.334336	3150.043119
625.681243	3127.972947
626.028097	3120.219652
626.374899	3107.669700
626.721647	3092.314345
627.068343	3079.819846
627.414987	3065.172773
627.761577	3049.083931
628.108115	3046.966646
628.454600	3030.504758
628.801032	3023.376567
629.147412	3017.606966
629.493739	3004.550378
629.840014	2993.230467
630.186236	2988.481700
630.532405	2969.196766
630.878521	2967.893627
631.224585	2958.890127
631.570597	2943.922941
631.916556	2942.024946
632.262462	2935.199224
632.608316	2925.056423
632.954117	2916.042839
633.299866	2909.441448
633.645562	2901.274779
633.991206	2891.336144
634.336797	2874.816283
634.682336	2866.531147
635.027823	2856.307687
635.373257	2852.080679
635.718639	2836.768175
636.063968	2835.649038
636.409245	2818.037767
636.754470	2814.133394
637.099642	2809.901345
637.444762	2800.275262
637.789829	2794.455250
638.134845	2787.138015
638.479808	2782.651388
638.824719	2776.602003
639.169577	2767.711929
639.514383	2766.854932
639.859137	2755.638365
640.203839	2755.713982
640.548489	2752.747263
640.893086	2744.673856
641.237632	2735.766137
