Dividing Wavelength (nm)	Counts (n)	Blue Motor Position (mm): 0.000000	Red Motor Position (mm): 3.800000	
326.493990	2128.665020
326.888308	2128.665020
327.282561	2128.665020
327.676750	2095.453899
328.070874	2096.303333
328.464933	2096.462129
328.858929	2104.338932
329.252859	2114.617845
329.646726	2123.081942
330.040528	2137.265229
330.434265	2152.534884
330.827938	2170.846875
331.221547	2189.015193
331.615091	2210.336754
332.008571	2228.341235
332.401986	2247.810171
332.795338	2265.479415
333.188625	2284.746705
333.581847	2306.481640
333.975006	2322.953610
334.368100	2342.195694
334.761129	2356.820082
335.154095	2375.915972
335.546996	2394.417007
335.939833	2407.375293
336.332606	2421.694690
336.725315	2434.199273
337.117960	2444.455500
337.510540	2450.633434
337.903056	2463.637090
338.295508	2466.911320
338.687896	2478.516056
339.080220	2485.513178
339.472480	2494.569610
339.864676	2499.986330
340.256807	2505.508914
340.648875	2503.557988
341.040879	2508.115191
341.432818	2509.529234
341.824694	2509.763648
342.216506	2510.789523
342.608253	2509.390603
342.999937	2510.545027
343.391557	2512.644668
343.783113	2509.788854
344.174605	2508.831035
344.566033	2506.776764
344.957397	2504.359531
345.348697	2503.424397
345.739934	2503.610920
346.131106	2500.001454
346.522215	2501.407936
346.913260	2498.105980
347.304241	2493.828561
347.695159	2493.962151
348.086012	2495.419045
348.476802	2489.220946
348.867528	2489.863693
349.258191	2487.391007
349.648789	2485.503095
350.039324	2484.802375
350.429796	2483.418578
350.820203	2483.416057
351.210548	2481.329020
351.600828	2480.444297
351.991045	2478.987404
352.381198	2479.930100
352.771288	2478.574029
353.161314	2476.945737
353.551276	2477.974132
353.941175	2478.979842
354.331010	2476.981025
354.720782	2478.803402
355.110490	2479.294914
355.500135	2480.282980
355.889717	2477.548154
356.279235	2478.508494
356.668689	2479.289873
357.058080	2476.875160
357.447408	2476.043370
357.836672	2479.186529
358.225873	2475.970273
358.615010	2476.567650
359.004084	2480.978660
359.393095	2480.232569
359.782043	2480.782055
360.170927	2481.381952
360.559748	2485.472848
360.948505	2483.199288
361.337199	2481.104688
361.725830	2485.132570
362.114398	2483.973105
362.502903	2485.114926
362.891344	2487.663230
363.279722	2487.428816
363.668037	2486.470997
364.056289	2484.638537
364.444478	2487.385966
364.832603	2488.242962
365.220665	2490.909733
365.608665	2487.564927
365.996601	2490.556852
366.384474	2490.745895
366.772284	2489.283961
367.160031	2491.045844
367.547715	2493.710094
367.935336	2494.930053
368.322893	2496.303767
368.710388	2494.055413
369.097820	2499.099087
369.485189	2501.095384
369.872495	2503.144613
370.259738	2501.750734
370.646918	2508.742814
371.034035	2504.382216
371.421090	2507.600993
371.808081	2510.653412
372.195010	2514.351098
372.581875	2511.260871
372.968678	2515.008969
373.355418	2515.457631
373.742096	2519.306552
374.128710	2518.532735
374.515262	2521.438960
374.901751	2522.888292
375.288177	2520.748322
375.674540	2521.620442
376.060841	2523.783097
376.447079	2522.774866
376.833254	2524.100690
377.219367	2519.949299
377.605417	2523.470545
377.991404	2519.631707
378.377329	2521.408713
378.763191	2518.565503
379.148991	2524.655217
379.534727	2521.441481
379.920402	2522.243024
380.306013	2520.627335
380.691563	2522.237983
381.077049	2518.953672
381.462474	2518.106758
381.847835	2518.386542
382.233134	2518.424350
382.618371	2518.464680
383.003545	2518.305883
383.388657	2512.816067
383.773706	2513.214318
384.158693	2510.126611
384.543618	2509.100736
384.928480	2508.720129
385.313280	2510.570233
385.698017	2510.063597
386.082692	2512.344719
386.467305	2506.867505
386.851856	2507.366579
387.236344	2504.732577
387.620770	2507.961436
388.005133	2504.024294
388.389435	2506.141579
388.773674	2504.727535
389.157851	2502.922802
389.541965	2504.775426
389.926018	2504.430107
390.310008	2505.796260
390.693936	2506.194511
391.077802	2503.089160
391.461606	2502.151506
391.845348	2505.622340
392.229027	2506.988493
392.612645	2505.108143
392.996200	2504.883811
393.379694	2507.200221
393.763125	2505.892042
394.146494	2506.774244
394.529801	2506.244923
394.913047	2506.524707
395.296230	2507.918586
395.679351	2506.723832
396.062410	2506.018071
396.445408	2509.073010
396.828343	2507.477485
397.211217	2503.167298
397.594028	2504.659480
397.976778	2503.013543
398.359466	2507.112001
398.742092	2502.509428
399.124656	2505.410612
399.507158	2509.012516
399.889598	2506.935561
400.271977	2508.536127
400.654294	2507.895901
401.036549	2509.962774
401.418742	2511.223062
401.800874	2510.192146
402.182944	2508.969666
402.564952	2509.682990
402.946898	2508.712567
403.328783	2509.776251
403.710606	2509.435973
404.092367	2509.168792
404.474067	2510.366066
404.855705	2512.395130
405.237282	2510.597959
405.618797	2511.611231
406.000250	2510.744153
406.381642	2511.560819
406.762972	2509.519152
407.144240	2510.734070
407.525447	2513.007631
407.906593	2510.565192
408.287677	2513.393279
408.668700	2512.742970
409.049661	2512.695079
409.430560	2511.162568
409.811399	2514.013341
410.192176	2513.662981
410.572891	2513.216838
410.953545	2514.182219
411.334138	2511.091992
411.714669	2513.902435
412.095139	2514.058711
412.475547	2513.657939
412.855894	2514.613238
413.236180	2514.220028
413.616405	2514.746829
413.996568	2516.402848
414.376670	2515.402179
414.756711	2513.010151
415.136691	2515.243382
415.516609	2512.995028
415.896466	2516.559123
416.276262	2515.755059
416.655997	2514.272960
417.035670	2510.497136
417.415283	2515.855883
417.794834	2512.231293
418.174324	2517.673218
418.553753	2515.490399
418.933121	2516.380163
419.312428	2513.960409
419.691674	2519.246058
420.070859	2514.633403
420.449983	2512.947137
420.829045	2515.823115
421.208047	2516.896881
421.586988	2518.212622
421.965867	2518.212622
422.344686	2518.232787
422.723444	2519.914011
423.102141	2517.675739
423.480777	2518.147087
423.859352	2517.791686
424.237866	2517.587519
424.616319	2517.141377
424.994712	2518.936028
425.373044	2518.457118
425.751314	2518.363857
426.129524	2517.274967
426.507673	2518.139525
426.885762	2518.200019
427.263789	2517.925276
427.641756	2518.336130
428.019662	2520.546676
428.397508	2519.520801
428.775292	2519.372087
429.153016	2519.997190
429.530679	2522.079187
429.908282	2518.341171
430.285824	2520.158507
430.663305	2517.965605
431.040726	2518.411747
431.418086	2515.699607
431.795385	2521.196985
432.172624	2519.961902
432.549802	2520.256810
432.926920	2522.424506
433.303977	2519.745133
433.680974	2524.309898
434.057910	2519.334279
434.434786	2521.133971
434.811601	2520.460977
435.188355	2522.132119
435.565050	2523.107582
435.941683	2520.834022
436.318257	2518.043743
436.694770	2517.368229
437.071222	2520.942407
437.447614	2518.797396
437.823946	2518.462159
438.200218	2520.130781
438.576429	2521.973323
438.952580	2524.912315
439.328670	2522.860566
439.704700	2523.679753
440.080670	2521.559948
440.456580	2522.237983
440.832429	2522.114475
441.208218	2523.619259
441.583947	2521.171779
441.959616	2522.492562
442.335224	2524.135978
442.710773	2523.599095
443.086261	2523.286543
443.461689	2522.174969
443.837057	2524.425844
444.212365	2522.255627
444.587612	2523.450381
444.962800	2525.928108
445.337927	2525.207223
445.712995	2520.211439
446.088002	2524.382994
446.462949	2522.492562
446.837837	2524.448529
447.212664	2524.758560
447.587431	2523.957017
447.962139	2523.735206
448.336786	2527.251411
448.711374	2522.676564
449.085901	2524.990453
449.460369	2525.277799
449.834776	2524.204033
450.209124	2522.462315
450.583412	2525.403828
450.957640	2524.375433
451.331808	2526.870804
451.705917	2526.167563
452.079965	2525.970958
452.453954	2526.396935
452.827883	2525.103879
453.201752	2525.416431
453.575562	2528.055475
453.949311	2525.575227
454.323001	2523.241173
454.696632	2526.780063
455.070202	2525.993643
455.443713	2526.079342
455.817164	2520.997859
456.190556	2523.382325
456.563888	2523.760412
456.937160	2520.965092
457.310373	2524.912315
457.683526	2527.253931
458.056619	2529.963552
458.429653	2526.835516
458.802628	2525.834847
459.175542	2526.500279
459.548398	2527.037162
459.921194	2528.746113
460.293930	2525.686133
460.666607	2527.029600
461.039224	2527.175793
461.411782	2527.674868
461.784280	2528.738551
462.156719	2525.660927
462.529099	2526.840557
462.901419	2528.788963
463.273680	2528.501617
463.645882	2527.105217
464.018024	2526.127233
464.390106	2529.030938
464.762130	2528.718387
465.134094	2528.519261
465.505999	2528.897348
465.877845	2529.020856
466.249631	2530.719725
466.621358	2528.524302
466.993026	2529.623274
467.364634	2533.814993
467.736184	2530.447502
468.107674	2525.802079
468.479105	2527.440454
468.850477	2530.243336
469.221790	2530.238294
469.593043	2527.924405
469.964238	2527.180835
470.335373	2531.110414
470.706449	2530.298788
471.077467	2529.716535
471.448425	2531.775846
471.819324	2529.779549
472.190164	2531.692667
472.560945	2530.311391
472.931667	2529.585465
473.302330	2529.870290
473.672934	2529.411545
474.043479	2528.925074
474.413965	2531.347348
474.784393	2524.776204
475.154761	2530.712163
475.525070	2523.490710
475.895321	2526.638911
476.265513	2523.470545
476.635645	2527.924405
477.005719	2529.028418
477.375734	2530.870959
477.745691	2528.441123
478.115588	2532.007739
478.485427	2528.940197
478.855207	2529.076308
479.224928	2527.816020
479.594591	2530.175280
479.964194	2530.850795
480.333739	2529.953469
480.703226	2528.393232
481.072653	2530.828109
481.442022	2530.419776
481.811333	2529.850126
482.180584	2529.822399
482.549777	2531.899355
482.918912	2531.780887
483.287988	2529.749302
483.657005	2530.591175
484.025964	2531.705270
484.394864	2531.508665
484.763706	2531.301978
485.132489	2530.316432
485.501213	2532.494211
485.869879	2530.989426
486.238487	2529.469518
486.607036	2531.622091
486.975527	2530.024045
487.343959	2532.305168
487.712333	2530.185362
488.080648	2531.531350
488.448905	2530.311391
488.817104	2529.623274
489.185244	2532.138809
489.553326	2531.916999
489.921350	2529.998840
490.289315	2531.750641
490.657222	2531.836340
491.025070	2531.904396
491.392861	2529.880373
491.760593	2532.405991
492.128267	2532.927750
492.495883	2530.709642
492.863440	2532.635363
493.230939	2530.046731
493.598380	2532.471526
493.965763	2526.974147
494.333088	2529.358613
494.700354	2528.395753
495.067563	2532.501772
495.434713	2529.845084
495.801805	2529.414066
496.168839	2531.279293
496.535815	2532.138809
496.902733	2534.608975
497.269593	2535.521424
497.636395	2530.843233
498.003139	2531.952287
498.369825	2533.250384
498.736453	2531.193593
499.103023	2530.931453
499.469535	2532.373223
499.835989	2530.139992
500.202385	2530.442461
500.568723	2532.426155
500.935003	2534.054448
501.301226	2533.817514
501.667390	2530.540764
502.033497	2535.831455
502.399546	2534.412370
502.765537	2533.726773
503.131470	2533.630991
503.497345	2534.714839
503.863163	2533.744417
504.228923	2534.709798
504.594625	2534.223327
504.960269	2531.669982
505.325856	2533.026053
505.691385	2533.759540
506.056856	2533.356248
506.422270	2531.856505
506.787625	2534.855991
507.152924	2534.044366
507.518164	2533.885569
507.883347	2534.591331
508.248472	2533.225178
508.613540	2533.046217
508.978550	2531.044879
509.343503	2531.392719
509.708398	2533.830117
510.073236	2532.612678
510.438016	2533.814993
510.802738	2536.133924
511.167403	2532.426155
511.532010	2533.189890
511.896561	2535.128214
512.261053	2531.632173
512.625488	2530.989426
512.989866	2530.344159
513.354186	2531.536392
513.718449	2528.854498
514.082655	2533.489839
514.446803	2532.514375
514.810894	2535.289531
515.174927	2533.837678
515.538904	2535.365148
515.902822	2531.700229
516.266684	2534.165353
516.630488	2534.840868
516.994235	2535.748276
517.357925	2533.812473
517.721558	2534.392205
518.085133	2535.528985
518.448651	2535.435724
518.812112	2534.162833
519.175516	2535.372710
519.538863	2533.240302
519.902152	2534.558563
520.265385	2534.321629
520.628560	2533.157123
520.991678	2537.484953
521.354739	2533.194931
521.717743	2532.239633
522.080690	2534.712318
522.443580	2534.702236
522.806413	2533.812472
523.169189	2535.786084
523.531908	2534.533357
523.894569	2535.423121
524.257174	2534.641742
524.619722	2536.174253
524.982213	2534.707277
525.344647	2532.826927
525.707025	2533.562935
526.069345	2535.758358
526.431608	2534.707277
526.793815	2533.217616
527.155964	2536.068389
527.518057	2534.518234
527.880093	2538.077289
528.242072	2533.878007
528.603995	2536.539737
528.965860	2535.163502
529.327669	2535.062679
529.689421	2534.147709
530.051117	2534.677030
530.412755	2536.350693
530.774337	2534.041845
531.135862	2535.493697
531.497331	2533.812472
531.858743	2530.671834
532.220098	2533.618388
532.581396	2532.521937
532.942638	2531.647297
533.303824	2534.697195
533.664953	2534.414890
534.026025	2535.274407
534.387040	2535.251722
534.747999	2534.114942
535.108902	2536.191897
535.469748	2535.375230
535.830537	2536.441434
536.191270	2534.392205
536.551947	2535.649973
536.912567	2533.114273
537.273131	2535.397915
537.633638	2535.576876
537.994089	2535.067720
538.354483	2533.641073
538.714821	2536.270035
539.075103	2536.527134
539.435328	2534.069571
539.795497	2534.961856
540.155609	2537.686599
540.515665	2536.627957
540.875665	2538.959491
541.235609	2533.295754
541.595496	2537.568132
541.955328	2533.938501
542.315102	2538.427649
542.674821	2537.457227
543.034483	2536.355735
543.394090	2536.353214
543.753640	2535.183666
544.113134	2535.357586
544.472571	2538.243647
544.831953	2537.943698
545.191278	2539.594676
545.550548	2535.037473
545.909761	2537.179963
546.268918	2535.108049
546.628019	2534.689633
546.987064	2534.014119
547.346053	2537.696682
547.704986	2535.798687
548.063863	2534.752648
548.422684	2537.910931
548.781449	2533.527647
549.140158	2538.029398
549.498811	2537.915972
549.857408	2537.626105
550.215949	2534.021680
550.574434	2533.734335
550.932864	2533.510003
551.291237	2529.098994
551.649555	2537.187525
552.007817	2533.658717
552.366022	2535.937319
552.724173	2536.746424
553.082267	2536.338091
553.440305	2537.716846
553.798288	2536.454037
554.156215	2537.323636
554.514086	2537.782381
554.871902	2534.989582
555.229661	2536.791794
555.587365	2533.215096
555.945014	2536.171733
556.302606	2534.588810
556.660143	2536.030580
557.017625	2536.133924
557.375050	2537.878163
557.732421	2537.419418
558.089735	2539.193904
558.446994	2534.407329
558.804197	2535.612164
559.161345	2536.806918
559.518437	2537.464788
559.875474	2533.661238
560.232455	2536.045704
560.589381	2536.045704
560.946251	2538.813297
561.303065	2535.528985
561.659825	2536.738862
562.016528	2535.839016
562.373177	2535.292051
562.729770	2535.818852
563.086307	2536.045704
563.442789	2538.720036
563.799216	2534.588810
564.155587	2535.700385
564.511904	2536.741383
564.868164	2536.000333
565.224370	2540.940664
565.580520	2536.529654
565.936615	2536.486805
566.292654	2536.282638
566.648638	2535.788605
567.004567	2537.704243
567.360441	2538.566281
567.716260	2538.024357
568.072023	2536.955632
568.427732	2528.196627
568.783385	2533.174767
569.138982	2533.888090
569.494525	2534.775333
569.850013	2532.418593
570.205445	2535.700385
570.560823	2536.040662
570.916145	2535.191228
571.271412	2536.648122
571.626625	2536.809438
571.981782	2535.218954
572.336884	2533.489839
572.691931	2535.629808
573.046923	2538.389840
573.401860	2535.105528
573.756743	2536.217103
574.111570	2537.641229
574.466342	2536.164171
574.821059	2537.432021
575.175722	2535.660055
575.530330	2537.069058
575.884882	2535.355066
576.239380	2537.943698
576.593823	2537.177443
576.948211	2535.707946
577.302544	2536.219623
577.656823	2534.566125
578.011047	2539.468647
578.365216	2537.641229
578.719330	2536.461599
579.073389	2539.188863
579.427394	2538.379758
579.781344	2535.612164
580.135239	2537.568132
580.489080	2538.382278
580.842866	2536.905220
581.196597	2537.104346
581.550273	2536.025539
581.903895	2534.845909
582.257463	2536.254912
582.610975	2536.638039
582.964434	2536.965714
583.317837	2537.991589
583.671186	2538.261291
584.024481	2536.764068
584.377721	2540.053421
584.730906	2537.273225
585.084037	2538.714995
585.437113	2538.730118
585.790135	2537.086702
586.143103	2538.523431
586.496016	2539.067875
586.848874	2536.080992
587.201679	2533.636032
587.554428	2533.268028
587.907124	2533.948584
588.259765	2533.056299
588.612352	2537.946219
588.964884	2535.528985
589.317362	2536.080992
589.669786	2537.280786
590.022155	2536.237268
590.374470	2533.625950
590.726731	2538.853626
591.078937	2537.381609
591.431090	2537.293389
591.783188	2534.571166
592.135232	2537.646270
592.487222	2536.824562
592.839157	2537.414377
593.191038	2536.146527
593.542866	2536.315405
593.894639	2537.454706
594.246358	2538.236085
594.598022	2536.711136
594.949633	2534.034283
595.301190	2536.237267
595.652692	2536.794315
596.004141	2538.684748
596.355535	2539.133410
596.706876	2535.592000
597.058162	2536.940508
597.409395	2537.384130
597.760573	2535.642411
598.111698	2535.423121
598.462768	2537.646270
598.813785	2535.942360
599.164748	2535.899510
599.515657	2536.948070
599.866511	2535.208872
600.217312	2537.016126
600.568060	2537.994110
600.918753	2538.722556
601.269392	2535.211393
601.619978	2535.851619
601.970510	2539.478729
602.320988	2535.118131
602.671412	2535.884387
603.021783	2533.681403
603.372100	2537.421939
603.722363	2535.687782
604.072572	2535.148378
604.422728	2538.510828
604.772830	2535.675179
605.122878	2535.110570
605.472872	2534.409849
605.822813	2530.780218
606.172701	2536.486805
606.522534	2535.103008
606.872314	2537.673996
607.222041	2538.505787
607.571714	2537.452186
607.921333	2536.222144
608.270899	2538.157947
608.620411	2538.130221
608.969870	2535.413039
609.319276	2537.263142
609.668627	2542.773123
610.017926	2543.773793
610.367171	2544.827394
610.716362	2545.918803
611.065500	2543.156251
611.414585	2540.050900
611.763616	2538.140303
612.112594	2540.509645
612.461518	2541.016281
612.810389	2540.255067
613.159207	2539.932433
613.507971	2536.270035
613.856682	2541.109543
614.205340	2536.524613
614.553945	2536.433873
614.902496	2537.638708
615.250994	2536.859850
615.599439	2535.594520
615.947830	2538.674665
616.296169	2535.954963
616.644454	2536.670807
616.992686	2537.860519
617.340864	2535.095446
617.688990	2536.635519
618.037063	2535.385313
618.385082	2536.632998
618.733048	2537.553009
619.080961	2537.527803
619.428821	2537.137113
619.776628	2536.925385
620.124382	2536.776671
620.472083	2533.464633
620.819731	2536.080992
621.167326	2537.154757
621.514868	2538.399923
621.862357	2536.461599
622.209793	2538.399922
622.557176	2538.878832
622.904506	2538.641898
623.251783	2533.404139
623.599007	2532.789118
623.946179	2533.101670
624.293297	2533.136958
624.640363	2536.448996
624.987376	2538.309182
625.334336	2536.809438
625.681243	2541.114584
626.028097	2537.631147
626.374899	2538.034439
626.721647	2536.743903
627.068343	2534.913965
627.414987	2535.526465
627.761577	2538.311702
628.108115	2535.234078
628.454600	2538.717515
628.801032	2535.972607
629.147412	2536.567463
629.493739	2535.884387
629.840014	2535.407998
630.186236	2538.654501
630.532405	2537.739531
630.878521	2536.804397
631.224585	2537.283307
631.570597	2534.389685
631.916556	2534.263656
632.262462	2535.786084
632.608316	2536.406146
632.954117	2535.163502
633.299866	2535.355066
633.645562	2533.273069
633.991206	2537.469830
634.336797	2535.639891
634.682336	2536.481763
635.027823	2534.079654
635.373257	2539.082999
635.718639	2536.575025
636.063968	2536.249870
636.409245	2533.981351
636.754470	2535.909593
637.099642	2534.515713
637.444762	2536.380940
637.789829	2536.174253
638.134845	2536.885056
638.479808	2537.389171
638.824719	2537.162319
639.169577	2537.270704
639.514383	2540.514687
639.859137	2536.194418
640.203839	2537.031249
640.548489	2533.494880
640.893086	2534.276259
641.237632	2532.552184
641.582125	2532.547143
641.926566	2531.755682
642.270955	2536.872453
642.615292	2536.297761
642.959576	2536.799356
643.303809	2534.447658
643.647990	2538.959491
643.992118	2534.394726
644.336195	2537.121990
