Dividing Wavelength (nm)	Counts (n)	Blue Motor Position (mm): 0.000000	Red Motor Position (mm): 11.600000	
326.493990	2128.700308
326.888308	2128.700308
327.282561	2128.700308
327.676750	2093.245873
328.070874	2091.998188
328.464933	2097.074630
328.858929	2104.908583
329.252859	2111.000817
329.646726	2123.868362
330.040528	2138.984262
330.434265	2154.833650
330.827938	2169.652122
331.221547	2191.742458
331.615091	2205.182174
332.008571	2225.971892
332.401986	2248.208422
332.795338	2266.734662
333.188625	2286.821140
333.581847	2303.885446
333.975006	2322.744402
334.368100	2342.959429
334.761129	2359.295288
335.154095	2374.895139
335.546996	2393.020607
335.939833	2404.247257
336.332606	2422.476069
336.725315	2432.016453
337.117960	2445.554472
337.510540	2451.802982
337.903056	2467.022225
338.295508	2471.218986
338.687896	2478.032105
339.080220	2487.249855
339.472480	2493.939466
339.864676	2500.031701
340.256807	2502.582524
340.648875	2506.345746
341.040879	2510.711385
341.432818	2507.792557
341.824694	2512.942096
342.216506	2510.275325
342.608253	2511.767507
342.999937	2512.889163
343.391557	2510.169461
343.783113	2510.837414
344.174605	2509.393123
344.566033	2508.337002
344.957397	2507.270798
345.348697	2504.039418
345.739934	2503.618482
346.131106	2502.007833
346.522215	2496.606237
346.913260	2499.802328
347.304241	2498.688233
347.695159	2494.748571
348.086012	2495.073726
348.476802	2491.202120
348.867528	2490.413179
349.258191	2488.822695
349.648789	2488.668940
350.039324	2485.099803
350.429796	2483.466469
350.820203	2483.128712
351.210548	2483.562251
351.600828	2480.361118
351.991045	2480.000676
352.381198	2482.402786
352.771288	2480.482106
353.161314	2478.339616
353.551276	2479.831797
353.941175	2478.206025
354.331010	2480.968577
354.720782	2482.168372
355.110490	2481.313896
355.500135	2481.538228
355.889717	2481.752477
356.279235	2483.073259
356.668689	2479.940182
357.058080	2479.935141
357.447408	2479.199132
357.836672	2479.335243
358.225873	2481.979329
358.615010	2478.085037
359.004084	2484.812457
359.393095	2484.633496
359.782043	2486.130719
360.170927	2484.976295
360.559748	2484.721716
360.948505	2486.332365
361.337199	2484.527632
361.725830	2489.430154
362.114398	2489.170535
362.502903	2488.260606
362.891344	2489.379743
363.279722	2489.430154
363.668037	2489.117603
364.056289	2490.158601
364.444478	2491.854949
364.832603	2493.732779
365.220665	2492.432161
365.608665	2491.456698
365.996601	2490.529126
366.384474	2494.892244
366.772284	2492.464929
367.160031	2496.081957
367.547715	2499.522544
367.935336	2502.637977
368.322893	2503.986486
368.710388	2506.630571
369.097820	2511.580984
369.485189	2516.533918
369.872495	2523.223529
370.259738	2528.990609
370.646918	2534.611495
371.034035	2541.500232
371.421090	2553.354505
371.808081	2559.965979
372.195010	2573.151117
372.581875	2582.520101
372.968678	2598.195569
373.355418	2606.057248
373.742096	2624.853190
374.128710	2643.490336
374.515262	2652.995432
374.901751	2671.781292
375.288177	2686.309897
375.674540	2706.376210
376.060841	2724.191647
376.447079	2743.945409
376.833254	2765.203955
377.219367	2778.386572
377.605417	2810.871767
377.991404	2822.048005
378.377329	2844.952488
378.763191	2860.564941
379.148991	2897.821589
379.534727	2923.468459
379.920402	2953.612038
380.306013	2963.717031
380.691563	3012.898528
381.077049	3032.180942
381.462474	3052.406051
381.847835	3089.201433
382.233134	3110.394444
382.618371	3111.299331
383.003545	3177.615710
383.388657	3182.041843
383.773706	3211.285576
384.158693	3220.440312
384.543618	3248.890063
384.928480	3273.100205
385.313280	3314.445228
385.698017	3304.514155
386.082692	3349.231710
386.467305	3342.889938
386.851856	3364.065305
387.236344	3372.403374
387.620770	3391.239645
388.005133	3398.297260
388.389435	3405.342273
388.773674	3402.836819
389.157851	3420.317020
389.541965	3414.577667
389.926018	3371.332128
390.310008	3409.382758
390.693936	3401.750451
391.077802	3409.838982
391.461606	3378.115001
391.845348	3400.578383
392.229027	3374.790360
392.612645	3359.510623
392.996200	3386.221176
393.379694	3383.219169
393.763125	3392.991446
394.146494	3338.494052
394.529801	3346.287676
394.913047	3338.446161
395.296230	3288.768111
395.679351	3284.455404
396.062410	3258.395159
396.445408	3217.503839
396.828343	3198.677650
397.211217	3171.916685
397.594028	3105.194493
397.976778	3097.950355
398.359466	3078.408322
398.742092	3051.939744
399.124656	2997.351610
399.507158	2989.684015
399.889598	2969.085860
400.271977	2952.999538
400.654294	2920.781524
401.036549	2890.650548
401.418742	2858.374560
401.800874	2853.010772
402.182944	2829.697956
402.564952	2815.310503
402.946898	2790.404683
403.328783	2763.333687
403.710606	2732.542319
404.092367	2736.345869
404.474067	2712.980121
404.855705	2698.209541
405.237282	2674.637105
405.618797	2663.687719
406.000250	2657.305618
406.381642	2647.422436
406.762972	2630.711011
407.144240	2619.595267
407.525447	2606.999944
407.906593	2599.481063
408.287677	2591.281626
408.668700	2578.630851
409.049661	2573.992989
409.430560	2566.290106
409.811399	2558.004970
410.192176	2557.410114
410.572891	2550.128167
410.953545	2549.193033
411.334138	2542.914276
411.714669	2541.732125
412.095139	2537.003523
412.475547	2537.386651
412.855894	2532.632842
413.236180	2530.439941
413.616405	2529.787111
413.996568	2528.849457
414.376670	2527.599250
414.756711	2526.401976
415.136691	2527.062368
415.516609	2526.437264
415.896466	2527.374919
416.276262	2526.323838
416.655997	2521.018024
417.035670	2520.614732
417.415283	2525.199661
417.794834	2519.041892
418.174324	2524.904754
418.553753	2523.190761
418.933121	2524.761081
419.312428	2522.860566
419.691674	2523.750329
420.070859	2523.614218
420.449983	2524.917357
420.829045	2525.812161
421.208047	2522.895854
421.586988	2522.376615
421.965867	2525.645803
422.344686	2525.101359
422.723444	2527.742923
423.102141	2523.271420
423.480777	2525.660927
423.859352	2525.277799
424.237866	2524.675381
424.616319	2526.810310
424.994712	2523.773015
425.373044	2527.241328
425.751314	2526.611184
426.129524	2526.177645
426.507673	2526.827954
426.885762	2526.442306
427.263789	2525.308046
427.641756	2524.319980
428.019662	2527.155629
428.397508	2526.517923
428.775292	2525.698735
429.153016	2528.738551
429.530679	2528.373067
429.908282	2525.592871
430.285824	2525.073632
430.663305	2528.045393
431.040726	2526.719569
431.418086	2524.801410
431.795385	2526.409538
432.172624	2527.926925
432.549802	2526.517923
432.926920	2527.558921
433.303977	2526.447347
433.680974	2528.143695
434.057910	2529.441792
434.434786	2525.688653
434.811601	2528.158818
435.188355	2526.477594
435.565050	2528.418438
435.941683	2528.272244
436.318257	2528.473891
436.694770	2523.006759
437.071222	2526.160001
437.447614	2524.831657
437.823946	2526.399456
438.200218	2528.415917
438.576429	2527.856349
438.952580	2529.257790
439.328670	2527.299302
439.704700	2531.450692
440.080670	2529.512368
440.456580	2526.966586
440.832429	2530.686957
441.208218	2528.879703
441.583947	2530.500434
441.959616	2528.816689
442.335224	2529.628315
442.710773	2528.599919
443.086261	2531.208717
443.461689	2530.079498
443.837057	2530.591175
444.212365	2530.903727
444.587612	2531.571680
444.962800	2530.167718
445.337927	2529.842564
445.712995	2529.698891
446.088002	2532.418593
446.462949	2530.520599
446.837837	2530.104704
447.212664	2530.276103
447.587431	2532.607637
447.962139	2528.476411
448.336786	2536.343132
448.711374	2533.280631
449.085901	2534.598893
449.460369	2531.574200
449.834776	2532.584952
450.209124	2534.243491
450.583412	2532.471526
450.957640	2536.012936
451.331808	2533.066382
451.705917	2534.175436
452.079965	2535.095446
452.453954	2534.447658
452.827883	2534.379602
453.201752	2534.535878
453.575562	2534.326670
453.949311	2533.731814
454.323001	2531.916999
454.696632	2534.392205
455.070202	2535.183666
455.443713	2535.463450
455.817164	2534.611495
456.190556	2532.741227
456.563888	2533.131917
456.937160	2532.179139
457.310373	2536.166691
457.683526	2532.761392
458.056619	2534.339273
458.429653	2534.346835
458.802628	2538.367155
459.175542	2534.677030
459.548398	2536.025539
459.921194	2534.762730
460.293930	2536.905220
460.666607	2537.777340
461.039224	2538.415046
461.411782	2537.948739
461.784280	2540.045859
462.156719	2541.858154
462.529099	2537.240457
462.901419	2540.282793
463.273680	2540.393699
463.645882	2539.085519
464.018024	2536.711136
464.390106	2537.603420
464.762130	2540.169367
465.134094	2538.420087
465.505999	2543.360418
465.877845	2546.400234
466.249631	2548.804864
466.621358	2544.799667
466.993026	2549.366953
467.364634	2547.007693
467.736184	2542.485778
468.107674	2545.525593
468.479105	2543.554502
468.850477	2538.914120
469.221790	2542.251364
469.593043	2541.704399
469.964238	2540.363452
470.335373	2539.662732
470.706449	2543.244471
471.077467	2541.316230
471.448425	2547.398382
471.819324	2549.311500
472.190164	2547.806716
472.560945	2546.042312
472.931667	2543.645243
473.302330	2543.302445
473.672934	2541.406971
474.043479	2542.909235
474.413965	2542.621889
474.784393	2537.915972
475.154761	2539.226672
475.525070	2540.532331
475.895321	2539.249357
476.265513	2537.026208
476.635645	2543.337733
477.005719	2541.606096
477.375734	2544.812270
477.745691	2543.226827
478.115588	2542.407640
478.485427	2544.197249
478.855207	2546.334699
479.224928	2547.511808
479.594591	2545.044163
479.964194	2546.067517
480.333739	2547.554658
480.703226	2545.691952
481.072653	2547.854607
481.442022	2547.842004
481.811333	2548.169679
482.180584	2547.068187
482.549777	2547.733619
482.918912	2544.721529
483.287988	2544.771941
483.657005	2544.439225
484.025964	2546.193546
484.394864	2545.392003
484.763706	2547.010213
485.132489	2547.105995
485.501213	2546.954761
485.869879	2547.042981
486.238487	2543.841848
486.607036	2548.595656
486.975527	2545.951571
487.343959	2547.842004
487.712333	2544.829914
488.080648	2544.119112
488.448905	2548.401572
488.817104	2544.953423
489.185244	2546.874102
489.553326	2547.169010
489.921350	2549.298897
490.289315	2552.507592
490.657222	2549.485420
491.025070	2550.556665
491.392861	2550.917108
491.760593	2550.397869
492.128267	2551.963147
492.495883	2547.138763
492.863440	2548.187323
493.230939	2546.755635
493.598380	2544.446787
493.965763	2542.881508
494.333088	2545.124822
494.700354	2542.367311
495.067563	2546.571633
495.434713	2541.243133
495.801805	2545.651622
496.168839	2545.926365
496.535815	2545.399565
496.902733	2546.753114
497.269593	2549.561037
497.636395	2548.189843
498.003139	2547.007693
498.369825	2546.304452
498.736453	2544.247661
499.103023	2547.171530
499.469535	2545.684390
499.835989	2546.216232
500.202385	2548.610780
500.568723	2545.785213
500.935003	2546.490974
501.301226	2548.615821
501.667390	2550.712941
502.033497	2548.774617
502.399546	2545.175233
502.765537	2549.157745
503.131470	2544.517363
503.497345	2547.123639
503.863163	2548.068856
504.228923	2549.069525
504.594625	2548.325954
504.960269	2543.839327
505.325856	2548.106664
505.691385	2546.899308
506.056856	2545.951571
506.422270	2546.513660
506.787625	2550.223949
507.152924	2546.208670
507.518164	2546.644730
507.883347	2547.539534
508.248472	2547.257230
508.613540	2548.888043
508.978550	2547.428629
509.343503	2549.215718
509.708398	2549.818136
510.073236	2548.913249
510.438016	2549.903836
510.802738	2545.361756
511.167403	2549.021634
511.532010	2549.727395
511.896561	2547.884853
512.261053	2550.591953
512.625488	2545.583567
512.989866	2545.334030
513.354186	2548.837632
513.718449	2542.354708
514.082655	2548.651109
514.446803	2548.772097
514.810894	2551.360729
515.174927	2549.593805
515.538904	2550.118085
515.902822	2546.385110
516.266684	2549.099772
516.630488	2549.024154
516.994235	2547.693290
517.357925	2550.297046
517.721558	2550.508774
518.085133	2549.712272
518.448651	2551.123795
518.812112	2548.399051
519.175516	2549.253527
519.538863	2550.032385
519.902152	2548.552806
520.265385	2548.956099
520.628560	2551.126315
520.991678	2548.676315
521.354739	2550.697817
521.717743	2548.648588
522.080690	2549.992056
522.443580	2551.917777
522.806413	2550.014741
523.169189	2549.946685
523.531908	2551.650595
523.894569	2551.312838
524.257174	2549.084648
524.619722	2548.646068
524.982213	2549.490461
525.344647	2547.892415
525.707025	2551.375852
526.069345	2547.282436
526.431608	2550.092879
526.793815	2550.488609
527.155964	2549.205636
527.518057	2550.029864
527.880093	2551.396017
528.242072	2550.173537
528.603995	2551.136398
528.965860	2552.111861
529.327669	2552.177396
529.689421	2548.734288
530.051117	2548.847714
530.412755	2549.371994
530.774337	2551.121274
531.135862	2550.274360
531.497331	2548.610780
531.858743	2544.167002
532.220098	2546.382590
532.581396	2547.174051
532.942638	2547.221942
533.303824	2550.962478
533.664953	2549.929041
534.026025	2549.321582
534.387040	2550.165976
534.747999	2549.563558
535.108902	2550.261758
535.469748	2548.991387
535.830537	2548.580533
536.191270	2549.498023
536.551947	2549.747560
536.912567	2550.833928
537.273131	2548.774617
537.633638	2550.891902
537.994089	2548.366284
538.354483	2551.653116
538.714821	2552.419371
539.075103	2551.413661
539.435328	2550.838970
539.795497	2547.206818
540.155609	2548.983825
540.515665	2550.788558
540.875665	2549.992056
541.235609	2550.327293
541.595496	2551.839639
541.955328	2551.123795
542.315102	2549.205636
542.674821	2548.416695
543.034483	2552.343754
543.394090	2545.878474
543.753640	2549.225800
544.113134	2550.367622
544.472571	2551.685883
544.831953	2549.432488
545.191278	2552.384083
545.550548	2550.067673
545.909761	2551.612787
546.268918	2549.341747
546.628019	2551.267468
546.987064	2550.155893
547.346053	2551.002807
547.704986	2551.660678
548.063863	2549.422405
548.422684	2548.812426
548.781449	2549.319062
549.140158	2550.387786
549.498811	2550.453321
549.857408	2551.068342
550.215949	2551.214536
550.574434	2548.550286
550.932864	2550.944834
551.291237	2545.460058
551.649555	2548.023485
552.007817	2550.783517
552.366022	2551.060780
552.724173	2551.217056
553.082267	2550.571788
553.440305	2551.176727
553.798288	2550.171017
554.156215	2552.656306
554.514086	2550.455842
554.871902	2550.924669
555.229661	2553.220915
555.587365	2551.433826
555.945014	2551.607746
556.302606	2548.920811
556.660143	2553.881306
557.017625	2552.676470
557.375050	2550.029864
557.732421	2551.590102
558.089735	2551.257385
558.446994	2551.552293
558.804197	2550.226469
559.161345	2551.678322
559.518437	2553.331820
559.875474	2551.514484
560.232455	2552.089176
560.589381	2550.528939
560.946251	2554.448436
561.303065	2547.103475
561.659825	2549.596325
562.016528	2548.351160
562.373177	2550.975081
562.729770	2550.549103
563.086307	2549.467776
563.442789	2549.487940
563.799216	2549.354350
564.155587	2551.549772
564.511904	2551.980791
564.868164	2551.796789
565.224370	2551.564896
565.580520	2550.856614
565.936615	2552.454659
566.292654	2550.541542
566.648638	2552.086655
567.004567	2550.997766
567.360441	2549.195553
567.716260	2550.463404
568.072023	2549.117416
568.427732	2548.182282
568.783385	2548.449463
569.138982	2547.637837
569.494525	2550.602035
569.850013	2544.444266
570.205445	2552.568085
570.560823	2546.972405
570.916145	2549.525749
571.271412	2548.348640
571.626625	2547.496685
571.981782	2547.259750
572.336884	2550.387786
572.691931	2552.898281
573.046923	2550.763352
573.401860	2551.096068
573.756743	2549.349309
574.111570	2550.612118
574.466342	2551.514484
574.821059	2549.175389
575.175722	2549.130018
575.530330	2553.399876
575.884882	2550.723023
576.239380	2549.709751
576.593823	2550.599515
576.948211	2547.161448
577.302544	2551.625390
577.656823	2549.263609
578.011047	2551.942982
578.365216	2552.416851
578.719330	2549.931562
579.073389	2552.013558
579.427394	2549.402241
579.781344	2548.527601
580.135239	2548.250337
580.489080	2548.341078
580.842866	2550.728064
581.196597	2553.110009
581.550273	2546.735470
581.903895	2548.323434
582.257463	2549.780327
582.610975	2550.372663
582.964434	2549.482899
583.317837	2550.223949
583.671186	2550.561706
584.024481	2548.252858
584.377721	2549.934082
584.730906	2547.232024
585.084037	2550.239072
585.437113	2548.323434
585.790135	2549.571119
586.143103	2549.286294
586.496016	2549.515667
586.848874	2544.749256
587.201679	2547.088351
587.554428	2544.721529
587.907124	2548.966181
588.259765	2544.257743
588.612352	2548.653629
588.964884	2547.577343
589.317362	2548.366284
589.669786	2551.373332
590.022155	2551.098589
590.374470	2550.085317
590.726731	2548.772097
591.078937	2548.656150
591.431090	2548.144473
591.783188	2548.998948
592.135232	2546.188505
592.487222	2549.898794
592.839157	2549.109854
593.191038	2548.472148
593.542866	2548.701520
593.894639	2550.294525
594.246358	2549.429967
594.598022	2548.618341
594.949633	2549.961809
595.301190	2549.190512
595.652692	2548.099103
596.004141	2548.653629
596.355535	2549.266130
596.706876	2548.462066
597.058162	2549.855945
597.409395	2548.951058
597.760573	2549.283774
598.111698	2548.646068
598.462768	2548.323434
598.813785	2548.502395
599.164748	2547.511808
599.515657	2546.392672
599.866511	2546.102806
600.217312	2547.658002
600.568060	2548.686397
600.918753	2549.064483
601.269392	2547.721016
601.619978	2546.639688
601.970510	2545.465100
602.320988	2548.895605
602.671412	2547.552137
603.021783	2546.974925
603.372100	2546.629606
603.722363	2547.736139
604.072572	2548.620862
604.422728	2548.474668
604.772830	2546.758156
605.122878	2542.725232
605.472872	2544.955943
605.822813	2542.042156
606.172701	2545.659184
606.522534	2547.572302
606.872314	2550.617159
607.222041	2548.141952
607.571714	2546.826211
607.921333	2548.146993
608.270899	2546.296890
608.620411	2546.354863
608.969870	2549.248486
609.319276	2551.322920
609.668627	2549.745039
610.017926	2552.936090
610.367171	2553.646892
610.716362	2556.190154
611.065500	2553.840977
611.414585	2552.883157
611.763616	2550.488609
612.112594	2548.641027
612.461518	2550.425595
612.810389	2548.330996
613.159207	2550.944834
613.507971	2548.230173
613.856682	2546.543907
614.205340	2548.908208
614.553945	2550.465924
614.902496	2547.917621
615.250994	2548.933413
615.599439	2549.024154
615.947830	2550.818805
616.296169	2548.003321
616.644454	2548.759494
616.992686	2550.687735
617.340864	2546.979966
617.688990	2546.516180
618.037063	2550.173537
618.385082	2546.047353
618.733048	2549.757642
619.080961	2547.615152
619.428821	2549.336706
619.776628	2548.441901
620.124382	2548.482230
620.472083	2548.837632
620.819731	2547.491643
621.167326	2547.947868
621.514868	2547.645399
621.862357	2546.317055
622.209793	2547.373176
622.557176	2545.704554
622.904506	2546.478372
623.251783	2545.046684
623.599007	2542.604245
623.946179	2541.994265
624.293297	2544.963505
624.640363	2546.165820
624.987376	2547.476520
625.334336	2545.974256
625.681243	2546.982487
626.028097	2544.582898
626.374899	2546.175902
626.721647	2546.727909
627.068343	2545.765048
627.414987	2546.019627
627.761577	2546.165820
628.108115	2547.174051
628.454600	2545.865871
628.801032	2545.107178
629.147412	2545.805377
629.493739	2546.916952
629.840014	2547.511808
630.186236	2547.899977
630.532405	2544.265305
630.878521	2543.617517
631.224585	2545.606252
631.570597	2544.247661
631.916556	2544.998793
632.262462	2544.439225
632.608316	2545.633978
632.954117	2543.138607
633.299866	2544.577857
633.645562	2544.734132
633.991206	2543.862013
634.336797	2546.622044
634.682336	2547.786551
635.027823	2546.080120
635.373257	2542.125335
635.718639	2544.025850
636.063968	2544.086344
636.409245	2540.242464
636.754470	2545.553320
637.099642	2544.252702
637.444762	2546.634647
637.789829	2541.379244
638.134845	2546.090203
638.479808	2545.094575
638.824719	2542.994934
639.169577	2544.978628
639.514383	2545.465100
639.859137	2544.005686
640.203839	2545.908721
640.548489	2542.642053
640.893086	2540.900335
641.237632	2539.433359
641.582125	2541.132228
641.926566	2538.929244
642.270955	2543.995603
642.615292	2542.132897
642.959576	2544.789585
643.303809	2542.440407
643.647990	2544.066179
643.992118	2543.506611
644.336195	2543.675490
