Dividing Wavelength (nm)	Counts (n)	Blue Motor Position (mm): 0.000000	Red Motor Position (mm): 1.800000	
326.493990	2128.095370
326.888308	2128.095370
327.282561	2128.095370
327.676750	2097.861050
328.070874	2094.158322
328.464933	2097.288879
328.858929	2103.802049
329.252859	2112.578698
329.646726	2125.852056
330.040528	2139.742956
330.434265	2153.583444
330.827938	2171.827379
331.221547	2188.226253
331.615091	2211.488657
332.008571	2229.578838
332.401986	2249.075500
332.795338	2268.925044
333.188625	2286.198557
333.581847	2306.438790
333.975006	2324.786069
334.368100	2342.624192
334.761129	2359.300329
335.154095	2373.319778
335.546996	2393.128992
335.939833	2408.388565
336.332606	2422.463466
336.725315	2434.090888
337.117960	2443.336364
337.510540	2451.500513
337.903056	2466.833182
338.295508	2470.437607
338.687896	2479.821715
339.080220	2489.362098
339.472480	2497.921978
339.864676	2497.879128
340.256807	2504.851044
340.648875	2506.416322
341.040879	2511.449914
341.432818	2511.727177
341.824694	2514.842611
342.216506	2513.458814
342.608253	2513.211797
342.999937	2513.237003
343.391557	2512.148114
343.783113	2511.807836
344.174605	2509.055366
344.566033	2508.460510
344.957397	2505.869357
345.348697	2506.746517
345.739934	2504.563698
346.131106	2501.990189
346.522215	2500.593789
346.913260	2498.965497
347.304241	2496.908706
347.695159	2492.825371
348.086012	2491.413848
348.476802	2492.280927
348.867528	2488.956286
349.258191	2488.157263
349.648789	2486.902015
350.039324	2484.759525
350.429796	2483.940338
350.820203	2483.189206
351.210548	2482.191057
351.600828	2483.542086
351.991045	2479.783906
352.381198	2481.555872
352.771288	2477.875829
353.161314	2481.686942
353.551276	2479.123515
353.941175	2482.496047
354.331010	2478.558906
354.720782	2478.697538
355.110490	2477.951447
355.500135	2479.549493
355.889717	2479.592342
356.279235	2477.187712
356.668689	2478.962198
357.058080	2480.151910
357.447408	2478.016982
357.836672	2475.675366
358.225873	2476.502115
358.615010	2477.790130
359.004084	2479.357929
359.393095	2481.737353
359.782043	2483.405975
360.170927	2484.159628
360.559748	2482.180975
360.948505	2484.946048
361.337199	2485.853455
361.725830	2485.336737
362.114398	2485.639206
362.502903	2485.508136
362.891344	2489.510813
363.279722	2485.659371
363.668037	2487.968219
364.056289	2486.289515
364.444478	2489.026862
364.832603	2490.302274
365.220665	2492.419558
365.608665	2489.024341
365.996601	2490.786224
366.384474	2489.165493
366.772284	2492.653972
367.160031	2489.523415
367.547715	2492.449805
367.935336	2489.762870
368.322893	2492.704383
368.710388	2489.470483
369.097820	2493.884013
369.485189	2490.458549
369.872495	2493.657162
370.259738	2494.146153
370.646918	2492.893427
371.034035	2491.749085
371.421090	2492.502737
371.808081	2492.104486
372.195010	2495.950887
372.581875	2493.647079
372.968678	2495.083808
373.355418	2494.176400
373.742096	2495.633294
374.128710	2499.946001
374.515262	2498.274858
374.901751	2496.800321
375.288177	2496.177738
375.674540	2495.429127
376.060841	2497.808552
376.447079	2495.030876
376.833254	2497.513644
377.219367	2493.626915
377.605417	2497.193531
377.991404	2494.753612
378.377329	2495.580362
378.763191	2493.188334
379.148991	2498.053048
379.534727	2496.835609
379.920402	2499.565394
380.306013	2499.073881
380.691563	2499.209993
381.077049	2499.444406
381.462474	2499.701505
381.847835	2500.800477
382.233134	2498.839468
382.618371	2500.419869
383.003545	2500.997082
383.388657	2499.209993
383.773706	2500.591269
384.158693	2500.051865
384.543618	2500.593789
384.928480	2502.864829
385.313280	2502.466578
385.698017	2499.875425
386.082692	2503.043790
386.467305	2502.965652
386.851856	2505.153513
387.236344	2502.068327
387.620770	2502.511948
388.005133	2504.495642
388.389435	2500.528254
388.773674	2502.587566
389.157851	2504.082268
389.541965	2505.372803
389.926018	2505.783657
390.310008	2503.656290
390.693936	2504.772906
391.077802	2503.923471
391.461606	2506.305417
391.845348	2504.175529
392.229027	2507.051507
392.612645	2505.329953
392.996200	2504.639315
393.379694	2505.680313
393.763125	2511.180212
394.146494	2508.626868
394.529801	2508.369769
394.913047	2507.379182
395.296230	2504.868688
395.679351	2508.465551
396.062410	2507.318688
396.445408	2506.524707
396.828343	2507.613596
397.211217	2503.305930
397.594028	2505.156033
397.976778	2505.887001
398.359466	2506.834738
398.742092	2505.002278
399.124656	2508.871364
399.507158	2508.009327
399.889598	2510.945799
400.271977	2509.211642
400.654294	2508.924296
401.036549	2508.974707
401.418742	2511.144924
401.800874	2509.879595
402.182944	2511.888494
402.564952	2511.921262
402.946898	2510.638288
403.328783	2509.763648
403.710606	2510.466889
404.092367	2511.543175
404.474067	2512.637106
404.855705	2513.829339
405.237282	2510.822290
405.618797	2510.494615
406.000250	2512.322034
406.381642	2510.870181
406.762972	2510.232475
407.144240	2511.459996
407.525447	2511.059225
407.906593	2514.976201
408.287677	2511.487723
408.668700	2512.816067
409.049661	2510.799605
409.430560	2512.223731
409.811399	2513.985614
410.192176	2513.496622
410.572891	2509.849348
410.953545	2514.910666
411.334138	2516.823784
411.714669	2514.116684
412.095139	2515.649195
412.475547	2514.519977
412.855894	2513.216838
413.236180	2515.762621
413.616405	2514.673732
413.996568	2513.967970
414.376670	2514.330933
414.756711	2514.121726
415.136691	2514.971160
415.516609	2516.332272
415.896466	2514.212466
416.276262	2514.184740
416.655997	2510.749194
417.035670	2510.895387
417.415283	2514.882940
417.794834	2514.184740
418.174324	2515.954185
418.553753	2516.110461
418.933121	2518.560462
419.312428	2513.456293
419.691674	2516.715399
420.070859	2515.513084
420.449983	2516.249092
420.829045	2515.157683
421.208047	2517.247241
421.586988	2516.435615
421.965867	2516.738084
422.344686	2516.654905
422.723444	2517.365708
423.102141	2518.003414
423.480777	2520.516429
423.859352	2517.713548
424.237866	2516.276819
424.616319	2517.325379
424.994712	2520.730678
425.373044	2520.546676
425.751314	2518.653723
426.129524	2518.321007
426.507673	2517.479134
426.885762	2519.732530
427.263789	2521.116327
427.641756	2522.071625
428.019662	2520.410565
428.397508	2520.564320
428.775292	2518.454597
429.153016	2520.395442
429.530679	2520.420647
429.908282	2520.082890
430.285824	2519.349402
430.663305	2518.678929
431.040726	2522.379136
431.418086	2520.889475
431.795385	2520.556758
432.172624	2520.667664
432.549802	2522.444671
432.926920	2521.650689
433.303977	2521.481810
433.680974	2521.817047
434.057910	2519.858559
434.434786	2521.534742
434.811601	2522.893333
435.188355	2519.866120
435.565050	2524.945083
435.941683	2524.221677
436.318257	2520.907119
436.694770	2516.334792
437.071222	2519.480472
437.447614	2517.577437
437.823946	2519.888806
438.200218	2522.689167
438.576429	2522.979033
438.952580	2520.680267
439.328670	2523.316790
439.704700	2523.488189
440.080670	2520.957530
440.456580	2523.190761
440.832429	2524.375433
441.208218	2522.921060
441.583947	2525.550021
441.959616	2522.611029
442.335224	2525.600433
442.710773	2523.548683
443.086261	2524.400638
443.461689	2524.017511
443.837057	2521.391069
444.212365	2523.064733
444.587612	2523.447860
444.962800	2523.319311
445.337927	2525.958355
445.712995	2524.239321
446.088002	2525.058509
446.462949	2523.079856
446.837837	2523.548683
447.212664	2523.304187
447.587431	2524.415762
447.962139	2523.823426
448.336786	2525.335772
448.711374	2524.982892
449.085901	2525.239990
449.460369	2525.030783
449.834776	2524.443488
450.209124	2524.589682
450.583412	2525.882738
450.957640	2524.211595
451.331808	2524.020031
451.705917	2524.231760
452.079965	2527.337110
452.453954	2525.602953
452.827883	2526.817872
453.201752	2525.020700
453.575562	2525.628159
453.949311	2526.903571
454.323001	2524.599764
454.696632	2526.686802
455.070202	2527.064888
455.443713	2526.832995
455.817164	2521.922911
456.190556	2523.498272
456.563888	2524.544311
456.937160	2521.239835
457.310373	2525.285361
457.683526	2525.902902
458.056619	2527.493386
458.429653	2527.710156
458.802628	2528.849457
459.175542	2525.607995
459.548398	2525.003056
459.921194	2526.739734
460.293930	2527.669827
460.666607	2527.846267
461.039224	2528.123530
461.411782	2526.245701
461.784280	2527.705115
462.156719	2527.044723
462.529099	2525.413910
462.901419	2530.578572
463.273680	2528.541946
463.645882	2525.471883
464.018024	2530.830630
464.390106	2526.165042
464.762130	2529.998840
465.134094	2527.778211
465.505999	2531.765764
465.877845	2529.366175
466.249631	2530.596216
466.621358	2527.931967
466.993026	2532.058151
467.364634	2532.710980
467.736184	2530.064375
468.107674	2527.697553
468.479105	2528.148736
468.850477	2528.632687
469.221790	2532.849612
469.593043	2527.606812
469.964238	2529.570342
470.335373	2528.153777
470.706449	2531.566638
471.077467	2526.389373
471.448425	2533.492359
471.819324	2529.945908
472.190164	2530.991947
472.560945	2531.004550
472.931667	2528.995650
473.302330	2532.411032
473.672934	2529.429189
474.043479	2526.366688
474.413965	2531.692667
474.784393	2529.280475
475.154761	2529.928263
475.525070	2527.042203
475.895321	2527.231246
476.265513	2525.466842
476.635645	2533.089067
477.005719	2529.681247
477.375734	2532.292565
477.745691	2530.182842
478.115588	2531.601927
478.485427	2529.068747
478.855207	2532.859694
479.224928	2529.474560
479.594591	2531.354910
479.964194	2529.714014
480.333739	2529.988757
480.703226	2528.776360
481.072653	2531.337266
481.442022	2530.051772
481.811333	2533.847761
482.180584	2528.766277
482.549777	2532.658048
482.918912	2528.710825
483.287988	2533.540250
483.657005	2531.256608
484.025964	2529.114117
484.394864	2528.546987
484.763706	2533.026053
485.132489	2530.165198
485.501213	2534.046886
485.869879	2531.317101
486.238487	2530.815507
486.607036	2531.680064
486.975527	2534.873635
487.343959	2531.959848
487.712333	2532.879859
488.080648	2531.768285
488.448905	2534.228368
488.817104	2533.328522
489.185244	2533.542771
489.553326	2533.893131
489.921350	2533.169725
490.289315	2531.047400
490.657222	2532.529499
491.025070	2530.538243
491.392861	2532.574869
491.760593	2533.845240
492.128267	2532.035466
492.495883	2530.848274
492.863440	2535.564273
493.230939	2531.735517
493.598380	2534.792977
493.965763	2529.277955
494.333088	2530.296268
494.700354	2529.653521
495.067563	2531.755682
495.434713	2527.458098
495.801805	2535.100487
496.168839	2530.019004
496.535815	2531.722914
496.902733	2532.786598
497.269593	2531.601927
497.636395	2530.969262
498.003139	2534.709798
498.369825	2532.524458
498.736453	2533.383974
499.103023	2530.124868
499.469535	2533.028573
499.835989	2532.111083
500.202385	2535.367668
500.568723	2533.389016
500.935003	2535.322298
501.301226	2535.344983
501.667390	2532.910106
502.033497	2532.917668
502.399546	2532.622760
502.765537	2534.573687
503.131470	2535.884387
503.497345	2532.902544
503.863163	2532.753830
504.228923	2534.598893
504.594625	2532.716022
504.960269	2533.275590
505.325856	2534.974458
505.691385	2531.619571
506.056856	2535.249201
506.422270	2534.303985
506.787625	2531.879190
507.152924	2532.678213
507.518164	2534.152750
507.883347	2535.435724
508.248472	2534.208203
508.613540	2535.753317
508.978550	2534.576207
509.343503	2532.854653
509.708398	2536.421270
510.073236	2533.991433
510.438016	2535.685261
510.802738	2535.816331
511.167403	2534.286341
511.532010	2534.845909
511.896561	2534.188038
512.261053	2533.789787
512.625488	2532.756351
512.989866	2529.779549
513.354186	2530.510517
513.718449	2530.727286
514.082655	2530.313912
514.446803	2534.319108
514.810894	2532.204344
515.174927	2536.083512
515.538904	2534.424973
515.902822	2533.651156
516.266684	2534.104859
516.630488	2535.450848
516.994235	2532.431196
517.357925	2534.251053
517.721558	2536.393543
518.085133	2533.169725
518.448651	2537.643749
518.812112	2535.629808
519.175516	2536.393543
519.538863	2536.786753
519.902152	2533.149561
520.265385	2535.410518
520.628560	2537.275745
520.991678	2533.368851
521.354739	2536.448996
521.717743	2533.767102
522.080690	2534.409849
522.443580	2534.392205
522.806413	2534.808100
523.169189	2533.827596
523.531908	2535.160981
523.894569	2535.760878
524.257174	2535.279448
524.619722	2533.010929
524.982213	2532.635363
525.344647	2534.913965
525.707025	2537.056455
526.069345	2533.046217
526.431608	2537.232895
526.793815	2533.086546
527.155964	2533.560415
527.518057	2534.782895
527.880093	2536.698533
528.242072	2536.698533
528.603995	2535.241640
528.965860	2537.895807
529.327669	2537.011085
529.689421	2534.661907
530.051117	2537.547967
530.412755	2536.759027
530.774337	2535.400436
531.135862	2536.181815
531.497331	2536.943029
531.858743	2529.782070
532.220098	2534.561084
532.581396	2530.132430
532.942638	2531.763243
533.303824	2533.147040
533.664953	2535.163502
534.026025	2536.958153
534.387040	2537.656352
534.747999	2536.035621
535.108902	2537.217772
535.469748	2532.272400
535.830537	2537.285828
536.191270	2537.472350
536.551947	2535.095446
536.912567	2536.443955
537.273131	2533.573018
537.633638	2535.695343
537.994089	2537.933616
538.354483	2534.258615
538.714821	2537.613502
539.075103	2534.087215
539.435328	2536.388502
539.795497	2536.428831
540.155609	2534.296423
540.515665	2534.046886
540.875665	2537.242978
541.235609	2535.793646
541.595496	2533.825075
541.955328	2536.680889
542.315102	2539.211548
542.674821	2538.180632
543.034483	2539.750952
543.394090	2539.108205
543.753640	2536.179294
544.113134	2533.585621
544.472571	2535.675179
544.831953	2534.571166
545.191278	2538.450334
545.550548	2535.695343
545.909761	2536.121321
546.268918	2534.414890
546.628019	2536.292720
546.987064	2536.411187
547.346053	2537.633667
547.704986	2536.638039
548.063863	2534.755168
548.422684	2536.464119
548.781449	2537.734490
549.140158	2535.302133
549.498811	2533.875487
549.857408	2535.375230
550.215949	2535.055117
550.574434	2532.000178
550.932864	2535.680220
551.291237	2533.731814
551.649555	2537.353883
552.007817	2533.300795
552.366022	2535.695343
552.724173	2537.137113
553.082267	2539.824048
553.440305	2539.017464
553.798288	2537.512679
554.156215	2537.684079
554.514086	2537.981507
554.871902	2535.783564
555.229661	2535.486136
555.587365	2535.929757
555.945014	2536.312885
556.302606	2535.644932
556.660143	2536.882535
557.017625	2537.472350
557.375050	2538.314223
557.732421	2538.594007
558.089735	2536.471681
558.446994	2534.485467
558.804197	2537.003523
559.161345	2537.195087
559.518437	2536.552340
559.875474	2535.539068
560.232455	2539.211548
560.589381	2533.013450
560.946251	2540.912938
561.303065	2532.816845
561.659825	2534.563604
562.016528	2536.065868
562.373177	2535.682741
562.729770	2538.427649
563.086307	2534.702236
563.442789	2538.699871
563.799216	2538.084850
564.155587	2537.376568
564.511904	2537.379089
564.868164	2536.310364
565.224370	2538.203318
565.580520	2538.793133
565.936615	2537.003523
566.292654	2535.677699
566.648638	2535.486136
567.004567	2536.685930
567.360441	2537.333718
567.716260	2534.533358
568.072023	2537.051414
568.427732	2530.538243
568.783385	2538.150385
569.138982	2535.793646
569.494525	2534.346835
569.850013	2530.833151
570.205445	2537.810108
570.560823	2535.909592
570.916145	2537.230375
571.271412	2533.010929
571.626625	2538.382278
571.981782	2534.336752
572.336884	2538.689789
572.691931	2536.945550
573.046923	2537.686599
573.401860	2535.743234
573.756743	2535.476053
574.111570	2537.888245
574.466342	2534.344314
574.821059	2536.748945
575.175722	2536.937988
575.530330	2537.389171
575.884882	2535.788605
576.239380	2538.089892
576.593823	2538.162988
576.948211	2538.707433
577.302544	2537.870601
577.656823	2537.754655
578.011047	2537.802546
578.365216	2536.965714
578.719330	2535.055117
579.073389	2536.254912
579.427394	2535.667617
579.781344	2536.653163
580.135239	2535.813811
580.489080	2539.133410
580.842866	2538.838503
581.196597	2541.464944
581.550273	2537.860519
581.903895	2536.481763
582.257463	2535.486136
582.610975	2535.879346
582.964434	2538.107536
583.317837	2537.434542
583.671186	2538.974614
584.024481	2535.758358
584.377721	2539.927392
584.730906	2533.860363
585.084037	2539.997968
585.437113	2535.271887
585.790135	2537.326157
586.143103	2536.020498
586.496016	2538.470499
586.848874	2533.583100
587.201679	2535.728111
587.554428	2533.734335
587.907124	2536.055786
588.259765	2532.461443
588.612352	2537.774819
588.964884	2536.204500
589.317362	2536.897659
589.669786	2535.798687
590.022155	2538.669624
590.374470	2537.953780
590.726731	2536.489325
591.078937	2535.627288
591.431090	2538.089892
591.783188	2540.595345
592.135232	2535.551671
592.487222	2537.069058
592.839157	2539.143493
593.191038	2537.094264
593.542866	2536.383461
593.894639	2538.498225
594.246358	2536.998482
594.598022	2535.566794
594.949633	2537.973945
595.301190	2537.653832
595.652692	2536.469161
596.004141	2537.263142
596.355535	2538.606610
596.706876	2536.388502
597.058162	2536.779192
597.409395	2538.825900
597.760573	2537.137113
598.111698	2536.690971
598.462768	2540.398740
598.813785	2537.129552
599.164748	2537.757175
599.515657	2538.848585
599.866511	2535.150899
600.217312	2534.976979
600.568060	2539.556867
600.918753	2538.972093
601.269392	2537.898328
601.619978	2537.570653
601.970510	2538.689789
602.320988	2536.184335
602.671412	2536.542257
603.021783	2535.246681
603.372100	2535.372710
603.722363	2537.046373
604.072572	2538.498225
604.422728	2541.331353
604.772830	2534.278779
605.122878	2532.521937
605.472872	2535.990251
605.822813	2533.993954
606.172701	2536.506969
606.522534	2534.790456
606.872314	2539.025026
607.222041	2537.558050
607.571714	2536.564942
607.921333	2537.926054
608.270899	2535.758358
608.620411	2540.030736
608.969870	2537.986548
609.319276	2541.018802
609.668627	2540.287835
610.017926	2545.455017
610.367171	2546.826211
610.716362	2543.403268
611.065500	2540.766744
611.414585	2541.734646
611.763616	2540.681045
612.112594	2539.405633
612.461518	2541.684234
612.810389	2538.203318
613.159207	2541.469985
613.507971	2538.016795
613.856682	2540.219779
614.205340	2539.445962
614.553945	2538.427649
614.902496	2538.031918
615.250994	2538.770447
615.599439	2535.644932
615.947830	2537.424459
616.296169	2536.953111
616.644454	2535.801208
616.992686	2536.580066
617.340864	2538.614172
617.688990	2540.023174
618.037063	2537.127031
618.385082	2539.456044
618.733048	2539.007382
619.080961	2539.062834
619.428821	2535.816331
619.776628	2537.162319
620.124382	2537.379089
620.472083	2540.073586
620.819731	2537.749614
621.167326	2534.987061
621.514868	2537.358924
621.862357	2536.448996
622.209793	2538.515869
622.557176	2535.967566
622.904506	2536.849768
623.251783	2535.549150
623.599007	2534.074612
623.946179	2534.694674
624.293297	2535.488656
624.640363	2537.099305
624.987376	2538.359593
625.334336	2539.025026
625.681243	2537.800025
626.028097	2536.844727
626.374899	2536.963194
626.721647	2535.604603
627.068343	2535.967566
627.414987	2536.305323
627.761577	2537.852957
628.108115	2538.087371
628.454600	2538.072247
628.801032	2534.810621
629.147412	2535.833975
629.493739	2538.956970
629.840014	2538.518390
630.186236	2537.469830
630.532405	2539.181301
630.878521	2537.512679
631.224585	2535.622247
631.570597	2535.960004
631.916556	2538.694830
632.262462	2535.448327
632.608316	2535.896990
632.954117	2537.815149
633.299866	2535.609644
633.645562	2536.559901
633.991206	2538.936805
634.336797	2535.597041
634.682336	2539.945036
635.027823	2538.173071
635.373257	2532.211906
635.718639	2536.801877
636.063968	2537.936136
636.409245	2539.357742
636.754470	2538.064686
637.099642	2534.886238
637.444762	2541.409491
637.789829	2536.070909
638.134845	2536.272556
638.479808	2535.057637
638.824719	2538.047042
639.169577	2535.649973
639.514383	2537.946219
639.859137	2533.439427
640.203839	2535.793646
640.548489	2536.005374
640.893086	2536.118800
641.237632	2533.530168
641.582125	2534.266176
641.926566	2529.325846
642.270955	2535.289531
642.615292	2537.462268
642.959576	2539.156096
643.303809	2537.028729
643.647990	2537.207690
643.992118	2536.005374
644.336195	2536.116280
