Dividing Wavelength (nm)	Counts (n)	Blue Motor Position (mm): 0.000000	Red Motor Position (mm): 26.000000	
326.493990	2126.305760
326.888308	2126.305760
327.282561	2126.305760
327.676750	2092.950966
328.070874	2096.109249
328.464933	2097.205700
328.858929	2104.797677
329.252859	2111.527618
329.646726	2122.482045
330.040528	2137.164406
330.434265	2153.454894
330.827938	2171.192194
331.221547	2188.362364
331.615091	2209.210056
332.008571	2227.632953
332.401986	2247.346385
332.795338	2266.989241
333.188625	2284.323248
333.581847	2307.051290
333.975006	2320.826243
334.368100	2342.193174
334.761129	2357.989629
335.154095	2373.725591
335.546996	2391.369629
335.939833	2407.670200
336.332606	2421.979516
336.725315	2439.338729
337.117960	2443.202773
337.510540	2455.500668
337.903056	2466.719756
338.295508	2469.948615
338.687896	2482.110399
339.080220	2489.906543
339.472480	2495.444251
339.864676	2500.805518
340.256807	2508.760458
340.648875	2508.271467
341.040879	2512.261540
341.432818	2509.786333
341.824694	2516.894360
342.216506	2515.175327
342.608253	2515.059380
342.999937	2511.565861
343.391557	2512.332116
343.783113	2512.614421
344.174605	2512.097702
344.566033	2511.134842
344.957397	2509.849348
345.348697	2505.365241
345.739934	2503.883142
346.131106	2502.945487
346.522215	2504.210817
346.913260	2500.218223
347.304241	2500.797956
347.695159	2496.800321
348.086012	2496.759992
348.476802	2493.458036
348.867528	2491.625577
349.258191	2493.629435
349.648789	2490.776142
350.039324	2485.855976
350.429796	2487.746409
350.820203	2486.902015
351.210548	2486.302118
351.600828	2485.979484
351.991045	2484.280615
352.381198	2486.705410
352.771288	2482.740543
353.161314	2482.942189
353.551276	2483.980667
353.941175	2482.740543
354.331010	2482.317086
354.720782	2484.706593
355.110490	2483.257261
355.500135	2482.314565
355.889717	2484.850266
356.279235	2483.413537
356.668689	2484.396562
357.058080	2484.583085
357.447408	2479.801550
357.836672	2480.671149
358.225873	2485.026706
358.615010	2483.284987
359.004084	2486.937303
359.393095	2486.728096
359.782043	2489.203302
360.170927	2488.064001
360.559748	2491.197078
360.948505	2490.955103
361.337199	2489.964516
361.725830	2488.840339
362.114398	2491.739003
362.502903	2490.899650
362.891344	2492.401914
363.279722	2492.341420
363.668037	2493.886534
364.056289	2492.601040
364.444478	2495.212358
364.832603	2495.839981
365.220665	2496.843171
365.608665	2497.614467
365.996601	2499.285610
366.384474	2497.548932
366.772284	2499.081443
367.160031	2501.168481
367.547715	2504.838441
367.935336	2505.939933
368.322893	2511.467558
368.710388	2513.531911
369.097820	2519.162879
369.485189	2521.607839
369.872495	2524.781245
370.259738	2533.641073
370.646918	2541.837989
371.034035	2547.201777
371.421090	2558.851884
371.808081	2569.372772
372.195010	2577.579770
372.581875	2591.206009
372.968678	2606.752927
373.355418	2613.931531
373.742096	2633.667648
374.128710	2649.229690
374.515262	2662.377019
374.901751	2676.817404
375.288177	2689.642100
375.674540	2713.968187
376.060841	2731.433265
376.447079	2752.744743
376.833254	2770.482043
377.219367	2782.376645
377.605417	2822.441215
377.991404	2832.006805
378.377329	2852.594877
378.763191	2871.526930
379.148991	2910.641243
379.534727	2929.548091
379.920402	2961.476238
380.306013	2972.516365
380.691563	3021.662574
381.077049	3045.643343
381.462474	3063.267217
381.847835	3102.890686
382.233134	3122.183182
382.618371	3124.058491
383.003545	3190.430323
383.388657	3196.472146
383.773706	3230.918350
384.158693	3245.973756
384.543618	3276.225720
384.928480	3309.313333
385.313280	3352.727750
385.698017	3354.093903
386.082692	3408.745052
386.467305	3414.159251
386.851856	3446.304168
387.236344	3466.741006
387.620770	3497.368536
388.005133	3524.305942
388.389435	3548.236299
388.773674	3564.216757
389.157851	3604.830813
389.541965	3617.889922
389.926018	3584.724171
390.310008	3656.152280
390.693936	3675.570804
391.077802	3716.182340
391.461606	3705.968962
391.845348	3768.350720
392.229027	3768.451543
392.612645	3781.112401
392.996200	3858.168958
393.379694	3897.018610
393.763125	3963.145946
394.146494	3933.085546
394.529801	3989.806088
394.913047	4039.461453
395.296230	4005.889889
395.679351	4062.149166
396.062410	4082.739759
396.445408	4062.796955
396.828343	4098.881534
397.211217	4123.096716
397.594028	4042.982699
397.976778	4108.036269
398.359466	4134.537615
398.742092	4166.087676
399.124656	4085.003237
399.507158	4165.112213
399.889598	4193.493909
400.271977	4252.719905
400.654294	4223.511460
401.036549	4233.147625
401.418742	4201.736196
401.800874	4302.864263
402.182944	4325.448632
402.564952	4388.702510
402.946898	4377.309502
403.328783	4375.003174
403.710606	4288.343219
404.092367	4481.865553
404.474067	4440.560859
404.855705	4454.310606
405.237282	4377.982496
405.618797	4487.597345
406.000250	4523.823077
406.381642	4600.501547
406.762972	4564.308583
407.144240	4574.847115
407.525447	4576.586313
407.906593	4633.768122
408.287677	4677.850491
408.668700	4606.321559
409.049661	4655.392151
409.430560	4697.049726
409.811399	4626.158500
410.192176	4783.077016
410.572891	4726.215321
410.953545	4826.995548
411.334138	4705.783525
411.714669	4775.419503
412.095139	4670.724820
412.475547	4811.577179
412.855894	4797.376249
413.236180	4800.753822
413.616405	4756.817646
413.996568	4843.432231
414.376670	4789.912821
414.756711	4741.338783
415.136691	4773.781128
415.516609	4845.897355
415.896466	4890.665322
416.276262	4919.609106
416.655997	4901.718051
417.035670	5085.589097
417.415283	5171.268548
417.794834	5115.397439
418.174324	5072.897992
418.553753	4978.625894
418.933121	5164.891488
419.312428	5229.196446
419.691674	5170.068753
420.070859	5292.770438
420.449983	5207.849680
420.829045	5325.056507
421.208047	5230.839862
421.586988	5301.320234
421.965867	5311.765505
422.344686	5444.995640
422.723444	5300.145646
423.102141	5119.077482
423.480777	5417.806176
423.859352	5184.753634
424.237866	5447.559066
424.616319	5436.876861
424.994712	5542.259662
425.373044	5421.496301
425.751314	5563.568619
426.129524	5365.975553
426.507673	5561.161468
426.885762	5644.751361
427.263789	5573.756791
427.641756	5457.429646
428.019662	5580.491773
428.397508	5584.781795
428.775292	5531.917735
429.153016	5632.750894
429.530679	5556.289193
429.908282	5644.204396
430.285824	5515.392832
430.663305	5787.947856
431.040726	5520.285272
431.418086	5520.028173
431.795385	5628.385255
432.172624	5636.877078
432.549802	5630.666377
432.926920	5641.101565
433.303977	5648.312936
433.680974	5689.733577
434.057910	5709.900712
434.434786	5712.827102
434.811601	5675.391494
435.188355	5916.010808
435.565050	5784.139265
435.941683	5770.392038
436.318257	5982.337269
436.694770	5960.352797
437.071222	5994.047870
437.447614	5929.700061
437.823946	5837.938458
438.200218	5992.540565
438.576429	5850.682495
438.952580	5943.845539
439.328670	5986.871787
439.704700	5893.368466
440.080670	5872.334251
440.456580	6138.214787
440.832429	6016.385222
441.208218	5859.239854
441.583947	6007.258213
441.959616	6004.593963
442.335224	5931.913128
442.710773	6056.797632
443.086261	6074.368574
443.461689	5858.660121
443.837057	5998.176575
444.212365	6138.088758
444.587612	6020.821438
444.962800	6166.016751
445.337927	6131.232789
445.712995	5743.283233
446.088002	6285.870183
446.462949	6109.207988
446.837837	6023.526017
447.212664	6178.173493
447.587431	6293.988962
447.962139	6774.642816
448.336786	7609.901515
448.711374	7342.644744
449.085901	6479.931921
449.460369	6387.814917
449.834776	6302.906763
450.209124	6622.508355
450.583412	6726.154478
450.957640	6835.481982
451.331808	6596.385096
451.705917	6178.130643
452.079965	6082.310912
452.453954	6233.159879
452.827883	6098.755156
453.201752	6147.329193
453.575562	5945.390653
453.949311	6079.729841
454.323001	5956.299710
454.696632	5979.357947
455.070202	6047.670623
455.443713	6132.369569
455.817164	6171.362894
456.190556	6184.623650
456.563888	6197.130752
456.937160	6185.979720
457.310373	5882.416559
457.683526	5856.333629
458.056619	5730.990380
458.429653	5670.055433
458.802628	5578.104786
459.175542	5609.380105
459.548398	5799.353467
459.921194	5849.649059
460.293930	5801.135515
460.666607	6060.480195
461.039224	6198.086051
461.411782	6213.244801
461.784280	6160.683210
462.156719	6034.649323
462.529099	5886.227671
462.901419	5582.604016
463.273680	5464.139421
463.645882	5406.629938
464.018024	5261.767341
464.390106	5295.258247
464.762130	5427.661632
465.134094	5594.967446
465.505999	6033.358787
465.877845	6541.683535
466.249631	6772.956550
466.621358	6490.609085
466.993026	6095.780875
467.364634	5879.974120
467.736184	5630.346264
468.107674	5412.548253
468.479105	5326.866282
468.850477	5181.262635
469.221790	5005.515409
469.593043	4807.662723
469.964238	4675.503834
470.335373	4614.246253
470.706449	4564.706834
471.077467	4501.982278
471.448425	4842.933156
471.819324	5098.161734
472.190164	5035.253176
472.560945	4593.915280
472.931667	4294.916883
473.302330	4199.906257
473.672934	4052.896128
474.043479	4075.956887
474.413965	4008.203779
474.784393	3917.039553
475.154761	3899.909712
475.525070	3861.077704
475.895321	3781.213224
476.265513	3760.962909
476.635645	3747.596290
477.005719	3687.057073
477.375734	3662.630162
477.745691	3653.717402
478.115588	3624.473669
478.485427	3610.469343
478.855207	3646.163233
479.224928	3715.542113
479.594591	3756.113319
479.964194	3663.164525
480.333739	3596.185234
480.703226	3522.702855
481.072653	3492.140860
481.442022	3473.377685
481.811333	3451.877164
482.180584	3384.134139
482.549777	3308.355514
482.918912	3258.614449
483.287988	3223.102041
483.657005	3188.323120
484.025964	3128.461939
484.394864	3103.604009
484.763706	3064.739234
485.132489	3021.624766
485.501213	2994.223574
485.869879	2973.481746
486.238487	2936.121755
486.607036	2921.378901
486.975527	2890.932852
487.343959	2876.169833
487.712333	2859.957482
488.080648	2837.773885
488.448905	2823.194868
488.817104	2804.429173
489.185244	2798.009263
489.553326	2787.122892
489.921350	2792.448871
490.289315	2806.112918
490.657222	2804.464461
491.025070	2786.926287
491.392861	2774.235182
491.760593	2751.469331
492.128267	2733.278327
492.495883	2717.915411
492.863440	2704.226158
493.230939	2691.900537
493.598380	2685.959537
493.965763	2671.718277
494.333088	2666.846002
494.700354	2662.944149
495.067563	2660.166473
495.434713	2648.579381
495.801805	2652.715648
496.168839	2644.821201
496.535815	2644.949750
496.902733	2640.208545
497.269593	2637.879532
497.636395	2636.420118
498.003139	2632.104890
498.369825	2633.823924
498.736453	2630.045579
499.103023	2626.408386
499.469535	2623.106431
499.835989	2622.829167
500.202385	2620.568210
500.568723	2618.103085
500.935003	2619.149125
501.301226	2615.738784
501.667390	2616.873044
502.033497	2622.042747
502.399546	2614.705348
502.765537	2612.923300
503.131470	2609.843155
503.497345	2613.220728
503.863163	2612.305758
504.228923	2610.793412
504.594625	2609.397013
504.960269	2607.012547
505.325856	2609.986828
505.691385	2604.532299
506.056856	2608.214862
506.422270	2603.803852
506.787625	2603.491301
507.152924	2601.003492
507.518164	2602.480550
507.883347	2604.025663
508.248472	2599.886876
508.613540	2601.691609
508.978550	2601.366455
509.343503	2601.875611
509.708398	2602.888883
510.073236	2603.176229
510.438016	2603.413163
510.802738	2599.181114
511.167403	2600.297730
511.532010	2598.913933
511.896561	2601.742021
512.261053	2601.424428
512.625488	2596.660537
512.989866	2595.145671
513.354186	2598.351845
513.718449	2594.122317
514.082655	2596.821854
514.446803	2596.045517
514.810894	2598.813110
515.174927	2596.902513
515.538904	2598.218254
515.902822	2595.448140
516.266684	2598.898810
516.630488	2597.663727
516.994235	2598.510641
517.357925	2596.912595
517.721558	2599.468460
518.085133	2600.166660
518.448651	2600.000302
518.812112	2596.978130
519.175516	2596.148860
519.538863	2595.153232
519.902152	2598.568614
520.265385	2598.465271
520.628560	2597.338573
520.991678	2597.250352
521.354739	2599.206320
521.717743	2595.173397
522.080690	2600.063316
522.443580	2600.844695
522.806413	2593.656010
523.169189	2598.740013
523.531908	2597.903182
523.894569	2598.440065
524.257174	2598.921495
524.619722	2599.092894
524.982213	2599.554160
525.344647	2596.738675
525.707025	2598.341762
526.069345	2601.197576
526.431608	2597.981320
526.793815	2598.331680
527.155964	2597.756988
527.518057	2597.814962
527.880093	2596.766402
528.242072	2598.591299
528.603995	2595.405290
528.965860	2597.613316
529.327669	2597.641042
529.689421	2593.640886
530.051117	2597.772112
530.412755	2599.319746
530.774337	2596.405959
531.135862	2599.397884
531.497331	2595.823706
531.858743	2591.072418
532.220098	2594.202975
532.581396	2590.069229
532.942638	2595.009560
533.303824	2593.582913
533.664953	2595.478387
534.026025	2595.281782
534.387040	2597.562904
534.747999	2596.431165
535.108902	2596.337904
535.469748	2594.550815
535.830537	2595.914447
536.191270	2594.170207
536.551947	2596.905033
536.912567	2596.884869
537.273131	2594.598706
537.633638	2594.046699
537.994089	2595.410331
538.354483	2593.260279
538.714821	2595.687595
539.075103	2596.388315
539.435328	2595.052409
539.795497	2595.095259
540.155609	2593.030907
540.515665	2594.432347
540.875665	2596.360589
541.235609	2595.680033
541.595496	2595.170877
541.955328	2596.032914
542.315102	2595.541401
542.674821	2595.407811
543.034483	2594.749940
543.394090	2595.022162
543.753640	2596.171546
544.113134	2592.660382
544.472571	2595.569128
544.831953	2599.695312
545.191278	2597.636001
545.550548	2594.480238
545.909761	2597.260435
546.268918	2595.400249
546.628019	2594.860846
546.987064	2595.125506
547.346053	2594.901175
547.704986	2597.562904
548.063863	2595.700198
548.422684	2598.815631
548.781449	2594.041658
549.140158	2595.556525
549.498811	2596.161463
549.857408	2593.653489
550.215949	2591.422779
550.574434	2591.183324
550.932864	2592.839343
551.291237	2590.961513
551.649555	2595.964858
552.007817	2597.487287
552.366022	2596.448809
552.724173	2598.114910
553.082267	2595.211206
553.440305	2597.625918
553.798288	2594.001329
554.156215	2593.897985
554.514086	2598.203131
554.871902	2595.823706
555.229661	2596.254725
555.587365	2595.780856
555.945014	2595.624580
556.302606	2596.635332
556.660143	2596.922678
557.017625	2595.032245
557.375050	2595.622060
557.732421	2596.829416
558.089735	2596.143819
558.446994	2594.351689
558.804197	2595.370002
559.161345	2598.515682
559.518437	2596.277410
559.875474	2595.785897
560.232455	2596.327821
560.589381	2593.106524
560.946251	2597.633480
561.303065	2596.398397
561.659825	2595.271700
562.016528	2595.057451
562.373177	2595.904364
562.729770	2596.781525
563.086307	2593.731627
563.442789	2596.332862
563.799216	2595.566607
564.155587	2596.811772
564.511904	2597.618357
564.868164	2598.545929
565.224370	2596.844540
565.580520	2592.859507
565.936615	2597.401587
566.292654	2593.996288
566.648638	2593.726586
567.004567	2593.610639
567.360441	2596.824375
567.716260	2593.842533
568.072023	2596.501741
568.427732	2592.488983
568.783385	2592.526791
569.138982	2591.808427
569.494525	2592.642738
569.850013	2592.030238
570.205445	2593.769436
570.560823	2594.094590
570.916145	2592.645258
571.271412	2595.911926
571.626625	2596.637852
571.981782	2592.050402
572.336884	2592.584765
572.691931	2594.772625
573.046923	2591.886565
573.401860	2592.478900
573.756743	2589.630648
574.111570	2594.172728
574.466342	2591.631987
574.821059	2592.952769
575.175722	2591.546287
575.530330	2591.349682
575.884882	2591.987388
576.239380	2590.926225
576.593823	2592.060485
576.948211	2591.294229
577.302544	2590.283478
577.656823	2592.345310
578.011047	2593.572831
578.365216	2592.756164
578.719330	2590.870772
579.073389	2593.466967
579.427394	2590.676688
579.781344	2590.104517
580.135239	2589.716348
580.489080	2586.449680
580.842866	2587.203333
581.196597	2591.803386
581.550273	2587.956985
581.903895	2590.722058
582.257463	2590.149887
582.610975	2586.777355
582.964434	2590.129723
583.317837	2588.985381
583.671186	2594.427306
584.024481	2587.972109
584.377721	2588.072932
584.730906	2585.892633
585.084037	2587.808271
585.437113	2587.899012
585.790135	2589.847418
586.143103	2586.416913
586.496016	2588.161152
586.848874	2584.019844
587.201679	2585.257447
587.554428	2582.976325
587.907124	2585.658219
588.259765	2583.876171
588.612352	2588.796337
588.964884	2587.034454
589.317362	2587.039495
589.669786	2583.878692
590.022155	2588.486307
590.374470	2586.726944
590.726731	2586.270719
591.078937	2581.983218
591.431090	2585.978332
591.783188	2584.881882
592.135232	2585.466655
592.487222	2585.517067
592.839157	2585.086048
593.191038	2583.654361
593.542866	2583.951789
593.894639	2584.912128
594.246358	2583.641758
594.598022	2583.177972
594.949633	2582.341140
595.301190	2582.454566
595.652692	2582.073959
596.004141	2581.443815
596.355535	2586.190061
596.706876	2581.857189
597.058162	2581.587487
597.409395	2584.677715
597.760573	2582.573033
598.111698	2579.634040
598.462768	2582.862899
598.813785	2583.248548
599.164748	2582.046232
599.515657	2580.236458
599.866511	2581.710996
600.217312	2582.242837
600.568060	2584.339958
600.918753	2583.508167
601.269392	2582.610842
601.619978	2580.765779
601.970510	2581.486664
602.320988	2581.663105
602.671412	2581.237127
603.021783	2582.842735
603.372100	2580.929617
603.722363	2579.034143
604.072572	2584.060173
604.422728	2583.692169
604.772830	2580.024730
605.122878	2576.407702
605.472872	2580.148238
605.822813	2578.053639
606.172701	2579.865933
606.522534	2579.724781
606.872314	2581.542117
607.222041	2583.122519
607.571714	2581.045563
607.921333	2577.824266
608.270899	2582.406675
608.620411	2583.614031
608.969870	2583.445153
609.319276	2584.468507
609.668627	2582.699062
610.017926	2586.328693
610.367171	2588.161152
610.716362	2585.648137
611.065500	2585.428847
611.414585	2583.732498
611.763616	2584.203846
612.112594	2583.309042
612.461518	2585.030596
612.810389	2583.117478
613.159207	2583.974474
613.507971	2585.028075
613.856682	2581.564802
614.205340	2584.529001
614.553945	2582.769638
614.902496	2584.357602
615.250994	2583.046902
615.599439	2583.477920
615.947830	2584.145873
616.296169	2583.694690
616.644454	2580.117991
616.992686	2581.927765
617.340864	2579.344174
617.688990	2581.277457
618.037063	2585.897674
618.385082	2581.640420
618.733048	2583.316603
619.080961	2581.063207
619.428821	2581.355594
619.776628	2582.847776
620.124382	2582.464648
620.472083	2581.506829
620.819731	2583.792992
621.167326	2581.658064
621.514868	2583.520770
621.862357	2577.642785
622.209793	2582.815008
622.557176	2580.914493
622.904506	2579.472723
623.251783	2575.381827
623.599007	2578.308217
623.946179	2574.439131
624.293297	2578.618248
624.640363	2575.273442
624.987376	2579.371900
625.334336	2577.078175
625.681243	2578.542631
626.028097	2579.707137
626.374899	2577.645305
626.721647	2575.061714
627.068343	2578.033474
627.414987	2576.816035
627.761577	2573.544327
628.108115	2574.749162
628.454600	2574.958370
628.801032	2576.503484
629.147412	2575.412074
629.493739	2576.069945
629.840014	2574.479461
630.186236	2576.962229
630.532405	2574.870150
630.878521	2575.139852
631.224585	2576.493402
631.570597	2571.459809
631.916556	2576.609348
632.262462	2572.510890
632.608316	2574.237485
632.954117	2573.693041
633.299866	2573.249419
633.645562	2572.825962
633.991206	2570.844789
634.336797	2574.539954
634.682336	2572.299162
635.027823	2569.675241
635.373257	2575.933833
635.718639	2569.821434
636.063968	2572.493246
636.409245	2571.885787
636.754470	2567.033676
637.099642	2570.401167
637.444762	2570.537278
637.789829	2567.300857
638.134845	2571.265725
638.479808	2569.057700
638.824719	2568.835889
639.169577	2570.592731
639.514383	2568.661969
639.859137	2567.908317
640.203839	2570.252453
640.548489	2566.917730
640.893086	2566.559808
641.237632	2561.077553
641.582125	2565.165929
641.926566	2562.176525
642.270955	2568.752710
642.615292	2568.745148
642.959576	2565.808676
643.303809	2569.695406
643.647990	2566.395970
643.992118	2564.702143
644.336195	2566.688357
