Dividing Wavelength (nm)	Counts (n)	Blue Motor Position (mm): 0.000000	Red Motor Position (mm): 2.600000	
326.493990	2129.411111
326.888308	2129.411111
327.282561	2129.411111
327.676750	2098.186204
328.070874	2095.607654
328.464933	2098.198807
328.858929	2107.353542
329.252859	2115.101796
329.646726	2127.755092
330.040528	2138.233130
330.434265	2154.964720
330.827938	2173.306958
331.221547	2189.310101
331.615091	2208.332895
332.008571	2229.472974
332.401986	2249.325038
332.795338	2268.277255
333.188625	2286.329627
333.581847	2307.457103
333.975006	2324.849084
334.368100	2345.522856
334.761129	2360.754702
335.154095	2377.730788
335.546996	2394.414486
335.939833	2413.880902
336.332606	2423.484300
336.725315	2437.261773
337.117960	2444.515994
337.510540	2453.910184
337.903056	2463.279168
338.295508	2471.652525
338.687896	2482.105358
339.080220	2489.994763
339.472480	2495.890393
339.864676	2502.353152
340.256807	2504.795591
340.648875	2508.596621
341.040879	2509.889677
341.432818	2513.927641
341.824694	2513.325223
342.216506	2513.108454
342.608253	2514.653567
342.999937	2512.097702
343.391557	2513.113495
343.783113	2512.102743
344.174605	2511.172651
344.566033	2510.653412
344.957397	2509.178874
345.348697	2506.706188
345.739934	2504.843482
346.131106	2504.170488
346.522215	2500.780312
346.913260	2497.528768
347.304241	2497.261587
347.695159	2496.175218
348.086012	2492.694301
348.476802	2492.454846
348.867528	2488.631131
349.258191	2487.857314
349.648789	2489.548621
350.039324	2486.193733
350.429796	2486.634834
350.820203	2484.837663
351.210548	2485.077118
351.600828	2482.407827
351.991045	2484.709113
352.381198	2482.042343
352.771288	2481.460090
353.161314	2483.055615
353.551276	2481.417240
353.941175	2481.971767
354.331010	2478.778196
354.720782	2479.715851
355.110490	2476.938175
355.500135	2478.417753
355.889717	2480.255254
356.279235	2479.857003
356.668689	2483.111068
357.058080	2479.862044
357.447408	2475.970273
357.836672	2476.292907
358.225873	2477.951447
358.615010	2482.029740
359.004084	2482.861531
359.393095	2482.705255
359.782043	2483.300111
360.170927	2484.726758
360.559748	2485.200626
360.948505	2484.406644
361.337199	2487.350678
361.725830	2486.660040
362.114398	2485.530822
362.502903	2485.866058
362.891344	2488.421923
363.279722	2488.316059
363.668037	2487.428816
364.056289	2487.317911
364.444478	2488.278250
364.832603	2489.846049
365.220665	2487.527118
365.608665	2490.587099
365.996601	2491.302943
366.384474	2492.515340
366.772284	2492.074239
367.160031	2488.777325
367.547715	2494.131030
367.935336	2493.148005
368.322893	2491.287819
368.710388	2492.991729
369.097820	2494.035248
369.485189	2495.787049
369.872495	2492.449805
370.259738	2496.553304
370.646918	2495.996257
371.034035	2493.861328
371.421090	2495.454333
371.808081	2494.466267
372.195010	2497.105311
372.581875	2494.751092
372.968678	2495.968531
373.355418	2494.224291
373.742096	2497.647235
374.128710	2497.014570
374.515262	2497.987513
374.901751	2494.057933
375.288177	2497.070023
375.674540	2498.637822
376.060841	2499.053717
376.447079	2497.811072
376.833254	2498.068171
377.219367	2494.221771
377.605417	2496.339055
377.991404	2493.004332
378.377329	2495.756802
378.763191	2496.865856
379.148991	2498.484066
379.534727	2496.954076
379.920402	2501.823831
380.306013	2499.094046
380.691563	2499.789725
381.077049	2500.177894
381.462474	2498.864673
381.847835	2500.187976
382.233134	2499.300733
382.618371	2501.518841
383.003545	2503.232833
383.388657	2503.018584
383.773706	2501.970024
384.158693	2501.228975
384.543618	2501.440703
384.928480	2502.050683
385.313280	2503.678975
385.698017	2503.893224
386.082692	2504.898935
386.467305	2502.194356
386.851856	2504.039418
387.236344	2501.992709
387.620770	2507.439676
388.005133	2503.530261
388.389435	2506.751559
388.773674	2506.048318
389.157851	2501.468429
389.541965	2506.559995
389.926018	2506.287773
390.310008	2505.196363
390.693936	2504.994717
391.077802	2505.360200
391.461606	2505.488750
391.845348	2506.030674
392.229027	2504.548574
392.612645	2508.616786
392.996200	2507.404388
393.379694	2507.802639
393.763125	2508.392454
394.146494	2506.413801
394.529801	2506.643174
394.913047	2509.504029
395.296230	2510.272805
395.679351	2507.482526
396.062410	2509.206601
396.445408	2508.291631
396.828343	2509.032681
397.211217	2506.950684
397.594028	2506.996055
397.976778	2505.241733
398.359466	2507.376662
398.742092	2507.553102
399.124656	2510.789523
399.507158	2510.565192
399.889598	2507.807680
400.271977	2511.349091
400.654294	2511.643998
401.036549	2508.682321
401.418742	2510.895387
401.800874	2512.085099
402.182944	2509.337671
402.564952	2513.063083
402.946898	2509.466220
403.328783	2511.525531
403.710606	2510.083761
404.092367	2512.836231
404.474067	2513.862106
404.855705	2512.556447
405.237282	2514.056191
405.618797	2511.903618
406.000250	2513.327744
406.381642	2514.149452
406.762972	2514.338495
407.144240	2511.570902
407.525447	2514.615759
407.906593	2513.572240
408.287677	2513.814215
408.668700	2513.262209
409.049661	2515.838238
409.430560	2514.202384
409.811399	2519.150277
410.192176	2515.321520
410.572891	2516.861593
410.953545	2515.621469
411.334138	2517.821932
411.714669	2514.159534
412.095139	2516.221366
412.475547	2516.269257
412.855894	2513.421005
413.236180	2516.218846
413.616405	2515.198012
413.996568	2517.096006
414.376670	2515.182888
414.756711	2517.761439
415.136691	2515.893691
415.516609	2516.269257
415.896466	2518.225225
416.276262	2518.131963
416.655997	2513.841942
417.035670	2514.691376
417.415283	2515.593742
417.794834	2512.969822
418.174324	2518.283198
418.553753	2518.315966
418.933121	2518.724299
419.312428	2517.849659
419.691674	2515.651716
420.070859	2518.711696
420.449983	2517.809330
420.829045	2517.637930
421.208047	2520.493744
421.586988	2519.384690
421.965867	2518.704134
422.344686	2519.755215
422.723444	2519.172962
423.102141	2519.001563
423.480777	2520.599608
423.859352	2518.820081
424.237866	2519.740092
424.616319	2520.839063
424.994712	2519.485513
425.373044	2521.539783
425.751314	2520.040040
426.129524	2519.271264
426.507673	2518.119361
426.885762	2519.069618
427.263789	2523.977181
427.641756	2518.575585
428.019662	2519.863600
428.397508	2521.436440
428.775292	2523.364681
429.153016	2521.585154
429.530679	2522.399300
429.908282	2522.888292
430.285824	2519.188085
430.663305	2522.883251
431.040726	2524.529188
431.418086	2520.158507
431.795385	2524.814013
432.172624	2518.933507
432.549802	2523.710000
432.926920	2523.493231
433.303977	2523.924249
433.680974	2524.312418
434.057910	2523.614218
434.434786	2521.738909
434.811601	2523.382325
435.188355	2521.219670
435.565050	2524.244363
435.941683	2524.083046
436.318257	2521.562469
436.694770	2518.005935
437.071222	2522.598426
437.447614	2516.460821
437.823946	2519.311593
438.200218	2521.295288
438.576429	2523.841070
438.952580	2524.352747
439.328670	2526.603622
439.704700	2525.862573
440.080670	2523.848632
440.456580	2523.611698
440.832429	2522.984074
441.208218	2526.646472
441.583947	2525.693694
441.959616	2524.662778
442.335224	2525.607995
442.710773	2525.716379
443.086261	2526.583458
443.461689	2523.127747
443.837057	2523.228570
444.212365	2523.586492
444.587612	2527.160670
444.962800	2525.721421
445.337927	2527.052285
445.712995	2524.398118
446.088002	2525.597912
446.462949	2527.339631
446.837837	2524.907274
447.212664	2526.802748
447.587431	2527.856349
447.962139	2528.194107
448.336786	2526.757378
448.711374	2524.985412
449.085901	2527.437933
449.460369	2526.717048
449.834776	2526.419620
450.209124	2528.708304
450.583412	2525.915505
450.957640	2528.060516
451.331808	2527.110258
451.705917	2527.891637
452.079965	2526.961544
452.453954	2527.909281
452.827883	2525.204702
453.201752	2526.321318
453.575562	2528.362985
453.949311	2528.617563
454.323001	2525.983561
454.696632	2527.281658
455.070202	2530.286185
455.443713	2528.244518
455.817164	2524.743437
456.190556	2524.801410
456.563888	2525.179497
456.937160	2521.254958
457.310373	2528.037831
457.683526	2529.192255
458.056619	2529.961031
458.429653	2528.410876
458.802628	2529.025897
459.175542	2526.013808
459.548398	2529.943387
459.921194	2526.948942
460.293930	2528.471370
460.666607	2525.640762
461.039224	2527.276617
461.411782	2528.909950
461.784280	2531.929602
462.156719	2529.635877
462.529099	2529.519930
462.901419	2528.191586
463.273680	2530.492873
463.645882	2530.112266
464.018024	2529.829961
464.390106	2528.667975
464.762130	2530.442461
465.134094	2527.805938
465.505999	2530.129910
465.877845	2532.342976
466.249631	2528.753675
466.621358	2530.281144
466.993026	2533.109232
467.364634	2531.823737
467.736184	2532.156453
468.107674	2528.920033
468.479105	2527.511030
468.850477	2529.860208
469.221790	2530.034128
469.593043	2529.277955
469.964238	2531.070085
470.335373	2531.561597
470.706449	2528.294930
471.077467	2530.818027
471.448425	2533.270548
471.819324	2527.576565
472.190164	2530.281144
472.560945	2532.983203
472.931667	2531.886752
473.302330	2530.616381
473.672934	2531.531350
474.043479	2530.361803
474.413965	2531.279293
474.784393	2526.611184
475.154761	2529.731658
475.525070	2527.831143
475.895321	2528.093283
476.265513	2531.647297
476.635645	2528.791483
477.005719	2530.792821
477.375734	2531.738038
477.745691	2530.031607
478.115588	2532.393388
478.485427	2530.916330
478.855207	2531.848943
479.224928	2531.783408
479.594591	2534.994623
479.964194	2532.879859
480.333739	2531.533871
480.703226	2532.993285
481.072653	2533.129396
481.442022	2533.147040
481.811333	2532.786598
482.180584	2530.565969
482.549777	2531.428007
482.918912	2535.695343
483.287988	2532.922709
483.657005	2533.099149
484.025964	2533.673841
484.394864	2533.295754
484.763706	2530.913809
485.132489	2532.486649
485.501213	2533.446989
485.869879	2533.235260
486.238487	2531.412883
486.607036	2530.719725
486.975527	2535.123173
487.343959	2530.397091
487.712333	2531.385157
488.080648	2532.763913
488.448905	2532.481608
488.817104	2535.166022
489.185244	2531.896834
489.553326	2533.421783
489.921350	2534.767771
490.289315	2530.833151
490.657222	2532.509334
491.025070	2532.398429
491.392861	2535.410518
491.760593	2534.820703
492.128267	2534.848430
492.495883	2531.879190
492.863440	2532.844571
493.230939	2530.530681
493.598380	2533.310878
493.965763	2530.394570
494.333088	2532.010260
494.700354	2528.612522
495.067563	2529.900537
495.434713	2527.410207
495.801805	2534.520755
496.168839	2534.258615
496.535815	2536.242309
496.902733	2534.011598
497.269593	2534.677030
497.636395	2532.854653
498.003139	2538.594007
498.369825	2532.534540
498.736453	2533.099149
499.103023	2534.641742
499.469535	2534.263656
499.835989	2532.849612
500.202385	2534.162833
500.568723	2534.261135
500.935003	2534.757689
501.301226	2538.732639
501.667390	2535.463450
502.033497	2534.863553
502.399546	2535.465971
502.765537	2533.477236
503.131470	2533.890610
503.497345	2536.932947
503.863163	2535.922195
504.228923	2532.184180
504.594625	2535.690302
504.960269	2534.964376
505.325856	2534.117462
505.691385	2533.930940
506.056856	2535.236598
506.422270	2534.949253
506.787625	2535.123173
507.152924	2535.528985
507.518164	2535.690302
507.883347	2535.077802
508.248472	2535.155940
508.613540	2536.993441
508.978550	2536.438914
509.343503	2537.215251
509.708398	2535.203831
510.073236	2534.944212
510.438016	2537.071578
510.802738	2536.360776
511.167403	2534.016639
511.532010	2535.463450
511.896561	2534.026722
512.261053	2536.978317
512.625488	2530.923891
512.989866	2531.092770
513.354186	2532.804242
513.718449	2532.554705
514.082655	2534.072092
514.446803	2535.090405
514.810894	2535.803728
515.174927	2537.157278
515.538904	2537.757175
515.902822	2537.787422
516.266684	2536.748945
516.630488	2532.244674
516.994235	2538.533513
517.357925	2538.626774
517.721558	2536.028060
518.085133	2534.765251
518.448651	2537.164840
518.812112	2536.383461
519.175516	2532.615198
519.538863	2536.824562
519.902152	2534.601413
520.265385	2535.783564
520.628560	2535.592000
520.991678	2535.791125
521.354739	2535.322298
521.717743	2536.126362
522.080690	2536.572504
522.443580	2533.847761
522.806413	2535.516383
523.169189	2534.495549
523.531908	2534.329191
523.894569	2534.543440
524.257174	2535.362627
524.619722	2538.500746
524.982213	2537.429500
525.344647	2536.010416
525.707025	2537.235416
526.069345	2535.687782
526.431608	2538.835982
526.793815	2537.779861
527.155964	2537.749614
527.518057	2533.167205
527.880093	2539.403112
528.242072	2534.861033
528.603995	2537.038811
528.965860	2534.006557
529.327669	2539.156096
529.689421	2533.724252
530.051117	2537.863040
530.412755	2534.447658
530.774337	2535.962525
531.135862	2537.731970
531.497331	2534.119983
531.858743	2531.203675
532.220098	2533.774664
532.581396	2533.540250
532.942638	2532.345497
533.303824	2534.266176
533.664953	2536.748945
534.026025	2537.074099
534.387040	2537.850437
534.747999	2538.019315
535.108902	2538.664583
535.469748	2536.817000
535.830537	2538.447813
536.191270	2535.604603
536.551947	2538.846065
536.912567	2534.493028
537.273131	2537.237937
537.633638	2535.370189
537.994089	2535.322298
538.354483	2538.452855
538.714821	2535.377751
539.075103	2536.002854
539.435328	2538.089892
539.795497	2536.048224
540.155609	2540.423946
540.515665	2533.804911
540.875665	2540.461754
541.235609	2537.411856
541.595496	2537.326157
541.955328	2536.466640
542.315102	2538.992258
542.674821	2536.552340
543.034483	2536.796836
543.394090	2536.718698
543.753640	2540.872608
544.113134	2536.023018
544.472571	2538.500746
544.831953	2536.005374
545.191278	2540.222300
545.550548	2536.907741
545.909761	2535.329860
546.268918	2538.714995
546.628019	2536.201979
546.987064	2537.011085
547.346053	2536.713657
547.704986	2537.752134
548.063863	2538.004192
548.422684	2536.335570
548.781449	2538.415046
549.140158	2538.687268
549.498811	2539.836651
549.857408	2539.574511
550.215949	2533.575538
550.574434	2534.608975
550.932864	2536.247350
551.291237	2534.218285
551.649555	2538.956970
552.007817	2537.139634
552.366022	2538.994779
552.724173	2537.638708
553.082267	2533.477236
553.440305	2536.874973
553.798288	2535.302133
554.156215	2536.441434
554.514086	2535.050076
554.871902	2536.207021
555.229661	2537.399253
555.587365	2536.766589
555.945014	2537.101825
556.302606	2535.700385
556.660143	2535.697864
557.017625	2538.289017
557.375050	2538.339429
557.732421	2537.752134
558.089735	2536.940508
558.446994	2538.457896
558.804197	2536.209541
559.161345	2536.307844
559.518437	2539.796322
559.875474	2539.360262
560.232455	2537.406815
560.589381	2539.902186
560.946251	2540.870088
561.303065	2538.031918
561.659825	2537.225334
562.016528	2536.481763
562.373177	2537.621064
562.729770	2538.097453
563.086307	2538.755324
563.442789	2536.842206
563.799216	2537.018646
564.155587	2537.963863
564.511904	2537.938657
564.868164	2538.001671
565.224370	2537.527803
565.580520	2539.216589
565.936615	2537.855478
566.292654	2535.173584
566.648638	2538.357073
567.004567	2535.445806
567.360441	2538.964532
567.716260	2535.478574
568.072023	2539.960160
568.427732	2532.423635
568.783385	2536.832124
569.138982	2534.777853
569.494525	2535.171063
569.850013	2535.914634
570.205445	2539.695499
570.560823	2538.175591
570.916145	2534.450178
571.271412	2537.628626
571.626625	2537.434542
571.981782	2537.842875
572.336884	2538.984696
572.691931	2537.888245
573.046923	2536.786753
573.401860	2536.529654
573.756743	2538.800694
574.111570	2537.646270
574.466342	2538.162988
574.821059	2538.614172
575.175722	2536.703574
575.530330	2536.058307
575.884882	2537.205169
576.239380	2537.835313
576.593823	2539.937474
576.948211	2537.469830
577.302544	2541.477547
577.656823	2541.028884
578.011047	2539.861857
578.365216	2535.186187
578.719330	2538.168029
579.073389	2538.281455
579.427394	2536.249870
579.781344	2538.215920
580.135239	2537.439583
580.489080	2538.276414
580.842866	2537.618544
581.196597	2541.260777
581.550273	2539.476209
581.903895	2536.751465
582.257463	2539.350180
582.610975	2535.050076
582.964434	2539.869419
583.317837	2539.428318
583.671186	2538.319264
584.024481	2538.651980
584.377721	2537.432021
584.730906	2539.942516
585.084037	2539.544264
585.437113	2541.727084
585.790135	2538.636857
586.143103	2539.314892
586.496016	2537.900848
586.848874	2532.592513
587.201679	2534.182997
587.554428	2535.254242
587.907124	2535.110570
588.259765	2534.177956
588.612352	2540.895294
588.964884	2537.575694
589.317362	2536.854809
589.669786	2535.554191
590.022155	2538.982176
590.374470	2535.327339
590.726731	2538.157947
591.078937	2540.486960
591.431090	2537.946219
591.783188	2537.164840
592.135232	2538.039480
592.487222	2539.279604
592.839157	2540.731456
593.191038	2539.067875
593.542866	2538.266332
593.894639	2537.749614
594.246358	2539.955118
594.598022	2538.039480
594.949633	2539.672814
595.301190	2537.459747
595.652692	2540.018133
596.004141	2541.517876
596.355535	2539.829090
596.706876	2537.137113
597.058162	2537.500077
597.409395	2537.694161
597.760573	2537.822710
598.111698	2537.288348
598.462768	2539.483771
598.813785	2538.062165
599.164748	2536.000333
599.515657	2537.963863
599.866511	2536.983358
600.217312	2538.455375
600.568060	2538.551157
600.918753	2541.341436
601.269392	2540.020653
601.619978	2539.503935
601.970510	2537.232895
602.320988	2536.824562
602.671412	2536.368338
603.021783	2536.461599
603.372100	2536.670807
603.722363	2536.552340
604.072572	2540.076106
604.422728	2538.838503
604.772830	2534.944212
605.122878	2535.213913
605.472872	2535.297092
605.822813	2533.754499
606.172701	2538.709953
606.522534	2539.009902
606.872314	2539.115766
607.222041	2536.136444
607.571714	2538.578883
607.921333	2540.096271
608.270899	2539.403112
608.620411	2540.310520
608.969870	2538.334388
609.319276	2540.796991
609.668627	2544.114070
610.017926	2546.044832
610.367171	2546.377548
610.716362	2546.564071
611.065500	2544.882846
611.414585	2542.039636
611.763616	2543.075593
612.112594	2540.403781
612.461518	2541.361600
612.810389	2539.030067
613.159207	2541.757331
613.507971	2539.042670
613.856682	2541.202804
614.205340	2540.854964
614.553945	2539.393030
614.902496	2537.764737
615.250994	2540.829759
615.599439	2539.982845
615.947830	2539.723225
616.296169	2539.014943
616.644454	2541.535520
616.992686	2536.564943
617.340864	2539.725746
617.688990	2540.260108
618.037063	2539.476209
618.385082	2538.805735
618.733048	2542.639533
619.080961	2536.837165
619.428821	2539.093081
619.776628	2537.321116
620.124382	2537.537885
620.472083	2541.243133
620.819731	2542.785726
621.167326	2539.748431
621.514868	2538.825900
621.862357	2540.686086
622.209793	2537.522762
622.557176	2540.227341
622.904506	2534.198121
623.251783	2531.899355
623.599007	2536.509490
623.946179	2536.703574
624.293297	2535.493697
624.640363	2536.867412
624.987376	2539.244316
625.334336	2540.060983
625.681243	2537.200128
626.028097	2537.532844
626.374899	2538.069727
626.721647	2540.406302
627.068343	2537.212731
627.414987	2538.543595
627.761577	2539.879501
628.108115	2537.371527
628.454600	2540.292876
628.801032	2537.673996
629.147412	2537.235416
629.493739	2536.741383
629.840014	2543.209183
630.186236	2538.145344
630.532405	2542.037115
630.878521	2538.525951
631.224585	2538.072248
631.570597	2537.429500
631.916556	2539.899666
632.262462	2538.069727
632.608316	2538.931764
632.954117	2534.485467
633.299866	2534.994623
633.645562	2536.040663
633.991206	2539.461085
634.336797	2536.839685
634.682336	2539.382947
635.027823	2537.182484
635.373257	2539.761034
635.718639	2538.551157
636.063968	2538.669624
636.409245	2537.426980
636.754470	2538.387320
637.099642	2537.961342
637.444762	2537.752134
637.789829	2538.762886
638.134845	2539.009902
638.479808	2538.956970
638.824719	2538.500746
639.169577	2538.054603
639.514383	2538.082330
639.859137	2535.496218
640.203839	2538.851106
640.548489	2537.278266
640.893086	2536.264994
641.237632	2534.422452
641.582125	2536.980838
641.926566	2532.388347
642.270955	2538.891435
642.615292	2539.239275
642.959576	2538.546116
643.303809	2537.484953
643.647990	2538.226003
643.992118	2538.861188
644.336195	2537.285827
