Dividing Wavelength (nm)	Counts (n)	Blue Motor Position (mm): 0.000000	Red Motor Position (mm): 24.000000	
326.493990	2127.681995
326.888308	2127.681995
327.282561	2127.681995
327.676750	2094.667479
328.070874	2093.180338
328.464933	2098.108066
328.858929	2104.301124
329.252859	2114.017948
329.646726	2123.626387
330.040528	2137.794550
330.434265	2154.367343
330.827938	2169.450475
331.221547	2190.880420
331.615091	2207.150744
332.008571	2225.709752
332.401986	2245.334964
332.795338	2265.197110
333.188625	2286.574123
333.581847	2302.743624
333.975006	2323.671974
334.368100	2343.191322
334.761129	2358.098014
335.154095	2376.742722
335.546996	2391.788045
335.939833	2407.314799
336.332606	2423.650658
336.725315	2436.755137
337.117960	2445.637651
337.510540	2455.672067
337.903056	2466.250929
338.295508	2472.252422
338.687896	2480.726602
339.080220	2490.027531
339.472480	2496.727224
339.864676	2500.107318
340.256807	2503.605879
340.648875	2509.914883
341.040879	2510.282887
341.432818	2514.414113
341.824694	2512.821108
342.216506	2515.077024
342.608253	2515.704648
342.999937	2515.681963
343.391557	2515.573578
343.783113	2514.519977
344.174605	2513.942765
344.566033	2509.708195
344.957397	2509.446055
345.348697	2507.510252
345.739934	2507.056548
346.131106	2501.980107
346.522215	2501.360045
346.913260	2501.765858
347.304241	2502.040600
347.695159	2499.341063
348.086012	2496.288644
348.476802	2491.275216
348.867528	2493.321925
349.258191	2489.296563
349.648789	2489.258755
350.039324	2488.691625
350.429796	2487.993425
350.820203	2487.562407
351.210548	2485.515698
351.600828	2485.417396
351.991045	2485.830770
352.381198	2485.036788
352.771288	2482.753146
353.161314	2482.700214
353.551276	2483.259782
353.941175	2482.959833
354.331010	2484.628455
354.720782	2480.242651
355.110490	2483.524442
355.500135	2482.735502
355.889717	2484.361274
356.279235	2483.814309
356.668689	2484.625934
357.058080	2484.318424
357.447408	2483.216932
357.836672	2480.867754
358.225873	2482.611993
358.615010	2484.136943
359.004084	2488.442088
359.393095	2486.607108
359.782043	2489.185658
360.170927	2488.343785
360.559748	2490.745895
360.948505	2487.915287
361.337199	2489.339413
361.725830	2491.055926
362.114398	2490.942500
362.502903	2491.822182
362.891344	2493.926863
363.279722	2492.843015
363.668037	2494.080618
364.056289	2494.572131
364.444478	2495.174549
364.832603	2496.644045
365.220665	2495.875269
365.608665	2497.359889
365.996601	2497.596823
366.384474	2500.535816
366.772284	2497.944663
367.160031	2501.302071
367.547715	2502.083450
367.935336	2504.730056
368.322893	2506.126456
368.710388	2511.898577
369.097820	2521.383508
369.485189	2521.146573
369.872495	2526.684281
370.259738	2534.356917
370.646918	2542.528627
371.034035	2546.057435
371.421090	2557.495813
371.808081	2569.561815
372.195010	2576.004410
372.581875	2591.238777
372.968678	2606.052207
373.355418	2615.383383
373.742096	2633.657566
374.128710	2650.046357
374.515262	2664.663182
374.901751	2677.097188
375.288177	2690.241997
375.674540	2713.501881
376.060841	2731.922257
376.447079	2750.791296
376.833254	2771.822990
377.219367	2782.837911
377.605417	2823.008345
377.991404	2832.228616
378.377329	2855.183510
378.763191	2867.219264
379.148991	2906.051273
379.534727	2932.600509
379.920402	2962.791980
380.306013	2973.164154
380.691563	3024.392359
381.077049	3043.155534
381.462474	3062.276630
381.847835	3098.053699
382.233134	3124.852473
382.618371	3120.811988
383.003545	3192.262782
383.388657	3198.975078
383.773706	3229.496744
384.158693	3248.277563
384.543618	3273.601799
384.928480	3310.233344
385.313280	3354.610621
385.698017	3355.215560
386.082692	3410.534661
386.467305	3409.844023
386.851856	3444.932975
387.236344	3465.052220
387.620770	3499.619412
388.005133	3524.815098
388.389435	3551.470199
388.773674	3559.820871
389.157851	3607.679065
389.541965	3620.649954
389.926018	3587.325406
390.310008	3659.771828
390.693936	3675.782533
391.077802	3714.652349
391.461606	3701.920915
391.845348	3773.270886
392.229027	3769.464815
392.612645	3777.933954
392.996200	3856.722147
393.379694	3899.405597
393.763125	3962.014207
394.146494	3928.588836
394.529801	3993.534021
394.913047	4038.637225
395.296230	4005.836957
395.679351	4062.426430
396.062410	4082.419646
396.445408	4064.425247
396.828343	4097.764918
397.211217	4124.929176
397.594028	4041.309036
397.976778	4108.918471
398.359466	4135.182883
398.742092	4167.635311
399.124656	4084.758741
399.507158	4167.232018
399.889598	4190.297818
400.271977	4254.464144
400.654294	4227.526739
401.036549	4230.785845
401.418742	4203.435065
401.800874	4304.837874
402.182944	4325.922500
402.564952	4389.735946
402.946898	4378.695819
403.328783	4374.730952
403.710606	4285.734422
404.092367	4477.270542
404.474067	4441.730407
404.855705	4453.360349
405.237282	4380.707240
405.618797	4485.535513
406.000250	4520.586656
406.381642	4604.844501
406.762972	4563.272626
407.144240	4579.686623
407.525447	4579.003547
407.906593	4635.620746
408.287677	4681.137324
408.668700	4605.134368
409.049661	4655.518180
409.430560	4700.565931
409.811399	4626.224035
410.192176	4783.117345
410.572891	4728.340168
410.953545	4830.635262
411.334138	4709.198907
411.714669	4775.762302
412.095139	4675.929812
412.475547	4807.274555
412.855894	4793.857524
413.236180	4802.150222
413.616405	4757.558695
413.996568	4844.289227
414.376670	4786.371410
414.756711	4739.614708
415.136691	4770.874903
415.516609	4844.626984
415.896466	4885.256163
416.276262	4924.030198
416.655997	4903.875665
417.035670	5085.634467
417.415283	5176.518909
417.794834	5117.219817
418.174324	5068.968413
418.553753	4977.552129
418.933121	5164.094986
419.312428	5231.757352
419.691674	5168.770656
420.070859	5290.494357
420.449983	5203.486562
420.829045	5318.250950
421.208047	5230.492023
421.586988	5296.548782
421.965867	5309.736441
422.344686	5444.511689
422.723444	5293.413185
423.102141	5116.662769
423.480777	5412.444909
423.859352	5180.395557
424.237866	5439.341986
424.616319	5431.641623
424.994712	5539.960896
425.373044	5413.430455
425.751314	5559.210542
426.129524	5362.534966
426.507673	5554.217279
426.885762	5634.651409
427.263789	5563.329164
427.641756	5441.562614
428.019662	5566.827725
428.397508	5570.981636
428.775292	5506.800186
429.153016	5605.894147
429.530679	5529.820615
429.908282	5608.427327
430.285824	5472.943797
430.663305	5737.127984
431.040726	5470.171162
431.418086	5465.001459
431.795385	5560.508639
432.172624	5567.137756
432.549802	5543.459457
432.926920	5556.082506
433.303977	5552.941867
433.680974	5573.787038
434.057910	5578.845836
434.434786	5578.719807
434.811601	5529.356829
435.188355	5744.339355
435.565050	5609.221308
435.941683	5577.013377
436.318257	5753.211786
436.694770	5720.177105
437.071222	5736.646554
437.447614	5652.996168
437.823946	5555.144851
438.200218	5679.179921
438.576429	5529.500502
438.952580	5590.856385
439.328670	5610.993274
439.704700	5504.312376
440.080670	5463.766376
440.456580	5672.785217
440.832429	5539.056009
441.208218	5379.798397
441.583947	5478.262214
441.959616	5452.406136
442.335224	5358.305437
442.710773	5434.951141
443.086261	5419.016053
443.461689	5223.807453
443.837057	5299.873423
444.212365	5380.229416
444.587612	5257.379017
444.962800	5334.861552
445.337927	5276.384167
445.712995	4947.879897
446.088002	5319.107946
446.462949	5152.107122
446.837837	5054.394437
447.212664	5136.885358
447.587431	5166.048433
447.962139	5459.168844
448.336786	5981.074460
448.711374	5768.115957
449.085901	5147.557480
449.460369	5039.623856
449.834776	4938.737765
450.209124	5099.598463
450.583412	5115.407522
450.957640	5151.925640
451.331808	4959.222493
451.705917	4663.848687
452.079965	4565.636927
452.453954	4609.716777
452.827883	4504.475128
453.201752	4487.501563
453.575562	4343.228781
453.949311	4367.864900
454.323001	4276.919964
454.696632	4251.666304
455.070202	4248.281169
455.443713	4256.200822
455.817164	4234.707863
456.190556	4203.258624
456.563888	4174.763502
456.937160	4128.652068
457.310373	3963.614773
457.683526	3912.716763
458.056619	3825.749298
458.429653	3775.937657
458.802628	3711.000033
459.175542	3696.514278
459.548398	3736.483066
459.921194	3733.849063
460.293930	3691.911704
460.666607	3763.859052
461.039224	3788.555665
461.411782	3761.409051
461.784280	3705.159857
462.156719	3624.957620
462.529099	3545.395609
462.901419	3417.579674
463.273680	3357.557176
463.645882	3315.884477
464.018024	3250.868716
464.390106	3239.949577
464.762130	3255.262082
465.134094	3288.576547
465.505999	3405.422931
465.877845	3521.606404
466.249631	3539.812531
466.621358	3420.004469
466.993026	3292.019655
467.364634	3217.823953
467.736184	3140.812766
468.107674	3079.880339
468.479105	3047.906821
468.850477	3004.535254
469.221790	2956.551031
469.593043	2908.155954
469.964238	2872.782178
470.335373	2855.251565
470.706449	2833.355313
471.077467	2818.365442
471.448425	2860.292719
471.819324	2890.327914
472.190164	2866.803369
472.560945	2799.370375
472.931667	2757.266658
473.302330	2736.640777
473.672934	2712.602035
474.043479	2709.514328
474.413965	2701.544264
474.784393	2684.926100
475.154761	2680.565502
475.525070	2673.071827
475.895321	2661.641011
476.265513	2656.020124
476.635645	2660.932728
477.005719	2650.053918
477.375734	2651.034423
477.745691	2649.075935
478.115588	2645.751294
478.485427	2642.746766
478.855207	2647.210708
479.224928	2654.457366
479.594591	2658.472645
479.964194	2649.708599
480.333739	2646.900677
480.703226	2641.645274
481.072653	2640.379944
481.442022	2640.067393
481.811333	2640.621920
482.180584	2633.526496
482.549777	2630.252266
482.918912	2627.499796
483.287988	2626.312604
483.657005	2620.195164
484.025964	2619.141563
484.394864	2616.212653
484.763706	2613.051849
485.132489	2612.640995
485.501213	2611.534462
485.869879	2610.909359
486.238487	2609.344081
486.607036	2607.834255
486.975527	2604.512135
487.343959	2606.639502
487.712333	2606.571446
488.080648	2603.662700
488.448905	2604.648246
488.817104	2601.305961
489.185244	2601.520210
489.553326	2604.847371
489.921350	2605.459872
490.289315	2614.380193
490.657222	2616.358846
491.025070	2616.152159
491.392861	2612.683845
491.760593	2610.259050
492.128267	2608.121601
492.495883	2607.161261
492.863440	2602.127669
493.230939	2598.722369
493.598380	2601.704212
493.965763	2595.191041
494.333088	2595.276741
494.700354	2593.961000
495.067563	2591.233735
495.434713	2589.557552
495.801805	2594.034096
496.168839	2592.703232
496.535815	2594.838160
496.902733	2593.293047
497.269593	2593.270362
497.636395	2592.214240
498.003139	2591.077460
498.369825	2592.453695
498.736453	2591.891606
499.103023	2589.565113
499.469535	2589.673498
499.835989	2592.700711
500.202385	2590.638879
500.568723	2588.468662
500.935003	2589.555031
501.301226	2588.166193
501.667390	2589.088724
502.033497	2590.931266
502.399546	2588.730803
502.765537	2585.935483
503.131470	2585.900195
503.497345	2591.357244
503.863163	2588.382963
504.228923	2588.196440
504.594625	2588.816502
504.960269	2585.088569
505.325856	2588.982860
505.691385	2586.794999
506.056856	2585.292736
506.422270	2587.357088
506.787625	2585.007910
507.152924	2586.026223
507.518164	2588.025041
507.883347	2587.092427
508.248472	2588.632500
508.613540	2588.375401
508.978550	2584.987746
509.343503	2583.679566
509.708398	2586.560586
510.073236	2584.841552
510.438016	2589.368508
510.802738	2586.290884
511.167403	2587.417582
511.532010	2584.529001
511.896561	2588.020000
512.261053	2589.572675
512.625488	2587.563775
512.989866	2585.464135
513.354186	2586.006059
513.718449	2582.154617
514.082655	2584.042529
514.446803	2590.273396
514.810894	2588.372881
515.174927	2591.029569
515.538904	2586.553024
515.902822	2591.972264
516.266684	2590.386822
516.630488	2586.532859
516.994235	2590.838005
517.357925	2588.962696
517.721558	2589.575196
518.085133	2590.694332
518.448651	2590.722058
518.812112	2588.871955
519.175516	2588.788776
519.538863	2590.976637
519.902152	2588.324990
520.265385	2592.753643
520.628560	2591.087542
520.991678	2589.474373
521.354739	2590.278437
521.717743	2588.929928
522.080690	2588.476224
522.443580	2590.611153
522.806413	2592.793972
523.169189	2591.823550
523.531908	2591.949579
523.894569	2587.926738
524.257174	2591.997470
524.619722	2591.490834
524.982213	2593.204827
525.344647	2591.115268
525.707025	2593.504775
526.069345	2591.266503
526.431608	2590.069229
526.793815	2590.217943
527.155964	2589.570155
527.518057	2592.718355
527.880093	2591.594178
528.242072	2592.057964
528.603995	2589.837336
528.965860	2589.827253
529.327669	2590.326328
529.689421	2588.955134
530.051117	2589.590319
530.412755	2588.829105
530.774337	2590.535536
531.135862	2590.331369
531.497331	2588.236769
531.858743	2586.053950
532.220098	2591.140474
532.581396	2585.476738
532.942638	2587.901533
533.303824	2590.679208
533.664953	2589.638210
534.026025	2590.590988
534.387040	2587.924218
534.747999	2592.806575
535.108902	2590.717017
535.469748	2590.162490
535.830537	2588.582088
536.191270	2589.245000
536.551947	2590.913622
536.912567	2587.389856
537.273131	2587.455391
537.633638	2589.539908
537.994089	2592.967892
538.354483	2589.938159
538.714821	2588.508992
539.075103	2588.012438
539.435328	2590.722058
539.795497	2587.614187
540.155609	2589.814651
540.515665	2591.805906
540.875665	2588.095617
541.235609	2590.706935
541.595496	2590.933787
541.955328	2590.958992
542.315102	2589.819692
542.674821	2589.950762
543.034483	2589.983529
543.394090	2592.055443
543.753640	2591.566452
544.113134	2589.665937
544.472571	2587.306677
544.831953	2591.579054
545.191278	2587.251224
545.550548	2590.001173
545.909761	2590.953951
546.268918	2591.463108
546.628019	2591.861359
546.987064	2590.371698
547.346053	2591.619384
547.704986	2590.152408
548.063863	2591.110227
548.422684	2591.561410
548.781449	2590.782552
549.140158	2590.512850
549.498811	2590.366657
549.857408	2589.670978
550.215949	2585.476738
550.574434	2585.144022
550.932864	2586.210226
551.291237	2587.278950
551.649555	2591.609301
552.007817	2588.723241
552.366022	2594.439909
552.724173	2589.149218
553.082267	2589.141657
553.440305	2591.543766
553.798288	2591.546287
554.156215	2594.034096
554.514086	2591.304312
554.871902	2590.843046
555.229661	2590.689291
555.587365	2591.198447
555.945014	2589.355906
556.302606	2592.849425
556.660143	2591.904209
557.017625	2592.138622
557.375050	2590.195258
557.732421	2592.763726
558.089735	2592.660382
558.446994	2591.309353
558.804197	2591.921853
559.161345	2591.538725
559.518437	2591.352203
559.875474	2593.393870
560.232455	2592.763726
560.589381	2592.680547
560.946251	2592.564600
561.303065	2592.486462
561.659825	2591.952100
562.016528	2591.810947
562.373177	2591.689960
562.729770	2593.761874
563.086307	2594.618870
563.442789	2590.880855
563.799216	2591.203488
564.155587	2593.348499
564.511904	2591.798345
564.868164	2591.153077
565.224370	2592.607450
565.580520	2593.091401
565.936615	2590.313725
566.292654	2591.304312
566.648638	2591.858838
567.004567	2589.098807
567.360441	2591.710124
567.716260	2590.780032
568.072023	2589.852459
568.427732	2584.697879
568.783385	2587.520926
569.138982	2585.461614
569.494525	2585.358271
569.850013	2587.011769
570.205445	2591.077460
570.560823	2589.499578
570.916145	2590.790114
571.271412	2588.554362
571.626625	2591.069898
571.981782	2587.704928
572.336884	2589.746595
572.691931	2588.057808
573.046923	2587.977150
573.401860	2588.907243
573.756743	2588.277099
574.111570	2587.737695
574.466342	2591.332038
574.821059	2588.476224
575.175722	2588.181317
575.530330	2588.546800
575.884882	2588.498909
576.239380	2588.471183
576.593823	2586.830287
576.948211	2588.098138
577.302544	2586.807602
577.656823	2586.646285
578.011047	2588.587130
578.365216	2584.400451
578.719330	2586.507654
579.073389	2585.433888
579.427394	2584.279464
579.781344	2585.224680
580.135239	2583.951789
580.489080	2586.714341
580.842866	2585.910277
581.196597	2588.146029
581.550273	2584.859196
581.903895	2586.421954
582.257463	2587.982191
582.610975	2583.114957
582.964434	2583.959350
583.317837	2584.748291
583.671186	2585.443970
584.024481	2584.113106
584.377721	2584.607139
584.730906	2583.488002
585.084037	2585.552355
585.437113	2584.561768
585.790135	2584.397931
586.143103	2582.600759
586.496016	2583.346850
586.848874	2580.498598
587.201679	2581.322827
587.554428	2577.347877
587.907124	2582.734350
588.259765	2577.526838
588.612352	2581.600090
588.964884	2581.907601
589.317362	2581.912642
589.669786	2582.348702
590.022155	2584.274422
590.374470	2581.756366
590.726731	2584.707962
591.078937	2580.377611
591.431090	2582.739391
591.783188	2580.589339
592.135232	2580.707806
592.487222	2581.348033
592.839157	2579.974318
593.191038	2579.734863
593.542866	2579.616396
593.894639	2580.917014
594.246358	2578.464493
594.598022	2578.714030
594.949633	2580.175964
595.301190	2579.291242
595.652692	2579.903742
596.004141	2581.499267
596.355535	2581.269895
596.706876	2577.990624
597.058162	2576.906776
597.409395	2580.503639
597.760573	2578.144379
598.111698	2578.862744
598.462768	2579.689493
598.813785	2576.115315
599.164748	2578.661098
599.515657	2578.877867
599.866511	2579.717219
600.217312	2577.945254
600.568060	2576.281673
600.918753	2580.995152
601.269392	2576.974832
601.619978	2576.387537
601.970510	2580.778382
602.320988	2576.921900
602.671412	2578.777044
603.021783	2577.975501
603.372100	2578.756880
603.722363	2577.025243
604.072572	2578.048597
604.422728	2575.835531
604.772830	2574.597928
605.122878	2574.471899
605.472872	2577.675552
605.822813	2575.530541
606.172701	2576.662280
606.522534	2578.532548
606.872314	2581.544638
607.222041	2577.713361
607.571714	2578.426684
607.921333	2577.582291
608.270899	2579.487847
608.620411	2576.647157
608.969870	2577.998186
609.319276	2576.695048
609.668627	2581.590008
610.017926	2584.153435
610.367171	2585.527149
610.716362	2584.211408
611.065500	2582.976325
611.414585	2579.742425
611.763616	2581.814339
612.112594	2581.335430
612.461518	2578.794688
612.810389	2577.549523
613.159207	2578.469534
613.507971	2575.858216
613.856682	2580.286870
614.205340	2578.540110
614.553945	2578.207394
614.902496	2578.295614
615.250994	2577.940213
615.599439	2580.496078
615.947830	2578.807291
616.296169	2577.476427
616.644454	2578.613207
616.992686	2576.609348
617.340864	2577.907445
617.688990	2576.417784
618.037063	2574.890315
618.385082	2577.012640
618.733048	2579.520614
619.080961	2577.685634
619.428821	2578.698906
619.776628	2577.468865
620.124382	2578.963567
620.472083	2576.080027
620.819731	2577.221848
621.167326	2580.150759
621.514868	2578.041036
621.862357	2576.584142
622.209793	2575.001220
622.557176	2575.278483
622.904506	2571.805128
623.251783	2572.112639
623.599007	2571.474933
623.946179	2568.125086
624.293297	2569.755899
624.640363	2572.435273
624.987376	2573.451065
625.334336	2573.108267
625.681243	2571.270766
626.028097	2573.965263
626.374899	2573.022567
626.721647	2570.159192
627.068343	2573.027608
627.414987	2571.623647
627.761577	2569.397977
628.108115	2569.554253
628.454600	2569.965107
628.801032	2570.562484
629.147412	2572.939388
629.493739	2573.919892
629.840014	2570.360838
630.186236	2571.820252
630.532405	2570.292782
630.878521	2572.843606
631.224585	2570.834706
631.570597	2569.899572
631.916556	2571.656414
632.262462	2569.307237
632.608316	2569.776064
632.954117	2568.155333
633.299866	2571.139696
633.645562	2569.652556
633.991206	2570.680951
634.336797	2567.129458
634.682336	2569.435786
635.027823	2566.690878
635.373257	2566.547205
635.718639	2566.774057
636.063968	2565.690209
636.409245	2568.387226
636.754470	2566.423697
637.099642	2566.484191
637.444762	2565.982596
637.789829	2564.787842
638.134845	2566.282544
638.479808	2564.997050
638.824719	2563.782132
639.169577	2563.678788
639.514383	2566.267421
639.859137	2563.456978
640.203839	2566.912689
640.548489	2560.742316
640.893086	2561.296843
641.237632	2561.347255
641.582125	2559.726524
641.926566	2557.107644
642.270955	2563.406566
642.615292	2562.194169
642.959576	2564.019066
643.303809	2564.102245
643.647990	2559.744168
643.992118	2564.429920
644.336195	2562.501679
