Dividing Wavelength (nm)	Counts (n)	Blue Motor Position (mm): 0.000000	Red Motor Position (mm): 25.000000	
326.493990	2128.143261
326.888308	2128.143261
327.282561	2128.143261
327.676750	2094.095308
328.070874	2091.471387
328.464933	2096.976327
328.858929	2099.065885
329.252859	2113.014758
329.646726	2125.058075
330.040528	2135.468057
330.434265	2152.686118
330.827938	2168.051555
331.221547	2189.725996
331.615091	2208.005220
332.008571	2226.266800
332.401986	2247.550551
332.795338	2265.166863
333.188625	2285.008845
333.581847	2303.686320
333.975006	2321.630307
334.368100	2340.602690
334.761129	2357.873683
335.154095	2374.534696
335.546996	2393.156718
335.939833	2407.735735
336.332606	2422.309711
336.725315	2436.220775
337.117960	2447.263423
337.510540	2453.101079
337.903056	2464.058027
338.295508	2472.007926
338.687896	2483.917652
339.080220	2490.080463
339.472480	2496.820486
339.864676	2498.683192
340.256807	2503.323574
340.648875	2509.637619
341.040879	2509.746004
341.432818	2510.812208
341.824694	2515.568537
342.216506	2513.325223
342.608253	2513.320182
342.999937	2514.441839
343.391557	2515.792868
343.783113	2511.873371
344.174605	2512.148114
344.566033	2509.476302
344.957397	2509.491426
345.348697	2506.696106
345.739934	2507.958915
346.131106	2504.344408
346.522215	2499.429283
346.913260	2498.877276
347.304241	2495.648417
347.695159	2495.290495
348.086012	2495.320742
348.476802	2491.076091
348.867528	2490.738333
349.258191	2490.166163
349.648789	2488.820174
350.039324	2488.936121
350.429796	2486.410503
350.820203	2484.890595
351.210548	2484.257930
351.600828	2482.377580
351.991045	2485.296408
352.381198	2480.489668
352.771288	2483.383290
353.161314	2482.753146
353.551276	2480.219966
353.941175	2480.779534
354.331010	2481.220635
354.720782	2479.602425
355.110490	2486.007211
355.500135	2482.609473
355.889717	2483.811788
356.279235	2480.978660
356.668689	2485.659371
357.058080	2483.363125
357.447408	2483.060656
357.836672	2480.754328
358.225873	2483.970584
358.615010	2482.412868
359.004084	2486.468476
359.393095	2487.338075
359.782043	2487.648106
360.170927	2486.695328
360.559748	2491.537356
360.948505	2488.880668
361.337199	2488.558034
361.725830	2489.848570
362.114398	2493.397542
362.502903	2492.348982
362.891344	2491.378560
363.279722	2490.524084
363.668037	2492.003663
364.056289	2494.405773
364.444478	2492.850577
364.832603	2496.759992
365.220665	2496.883500
365.608665	2497.443068
365.996601	2496.591113
366.384474	2497.770743
366.772284	2500.314005
367.160031	2498.665548
367.547715	2501.362565
367.935336	2507.106960
368.322893	2506.408760
368.710388	2510.550068
369.097820	2519.392252
369.485189	2522.318642
369.872495	2527.712676
370.259738	2534.379602
370.646918	2540.555016
371.034035	2550.138249
371.421090	2557.021945
371.808081	2567.439489
372.195010	2579.031622
372.581875	2592.678026
372.968678	2604.892742
373.355418	2613.008999
373.742096	2632.437606
374.128710	2647.553506
374.515262	2661.368788
374.901751	2677.966787
375.288177	2691.661082
375.674540	2712.778475
376.060841	2730.921588
376.447079	2752.356574
376.833254	2771.454985
377.219367	2781.806995
377.605417	2821.306956
377.991404	2832.417659
378.377329	2851.445494
378.763191	2867.761188
379.148991	2908.344998
379.534727	2929.719490
379.920402	2959.850466
380.306013	2973.065851
380.691563	3022.920342
381.077049	3042.880791
381.462474	3060.789490
381.847835	3101.161570
382.233134	3123.413223
382.618371	3122.296608
383.003545	3189.911084
383.388657	3197.480376
383.773706	3230.252917
384.158693	3246.558530
384.543618	3274.065586
384.928480	3308.005154
385.313280	3353.937627
385.698017	3352.755477
386.082692	3409.591966
386.467305	3411.696647
386.851856	3441.015998
387.236344	3466.872076
387.620770	3498.119668
388.005133	3520.041126
388.389435	3551.238306
388.773674	3560.206519
389.157851	3603.779732
389.541965	3617.887401
389.926018	3585.891198
390.310008	3656.104389
390.693936	3671.452182
391.077802	3716.041187
391.461606	3704.174311
391.845348	3767.670164
392.229027	3770.273920
392.612645	3781.006537
392.996200	3857.324565
393.379694	3898.568765
393.763125	3963.513950
394.146494	3929.410544
394.529801	3990.756346
394.913047	4038.990106
395.296230	4003.346627
395.679351	4059.431984
396.062410	4086.800409
396.445408	4063.316193
396.828343	4097.885906
397.211217	4118.874750
397.594028	4043.055796
397.976778	4110.309830
398.359466	4134.618273
398.742092	4168.406607
399.124656	4086.704627
399.507158	4167.907533
399.889598	4191.505174
400.271977	4252.251078
400.654294	4225.117067
401.036549	4233.697111
401.418742	4201.753840
401.800874	4306.725786
402.182944	4322.549968
402.564952	4385.902149
402.946898	4374.970407
403.328783	4374.259604
403.710606	4286.576294
404.092367	4478.939163
404.474067	4439.935756
404.855705	4450.033187
405.237282	4380.051890
405.618797	4488.403930
406.000250	4522.953478
406.381642	4603.039768
406.762972	4567.688677
407.144240	4575.757044
407.525447	4573.725459
407.906593	4632.162514
408.287677	4678.624308
408.668700	4610.679637
409.049661	4655.891225
409.430560	4697.153069
409.811399	4624.729333
410.192176	4786.144558
410.572891	4724.052666
410.953545	4828.270960
411.334138	4712.634453
411.714669	4774.817086
412.095139	4668.461342
412.475547	4815.562212
412.855894	4794.555723
413.236180	4800.169048
413.616405	4757.387296
413.996568	4842.575234
414.376670	4787.271256
414.756711	4742.634359
415.136691	4769.997742
415.516609	4850.348694
415.896466	4887.862440
416.276262	4916.811266
416.655997	4901.541611
417.035670	5082.776133
417.415283	5175.399773
417.794834	5115.614209
418.174324	5074.057457
418.553753	4977.721007
418.933121	5164.168082
419.312428	5231.674173
419.691674	5167.495244
420.070859	5292.788082
420.449983	5205.666861
420.829045	5322.780426
421.208047	5229.282146
421.586988	5299.283608
421.965867	5308.002284
422.344686	5441.600422
422.723444	5299.470131
423.102141	5113.350731
423.480777	5413.407770
423.859352	5181.562584
424.237866	5440.778714
424.616319	5434.958702
424.994712	5542.950300
425.373044	5416.828192
425.751314	5562.618362
426.129524	5362.734091
426.507673	5557.834307
426.885762	5642.755064
427.263789	5571.667233
427.641756	5453.893276
428.019662	5575.400207
428.397508	5582.059572
428.775292	5527.867168
429.153016	5629.025481
429.530679	5552.611671
429.908282	5634.590915
430.285824	5506.056616
430.663305	5780.600375
431.040726	5516.363255
431.418086	5514.041803
431.795385	5617.521568
432.172624	5627.535820
432.549802	5619.918637
432.926920	5629.995903
433.303977	5636.405731
433.680974	5672.770094
434.057910	5687.402043
434.434786	5687.056724
434.811601	5651.022556
435.188355	5881.158791
435.565050	5751.757413
435.941683	5730.055246
436.318257	5927.665956
436.694770	5910.427730
437.071222	5933.402789
437.447614	5858.932344
437.823946	5767.989928
438.200218	5907.241721
438.576429	5767.473210
438.952580	5849.873390
439.328670	5882.585438
439.704700	5785.460047
440.080670	5758.794864
440.456580	5996.633982
440.832429	5868.445001
441.208218	5715.098142
441.583947	5845.185117
441.959616	5826.369010
442.335224	5744.140229
442.710773	5853.568556
443.086261	5855.249781
443.461689	5650.558770
443.837057	5765.292911
444.212365	5881.753647
444.587612	5765.928096
444.962800	5875.888265
445.337927	5830.787582
445.712995	5461.099606
446.088002	5939.447132
446.462949	5763.573878
446.837837	5666.314896
447.212664	5795.809536
447.587431	5869.606987
447.962139	6272.526249
448.336786	6973.448280
448.711374	6734.283339
449.085901	5959.079906
449.460369	5850.732907
449.834776	5755.613896
450.209124	6013.549573
450.583412	6064.533283
450.957640	6138.986084
451.331808	5912.471918
451.705917	5535.784300
452.079965	5434.615904
452.453954	5532.658784
452.827883	5400.978805
453.201752	5418.138892
453.575562	5231.890943
453.949311	5308.662675
454.323001	5196.658319
454.696632	5193.850396
455.070202	5215.290423
455.443713	5260.892701
455.817164	5261.616107
456.190556	5245.509620
456.563888	5224.984562
456.937160	5199.030182
457.310373	4954.942554
457.683526	4904.992281
458.056619	4790.668994
458.429653	4725.804467
458.802628	4637.911950
459.175542	4636.558400
459.548398	4741.737034
459.921194	4762.098254
460.293930	4709.012384
460.666607	4862.341599
461.039224	4929.003297
461.411782	4913.821862
461.784280	4849.965566
462.156719	4731.735385
462.529099	4615.682982
462.901419	4396.460845
463.273680	4296.298160
463.645882	4245.962238
464.018024	4129.640134
464.390106	4125.405565
464.762130	4186.269936
465.134094	4269.438892
465.505999	4524.339795
465.877845	4808.358403
466.249631	4905.171242
466.621358	4693.341957
466.993026	4433.609108
467.364634	4285.431953
467.736184	4128.848673
468.107674	3994.970750
468.479105	3930.000359
468.850477	3837.195238
469.221790	3730.058116
469.593043	3610.376082
469.964238	3531.015718
470.335373	3490.341168
470.706449	3451.083182
471.077467	3408.240936
471.448425	3554.842731
471.819324	3651.254799
472.190164	3604.165381
472.560945	3398.667785
472.931667	3261.198040
473.302330	3210.400854
473.672934	3138.287148
474.043479	3136.913433
474.413965	3100.942280
474.784393	3055.708007
475.154761	3041.726367
475.525070	3016.132428
475.895321	2980.526759
476.265513	2965.420941
476.635645	2954.514405
477.005719	2926.412493
477.375734	2912.950092
477.745691	2903.553381
478.115588	2890.466545
478.485427	2877.092364
478.855207	2886.985629
479.224928	2902.724111
479.594591	2910.071593
479.964194	2876.101778
480.333739	2851.790813
480.703226	2824.014055
481.072653	2812.668939
481.442022	2806.128042
481.811333	2798.036990
482.180584	2778.845317
482.549777	2758.690784
482.918912	2740.739235
483.287988	2732.713718
483.657005	2718.510267
484.025964	2706.976107
484.394864	2698.582586
484.763706	2692.767615
485.132489	2681.044412
485.501213	2673.391940
485.869879	2669.386743
486.238487	2661.061278
486.607036	2657.414003
486.975527	2650.343785
487.343959	2649.648106
487.712333	2645.955460
488.080648	2643.208032
488.448905	2641.168885
488.817104	2634.421300
489.185244	2633.413070
489.553326	2636.392392
489.921350	2638.933133
490.289315	2647.480409
490.657222	2650.769762
491.025070	2647.326654
491.392861	2643.757517
491.760593	2636.757875
492.128267	2631.782256
492.495883	2626.438633
492.863440	2621.619290
493.230939	2617.775410
493.598380	2616.847838
493.965763	2607.758638
494.333088	2611.085799
494.700354	2606.339553
495.067563	2607.327619
495.434713	2602.036928
495.801805	2605.545571
496.168839	2604.660849
496.535815	2606.291662
496.902733	2602.404932
497.269593	2602.122628
497.636395	2600.249839
498.003139	2601.169850
498.369825	2601.777309
498.736453	2600.751434
499.103023	2600.670775
499.469535	2601.137082
499.835989	2597.038624
500.202385	2598.087184
500.568723	2597.754468
500.935003	2598.301433
501.301226	2596.297574
501.667390	2600.083481
502.033497	2598.883686
502.399546	2594.656679
502.765537	2593.015783
503.131470	2593.761874
503.497345	2598.220775
503.863163	2594.996957
504.228923	2595.231370
504.594625	2594.490321
504.960269	2593.855135
505.325856	2596.393356
505.691385	2591.619384
506.056856	2594.984354
506.422270	2592.415886
506.787625	2594.397059
507.152924	2593.255238
507.518164	2592.302460
507.883347	2594.225660
508.248472	2592.612491
508.613540	2591.707604
508.978550	2587.505802
509.343503	2591.672316
509.708398	2594.157605
510.073236	2591.881524
510.438016	2594.412183
510.802738	2592.126020
511.167403	2592.272213
511.532010	2589.948241
511.896561	2594.021493
512.261053	2594.276072
512.625488	2585.552355
512.989866	2590.459918
513.354186	2587.772983
513.718449	2586.411872
514.082655	2592.771287
514.446803	2591.531163
514.810894	2593.038468
515.174927	2591.289188
515.538904	2590.253231
515.902822	2590.044023
516.266684	2592.814137
516.630488	2588.657706
516.994235	2591.490834
517.357925	2595.062492
517.721558	2592.196596
518.085133	2591.440423
518.448651	2593.111565
518.812112	2593.371185
519.175516	2593.459405
519.538863	2592.698191
519.902152	2591.369847
520.265385	2591.695001
520.628560	2592.846905
520.991678	2590.979157
521.354739	2593.285485
521.717743	2591.110227
522.080690	2592.773808
522.443580	2593.131730
522.806413	2594.613829
523.169189	2595.543922
523.531908	2594.351689
523.894569	2592.625094
524.257174	2593.948397
524.619722	2594.145002
524.982213	2591.450505
525.344647	2595.488469
525.707025	2593.179621
526.069345	2593.643407
526.431608	2593.940835
526.793815	2594.243304
527.155964	2594.064343
527.518057	2593.678695
527.880093	2592.529312
528.242072	2594.581062
528.603995	2591.664754
528.965860	2592.768767
529.327669	2593.585434
529.689421	2592.773808
530.051117	2593.129209
530.412755	2591.105186
530.774337	2592.816658
531.135862	2594.356730
531.497331	2589.353385
531.858743	2588.861872
532.220098	2588.821543
532.581396	2590.956472
532.942638	2590.835484
533.303824	2591.604260
533.664953	2589.804568
534.026025	2590.502768
534.387040	2592.257090
534.747999	2592.897316
535.108902	2594.462594
535.469748	2590.200299
535.830537	2591.531163
536.191270	2592.642738
536.551947	2592.057964
536.912567	2589.996132
537.273131	2593.590475
537.633638	2590.452357
537.994089	2589.880186
538.354483	2588.561924
538.714821	2592.229363
539.075103	2591.765577
539.435328	2590.167531
539.795497	2589.900350
540.155609	2592.120978
540.515665	2596.481577
540.875665	2592.567121
541.235609	2591.228694
541.595496	2589.769280
541.955328	2593.658530
542.315102	2593.635845
542.674821	2591.800865
543.034483	2592.264651
543.394090	2589.529825
543.753640	2593.371185
544.113134	2590.054105
544.472571	2590.812799
544.831953	2590.943869
545.191278	2592.846905
545.550548	2591.896647
545.909761	2594.646597
546.268918	2591.891606
546.628019	2594.981833
546.987064	2591.843715
547.346053	2589.532346
547.704986	2592.589806
548.063863	2592.748602
548.422684	2592.864549
548.781449	2594.071905
549.140158	2595.468305
549.498811	2593.741709
549.857408	2591.790783
550.215949	2590.515371
550.574434	2585.864907
550.932864	2591.609301
551.291237	2590.233066
551.649555	2591.231215
552.007817	2592.446133
552.366022	2592.935125
552.724173	2594.780187
553.082267	2592.675505
553.440305	2590.734661
553.798288	2590.263313
554.156215	2591.775659
554.514086	2592.791452
554.871902	2589.993612
555.229661	2592.932604
555.587365	2590.248190
555.945014	2593.393870
556.302606	2591.949579
556.660143	2592.252048
557.017625	2593.928232
557.375050	2589.847418
557.732421	2590.580906
558.089735	2594.180290
558.446994	2593.938314
558.804197	2590.608632
559.161345	2593.955958
559.518437	2592.738520
559.875474	2593.083839
560.232455	2593.139292
560.589381	2594.964189
560.946251	2595.193562
561.303065	2595.662389
561.659825	2592.181472
562.016528	2592.420927
562.373177	2592.428489
562.729770	2595.662389
563.086307	2594.371854
563.442789	2594.139961
563.799216	2591.972264
564.155587	2590.996801
564.511904	2594.881010
564.868164	2592.751123
565.224370	2593.280444
565.580520	2589.981009
565.936615	2590.648962
566.292654	2590.742223
566.648638	2594.482759
567.004567	2594.447471
567.360441	2592.226843
567.716260	2594.051740
568.072023	2590.638879
568.427732	2586.275761
568.783385	2590.676688
569.138982	2587.808271
569.494525	2589.786924
569.850013	2587.311718
570.205445	2594.603747
570.560823	2590.197778
570.916145	2590.654003
571.271412	2590.248190
571.626625	2592.589806
571.981782	2592.360433
572.336884	2589.706266
572.691931	2592.562079
573.046923	2590.774990
573.401860	2590.558221
573.756743	2587.891450
574.111570	2588.781214
574.466342	2590.603591
574.821059	2590.298601
575.175722	2588.438416
575.530330	2588.529156
575.884882	2592.057964
576.239380	2585.287694
576.593823	2589.623087
576.948211	2588.327510
577.302544	2589.502099
577.656823	2586.396748
578.011047	2588.103179
578.365216	2588.781214
578.719330	2587.160483
579.073389	2587.019331
579.427394	2586.371542
579.781344	2587.954465
580.135239	2586.638724
580.489080	2587.450349
580.842866	2586.739547
581.196597	2591.299270
581.550273	2588.246852
581.903895	2588.614856
582.257463	2587.800710
582.610975	2585.721234
582.964434	2585.527149
583.317837	2587.667119
583.671186	2587.321800
584.024481	2587.236100
584.377721	2585.365832
584.730906	2585.300297
585.084037	2586.525298
585.437113	2585.678384
585.790135	2583.992118
586.143103	2584.634865
586.496016	2583.054463
586.848874	2579.165213
587.201679	2582.320975
587.554428	2578.749318
587.907124	2584.576892
588.259765	2579.276118
588.612352	2580.133115
588.964884	2585.126377
589.317362	2584.266861
589.669786	2582.613362
590.022155	2584.725606
590.374470	2583.656881
590.726731	2584.067735
591.078937	2582.152097
591.431090	2584.405492
591.783188	2583.122519
592.135232	2582.943558
592.487222	2583.823239
592.839157	2582.694021
593.191038	2582.315934
593.542866	2584.108064
593.894639	2582.522622
594.246358	2582.948599
594.598022	2581.653022
594.949633	2582.315934
595.301190	2579.785275
595.652692	2580.927096
596.004141	2581.232086
596.355535	2580.060018
596.706876	2582.694021
597.058162	2580.143197
597.409395	2582.048753
597.760573	2581.698393
598.111698	2580.087744
598.462768	2580.962384
598.813785	2580.962384
599.164748	2578.668659
599.515657	2579.540779
599.866511	2580.576736
600.217312	2578.860223
600.568060	2578.156982
600.918753	2579.071952
601.269392	2579.318968
601.619978	2578.545151
601.970510	2577.599935
602.320988	2578.963567
602.671412	2583.067066
603.021783	2580.473392
603.372100	2578.797209
603.722363	2576.866447
604.072572	2581.718557
604.422728	2579.581108
604.772830	2575.792681
605.122878	2576.001889
605.472872	2577.302507
605.822813	2571.643812
606.172701	2575.709502
606.522534	2578.620768
606.872314	2580.765779
607.222041	2577.597414
607.571714	2579.404668
607.921333	2578.852662
608.270899	2578.285532
608.620411	2582.192426
608.969870	2580.259143
609.319276	2581.655543
609.668627	2582.951120
610.017926	2586.709300
610.367171	2586.711820
610.716362	2586.308528
611.065500	2585.451532
611.414585	2586.046388
611.763616	2583.666963
612.112594	2581.506829
612.461518	2581.574885
612.810389	2584.786100
613.159207	2582.789803
613.507971	2581.448856
613.856682	2582.477251
614.205340	2580.594380
614.553945	2582.716706
614.902496	2582.641089
615.250994	2580.614545
615.599439	2578.678742
615.947830	2580.579257
616.296169	2579.049267
616.644454	2581.716037
616.992686	2579.339133
617.340864	2583.044381
617.688990	2580.105388
618.037063	2582.930955
618.385082	2581.322827
618.733048	2583.009093
619.080961	2579.744946
619.428821	2579.134966
619.776628	2581.718557
620.124382	2580.450707
620.472083	2578.938361
620.819731	2577.811663
621.167326	2579.266036
621.514868	2580.556572
621.862357	2577.625141
622.209793	2580.856520
622.557176	2578.346026
622.904506	2575.555747
623.251783	2576.095150
623.599007	2572.052145
623.946179	2572.594069
624.293297	2569.851681
624.640363	2575.485171
624.987376	2578.144379
625.334336	2572.609192
625.681243	2574.449214
626.028097	2574.408884
626.374899	2573.630026
626.721647	2574.013154
627.068343	2574.965932
627.414987	2573.458627
627.761577	2576.362332
628.108115	2574.260170
628.454600	2574.764286
628.801032	2574.320664
629.147412	2575.061714
629.493739	2574.184553
629.840014	2571.379151
630.186236	2574.781930
630.532405	2572.820921
630.878521	2571.747155
631.224585	2573.017526
631.570597	2569.397977
631.916556	2570.496949
632.262462	2572.223544
632.608316	2569.365210
632.954117	2571.094326
633.299866	2572.972156
633.645562	2571.477453
633.991206	2571.429562
634.336797	2572.205900
634.682336	2571.328739
635.027823	2568.140210
635.373257	2568.457802
635.718639	2566.380847
636.063968	2570.197000
636.409245	2567.046279
636.754470	2564.127451
637.099642	2567.237843
637.444762	2566.781619
637.789829	2564.876062
638.134845	2565.969993
638.479808	2566.244736
638.824719	2563.784653
639.169577	2565.473439
639.514383	2565.085270
639.859137	2565.435631
640.203839	2565.758264
640.548489	2565.733059
640.893086	2563.651062
641.237632	2559.393808
641.582125	2563.514951
641.926566	2559.529919
642.270955	2565.491083
642.615292	2564.407235
642.959576	2565.491083
643.303809	2566.272462
643.647990	2566.103583
643.992118	2562.857080
644.336195	2563.593089
