Dividing Wavelength (nm)	Counts (n)	Blue Motor Position (mm): 0.000000	Red Motor Position (mm): 37.800000	
326.493990	2128.133178
326.888308	2128.133178
327.282561	2128.133178
327.676750	2096.396594
328.070874	2094.773343
328.464933	2097.840885
328.858929	2101.679724
329.252859	2111.336054
329.646726	2124.374998
330.040528	2137.686165
330.434265	2155.211736
330.827938	2171.313182
331.221547	2190.492252
331.615091	2209.537731
332.008571	2229.011708
332.401986	2248.084914
332.795338	2265.297933
333.188625	2285.349123
333.581847	2305.705302
333.975006	2322.081490
334.368100	2340.769048
334.761129	2357.835874
335.154095	2376.223483
335.546996	2396.748541
335.939833	2417.971798
336.332606	2431.154416
336.725315	2446.739143
337.117960	2455.109979
337.510540	2459.432768
337.903056	2472.169243
338.295508	2479.650316
338.687896	2486.284474
339.080220	2496.472646
339.472480	2502.907679
339.864676	2507.485047
340.256807	2514.469565
340.648875	2516.687673
341.040879	2516.405368
341.432818	2518.212622
341.824694	2522.419465
342.216506	2520.617252
342.608253	2523.435257
342.999937	2522.177489
343.391557	2520.516429
343.783113	2520.803775
344.174605	2521.501975
344.566033	2516.024761
344.957397	2516.092817
345.348697	2512.382528
345.739934	2511.603669
346.131106	2511.671725
346.522215	2509.161230
346.913260	2507.152330
347.304241	2502.632936
347.695159	2503.709222
348.086012	2501.125631
348.476802	2499.169663
348.867528	2497.543891
349.258191	2498.060609
349.648789	2496.361741
350.039324	2494.405773
350.429796	2493.873931
350.820203	2491.607933
351.210548	2492.200268
351.600828	2492.371667
351.991045	2490.788745
352.381198	2490.163642
352.771288	2487.496872
353.161314	2490.798827
353.551276	2490.745895
353.941175	2488.429485
354.331010	2490.224136
354.720782	2488.071563
355.110490	2491.912922
355.500135	2489.357057
355.889717	2488.469814
356.279235	2489.036944
356.668689	2491.542398
357.058080	2490.466111
357.447408	2486.952427
357.836672	2488.923518
358.225873	2489.644403
358.615010	2488.295894
359.004084	2492.107007
359.393095	2493.092552
359.782043	2491.880155
360.170927	2493.526092
360.559748	2496.054230
360.948505	2497.261587
361.337199	2497.750578
361.725830	2497.942142
362.114398	2498.806700
362.502903	2499.993892
362.891344	2500.427431
363.279722	2498.736124
363.668037	2502.171670
364.056289	2499.177225
364.444478	2500.563542
364.832603	2502.930364
365.220665	2501.231495
365.608665	2504.329284
365.996601	2502.955570
366.384474	2506.484378
366.772284	2507.742145
367.160031	2508.208452
367.547715	2509.362876
367.935336	2513.272291
368.322893	2516.055008
368.710388	2518.315966
369.097820	2524.698066
369.485189	2525.121523
369.872495	2535.896990
370.259738	2542.659698
370.646918	2550.231511
371.034035	2554.277037
371.421090	2565.528892
371.808081	2577.189081
372.195010	2583.077148
372.581875	2600.106166
372.968678	2610.306941
373.355418	2624.124744
373.742096	2641.350366
374.128710	2654.469969
374.515262	2670.546209
374.901751	2683.950637
375.288177	2697.405477
375.674540	2721.708879
376.060841	2736.388719
376.447079	2757.652306
376.833254	2777.154010
377.219367	2791.564148
377.605417	2828.326762
377.991404	2838.051148
378.377329	2861.260621
378.763191	2878.433311
379.148991	2914.109557
379.534727	2939.113680
379.920402	2967.260963
380.306013	2983.206132
380.691563	3033.650438
381.077049	3052.327913
381.462474	3068.205027
381.847835	3105.902776
382.233134	3131.123668
382.618371	3131.345479
383.003545	3199.164122
383.388657	3203.801983
383.773706	3239.798342
384.158693	3256.025817
384.543618	3280.349384
384.928480	3315.234168
385.313280	3362.996581
385.698017	3358.900643
386.082692	3413.009868
386.467305	3420.629572
386.851856	3449.437246
387.236344	3476.528406
387.620770	3507.995289
388.005133	3532.444885
388.389435	3561.638207
388.773674	3569.472160
389.157851	3610.660907
389.541965	3625.554996
389.926018	3593.329420
390.310008	3661.594205
390.693936	3685.585056
391.077802	3726.476376
391.461606	3711.741083
391.845348	3777.250877
392.229027	3778.811114
392.612645	3789.609266
392.996200	3864.994681
393.379694	3904.973551
393.763125	3970.087615
394.146494	3935.220474
394.529801	3999.164990
394.913047	4051.361097
395.296230	4013.073534
395.679351	4064.354671
396.062410	4090.954319
396.445408	4075.339345
396.828343	4107.058285
397.211217	4127.666522
397.594028	4053.806057
397.976778	4115.154378
398.359466	4142.429541
398.742092	4172.177390
399.124656	4095.483796
399.507158	4174.014891
399.889598	4197.670505
400.271977	4262.766925
400.654294	4233.608891
401.036549	4238.206423
401.418742	4207.919171
401.800874	4313.879184
402.182944	4334.399200
402.564952	4401.796907
402.946898	4387.419536
403.328783	4384.054566
403.710606	4298.377636
404.092367	4491.957943
404.474067	4455.548210
404.855705	4463.510712
405.237282	4389.604876
405.618797	4496.631093
406.000250	4534.414541
406.381642	4612.045790
406.762972	4573.594389
407.144240	4582.711315
407.525447	4586.784568
407.906593	4644.775481
408.287677	4685.560936
408.668700	4618.309423
409.049661	4671.120551
409.430560	4711.638825
409.811399	4635.497237
410.192176	4800.302639
410.572891	4734.684460
410.953545	4842.219833
411.334138	4718.278025
411.714669	4787.215803
412.095139	4675.377805
412.475547	4824.853058
412.855894	4801.562927
413.236180	4812.048527
413.616405	4766.247124
413.996568	4855.838510
414.376670	4799.279285
414.756711	4750.395216
415.136691	4782.416625
415.516609	4863.748081
415.896466	4898.433740
416.276262	4931.720478
416.655997	4912.523765
417.035670	5092.223255
417.415283	5188.118604
417.794834	5128.597701
418.174324	5084.394343
418.553753	4990.830528
418.933121	5176.849105
419.312428	5244.367799
419.691674	5182.936298
420.070859	5306.205113
420.449983	5222.882401
420.829045	5335.637889
421.208047	5240.375205
421.586988	5313.971010
421.965867	5325.628678
422.344686	5459.088185
422.723444	5310.537984
423.102141	5128.620386
423.480777	5428.800933
423.859352	5199.282239
424.237866	5456.292865
424.616319	5450.061999
424.994712	5560.284307
425.373044	5436.211429
425.751314	5584.181897
426.129524	5382.107245
426.507673	5576.776442
426.885762	5661.707282
427.263789	5591.514256
427.641756	5472.820288
428.019662	5594.039874
428.397508	5602.783755
428.775292	5549.468512
429.153016	5644.716073
429.530679	5573.587912
429.908282	5655.428525
430.285824	5528.625861
430.663305	5803.429240
431.040726	5539.723962
431.418086	5535.907808
431.795385	5643.123068
432.172624	5657.518083
432.549802	5651.322505
432.926920	5663.688455
433.303977	5671.116595
433.680974	5711.609664
434.057910	5728.247992
434.434786	5733.160596
434.811601	5699.611717
435.188355	5937.302121
435.565050	5813.698070
435.941683	5794.738291
436.318257	6009.095714
436.694770	5986.508824
437.071222	6023.294124
437.447614	5956.927333
437.823946	5868.480289
438.200218	6022.106932
438.576429	5888.649946
438.952580	5984.338607
439.328670	6028.307551
439.704700	5938.355723
440.080670	5924.386685
440.456580	6198.317944
440.832429	6078.973668
441.208218	5925.803249
441.583947	6084.357620
441.959616	6086.442137
442.335224	6009.587226
442.710773	6149.892620
443.086261	6176.088976
443.461689	5971.491227
443.837057	6121.457992
444.212365	6280.067815
444.587612	6169.759808
444.962800	6324.137582
445.337927	6297.933665
445.712995	5911.148615
446.088002	6489.109342
446.462949	6317.858825
446.837837	6252.961531
447.212664	6420.259783
447.587431	6564.882925
447.962139	7102.839576
448.336786	8030.505145
448.711374	7777.545086
449.085901	6849.108220
449.460369	6768.636282
449.834776	6702.249327
450.209124	7092.487566
450.583412	7244.501040
450.957640	7391.178452
451.331808	7157.828482
451.705917	6709.306942
452.079965	6635.345653
452.453954	6847.968920
452.827883	6722.373613
453.201752	6816.819630
453.575562	6619.287058
453.949311	6820.509755
454.323001	6704.149842
454.696632	6780.334279
455.070202	6920.720331
455.443713	7074.641882
455.817164	7173.740884
456.190556	7258.046620
456.563888	7328.496745
456.937160	7372.377469
457.310373	7028.114552
457.683526	7054.557925
458.056619	6947.146060
458.429653	6938.666839
458.802628	6868.814091
459.175542	6971.083979
459.548398	7332.653177
459.921194	7495.600913
460.293930	7496.621747
460.666607	8029.121348
461.039224	8332.563522
461.411782	8465.254253
461.784280	8482.321079
462.156719	8368.224644
462.529099	8250.685101
462.901419	7841.169489
463.273680	7731.242088
463.645882	7744.596104
464.018024	7612.056608
464.390106	7782.268647
464.762130	8165.799632
465.134094	8632.497052
465.505999	9653.557558
465.877845	10875.692046
466.249631	11525.237158
466.621358	11145.313119
466.993026	10512.950780
467.364634	10255.050391
467.736184	9896.067305
468.107674	9563.033558
468.479105	9595.228887
468.850477	9360.422023
469.221790	9130.018607
469.593043	8797.494017
469.964238	8659.744488
470.335373	8674.303341
470.706449	8737.254749
471.077467	8721.753201
471.448425	10026.716368
471.819324	11096.267733
472.190164	11120.293872
472.560945	9878.337567
472.931667	9084.169313
473.302330	8948.113612
473.672934	8592.024148
474.043479	8956.053429
474.413965	8890.221001
474.784393	8774.423177
475.154761	8928.861445
475.525070	9018.157924
475.895321	8847.434208
476.265513	9020.416361
476.635645	9190.814923
477.005719	9194.784831
477.375734	9299.955903
477.745691	9537.154795
478.115588	9677.092184
478.485427	9923.687787
478.855207	10458.682759
479.224928	11265.085893
479.594591	11903.401834
479.964194	11716.841333
480.333739	11649.118472
480.703226	11566.834239
481.072653	11656.123156
481.442022	11896.036708
481.811333	12080.336252
482.180584	11891.492108
482.549777	11602.180289
482.918912	11425.553382
483.287988	11444.664396
483.657005	11457.269801
484.025964	11134.583023
484.394864	11273.797007
484.763706	11238.700494
485.132489	11000.387507
485.501213	10961.391662
485.869879	11033.459997
486.238487	10877.761440
486.607036	10991.273101
486.975527	10766.795562
487.343959	10955.218769
487.712333	11008.435709
488.080648	10935.959041
488.448905	10976.671399
488.817104	10917.344580
489.185244	11183.237719
489.553326	11341.943324
489.921350	11873.404448
490.289315	12939.192591
490.657222	13281.764201
491.025070	13190.756251
491.392861	13068.167992
491.760593	12688.501052
492.128267	12335.451404
492.495883	12012.850325
492.863440	11669.938438
493.230939	11336.561893
493.598380	11268.748291
493.965763	11129.924997
494.333088	11036.714062
494.700354	10955.831269
495.067563	11016.199086
495.434713	10849.924188
495.801805	10978.309774
496.168839	10895.720551
496.535815	10835.912301
496.902733	10831.092958
497.269593	10765.424368
497.636395	10859.850220
498.003139	10856.951557
498.369825	10721.042049
498.736453	10881.975845
499.103023	10803.492641
499.469535	10837.197796
499.835989	10821.466875
500.202385	10785.112594
500.568723	10633.489810
500.935003	10862.827022
501.301226	10667.923411
501.667390	10916.253170
502.033497	11017.749241
502.399546	10873.945287
502.765537	10790.138624
503.131470	10859.681342
503.497345	11035.625173
503.863163	10644.759309
504.228923	10959.690272
504.594625	11026.916579
504.960269	10768.867476
505.325856	10991.119346
505.691385	10781.563622
506.056856	10938.469535
506.422270	10964.812085
506.787625	10851.471823
507.152924	10972.250307
507.518164	10947.044538
507.883347	10868.838598
508.248472	10788.533017
508.613540	11023.561692
508.978550	10897.978988
509.343503	10876.538960
509.708398	10998.502116
510.073236	11108.290885
510.438016	11114.544436
510.802738	11062.116436
511.167403	11114.315064
511.532010	11019.725373
511.896561	11240.313663
512.261053	11310.965434
512.625488	11187.805004
512.989866	11164.850110
513.354186	11151.281845
513.718449	11056.949253
514.082655	11246.645352
514.446803	11142.631225
514.810894	11264.349884
515.174927	11132.546397
515.538904	11153.560446
515.902822	11308.104579
516.266684	11186.272494
516.630488	11134.983794
516.994235	11191.737104
517.357925	11253.597103
517.721558	11340.821668
518.085133	11354.538647
518.448651	11366.186233
518.812112	11249.990158
519.175516	11263.248392
519.538863	11380.903882
519.902152	11303.212139
520.265385	11457.020264
520.628560	11371.101358
520.991678	11344.226967
521.354739	11406.860783
521.717743	11345.361227
522.080690	11322.529841
522.443580	11453.355345
522.806413	11409.106617
523.169189	11437.463108
523.531908	11492.913279
523.894569	11312.931484
524.257174	11317.171094
524.619722	11439.270361
524.982213	11380.351876
525.344647	11442.874786
525.707025	11389.990562
526.069345	11480.000364
526.431608	11391.656663
526.793815	11505.138077
527.155964	11295.804164
527.518057	11343.717811
527.880093	11291.083123
528.242072	11368.185051
528.603995	11262.807291
528.965860	11184.409787
529.327669	11233.727395
529.689421	11187.227792
530.051117	11155.781075
530.412755	11250.574932
530.774337	11142.810186
531.135862	11122.721188
531.497331	11156.582618
531.858743	10998.184523
532.220098	11167.012765
532.581396	11032.101406
532.942638	11012.340083
533.303824	10980.548046
533.664953	10989.516259
534.026025	10912.404249
534.387040	11002.035965
534.747999	10996.226035
535.108902	11054.683255
535.469748	10805.952724
535.830537	10909.145143
536.191270	10886.906093
536.551947	10906.904350
536.912567	10902.949565
537.273131	10825.893008
537.633638	10800.508278
537.994089	10788.255753
538.354483	10733.045037
538.714821	10864.326765
539.075103	10879.414938
539.435328	10841.253404
539.795497	10670.212095
540.155609	10821.754221
540.515665	10903.057950
540.875665	10638.876283
541.235609	10699.670078
541.595496	10692.839314
541.955328	10842.422952
542.315102	10719.149096
542.674821	10668.432568
543.034483	10657.757924
543.394090	10663.288070
543.753640	10590.894580
544.113134	10797.786055
544.472571	10648.275514
544.831953	10782.176122
545.191278	10582.546430
545.550548	10610.481984
545.909761	10733.395397
546.268918	10707.672909
546.628019	10780.852819
546.987064	10633.940993
547.346053	10558.046422
547.704986	10638.800665
548.063863	10618.363828
548.422684	10602.585016
548.781449	10509.454740
549.140158	10594.289798
549.498811	10476.175563
549.857408	10328.774745
550.215949	10537.639831
550.574434	10383.564526
550.932864	10469.173400
551.291237	10517.651656
551.649555	10452.333426
552.007817	10457.283839
552.366022	10405.178473
552.724173	10390.997707
553.082267	10365.350837
553.440305	10483.109670
553.798288	10282.539803
554.156215	10406.141333
554.514086	10373.036076
554.871902	10223.533097
555.229661	10232.317307
555.587365	10203.111382
555.945014	10093.635165
556.302606	10194.574188
556.660143	10078.052958
557.017625	10199.698521
557.375050	10093.118447
557.732421	10201.193223
558.089735	10105.817113
558.446994	10087.928579
558.804197	10104.002298
559.161345	10088.140307
559.518437	9934.372512
559.875474	9995.919959
560.232455	9996.678653
560.589381	9942.183780
560.946251	9903.097194
561.303065	9993.563220
561.659825	9906.948635
562.016528	9824.243465
562.373177	9706.156957
562.729770	9776.733111
563.086307	9683.980921
563.442789	9746.513914
563.799216	9602.362120
564.155587	9634.693560
564.511904	9563.535153
564.868164	9532.159011
565.224370	9532.547180
565.580520	9422.052650
565.936615	9422.047608
566.292654	9271.899362
566.648638	9355.128812
567.004567	9291.822002
567.360441	9262.442157
567.716260	9156.131784
568.072023	9214.886432
568.427732	9135.813414
568.783385	9048.241010
569.138982	9063.062002
569.494525	9057.166373
569.850013	8923.180065
570.205445	8955.841701
570.560823	8852.167851
570.916145	8751.107840
571.271412	8775.819576
571.626625	8699.718318
571.981782	8660.858583
572.336884	8602.592927
572.691931	8592.833253
573.046923	8504.489553
573.401860	8444.308258
573.756743	8363.765743
574.111570	8363.465795
574.466342	8333.559149
574.821059	8320.467273
575.175722	8204.533337
575.530330	8180.131632
575.884882	8152.828743
576.239380	8049.921149
576.593823	8018.741612
576.948211	7993.067016
577.302544	7877.034778
577.656823	7845.855241
578.011047	7820.941859
578.365216	7761.173939
578.719330	7682.816764
579.073389	7646.102041
579.427394	7587.959893
579.781344	7537.102212
580.135239	7470.095195
580.489080	7449.844880
580.842866	7341.429826
581.196597	7309.181564
581.550273	7316.879406
581.903895	7256.995540
582.257463	7272.544979
582.610975	7144.504712
582.964434	7144.792058
583.317837	7057.217133
583.671186	7015.350351
584.024481	6980.233673
584.377721	6893.382154
584.730906	6848.304156
585.084037	6833.601631
585.437113	6772.447394
585.790135	6743.465800
586.143103	6652.518344
586.496016	6605.391117
586.848874	6605.416323
587.201679	6577.087559
587.554428	6464.367359
587.907124	6462.330733
588.259765	6419.780874
588.612352	6380.870728
588.964884	6286.424710
589.317362	6259.131903
589.669786	6225.119238
590.022155	6233.137194
590.374470	6205.068049
590.726731	6147.649307
591.078937	6025.721439
591.431090	6058.902314
591.783188	5964.259692
592.135232	5917.984420
592.487222	5907.645013
592.839157	5895.745370
593.191038	5833.257747
593.542866	5774.709786
593.894639	5692.949833
594.246358	5695.099885
594.598022	5670.645247
594.949633	5587.519141
595.301190	5545.740579
595.652692	5535.355802
596.004141	5550.852309
596.355535	5424.911683
596.706876	5381.829982
597.058162	5317.421680
597.409395	5330.551365
597.760573	5334.294422
598.111698	5264.867651
598.462768	5230.486982
598.813785	5192.264953
599.164748	5142.665041
599.515657	5120.831803
599.866511	5041.826840
600.217312	5080.729424
600.568060	4987.420187
600.918753	5009.273589
601.269392	4969.473680
601.619978	4902.345675
601.970510	4905.834153
602.320988	4886.859250
602.671412	4877.336511
603.021783	4828.759952
603.372100	4792.488850
603.722363	4764.321403
604.072572	4734.477772
604.422728	4719.470257
604.772830	4664.836753
605.122878	4637.402793
605.472872	4622.362511
605.822813	4604.121096
606.172701	4565.175662
606.522534	4560.358839
606.872314	4545.321077
607.222041	4502.395652
607.571714	4497.853573
607.921333	4461.184220
608.270899	4433.924180
608.620411	4447.772230
608.969870	4392.848859
609.319276	4369.878841
609.668627	4345.630891
610.017926	4341.325746
610.367171	4332.216381
610.716362	4301.929128
611.065500	4278.815438
611.414585	4261.869599
611.763616	4242.899738
612.112594	4210.076785
612.461518	4194.151780
612.810389	4194.550031
613.159207	4153.033608
613.507971	4120.896253
613.856682	4130.572747
614.205340	4101.389508
614.553945	4104.280610
614.902496	4059.714289
615.250994	4050.093247
615.599439	4027.917211
615.947830	4012.816435
616.296169	3988.538238
616.644454	3972.668686
616.992686	3951.228658
617.340864	3950.129687
617.688990	3905.379364
618.037063	3917.188267
618.385082	3885.560068
618.733048	3890.626427
619.080961	3858.743650
619.428821	3844.724201
619.776628	3825.890450
620.124382	3800.460350
620.472083	3774.054786
620.819731	3765.976337
621.167326	3720.918504
621.514868	3705.661452
621.862357	3664.170235
622.209793	3652.905777
622.557176	3620.712968
622.904506	3591.436467
623.251783	3561.862538
623.599007	3537.170967
623.946179	3517.860827
624.293297	3495.473063
624.640363	3467.376192
624.987376	3451.415898
625.334336	3427.369595
625.681243	3402.075605
626.028097	3390.879203
626.374899	3374.429918
626.721647	3354.295549
627.068343	3337.967252
627.414987	3316.723829
627.761577	3296.201292
628.108115	3292.985036
628.454600	3266.642487
628.801032	3257.923811
629.147412	3248.469127
629.493739	3231.883731
629.840014	3213.148282
630.186236	3211.431770
630.532405	3188.393697
630.878521	3184.759025
631.224585	3170.563135
631.570597	3152.389776
631.916556	3143.388796
632.262462	3139.640698
632.608316	3118.707306
632.954117	3107.858743
633.299866	3101.370778
633.645562	3088.238573
633.991206	3072.394226
634.336797	3052.317831
634.682336	3039.523382
635.027823	3022.615352
635.373257	3015.572860
635.718639	2997.948987
636.063968	2992.199551
636.409245	2973.469143
636.754470	2963.263328
637.099642	2955.744447
637.444762	2937.419852
637.789829	2934.208637
638.134845	2919.029723
638.479808	2910.668969
638.824719	2905.146385
639.169577	2896.833523
639.514383	2887.570403
639.859137	2873.578680
640.203839	2871.665562
640.548489	2863.592154
640.893086	2852.262161
