Dividing Wavelength (nm)	Counts (n)	Blue Motor Position (mm): 0.000000	Red Motor Position (mm): 23.100000	
326.493990	2128.334825
326.888308	2128.334825
327.282561	2128.334825
327.676750	2095.348034
328.070874	2093.906264
328.464933	2099.454054
328.858929	2104.031422
329.252859	2114.068359
329.646726	2126.154526
330.040528	2136.980403
330.434265	2153.921201
330.827938	2173.064983
331.221547	2189.045440
331.615091	2209.625951
332.008571	2227.181769
332.401986	2246.116343
332.795338	2266.641401
333.188625	2285.381890
333.581847	2305.037349
333.975006	2321.411017
334.368100	2341.336178
334.761129	2358.216481
335.154095	2376.195756
335.546996	2391.150339
335.939833	2409.711868
336.332606	2425.105031
336.725315	2435.315888
337.117960	2444.266457
337.510540	2454.227777
337.903056	2466.729838
338.295508	2472.098667
338.687896	2482.077631
339.080220	2489.334372
339.472480	2495.842502
339.864676	2500.074550
340.256807	2504.777947
340.648875	2504.188132
341.040879	2513.105933
341.432818	2511.457476
341.824694	2512.632065
342.216506	2513.211797
342.608253	2514.242713
342.999937	2514.535100
343.391557	2513.277332
343.783113	2513.385717
344.174605	2511.782630
344.566033	2512.667353
344.957397	2509.788854
345.348697	2504.006650
345.739934	2506.323061
346.131106	2504.299037
346.522215	2503.187463
346.913260	2498.340393
347.304241	2497.117914
347.695159	2497.992554
348.086012	2495.129178
348.476802	2494.075577
348.867528	2491.723879
349.258191	2490.287150
349.648789	2490.587099
350.039324	2489.281440
350.429796	2487.446460
350.820203	2486.014772
351.210548	2484.197436
351.600828	2482.831284
351.991045	2484.890595
352.381198	2484.683908
352.771288	2483.030409
353.161314	2480.797178
353.551276	2483.068218
353.941175	2481.434884
354.331010	2484.358753
354.720782	2483.423619
355.110490	2485.014103
355.500135	2480.613176
355.889717	2484.454535
356.279235	2480.497229
356.668689	2483.847076
357.058080	2482.407827
357.447408	2481.787765
357.836672	2479.347846
358.225873	2482.198619
358.615010	2482.584267
359.004084	2487.126347
359.393095	2486.957468
359.782043	2487.131388
360.170927	2488.305977
360.559748	2488.081645
360.948505	2491.834784
361.337199	2489.762870
361.725830	2489.099958
362.114398	2489.798158
362.502903	2492.480052
362.891344	2491.093735
363.279722	2495.141781
363.668037	2495.356030
364.056289	2494.161277
364.444478	2493.221102
364.832603	2492.729589
365.220665	2494.436020
365.608665	2495.537512
365.996601	2496.485249
366.384474	2495.746720
366.772284	2502.219561
367.160031	2497.962307
367.547715	2502.141423
367.935336	2505.453462
368.322893	2506.416322
368.710388	2513.030316
369.097820	2518.565503
369.485189	2524.201513
369.872495	2523.278982
370.259738	2533.638553
370.646918	2541.038967
371.034035	2549.230842
371.421090	2556.502706
371.808081	2569.960066
372.195010	2578.623289
372.581875	2590.737182
372.968678	2604.592793
373.355418	2613.137549
373.742096	2633.097997
374.128710	2645.635347
374.515262	2664.622853
374.901751	2676.020902
375.288177	2689.831143
375.674540	2714.268136
376.060841	2731.294633
376.447079	2750.566964
376.833254	2773.037908
377.219367	2787.168262
377.605417	2819.779486
377.991404	2830.164263
378.377329	2851.942048
378.763191	2870.317053
379.148991	2907.238464
379.534727	2932.131682
379.920402	2962.113944
380.306013	2972.959987
380.691563	3023.565610
381.077049	3044.322561
381.462474	3061.023903
381.847835	3099.893720
382.233134	3121.018675
382.618371	3124.837349
383.003545	3190.566434
383.388657	3197.772763
383.773706	3231.021693
384.158693	3245.656163
384.543618	3271.812190
384.928480	3307.087664
385.313280	3351.762369
385.698017	3349.410671
386.082692	3405.654824
386.467305	3413.158582
386.851856	3441.399126
387.236344	3463.212198
387.620770	3498.323835
388.005133	3525.384749
388.389435	3550.950961
388.773674	3561.323135
389.157851	3604.256121
389.541965	3619.006537
389.926018	3583.070672
390.310008	3657.503309
390.693936	3674.683561
391.077802	3717.964388
391.461606	3703.813869
391.845348	3767.982716
392.229027	3763.521295
392.612645	3779.332874
392.996200	3855.247610
393.379694	3891.765728
393.763125	3964.181903
394.146494	3927.331068
394.529801	3991.099144
394.913047	4038.307029
395.296230	4005.053058
395.679351	4060.304104
396.062410	4079.578956
396.445408	4066.381215
396.828343	4096.928087
397.211217	4123.411788
397.594028	4039.912637
397.976778	4108.328656
398.359466	4133.685660
398.742092	4162.735309
399.124656	4083.624482
399.507158	4166.097759
399.889598	4190.234803
400.271977	4248.787805
400.654294	4220.191860
401.036549	4226.843663
401.418742	4199.384498
401.800874	4301.452739
402.182944	4319.769772
402.564952	4387.865678
402.946898	4377.649780
403.328783	4369.707442
403.710606	4283.047487
404.092367	4474.649142
404.474067	4438.035241
404.855705	4447.802477
405.237282	4374.486456
405.618797	4483.778671
406.000250	4523.732336
406.381642	4597.222277
406.762972	4561.281370
407.144240	4573.768308
407.525447	4569.304367
407.906593	4633.795848
408.287677	4674.606509
408.668700	4603.667392
409.049661	4656.027336
409.430560	4691.479251
409.811399	4620.570381
410.192176	4783.699599
410.572891	4723.755238
410.953545	4823.554961
411.334138	4707.374009
411.714669	4769.481024
412.095139	4667.395138
412.475547	4811.113393
412.855894	4787.810660
413.236180	4796.400786
413.616405	4749.427314
413.996568	4838.655737
414.376670	4781.484012
414.756711	4732.733533
415.136691	4764.046660
415.516609	4845.887272
415.896466	4884.137027
416.276262	4915.056944
416.655997	4894.128594
417.035670	5078.370164
417.415283	5163.669008
417.794834	5115.344507
418.174324	5066.485644
418.553753	4970.602898
418.933121	5158.529552
419.312428	5220.339139
419.691674	5160.349408
420.070859	5285.586793
420.449983	5196.759142
420.829045	5311.528571
421.208047	5216.021391
421.586988	5285.274242
421.965867	5300.080111
422.344686	5429.736067
422.723444	5283.199807
423.102141	5103.409576
423.480777	5394.180809
423.859352	5161.271939
424.237866	5410.980454
424.616319	5402.879320
424.994712	5507.165669
425.373044	5381.998861
425.751314	5516.542216
426.129524	5320.020395
426.507673	5498.338609
426.885762	5575.495989
427.263789	5500.521429
427.641756	5379.649683
428.019662	5486.144058
428.397508	5487.618595
428.775292	5419.469757
429.153016	5505.726420
429.530679	5423.966466
429.908282	5489.667824
430.285824	5351.593141
430.663305	5598.241675
431.040726	5333.689483
431.418086	5318.906300
431.795385	5403.557355
432.172624	5393.220469
432.549802	5367.457652
432.926920	5361.667887
433.303977	5352.092215
433.680974	5357.214028
434.057910	5354.103636
434.434786	5335.373229
434.811601	5280.507831
435.188355	5463.035409
435.565050	5322.074665
435.941683	5285.664931
436.318257	5430.565337
436.694770	5381.025918
437.071222	5374.454774
437.447614	5286.216938
437.823946	5183.735321
438.200218	5271.852170
438.576429	5130.402434
438.952580	5165.466179
439.328670	5160.059542
439.704700	5051.034508
440.080670	5001.167414
440.456580	5153.329602
440.832429	5023.403943
441.208218	4876.905492
441.583947	4935.745840
441.959616	4895.963574
442.335224	4803.899502
442.710773	4841.461139
443.086261	4807.319925
443.461689	4634.451198
443.837057	4674.314122
444.212365	4717.511769
444.587612	4605.038586
444.962800	4642.418742
445.337927	4580.836006
445.712995	4315.494873
446.088002	4563.499478
446.462949	4427.504271
446.837837	4336.009849
447.212664	4374.793966
447.587431	4372.792628
447.962139	4560.046288
448.336786	4899.222680
448.711374	4732.680601
449.085901	4286.472951
449.460369	4181.553936
449.834776	4105.987040
450.209124	4194.083724
450.583412	4180.356662
450.957640	4188.125080
451.331808	4044.986558
451.705917	3842.836289
452.079965	3768.895165
452.453954	3775.052934
452.827883	3694.160059
453.201752	3673.322450
453.575562	3576.058427
453.949311	3572.978282
454.323001	3510.357069
454.696632	3481.960250
455.070202	3467.575317
455.443713	3461.311683
455.817164	3438.339145
456.190556	3403.325811
456.563888	3378.926627
456.937160	3342.738704
457.310373	3250.339395
457.683526	3213.075186
458.056619	3158.214829
458.429653	3124.366002
458.802628	3084.155238
459.175542	3064.787125
459.548398	3079.666090
459.921194	3072.164853
460.293930	3050.293808
460.666607	3072.956315
461.039224	3078.035277
461.411782	3060.547514
461.784280	3022.121319
462.156719	2980.741008
462.529099	2935.670572
462.901419	2880.006151
463.273680	2848.400637
463.645882	2823.399035
464.018024	2797.195117
464.390106	2788.302522
464.762130	2788.239507
465.134094	2801.565797
465.505999	2841.494256
465.877845	2877.422560
466.249631	2876.091695
466.621358	2829.246773
466.993026	2783.863786
467.364634	2758.640372
467.736184	2729.527709
468.107674	2710.157075
468.479105	2698.191897
468.850477	2685.054650
469.221790	2669.243071
469.593043	2655.170690
469.964238	2643.908752
470.335373	2638.797022
470.706449	2636.294089
471.077467	2631.502472
471.448425	2645.970584
471.819324	2652.040133
472.190164	2648.808753
472.560945	2627.260341
472.931667	2617.117540
473.302330	2610.627054
473.672934	2604.978441
474.043479	2605.807711
474.413965	2602.926692
474.784393	2595.158274
475.154761	2596.663058
475.525070	2595.022162
475.895321	2591.899168
476.265513	2590.754826
476.635645	2593.703901
477.005719	2595.034765
477.375734	2593.567790
477.745691	2597.630960
478.115588	2597.207503
478.485427	2596.358068
478.855207	2602.488111
479.224928	2605.359048
479.594591	2610.465737
479.964194	2609.243257
480.333739	2606.463061
480.703226	2605.855602
481.072653	2604.192021
481.442022	2608.403905
481.811333	2606.281580
482.180584	2606.707557
482.549777	2602.750251
482.918912	2600.650611
483.287988	2601.552977
483.657005	2598.845878
484.025964	2599.523913
484.394864	2596.405959
484.763706	2597.920826
485.132489	2594.817996
485.501213	2595.105342
485.869879	2594.550815
486.238487	2592.650300
486.607036	2593.015783
486.975527	2593.388829
487.343959	2593.966041
487.712333	2593.479569
488.080648	2591.097624
488.448905	2594.036617
488.817104	2591.397573
489.185244	2592.337748
489.553326	2592.791452
489.921350	2594.815475
490.289315	2603.640015
490.657222	2605.906014
491.025070	2604.875098
491.392861	2605.023812
491.760593	2600.138934
492.128267	2599.256732
492.495883	2597.227667
492.863440	2595.949735
493.230939	2591.790783
493.598380	2591.027048
493.965763	2585.171748
494.333088	2586.777355
494.700354	2585.065884
495.067563	2587.238621
495.434713	2582.603280
495.801805	2589.403797
496.168839	2588.125864
496.535815	2589.670978
496.902733	2587.740216
497.269593	2587.841039
497.636395	2587.352047
498.003139	2588.420772
498.369825	2588.037644
498.736453	2587.097469
499.103023	2581.930286
499.469535	2586.860534
499.835989	2586.222828
500.202385	2585.559917
500.568723	2583.034299
500.935003	2584.876840
501.301226	2586.772314
501.667390	2589.504620
502.033497	2588.088055
502.399546	2584.662591
502.765537	2583.578743
503.131470	2584.720565
503.497345	2584.564289
503.863163	2584.713003
504.228923	2582.573033
504.594625	2586.419433
504.960269	2580.939699
505.325856	2583.820719
505.691385	2584.292067
506.056856	2581.791654
506.422270	2582.875502
506.787625	2580.755697
507.152924	2583.160328
507.518164	2585.756522
507.883347	2583.583784
508.248472	2583.419947
508.613540	2584.705441
508.978550	2581.463979
509.343503	2584.420616
509.708398	2582.404154
510.073236	2582.482292
510.438016	2584.702921
510.802738	2583.876171
511.167403	2586.621080
511.532010	2583.830801
511.896561	2583.929103
512.261053	2585.103692
512.625488	2582.124370
512.989866	2582.056315
513.354186	2582.489854
513.718449	2580.470872
514.082655	2585.970771
514.446803	2585.121336
514.810894	2585.595205
515.174927	2586.774835
515.538904	2583.845924
515.902822	2587.165524
516.266684	2587.465473
516.630488	2583.064546
516.994235	2587.389856
517.357925	2585.489341
517.721558	2587.359609
518.085133	2585.728795
518.448651	2589.232397
518.812112	2586.313569
519.175516	2584.100503
519.538863	2586.545462
519.902152	2586.527818
520.265385	2588.214084
520.628560	2589.597881
520.991678	2587.707448
521.354739	2588.589650
521.717743	2586.545462
522.080690	2587.994794
522.443580	2587.619228
522.806413	2587.228539
523.169189	2586.038826
523.531908	2588.279619
523.894569	2586.512695
524.257174	2588.582088
524.619722	2588.617377
524.982213	2589.618046
525.344647	2589.015628
525.707025	2588.088055
526.069345	2589.376070
526.431608	2590.505289
526.793815	2589.149218
527.155964	2589.917994
527.518057	2588.733323
527.880093	2587.747777
528.242072	2585.370873
528.603995	2590.278437
528.965860	2586.525298
529.327669	2589.416399
529.689421	2587.818354
530.051117	2588.980340
530.412755	2589.517222
530.774337	2586.457242
531.135862	2586.565627
531.497331	2584.377766
531.858743	2583.581264
532.220098	2585.212077
532.581396	2584.609659
532.942638	2586.716862
533.303824	2586.172417
533.664953	2586.026223
534.026025	2583.389700
534.387040	2589.890268
534.747999	2586.986563
535.108902	2589.497058
535.469748	2584.632344
535.830537	2587.311718
536.191270	2586.580750
536.551947	2587.470514
536.912567	2588.418251
537.273131	2583.936665
537.633638	2586.696697
537.994089	2584.115626
538.354483	2585.738878
538.714821	2587.110072
539.075103	2589.686101
539.435328	2589.623087
539.795497	2587.329362
540.155609	2590.631317
540.515665	2585.340627
540.875665	2587.362129
541.235609	2586.089238
541.595496	2587.644434
541.955328	2588.854311
542.315102	2586.910946
542.674821	2587.944383
543.034483	2589.789445
543.394090	2585.658219
543.753640	2589.930597
544.113134	2586.366501
544.472571	2588.758529
544.831953	2590.298601
545.191278	2588.811461
545.550548	2589.920515
545.909761	2587.939341
546.268918	2588.221646
546.628019	2590.371698
546.987064	2591.626945
547.346053	2588.982860
547.704986	2588.352716
548.063863	2588.604774
548.422684	2588.282140
548.781449	2588.115782
549.140158	2587.740216
549.498811	2589.055957
549.857408	2587.110072
550.215949	2585.930442
550.574434	2585.680904
550.932864	2588.382963
551.291237	2587.102510
551.649555	2584.639906
552.007817	2588.718200
552.366022	2588.824064
552.724173	2588.592171
553.082267	2586.580750
553.440305	2588.110741
553.798288	2586.858014
554.156215	2587.614187
554.514086	2588.690473
554.871902	2588.680391
555.229661	2589.423961
555.587365	2587.596543
555.945014	2586.195102
556.302606	2586.464804
556.660143	2585.743919
557.017625	2587.364650
557.375050	2588.599732
557.732421	2589.597881
558.089735	2588.556883
558.446994	2588.710638
558.804197	2591.584096
559.161345	2588.211564
559.518437	2587.485638
559.875474	2589.345823
560.232455	2590.671647
560.589381	2591.510999
560.946251	2592.115937
561.303065	2590.369177
561.659825	2587.125195
562.016528	2587.931780
562.373177	2590.729620
562.729770	2588.140987
563.086307	2589.852459
563.442789	2589.807089
563.799216	2588.748447
564.155587	2589.423961
564.511904	2587.052098
564.868164	2590.406986
565.224370	2590.278437
565.580520	2589.673498
565.936615	2589.174424
566.292654	2584.967581
566.648638	2585.799372
567.004567	2589.839856
567.360441	2589.187027
567.716260	2587.659557
568.072023	2590.699373
568.427732	2584.360122
568.783385	2587.556214
569.138982	2583.304000
569.494525	2586.197623
569.850013	2581.000193
570.205445	2586.134608
570.560823	2586.139649
570.916145	2587.271388
571.271412	2586.086717
571.626625	2587.838518
571.981782	2583.898857
572.336884	2586.043867
572.691931	2586.742067
573.046923	2586.144691
573.401860	2586.424475
573.756743	2585.272571
574.111570	2583.785431
574.466342	2586.109402
574.821059	2587.518405
575.175722	2587.478076
575.530330	2586.363981
575.884882	2584.652509
576.239380	2585.983374
576.593823	2586.023703
576.948211	2584.261820
577.302544	2586.447160
577.656823	2584.723085
578.011047	2586.069073
578.365216	2584.521439
578.719330	2584.796182
579.073389	2581.748804
579.427394	2584.438260
579.781344	2583.369535
580.135239	2586.426995
580.489080	2583.951789
580.842866	2583.437591
581.196597	2582.273084
581.550273	2582.217632
581.903895	2584.690318
582.257463	2585.267530
582.610975	2580.523804
582.964434	2583.235945
583.317837	2582.343661
583.671186	2581.900039
584.024481	2584.818867
584.377721	2579.964236
584.730906	2581.960533
585.084037	2582.789803
585.437113	2579.008937
585.790135	2583.553537
586.143103	2581.070769
586.496016	2581.839545
586.848874	2574.905438
587.201679	2582.000862
587.554428	2574.527352
587.907124	2578.484657
588.259765	2575.205387
588.612352	2578.971129
588.964884	2578.041036
589.317362	2576.523648
589.669786	2578.628330
590.022155	2579.513053
590.374470	2582.114288
590.726731	2581.325347
591.078937	2579.487847
591.431090	2577.037846
591.783188	2579.069431
592.135232	2578.091447
592.487222	2578.590522
592.839157	2577.887281
593.191038	2579.949113
593.542866	2577.335274
593.894639	2578.822415
594.246358	2574.792012
594.598022	2576.405181
594.949633	2577.660429
595.301190	2577.307548
595.652692	2577.138669
596.004141	2576.483319
596.355535	2578.139338
596.706876	2575.389389
597.058162	2574.550037
597.409395	2574.728998
597.760573	2576.342167
598.111698	2577.567167
598.462768	2576.256467
598.813785	2577.743608
599.164748	2576.679924
599.515657	2574.504666
599.866511	2574.628175
600.217312	2575.888463
600.568060	2575.568350
600.918753	2575.603638
601.269392	2575.394430
601.619978	2575.835531
601.970510	2575.802763
602.320988	2574.509707
602.671412	2576.410222
603.021783	2575.258319
603.372100	2576.626992
603.722363	2572.503328
604.072572	2575.772517
604.422728	2572.692372
604.772830	2574.539954
605.122878	2569.014850
605.472872	2572.833524
605.822813	2566.111145
606.172701	2572.767989
606.522534	2574.522310
606.872314	2574.129100
607.222041	2570.880077
607.571714	2574.849985
607.921333	2574.355952
608.270899	2576.296797
608.620411	2575.709502
608.969870	2572.042063
609.319276	2574.290417
609.668627	2578.643454
610.017926	2581.526994
610.367171	2583.440112
610.716362	2583.495564
611.065500	2575.938875
611.414585	2576.750500
611.763616	2580.359967
612.112594	2577.514235
612.461518	2579.155131
612.810389	2577.267219
613.159207	2577.491550
613.507971	2576.705130
613.856682	2579.470203
614.205340	2576.276632
614.553945	2576.984914
614.902496	2575.618761
615.250994	2573.922413
615.599439	2575.969122
615.947830	2574.232444
616.296169	2573.854357
616.644454	2574.224882
616.992686	2576.170768
617.340864	2574.587845
617.688990	2573.556929
618.037063	2576.705130
618.385082	2572.498287
618.733048	2575.134811
619.080961	2577.229410
619.428821	2574.164388
619.776628	2572.407546
620.124382	2576.175809
620.472083	2575.507856
620.819731	2572.992320
621.167326	2573.882084
621.514868	2576.009451
621.862357	2574.350911
622.209793	2573.088102
622.557176	2572.505849
622.904506	2570.171795
623.251783	2565.385219
623.599007	2568.624160
623.946179	2568.813204
624.293297	2567.620971
624.640363	2569.725652
624.987376	2572.644481
625.334336	2571.066599
625.681243	2568.866136
626.028097	2569.322360
626.374899	2572.163050
626.721647	2569.007288
627.068343	2570.219686
627.414987	2569.188770
627.761577	2567.757082
628.108115	2568.162895
628.454600	2568.573749
628.801032	2566.330435
629.147412	2567.956207
629.493739	2567.562997
629.840014	2570.834706
630.186236	2570.499470
630.532405	2568.568708
630.878521	2567.565518
631.224585	2568.452761
631.570597	2567.936043
631.916556	2565.975034
632.262462	2567.976372
632.608316	2567.227761
632.954117	2565.788511
633.299866	2567.240364
633.645562	2567.535271
633.991206	2565.869170
634.336797	2564.203068
634.682336	2566.597617
635.027823	2565.861608
635.373257	2564.283727
635.718639	2562.852039
636.063968	2563.905640
636.409245	2561.158212
636.754470	2562.171483
637.099642	2564.724828
637.444762	2566.544684
637.789829	2562.310115
638.134845	2565.601989
638.479808	2561.710218
638.824719	2561.657286
639.169577	2561.629559
639.514383	2564.548387
639.859137	2561.599312
640.203839	2562.567214
640.548489	2562.050496
640.893086	2560.467573
641.237632	2558.325083
641.582125	2559.363561
641.926566	2555.005483
642.270955	2562.912533
642.615292	2562.657955
642.959576	2561.571586
643.303809	2562.100907
643.647990	2561.223747
643.992118	2563.547718
644.336195	2560.810372
