Dividing Wavelength (nm)	Counts (n)	Blue Motor Position (mm): 0.000000	Red Motor Position (mm): 43.800000	
326.493990	2129.544702
326.888308	2129.544702
327.282561	2129.544702
327.676750	2097.568663
328.070874	2094.559094
328.464933	2097.677048
328.858929	2103.285331
329.252859	2112.591301
329.646726	2126.429268
330.040528	2137.600465
330.434265	2158.952273
330.827938	2171.983655
331.221547	2189.184072
331.615091	2209.313399
332.008571	2228.207644
332.401986	2248.992321
332.795338	2267.553850
333.188625	2290.392797
333.581847	2306.867288
333.975006	2322.199958
334.368100	2342.394820
334.761129	2362.428365
335.154095	2379.291025
335.546996	2396.960269
335.939833	2420.343661
336.332606	2434.171546
336.725315	2448.163269
337.117960	2459.750361
337.510540	2464.282358
337.903056	2478.206025
338.295508	2485.487972
338.687896	2496.399549
339.080220	2500.303923
339.472480	2507.779954
339.864676	2512.004441
340.256807	2518.222704
340.648875	2517.194309
341.040879	2523.909126
341.432818	2522.749660
341.824694	2524.577079
342.216506	2527.309384
342.608253	2525.325690
342.999937	2528.201668
343.391557	2522.999198
343.783113	2525.441637
344.174605	2524.861904
344.566033	2521.527181
344.957397	2519.117509
345.348697	2521.721265
345.739934	2517.617766
346.131106	2516.014679
346.522215	2512.150634
346.913260	2513.940244
347.304241	2510.676097
347.695159	2505.183760
348.086012	2508.745335
348.476802	2507.427073
348.867528	2506.242402
349.258191	2504.120076
349.648789	2504.931702
350.039324	2501.405415
350.429796	2500.656804
350.820203	2498.312667
351.210548	2496.767553
351.600828	2498.007677
351.991045	2495.567759
352.381198	2497.700167
352.771288	2495.212357
353.161314	2494.544405
353.551276	2493.352172
353.941175	2493.495845
354.331010	2496.165136
354.720782	2495.277893
355.110490	2493.846205
355.500135	2494.914929
355.889717	2495.310660
356.279235	2496.097080
356.668689	2496.709580
357.058080	2497.869046
357.447408	2495.325783
357.836672	2494.380567
358.225873	2498.042965
358.615010	2492.848056
359.004084	2497.206134
359.393095	2499.015908
359.782043	2499.691423
360.170927	2499.930878
360.559748	2500.359376
360.948505	2499.620847
361.337199	2500.545898
361.725830	2503.003461
362.114398	2504.835920
362.502903	2504.069665
362.891344	2501.700323
363.279722	2502.922802
363.668037	2503.575632
364.056289	2505.629902
364.444478	2508.551251
364.832603	2506.731394
365.220665	2506.527227
365.608665	2508.662156
365.996601	2509.486385
366.384474	2510.817249
366.772284	2511.853206
367.160031	2512.196005
367.547715	2517.222035
367.935336	2515.687004
368.322893	2521.849814
368.710388	2523.755371
369.097820	2529.194776
369.485189	2534.298944
369.872495	2538.538554
370.259738	2546.334699
370.646918	2555.136553
371.034035	2560.442368
371.421090	2570.184397
371.808081	2583.145204
372.195010	2591.304312
372.581875	2603.511466
372.968678	2615.842128
373.355418	2627.751854
373.742096	2645.436222
374.128710	2659.697646
374.515262	2675.025274
374.901751	2687.771832
375.288177	2702.446630
375.674540	2727.412945
376.060841	2744.366345
376.447079	2761.707914
376.833254	2782.676594
377.219367	2791.221350
377.605417	2834.613081
377.991404	2845.154134
378.377329	2863.947556
378.763191	2882.027654
379.148991	2918.265988
379.534727	2945.657098
379.920402	2973.932930
380.306013	2984.383242
380.691563	3036.579348
381.077049	3053.941082
381.462474	3073.697364
381.847835	3112.655401
382.233134	3133.150212
382.618371	3137.838485
383.003545	3203.706201
383.388657	3208.790205
383.773706	3245.031060
384.158693	3258.808533
384.543618	3287.217956
384.928480	3323.211794
385.313280	3369.121583
385.698017	3363.006663
386.082692	3420.417843
386.467305	3426.520160
386.851856	3458.516364
387.236344	3479.744663
387.620770	3509.752131
388.005133	3536.830689
388.389435	3564.685584
388.773674	3573.162284
389.157851	3615.918831
389.541965	3636.350627
389.926018	3595.925615
390.310008	3670.065864
390.693936	3690.343906
391.077802	3728.999473
391.461606	3718.221486
391.845348	3780.172226
392.229027	3781.533337
392.612645	3792.754946
392.996200	3870.988612
393.379694	3909.482863
393.763125	3975.254797
394.146494	3942.706588
394.529801	4005.935260
394.913047	4051.464441
395.296230	4019.342208
395.679351	4074.444541
396.062410	4096.882716
396.445408	4077.622988
396.828343	4111.280252
397.211217	4135.215650
397.594028	4056.613979
397.976778	4121.042446
398.359466	4146.210407
398.742092	4176.686702
399.124656	4099.534363
399.507158	4178.614944
399.889598	4204.894479
400.271977	4267.815640
400.654294	4236.348758
401.036549	4243.653390
401.418742	4215.982497
401.800874	4316.341787
402.182944	4340.705684
402.564952	4404.398142
402.946898	4390.144280
403.328783	4388.720154
403.710606	4304.071619
404.092367	4494.526411
404.474067	4458.782110
404.855705	4465.817040
405.237282	4393.809198
405.618797	4500.706866
406.000250	4536.501579
406.381642	4614.916727
406.762972	4579.792487
407.144240	4589.942851
407.525447	4592.977625
407.906593	4651.598683
408.287677	4690.135783
408.668700	4623.285042
409.049661	4672.839584
409.430560	4712.170667
409.811399	4640.094770
410.192176	4803.050068
410.572891	4743.796345
410.953545	4845.942725
411.334138	4725.345722
411.714669	4790.621103
412.095139	4689.172923
412.475547	4829.380014
412.855894	4810.420235
413.236180	4818.062624
413.616405	4771.139564
413.996568	4860.209191
414.376670	4799.029747
414.756711	4758.322430
415.136691	4788.597080
415.516609	4864.163976
415.896466	4902.396087
416.276262	4935.269451
416.655997	4921.275208
417.035670	5102.333289
417.415283	5193.006003
417.794834	5133.205315
418.174324	5095.147124
418.553753	4995.488554
418.933121	5182.217934
419.312428	5248.075567
419.691674	5187.528789
420.070859	5314.054189
420.449983	5227.248040
420.829045	5340.840360
421.208047	5247.909209
421.586988	5319.120549
421.965867	5333.409699
422.344686	5461.714626
422.723444	5320.406043
423.102141	5136.323269
423.480777	5436.962561
423.859352	5204.918249
424.237866	5461.457527
424.616319	5451.050065
424.994712	5568.559362
425.373044	5446.412204
425.751314	5582.964459
426.129524	5387.289552
426.507673	5580.171659
426.885762	5664.976470
427.263789	5597.558599
427.641756	5476.548222
428.019662	5599.000369
428.397508	5608.606288
428.775292	5557.370521
429.153016	5651.047762
429.530679	5579.392801
429.908282	5666.047715
430.285824	5533.977046
430.663305	5810.398635
431.040726	5543.222522
431.418086	5544.157656
431.795385	5648.209592
432.172624	5659.128732
432.549802	5653.381816
432.926920	5667.277757
433.303977	5677.218912
433.680974	5713.903389
434.057910	5732.485082
434.434786	5736.737295
434.811601	5707.007090
435.188355	5946.003153
435.565050	5812.639428
435.941683	5795.444052
436.318257	6013.438668
436.694770	5995.416543
437.071222	6026.570874
437.447614	5958.666531
437.823946	5874.345672
438.200218	6025.035842
438.576429	5895.508435
438.952580	5995.187170
439.328670	6034.631679
439.704700	5943.225477
440.080670	5933.790958
440.456580	6202.161824
440.832429	6088.410708
441.208218	5932.422284
441.583947	6089.358445
441.959616	6088.471202
442.335224	6018.270614
442.710773	6152.725749
443.086261	6183.101221
443.461689	5978.198482
443.837057	6124.459999
444.212365	6280.219050
444.587612	6171.501526
444.962800	6327.757131
445.337927	6308.777187
445.712995	5919.025418
446.088002	6495.085630
446.462949	6322.446275
446.837837	6252.757364
447.212664	6429.008706
447.587431	6573.253761
447.962139	7112.853828
448.336786	8044.385962
448.711374	7782.702186
449.085901	6857.975610
449.460369	6777.687673
449.834776	6714.627880
450.209124	7100.520645
450.583412	7253.330621
450.957640	7401.936275
451.331808	7165.785943
451.705917	6713.647375
452.079965	6635.811960
452.453954	6848.473035
452.827883	6726.784622
453.201752	6819.569579
453.575562	6621.459795
453.949311	6820.529919
454.323001	6713.453291
454.696632	6786.968438
455.070202	6926.310971
455.443713	7076.310504
455.817164	7180.982502
456.190556	7262.926457
456.563888	7339.864547
456.937160	7376.957357
457.310373	7040.724999
457.683526	7057.043214
458.056619	6951.872142
458.429653	6942.989628
458.802628	6881.154835
459.175542	6983.114693
459.548398	7340.981163
459.921194	7504.354877
460.293930	7504.397727
460.666607	8037.895476
461.039224	8345.993155
461.411782	8471.656518
461.784280	8490.659147
462.156719	8377.066828
462.529099	8252.545287
462.901419	7844.158893
463.273680	7737.649394
463.645882	7751.600788
464.018024	7621.450798
464.390106	7782.208153
464.762130	8172.726177
465.134094	8639.111046
465.505999	9662.049381
465.877845	10887.437935
466.249631	11535.778210
466.621358	11155.607155
466.993026	10522.539055
467.364634	10264.658830
467.736184	9900.778263
468.107674	9573.390609
468.479105	9600.466646
468.850477	9367.290595
469.221790	9139.926995
469.593043	8808.304772
469.964238	8672.279318
470.335373	8682.802726
470.706449	8738.278104
471.077467	8722.242193
471.448425	10035.740034
471.819324	11107.431368
472.190164	11131.397013
472.560945	9885.460717
472.931667	9092.852701
473.302330	8954.357081
473.672934	8600.546219
474.043479	8964.593144
474.413965	8903.575018
474.784393	8781.816029
475.154761	8936.397970
475.525070	9027.554635
475.895321	8853.712965
476.265513	9032.144605
476.635645	9197.070995
477.005719	9201.847488
477.375734	9315.815373
477.745691	9553.273884
478.115588	9682.390437
478.485427	9926.498230
478.855207	10472.976951
479.224928	11282.097267
479.594591	11910.303174
479.964194	11720.614637
480.333739	11658.099288
480.703226	11571.189796
481.072653	11671.760815
481.442022	11901.395455
481.811333	12104.208636
482.180584	11900.851010
482.549777	11613.187648
482.918912	11439.134250
483.287988	11460.735594
483.657005	11467.599125
484.025964	11147.826134
484.394864	11287.955087
484.763706	11250.335477
485.132489	11007.946718
485.501213	10969.918773
485.869879	11044.704291
486.238487	10885.842410
486.607036	10996.336940
486.975527	10772.749164
487.343959	10967.229318
487.712333	11016.715805
488.080648	10945.748961
488.448905	10989.244037
488.817104	10932.498288
489.185244	11193.902280
489.553326	11346.755106
489.921350	11889.730225
490.289315	12956.864356
490.657222	13294.772898
491.025070	13209.980691
491.392861	13073.554465
491.760593	12699.548740
492.128267	12343.113958
492.495883	12025.546471
492.863440	11685.445027
493.230939	11343.067502
493.598380	11279.768253
493.965763	11148.625157
494.333088	11048.875846
494.700354	10971.025307
495.067563	11029.162413
495.434713	10852.855619
495.801805	10987.590538
496.168839	10904.966027
496.535815	10846.344969
496.902733	10846.400422
497.269593	10778.856522
497.636395	10878.293282
498.003139	10862.781651
498.369825	10737.002342
498.736453	10888.705785
499.103023	10811.523199
499.469535	10844.900679
499.835989	10831.821405
500.202385	10793.337237
500.568723	10649.888683
500.935003	10868.657116
501.301226	10671.762250
501.667390	10931.883268
502.033497	11027.052691
502.399546	10887.299303
502.765537	10796.520725
503.131470	10874.124247
503.497345	11052.654190
503.863163	10658.809005
504.228923	10969.190327
504.594625	11035.279854
504.960269	10786.065372
505.325856	11004.087714
505.691385	10795.028544
506.056856	10949.282810
506.422270	10974.055040
506.787625	10866.839780
507.152924	10983.716412
507.518164	10961.260592
507.883347	10884.375434
508.248472	10803.154884
508.613540	11031.360357
508.978550	10919.643346
509.343503	10900.091231
509.708398	11012.564414
510.073236	11124.785540
510.438016	11128.445418
510.802738	11078.467419
511.167403	11126.774275
511.532010	11026.798112
511.896561	11253.828996
512.261053	11327.296252
512.625488	11204.158508
512.989866	11179.497183
513.354186	11175.539877
513.718449	11074.774773
514.082655	11266.318455
514.446803	11156.771661
514.810894	11282.046855
515.174927	11150.313943
515.538904	11179.550115
515.902822	11329.375728
516.266684	11213.046062
516.630488	11158.183184
516.994235	11209.736544
517.357925	11278.402101
517.721558	11363.035512
518.085133	11383.149716
518.448651	11384.346990
518.812112	11273.613005
519.175516	11288.391147
519.538863	11412.877400
519.902152	11317.723101
520.265385	11493.165337
520.628560	11388.115252
520.991678	11377.233922
521.354739	11432.502612
521.717743	11365.556089
522.080690	11347.856598
522.443580	11485.921199
522.806413	11435.242479
523.169189	11465.073507
523.531908	11521.453772
523.894569	11342.679333
524.257174	11345.212513
524.619722	11469.615587
524.982213	11415.271948
525.344647	11466.232973
525.707025	11411.518809
526.069345	11508.064467
526.431608	11427.418608
526.793815	11535.049764
527.155964	11325.224338
527.518057	11382.937987
527.880093	11328.133083
528.242072	11391.800336
528.603995	11301.687190
528.965860	11219.123173
529.327669	11277.275403
529.689421	11229.301262
530.051117	11200.024761
530.412755	11298.730554
530.774337	11192.281549
531.135862	11173.127685
531.497331	11191.636281
531.858743	11043.925433
532.220098	11215.339787
532.581396	11081.323232
532.942638	11066.391335
533.303824	11033.439833
533.664953	11037.250945
534.026025	10959.902001
534.387040	11055.409181
534.747999	11051.845085
535.108902	11110.645104
535.469748	10870.000584
535.830537	10978.188786
536.191270	10944.962541
536.551947	10974.836419
536.912567	10969.712086
537.273131	10899.040150
537.633638	10878.305885
537.994089	10864.803154
538.354483	10815.881277
538.714821	10959.057607
539.075103	10966.165634
539.435328	10934.913001
539.795497	10762.707186
540.155609	10908.943497
540.515665	11004.327169
540.875665	10746.341080
541.235609	10803.157404
541.595496	10811.069495
541.955328	10960.143976
542.315102	10843.103507
542.674821	10798.030551
543.034483	10792.659201
543.394090	10806.938270
543.753640	10733.765922
544.113134	10952.098295
544.472571	10801.458535
544.831953	10945.330546
545.191278	10751.669579
545.550548	10780.167222
545.909761	10919.020764
546.268918	10899.377908
546.628019	10974.705349
546.987064	10838.848773
547.346053	10754.444735
547.704986	10860.649243
548.063863	10843.733652
548.422684	10832.842239
548.781449	10753.005485
549.140158	10859.091527
549.498811	10725.306865
549.857408	10584.721687
550.215949	10815.901441
550.574434	10668.616570
550.932864	10772.781932
551.291237	10823.775723
551.649555	10773.132292
552.007817	10786.503953
552.366022	10747.069527
552.724173	10744.249001
553.082267	10723.786958
553.440305	10866.113854
553.798288	10662.337813
554.156215	10820.123408
554.514086	10789.858840
554.871902	10640.456684
555.229661	10679.825575
555.587365	10659.857565
555.945014	10555.203211
556.302606	10678.154433
556.660143	10574.198279
557.017625	10725.082534
557.375050	10628.423450
557.732421	10758.396999
558.089735	10668.535911
558.446994	10673.057826
558.804197	10709.326408
559.161345	10714.957377
559.518437	10561.754191
559.875474	10647.778960
560.232455	10675.404483
560.589381	10633.474686
560.946251	10624.115784
561.303065	10736.127702
561.659825	10667.820068
562.016528	10596.515467
562.373177	10478.877621
562.729770	10592.096896
563.086307	10502.944090
563.442789	10600.412279
563.799216	10480.515996
564.155587	10527.766731
564.511904	10478.466767
564.868164	10474.552311
565.224370	10486.840124
565.580520	10409.523947
565.936615	10419.550802
566.292654	10283.953846
566.648638	10414.822200
567.004567	10370.583554
567.360441	10356.738025
567.716260	10268.906002
568.072023	10360.236586
568.427732	10315.047683
568.783385	10221.413292
569.138982	10295.193099
569.494525	10307.188524
569.850013	10183.569350
570.205445	10262.165979
570.560823	10165.118727
570.916145	10080.661756
571.271412	10147.946036
571.626625	10094.713972
571.981782	10074.050282
572.336884	10045.088853
572.691931	10051.455831
573.046923	10001.989509
573.401860	9954.358167
573.756743	9883.522393
574.111570	9937.929046
574.466342	9918.182847
574.821059	9950.242064
575.175722	9835.649076
575.530330	9849.033339
575.884882	9843.727525
576.239380	9764.478066
576.593823	9745.896373
576.948211	9764.072253
577.302544	9638.474425
577.656823	9656.980501
578.011047	9660.279936
578.365216	9633.700453
578.719330	9549.364469
579.073389	9561.004494
579.427394	9511.891052
579.781344	9490.579574
580.135239	9438.852295
580.489080	9446.880332
580.842866	9347.078089
581.196597	9352.126805
581.550273	9392.408144
581.903895	9361.142908
582.257463	9428.016335
582.610975	9304.437489
582.964434	9333.187190
583.317837	9259.243545
583.671186	9230.992919
584.024481	9230.176252
584.377721	9154.599273
584.730906	9125.572310
585.084037	9158.612032
585.437113	9097.881252
585.790135	9114.869940
586.143103	9017.666412
586.496016	8990.376125
586.848874	9043.905617
587.201679	9030.581848
587.554428	8918.174199
587.907124	8966.297054
588.259765	8935.939225
588.612352	8936.539123
588.964884	8816.284918
589.317362	8833.913833
589.669786	8833.528185
590.022155	8883.712872
590.374470	8896.887927
590.726731	8830.606836
591.078937	8683.145525
591.431090	8797.741034
591.783188	8674.343670
592.135232	8666.237495
592.487222	8665.521651
592.839157	8717.989980
593.191038	8648.341398
593.542866	8596.367102
593.894639	8490.155032
594.246358	8543.145121
594.598022	8563.932318
594.949633	8456.278478
595.301190	8432.295189
595.652692	8461.606978
596.004141	8579.554854
596.355535	8347.944082
596.706876	8327.348448
597.058162	8264.076926
597.409395	8342.000562
597.760573	8397.727997
598.111698	8310.614338
598.462768	8293.310577
598.813785	8258.075432
599.164748	8222.230308
599.515657	8224.145946
599.866511	8126.460988
600.217312	8256.139629
600.568060	8109.926003
600.918753	8217.226963
601.269392	8185.064401
601.619978	8094.278262
601.970510	8157.829568
602.320988	8161.703694
602.671412	8216.077580
603.021783	8150.053588
603.372100	8123.436295
603.722363	8134.713357
604.072572	8104.836958
604.422728	8113.225438
604.772830	8038.651649
605.122878	8047.602218
605.472872	8046.896457
605.822813	8075.557937
606.172701	8021.733537
606.522534	8095.450330
606.872314	8093.111234
607.222041	8066.824138
607.571714	8119.675595
607.921333	8075.391579
608.270899	8081.874502
608.620411	8173.555447
608.969870	8079.679080
609.319276	8068.971669
609.668627	8081.980367
610.017926	8122.503682
610.367171	8160.569435
610.716362	8138.148903
611.065500	8133.664797
611.414585	8159.389805
611.763616	8148.024523
612.112594	8131.131617
612.461518	8145.584605
612.810389	8202.519396
613.159207	8145.186354
613.507971	8089.615194
613.856682	8204.646763
614.205340	8161.539857
614.553945	8241.782423
614.902496	8139.383986
615.250994	8193.374743
615.599439	8177.401847
615.947830	8191.035648
616.296169	8161.335690
616.644454	8178.977208
616.992686	8168.027822
617.340864	8230.013849
617.688990	8129.646997
618.037063	8230.132317
618.385082	8169.144437
618.733048	8258.987881
619.080961	8193.629322
619.428821	8213.415850
619.776628	8218.076397
620.124382	8167.196031
620.472083	8150.950913
620.819731	8180.804626
621.167326	8074.504336
621.514868	8081.987928
621.862357	7968.672872
622.209793	7990.768250
622.557176	7914.102382
622.904506	7889.410810
623.251783	7822.282806
623.599007	7774.301103
623.946179	7777.908049
624.293297	7739.000424
624.640363	7650.823081
624.987376	7637.280021
625.334336	7583.001918
625.681243	7530.039556
626.028097	7521.666199
626.374899	7493.443299
626.721647	7489.813668
627.068343	7419.237515
627.414987	7391.488483
627.761577	7344.338571
628.108115	7382.129581
628.454600	7271.539269
628.801032	7326.389543
629.147412	7286.927391
629.493739	7273.956502
629.840014	7210.707665
630.186236	7262.593741
630.532405	7147.957903
630.878521	7199.760800
631.224585	7152.968810
631.570597	7075.755977
631.916556	7105.771007
632.262462	7101.851510
632.608316	7063.563946
632.954117	7034.990686
633.299866	7028.323760
633.645562	7014.498396
633.991206	6935.591735
634.336797	6878.682149
634.682336	6834.773699
635.027823	6804.103319
635.373257	6794.968749
635.718639	6723.588531
636.063968	6734.109419
636.409245	6639.383618
636.754470	6625.522965
637.099642	6586.224650
637.444762	6533.262288
637.789829	6539.939296
638.134845	6482.596171
638.479808	6461.440969
638.824719	6468.929603
639.169577	6393.168622
639.514383	6414.401962
639.859137	6343.183062
640.203839	6351.342169
640.548489	6334.771896
