Dividing Wavelength (nm)	Counts (n)	Blue Motor Position (mm): 0.000000	Red Motor Position (mm): 4.100000	
326.493990	2128.183590
326.888308	2128.183590
327.282561	2128.183590
327.676750	2094.546491
328.070874	2092.451892
328.464933	2095.481625
328.858929	2102.267018
329.252859	2112.717330
329.646726	2123.442385
330.040528	2137.930661
330.434265	2152.285347
330.827938	2172.054231
331.221547	2188.591737
331.615091	2208.025385
332.008571	2226.506255
332.401986	2247.840418
332.795338	2265.648294
333.188625	2285.507919
333.581847	2302.602472
333.975006	2322.608291
334.368100	2342.911538
334.761129	2357.659434
335.154095	2375.195087
335.546996	2392.793755
335.939833	2404.973183
336.332606	2421.344330
336.725315	2432.449992
337.117960	2439.699171
337.510540	2451.752570
337.903056	2463.611885
338.295508	2469.270580
338.687896	2477.865747
339.080220	2486.846563
339.472480	2492.417038
339.864676	2499.527585
340.256807	2502.791732
340.648875	2504.871208
341.040879	2510.222393
341.432818	2508.546209
341.824694	2511.654081
342.216506	2510.136693
342.608253	2511.134842
342.999937	2512.773217
343.391557	2510.648371
343.783113	2508.788185
344.174605	2509.572084
344.566033	2507.719460
344.957397	2505.924809
345.348697	2504.961949
345.739934	2502.063286
346.131106	2497.634632
346.522215	2498.746206
346.913260	2496.878459
347.304241	2495.482059
347.695159	2490.652634
348.086012	2491.809579
348.476802	2486.866727
348.867528	2488.394197
349.258191	2485.573671
349.648789	2486.148363
350.039324	2482.422950
350.429796	2485.251037
350.820203	2482.818681
351.210548	2483.753815
351.600828	2479.108392
351.991045	2479.458752
352.381198	2482.009576
352.771288	2478.795840
353.161314	2477.722074
353.551276	2477.253247
353.941175	2478.692496
354.331010	2475.998000
354.720782	2480.719040
355.110490	2478.700058
355.500135	2476.227372
355.889717	2478.125367
356.279235	2476.434059
356.668689	2480.713999
357.058080	2476.492033
357.447408	2476.416415
357.836672	2473.416929
358.225873	2477.769965
358.615010	2473.994141
359.004084	2479.819194
359.393095	2481.712148
359.782043	2481.921355
360.170927	2483.854638
360.559748	2483.582416
360.948505	2483.166520
361.337199	2482.964874
361.725830	2482.911942
362.114398	2484.772128
362.502903	2484.721716
362.891344	2485.188023
363.279722	2486.707931
363.668037	2486.012252
364.056289	2482.110399
364.444478	2488.981491
364.832603	2489.278919
365.220665	2491.161790
365.608665	2488.893271
365.996601	2487.650627
366.384474	2487.479228
366.772284	2491.507109
367.160031	2491.129023
367.547715	2493.541215
367.935336	2495.018273
368.322893	2495.771926
368.710388	2496.558346
369.097820	2503.744510
369.485189	2502.973214
369.872495	2505.546723
370.259738	2506.723832
370.646918	2511.485202
371.034035	2512.241375
371.421090	2515.170286
371.808081	2517.809330
372.195010	2519.009124
372.581875	2523.357119
372.968678	2522.603467
373.355418	2525.975999
373.742096	2528.983047
374.128710	2529.653521
374.515262	2529.913140
374.901751	2528.670496
375.288177	2532.365661
375.674540	2533.295754
376.060841	2538.072247
376.447079	2534.316588
376.833254	2537.419418
377.219367	2532.985723
377.605417	2536.597710
377.991404	2531.922040
378.377329	2533.981351
378.763191	2532.252235
379.148991	2535.869263
379.534727	2533.789787
379.920402	2536.534696
380.306013	2532.587472
380.691563	2534.049407
381.077049	2532.297606
381.462474	2528.254600
381.847835	2530.860877
382.233134	2528.229395
382.618371	2524.435926
383.003545	2523.934332
383.388657	2521.141532
383.773706	2522.477438
384.158693	2518.878054
384.543618	2516.584329
384.928480	2516.695235
385.313280	2513.514267
385.698017	2512.485871
386.082692	2513.693227
386.467305	2509.372959
386.851856	2508.021929
387.236344	2507.434635
387.620770	2508.412619
388.005133	2506.557474
388.389435	2503.908348
388.773674	2504.541013
389.157851	2504.271311
389.541965	2503.610920
389.926018	2504.740138
390.310008	2502.809376
390.693936	2505.513955
391.077802	2504.614109
391.461606	2506.088647
391.845348	2505.912207
392.229027	2505.294665
392.612645	2505.095540
392.996200	2504.777947
393.379694	2505.287103
393.763125	2507.968997
394.146494	2506.260046
394.529801	2505.697958
394.913047	2504.351969
395.296230	2505.944974
395.679351	2507.754748
396.062410	2508.657115
396.445408	2506.761641
396.828343	2509.967815
397.211217	2502.252329
397.594028	2505.934892
397.976778	2501.168481
398.359466	2507.406909
398.742092	2503.583193
399.124656	2508.687362
399.507158	2508.674759
399.889598	2512.498474
400.271977	2507.026302
400.654294	2509.214162
401.036549	2506.905314
401.418742	2508.931858
401.800874	2506.106291
402.182944	2507.898421
402.564952	2509.057887
402.946898	2511.112157
403.328783	2509.322547
403.710606	2508.899090
404.092367	2509.501508
404.474067	2512.531242
404.855705	2506.375993
405.237282	2513.579802
405.618797	2510.809688
406.000250	2512.097702
406.381642	2509.851868
406.762972	2510.139214
407.144240	2509.806498
407.525447	2511.016375
407.906593	2512.377486
408.287677	2513.037877
408.668700	2509.327588
409.049661	2514.250275
409.430560	2512.443021
409.811399	2513.720954
410.192176	2512.316993
410.572891	2511.059225
410.953545	2510.857578
411.334138	2514.134328
411.714669	2513.042919
412.095139	2514.822446
412.475547	2514.666170
412.855894	2513.184071
413.236180	2514.141890
413.616405	2516.357477
413.996568	2513.678104
414.376670	2518.167252
414.756711	2516.022241
415.136691	2514.900584
415.516609	2514.162055
415.896466	2515.364370
416.276262	2515.278670
416.655997	2514.078876
417.035670	2513.514267
417.415283	2514.953516
417.794834	2509.188957
418.174324	2517.857221
418.553753	2516.823784
418.933121	2517.075842
419.312428	2515.182888
419.691674	2518.840246
420.070859	2515.366891
420.449983	2516.344874
420.829045	2516.354957
421.208047	2516.065090
421.586988	2516.029802
421.965867	2516.889319
422.344686	2515.087107
422.723444	2517.524504
423.102141	2517.968126
423.480777	2520.246728
423.859352	2518.880575
424.237866	2518.981398
424.616319	2519.800585
424.994712	2518.915863
425.373044	2518.046264
425.751314	2517.443846
426.129524	2517.844618
426.507673	2519.969464
426.885762	2518.464680
427.263789	2519.591378
427.641756	2519.369567
428.019662	2518.257992
428.397508	2520.692870
428.775292	2520.105575
429.153016	2517.219515
429.530679	2520.362674
429.908282	2522.691687
430.285824	2517.148938
430.663305	2518.525173
431.040726	2520.720596
431.418086	2517.264885
431.795385	2519.934176
432.172624	2521.373425
432.549802	2521.519619
432.926920	2518.033661
433.303977	2521.479290
433.680974	2522.293436
434.057910	2521.386028
434.434786	2518.578106
434.811601	2521.648168
435.188355	2521.940555
435.565050	2521.431399
435.941683	2522.593385
436.318257	2521.575072
436.694770	2516.052488
437.071222	2516.917045
437.447614	2518.152128
437.823946	2517.821932
438.200218	2521.655730
438.576429	2523.586492
438.952580	2522.580782
439.328670	2522.835360
439.704700	2523.828467
440.080670	2524.178827
440.456580	2524.410721
440.832429	2525.718900
441.208218	2522.779907
441.583947	2526.399456
441.959616	2522.873169
442.335224	2521.711183
442.710773	2524.032634
443.086261	2524.433406
443.461689	2523.067253
443.837057	2523.475587
444.212365	2525.756709
444.587612	2521.824609
444.962800	2525.119003
445.337927	2522.769825
445.712995	2522.018693
446.088002	2525.229908
446.462949	2522.573220
446.837837	2524.186389
447.212664	2523.868797
447.587431	2521.998528
447.962139	2522.416944
448.336786	2524.700587
448.711374	2524.153622
449.085901	2523.384846
449.460369	2522.616070
449.834776	2525.852491
450.209124	2524.566996
450.583412	2524.564476
450.957640	2523.639424
451.331808	2526.447347
451.705917	2525.663447
452.079965	2525.761750
452.453954	2524.062881
452.827883	2524.027593
453.201752	2527.790814
453.575562	2524.093128
453.949311	2525.146729
454.323001	2525.693694
454.696632	2525.280320
455.070202	2526.838036
455.443713	2525.865093
455.817164	2524.262007
456.190556	2521.010462
456.563888	2524.151101
456.937160	2522.747140
457.310373	2526.722090
457.683526	2526.623787
458.056619	2525.512213
458.429653	2524.486338
458.802628	2526.003725
459.175542	2528.617563
459.548398	2527.241328
459.921194	2525.018180
460.293930	2524.735875
460.666607	2527.639580
461.039224	2529.114117
461.411782	2527.495907
461.784280	2527.145547
462.156719	2524.972809
462.529099	2530.089580
462.901419	2523.326872
463.273680	2528.544467
463.645882	2526.712007
464.018024	2526.762419
464.390106	2527.846267
464.762130	2531.475898
465.134094	2528.811648
465.505999	2528.047913
465.877845	2526.971627
466.249631	2527.173273
466.621358	2528.055475
466.993026	2528.204189
467.364634	2531.359951
467.736184	2531.760723
468.107674	2529.144364
468.479105	2529.000691
468.850477	2529.439272
469.221790	2528.922553
469.593043	2528.403314
469.964238	2527.377440
470.335373	2528.730989
470.706449	2529.139323
471.077467	2527.425331
471.448425	2529.446833
471.819324	2529.832482
472.190164	2530.087060
472.560945	2526.764939
472.931667	2530.245856
473.302330	2528.393232
473.672934	2528.415917
474.043479	2529.789632
474.413965	2527.321987
474.784393	2522.515247
475.154761	2525.711338
475.525070	2524.834177
475.895321	2526.354085
476.265513	2525.555063
476.635645	2529.711494
477.005719	2528.579755
477.375734	2531.254087
477.745691	2527.349713
478.115588	2528.496576
478.485427	2528.007584
478.855207	2530.321473
479.224928	2530.182842
479.594591	2529.378778
479.964194	2531.604447
480.333739	2530.906247
480.703226	2532.206865
481.072653	2529.837523
481.442022	2529.479601
481.811333	2530.394570
482.180584	2531.942204
482.549777	2531.196114
482.918912	2530.555887
483.287988	2529.066226
483.657005	2529.335928
484.025964	2531.483459
484.394864	2527.458098
484.763706	2532.179139
485.132489	2530.868439
485.501213	2531.967410
485.869879	2531.644776
486.238487	2531.060002
486.607036	2530.886083
486.975527	2531.740558
487.343959	2527.858870
487.712333	2534.077133
488.080648	2531.629653
488.448905	2531.387678
488.817104	2530.482790
489.185244	2530.591175
489.553326	2531.899355
489.921350	2531.533871
490.289315	2533.464633
490.657222	2532.925229
491.025070	2533.567977
491.392861	2531.458254
491.760593	2531.334745
492.128267	2531.501103
492.495883	2531.566638
492.863440	2531.254087
493.230939	2530.835671
493.598380	2530.999509
493.965763	2530.891124
494.333088	2529.661082
494.700354	2528.141174
495.067563	2530.039169
495.434713	2528.607481
495.801805	2530.250897
496.168839	2530.719725
496.535815	2529.429189
496.902733	2533.522606
497.269593	2533.971269
497.636395	2531.901875
498.003139	2533.373892
498.369825	2532.640404
498.736453	2533.878008
499.103023	2532.259797
499.469535	2534.631660
499.835989	2531.841381
500.202385	2534.566125
500.568723	2534.024201
500.935003	2533.184849
501.301226	2535.413039
501.667390	2532.194262
502.033497	2536.083512
502.399546	2534.193080
502.765537	2534.102339
503.131470	2535.347504
503.497345	2530.921371
503.863163	2537.825231
504.228923	2533.245343
504.594625	2534.329191
504.960269	2533.653676
505.325856	2533.623429
505.691385	2532.668131
506.056856	2531.428007
506.422270	2533.925898
506.787625	2531.491021
507.152924	2531.869108
507.518164	2533.114273
507.883347	2533.497400
508.248472	2531.569159
508.613540	2534.336752
508.978550	2532.829448
509.343503	2532.186700
509.708398	2536.562422
510.073236	2533.078985
510.438016	2534.762730
510.802738	2531.785929
511.167403	2534.026722
511.532010	2534.445137
511.896561	2535.279448
512.261053	2534.485467
512.625488	2530.205527
512.989866	2531.090249
513.354186	2528.950280
513.718449	2530.097142
514.082655	2533.772143
514.446803	2530.245856
514.810894	2533.590662
515.174927	2535.370189
515.538904	2533.744417
515.902822	2533.527647
516.266684	2534.699716
516.630488	2533.424304
516.994235	2533.036135
517.357925	2533.373892
517.721558	2535.274407
518.085133	2533.262987
518.448651	2535.549150
518.812112	2535.229037
519.175516	2534.888759
519.538863	2531.047400
519.902152	2534.762730
520.265385	2532.695857
520.628560	2533.845240
520.991678	2535.302133
521.354739	2532.584952
521.717743	2533.883049
522.080690	2533.895652
522.443580	2535.276928
522.806413	2534.172915
523.169189	2537.187525
523.531908	2536.360776
523.894569	2535.718029
524.257174	2533.139478
524.619722	2535.193749
524.982213	2535.662576
525.344647	2535.634850
525.707025	2533.361289
526.069345	2536.068389
526.431608	2535.496218
526.793815	2534.510672
527.155964	2535.183666
527.518057	2532.710980
527.880093	2535.869263
528.242072	2536.133924
528.603995	2534.288862
528.965860	2536.285158
529.327669	2535.155940
529.689421	2535.022349
530.051117	2536.270035
530.412755	2532.080836
530.774337	2535.203831
531.135862	2532.973120
531.497331	2533.880528
531.858743	2529.945908
532.220098	2534.203162
532.581396	2534.195600
532.942638	2532.907585
533.303824	2535.584438
533.664953	2536.559901
534.026025	2530.888603
534.387040	2535.344983
534.747999	2532.685775
535.108902	2535.314736
535.469748	2536.509490
535.830537	2534.971938
536.191270	2536.272556
536.551947	2536.300282
536.912567	2533.600744
537.273131	2535.367668
537.633638	2535.254243
537.994089	2537.116949
538.354483	2535.155940
538.714821	2537.263142
539.075103	2533.860363
539.435328	2535.050076
539.795497	2531.874149
540.155609	2537.575694
540.515665	2534.225847
540.875665	2535.657535
541.235609	2537.061496
541.595496	2537.071578
541.955328	2538.072248
542.315102	2536.060827
542.674821	2533.772143
543.034483	2539.007382
543.394090	2535.559232
543.753640	2538.147865
544.113134	2537.903369
544.472571	2536.953111
544.831953	2536.264994
545.191278	2535.259284
545.550548	2535.244160
545.909761	2535.390354
546.268918	2538.276414
546.628019	2535.707946
546.987064	2539.002340
547.346053	2537.459747
547.704986	2536.028060
548.063863	2536.668286
548.422684	2532.627801
548.781449	2538.425128
549.140158	2534.293903
549.498811	2536.650642
549.857408	2538.835982
550.215949	2536.227185
550.574434	2530.818027
550.932864	2534.346835
551.291237	2532.602596
551.649555	2537.505118
552.007817	2534.757689
552.366022	2535.355066
552.724173	2536.433873
553.082267	2536.348173
553.440305	2532.645445
553.798288	2536.701054
554.156215	2535.017308
554.514086	2536.451517
554.871902	2535.486136
555.229661	2536.602751
555.587365	2533.162164
555.945014	2534.399767
556.302606	2535.032432
556.660143	2534.694674
557.017625	2533.820034
557.375050	2537.061496
557.732421	2536.927906
558.089735	2534.099818
558.446994	2536.612833
558.804197	2537.517721
559.161345	2534.636701
559.518437	2537.351362
559.875474	2535.082843
560.232455	2537.863040
560.589381	2536.549819
560.946251	2540.371014
561.303065	2532.103521
561.659825	2537.021167
562.016528	2533.189890
562.373177	2536.874973
562.729770	2536.874973
563.086307	2537.547967
563.442789	2533.691485
563.799216	2537.653832
564.155587	2535.939839
564.511904	2534.636701
564.868164	2536.108718
565.224370	2535.970086
565.580520	2537.822710
565.936615	2537.300951
566.292654	2536.441434
566.648638	2534.278779
567.004567	2535.622247
567.360441	2536.116280
567.716260	2534.621578
568.072023	2537.706764
568.427732	2530.790301
568.783385	2535.735673
569.138982	2532.486649
569.494525	2532.804242
569.850013	2530.752492
570.205445	2536.706095
570.560823	2535.584438
570.916145	2534.729962
571.271412	2535.939839
571.626625	2534.926567
571.981782	2535.770961
572.336884	2536.948070
572.691931	2537.316074
573.046923	2537.978986
573.401860	2538.110056
573.756743	2537.235416
574.111570	2534.866074
574.466342	2536.446475
574.821059	2534.772812
575.175722	2536.116280
575.530330	2532.721063
575.884882	2535.894469
576.239380	2537.048893
576.593823	2536.995961
576.948211	2536.660724
577.302544	2536.131403
577.656823	2534.911444
578.011047	2537.520241
578.365216	2539.498894
578.719330	2537.303472
579.073389	2536.592669
579.427394	2537.038811
579.781344	2536.292720
580.135239	2536.204500
580.489080	2535.549150
580.842866	2539.173740
581.196597	2537.729449
581.550273	2537.016126
581.903895	2536.448996
582.257463	2538.730118
582.610975	2535.304654
582.964434	2536.920344
583.317837	2535.196269
583.671186	2538.536034
584.024481	2537.167360
584.377721	2540.146682
584.730906	2535.735673
585.084037	2538.503266
585.437113	2535.642411
585.790135	2537.215251
586.143103	2536.234747
586.496016	2538.042001
586.848874	2533.300795
587.201679	2535.801208
587.554428	2534.901362
587.907124	2533.784746
588.259765	2531.816176
588.612352	2537.789943
588.964884	2538.651980
589.317362	2536.315405
589.669786	2537.971424
590.022155	2538.460416
590.374470	2534.029242
590.726731	2537.028729
591.078937	2537.535365
591.431090	2535.488656
591.783188	2538.588966
592.135232	2538.039480
592.487222	2537.361445
592.839157	2536.481763
593.191038	2535.990251
593.542866	2534.301464
593.894639	2536.683410
594.246358	2537.726928
594.598022	2535.218954
594.949633	2536.506969
595.301190	2535.498738
595.652692	2535.327339
596.004141	2539.004861
596.355535	2536.839685
596.706876	2537.179963
597.058162	2535.748276
597.409395	2537.857998
597.760573	2537.293389
598.111698	2539.579552
598.462768	2538.286497
598.813785	2537.134593
599.164748	2538.021836
599.515657	2534.765251
599.866511	2535.891948
600.217312	2535.586959
600.568060	2536.370858
600.918753	2539.236754
601.269392	2536.214582
601.619978	2537.605941
601.970510	2536.645601
602.320988	2537.565612
602.671412	2536.643080
603.021783	2537.459747
603.372100	2536.196938
603.722363	2539.750952
604.072572	2537.681558
604.422728	2537.784902
604.772830	2532.983203
605.122878	2532.484128
605.472872	2532.426155
605.822813	2534.324150
606.172701	2536.607792
606.522534	2535.833975
606.872314	2537.036290
607.222041	2536.020498
607.571714	2535.375230
607.921333	2537.792463
608.270899	2537.129552
608.620411	2533.998995
608.969870	2538.556198
609.319276	2539.531662
609.668627	2541.638864
610.017926	2544.461910
610.367171	2546.135573
610.716362	2543.652805
611.065500	2541.656508
611.414585	2540.043339
611.763616	2540.600386
612.112594	2540.524769
612.461518	2540.083668
612.810389	2539.163657
613.159207	2536.280117
613.507971	2541.089378
613.856682	2539.813966
614.205340	2537.530323
614.553945	2536.002854
614.902496	2536.469161
615.250994	2536.864891
615.599439	2536.824562
615.947830	2537.999151
616.296169	2539.022505
616.644454	2541.540561
616.992686	2534.830786
617.340864	2534.961856
617.688990	2534.366999
618.037063	2538.654501
618.385082	2535.980169
618.733048	2540.058462
619.080961	2536.312885
619.428821	2534.830786
619.776628	2536.116280
620.124382	2538.447813
620.472083	2534.324150
620.819731	2537.041332
621.167326	2539.675334
621.514868	2539.435880
621.862357	2536.038142
622.209793	2535.402957
622.557176	2537.462268
622.904506	2533.441948
623.251783	2532.852133
623.599007	2536.297761
623.946179	2531.828778
624.293297	2533.983872
624.640363	2536.181815
624.987376	2537.013605
625.334336	2534.682072
625.681243	2536.524613
626.028097	2536.890097
626.374899	2537.590817
626.721647	2535.481094
627.068343	2534.394726
627.414987	2536.668286
627.761577	2536.610313
628.108115	2537.331198
628.454600	2537.396733
628.801032	2535.350024
629.147412	2538.180632
629.493739	2536.874973
629.840014	2538.369676
630.186236	2537.305992
630.532405	2541.205325
630.878521	2537.147196
631.224585	2539.209028
631.570597	2537.394212
631.916556	2536.166691
632.262462	2534.803059
632.608316	2539.246836
632.954117	2536.827083
633.299866	2538.634336
633.645562	2535.884387
633.991206	2538.604089
634.336797	2534.233409
634.682336	2537.096784
635.027823	2534.324150
635.373257	2535.317257
635.718639	2535.803728
636.063968	2533.303316
636.409245	2534.666948
636.754470	2534.785415
637.099642	2534.437576
637.444762	2535.130734
637.789829	2534.740045
638.134845	2537.273225
638.479808	2537.532844
638.824719	2537.013605
639.169577	2539.844213
639.514383	2535.158461
639.859137	2536.365817
640.203839	2537.497556
640.548489	2537.772299
640.893086	2535.866743
641.237632	2532.116124
641.582125	2534.135106
641.926566	2529.202337
642.270955	2535.965045
642.615292	2533.930940
642.959576	2538.558719
643.303809	2534.578728
643.647990	2533.469674
643.992118	2536.668286
644.336195	2536.885056
