Dividing Wavelength (nm)	Counts (n)	Blue Motor Position (mm): 0.000000	Red Motor Position (mm): 0.200000	
326.493990	2127.356841
326.888308	2127.356841
327.282561	2127.356841
327.676750	2095.332911
328.070874	2097.026739
328.464933	2097.729980
328.858929	2104.661566
329.252859	2114.446446
329.646726	2128.188631
330.040528	2137.366052
330.434265	2154.347178
330.827938	2172.896104
331.221547	2188.306911
331.615091	2206.618903
332.008571	2225.704711
332.401986	2246.055849
332.795338	2268.935126
333.188625	2284.787034
333.581847	2305.811166
333.975006	2321.237097
334.368100	2342.155365
334.761129	2358.839064
335.154095	2377.282125
335.546996	2389.688405
335.939833	2408.007958
336.332606	2423.310380
336.725315	2435.031063
337.117960	2444.621858
337.510540	2450.300718
337.903056	2462.162553
338.295508	2469.923409
338.687896	2478.042187
339.080220	2487.678353
339.472480	2494.703201
339.864676	2497.881648
340.256807	2501.637308
340.648875	2503.520179
341.040879	2505.506394
341.432818	2510.134173
341.824694	2514.623320
342.216506	2514.519977
342.608253	2511.981756
342.999937	2511.331447
343.391557	2512.233813
343.783113	2511.303721
344.174605	2506.895232
344.566033	2508.052176
344.957397	2504.583862
345.348697	2503.943636
345.739934	2503.527741
346.131106	2501.465909
346.522215	2498.385764
346.913260	2498.335352
347.304241	2496.424755
347.695159	2495.479539
348.086012	2492.132212
348.476802	2492.258241
348.867528	2490.254383
349.258191	2486.367653
349.648789	2488.432006
350.039324	2485.109885
350.429796	2485.603918
350.820203	2482.375059
351.210548	2482.942189
351.600828	2483.232055
351.991045	2481.424802
352.381198	2479.836838
352.771288	2480.882878
353.161314	2477.795171
353.551276	2479.047898
353.941175	2477.921200
354.331010	2477.291056
354.720782	2476.555047
355.110490	2478.102681
355.500135	2478.795840
355.889717	2479.431025
356.279235	2481.994452
356.668689	2478.505974
357.058080	2478.884060
357.447408	2477.391879
357.836672	2475.924903
358.225873	2476.562609
358.615010	2476.832311
359.004084	2480.235089
359.393095	2482.412868
359.782043	2482.284318
360.170927	2481.238279
360.559748	2484.651140
360.948505	2484.507467
361.337199	2484.920842
361.725830	2483.801706
362.114398	2483.713486
362.502903	2484.152066
362.891344	2485.520739
363.279722	2487.156594
363.668037	2488.676502
364.056289	2487.902684
364.444478	2488.124495
364.832603	2487.890082
365.220665	2487.978302
365.608665	2491.139105
365.996601	2487.002838
366.384474	2490.425782
366.772284	2492.026348
367.160031	2490.496358
367.547715	2489.352016
367.935336	2491.839826
368.322893	2493.458036
368.710388	2492.573313
369.097820	2493.994919
369.485189	2491.358395
369.872495	2492.475011
370.259738	2492.475011
370.646918	2492.308653
371.034035	2492.641369
371.421090	2494.877121
371.808081	2495.335866
372.195010	2493.735299
372.581875	2497.672441
372.968678	2492.860659
373.355418	2493.959631
373.742096	2496.389467
374.128710	2494.236894
374.515262	2495.396360
374.901751	2494.768736
375.288177	2496.631442
375.674540	2493.536174
376.060841	2494.937615
376.447079	2494.942656
376.833254	2495.716473
377.219367	2492.371667
377.605417	2496.371823
377.991404	2491.547439
378.377329	2494.446102
378.763191	2492.197748
379.148991	2500.636639
379.534727	2496.732265
379.920402	2495.918119
380.306013	2497.561535
380.691563	2499.368789
381.077049	2499.537667
381.462474	2497.478356
381.847835	2500.198059
382.233134	2499.658655
382.618371	2499.711587
383.003545	2498.612616
383.388657	2501.912051
383.773706	2499.232678
384.158693	2501.627226
384.543618	2500.203100
384.928480	2500.508090
385.313280	2501.246619
385.698017	2502.973214
386.082692	2504.120076
386.467305	2498.552122
386.851856	2504.326764
387.236344	2501.511279
387.620770	2504.198214
388.005133	2500.873573
388.389435	2503.673934
388.773674	2500.024139
389.157851	2501.733090
389.541965	2503.200066
389.926018	2504.684686
390.310008	2505.345077
390.693936	2503.240395
391.077802	2503.099243
391.461606	2502.416166
391.845348	2505.317350
392.229027	2505.897083
392.612645	2507.656446
392.996200	2505.271980
393.379694	2506.295334
393.763125	2507.210304
394.146494	2505.072854
394.529801	2505.612258
394.913047	2508.218534
395.296230	2504.382216
395.679351	2506.151661
396.062410	2508.089985
396.445408	2507.555623
396.828343	2508.548730
397.211217	2503.583193
397.594028	2503.288286
397.976778	2503.598317
398.359466	2505.844151
398.742092	2501.231495
399.124656	2506.411281
399.507158	2508.873884
399.889598	2509.809018
400.271977	2511.034019
400.654294	2510.484533
401.036549	2507.855571
401.418742	2507.348935
401.800874	2508.185767
402.182944	2508.954543
402.564952	2509.080572
402.946898	2509.004954
403.328783	2509.325068
403.710606	2508.226096
404.092367	2508.891528
404.474067	2510.587877
404.855705	2511.651560
405.237282	2512.679956
405.618797	2513.201715
406.000250	2511.550737
406.381642	2511.432270
406.762972	2513.148783
407.144240	2510.676097
407.525447	2514.840090
407.906593	2509.783813
408.287677	2511.535614
408.668700	2512.894205
409.049661	2509.846827
409.430560	2511.041581
409.811399	2512.052332
410.192176	2513.473937
410.572891	2512.400172
410.953545	2511.641478
411.334138	2513.481499
411.714669	2515.034174
412.095139	2511.757424
412.475547	2514.187261
412.855894	2513.249606
413.236180	2512.977384
413.616405	2515.986952
413.996568	2513.753721
414.376670	2515.066942
414.756711	2514.157014
415.136691	2515.129956
415.516609	2513.325223
415.896466	2515.767662
416.276262	2513.380676
416.655997	2515.497961
417.035670	2511.583505
417.415283	2513.824297
417.794834	2510.872702
418.174324	2512.904287
418.553753	2514.131808
418.933121	2515.755059
419.312428	2517.595081
419.691674	2512.856396
420.070859	2515.059380
420.449983	2518.555420
420.829045	2513.962929
421.208047	2515.752539
421.586988	2515.671880
421.965867	2513.710872
422.344686	2518.510050
422.723444	2517.005266
423.102141	2517.496778
423.480777	2517.632889
423.859352	2518.336130
424.237866	2517.443846
424.616319	2517.910153
424.994712	2517.280008
425.373044	2518.847807
425.751314	2519.230935
426.129524	2516.143228
426.507673	2519.669515
426.885762	2517.763959
427.263789	2517.806809
427.641756	2516.874196
428.019662	2518.505009
428.397508	2519.331758
428.775292	2518.462159
429.153016	2517.292611
429.530679	2519.354443
429.908282	2519.518281
430.285824	2519.528363
430.663305	2518.777231
431.040726	2522.323683
431.418086	2518.399145
431.795385	2521.806965
432.172624	2519.760256
432.549802	2520.982736
432.926920	2519.684639
433.303977	2521.648168
433.680974	2519.717406
434.057910	2522.759743
434.434786	2521.748991
434.811601	2521.635565
435.188355	2522.341327
435.565050	2520.027437
435.941683	2522.011131
436.318257	2519.004083
436.694770	2514.963598
437.071222	2522.265710
437.447614	2516.954854
437.823946	2521.002901
438.200218	2522.268230
438.576429	2521.814526
438.952580	2521.814526
439.328670	2521.789321
439.704700	2523.122706
440.080670	2522.714372
440.456580	2519.616583
440.832429	2524.012469
441.208218	2522.280833
441.583947	2520.922242
441.959616	2521.917870
442.335224	2521.186903
442.710773	2524.146060
443.086261	2523.800741
443.461689	2521.610360
443.837057	2523.034486
444.212365	2521.103724
444.587612	2523.888961
444.962800	2521.249917
445.337927	2524.153622
445.712995	2524.017511
446.088002	2526.777542
446.462949	2520.483662
446.837837	2526.651513
447.212664	2521.882582
447.587431	2525.461801
447.962139	2522.142201
448.336786	2527.984899
448.711374	2523.979702
449.085901	2525.887779
449.460369	2524.135978
449.834776	2524.211595
450.209124	2524.219157
450.583412	2524.236801
450.957640	2523.730165
451.331808	2523.493231
451.705917	2526.036493
452.079965	2526.971627
452.453954	2527.861390
452.827883	2525.391225
453.201752	2524.498941
453.575562	2527.548839
453.949311	2524.108251
454.323001	2523.846111
454.696632	2526.217974
455.070202	2527.773170
455.443713	2523.667150
455.817164	2523.074815
456.190556	2519.934176
456.563888	2523.946934
456.937160	2518.772190
457.310373	2527.700073
457.683526	2526.306194
458.056619	2527.281658
458.429653	2528.128572
458.802628	2527.644621
459.175542	2527.364837
459.548398	2527.211082
459.921194	2526.681760
460.293930	2526.006246
460.666607	2526.316277
461.039224	2525.739065
461.411782	2527.778211
461.784280	2528.577234
462.156719	2526.154960
462.529099	2528.846936
462.901419	2527.342152
463.273680	2528.995650
463.645882	2528.383150
464.018024	2529.275434
464.390106	2526.404497
464.762130	2528.489014
465.134094	2529.013294
465.505999	2531.160826
465.877845	2525.965917
466.249631	2528.340300
466.621358	2525.643283
466.993026	2531.231402
467.364634	2531.901875
467.736184	2530.679395
468.107674	2527.952131
468.479105	2526.729651
468.850477	2532.789118
469.221790	2529.066226
469.593043	2530.344159
469.964238	2531.206196
470.335373	2528.917512
470.706449	2528.935156
471.077467	2527.725279
471.448425	2530.918850
471.819324	2528.788963
472.190164	2528.483973
472.560945	2528.995650
472.931667	2527.518592
473.302330	2532.564787
473.672934	2531.569159
474.043479	2528.186545
474.413965	2527.853829
474.784393	2525.423993
475.154761	2527.052285
475.525070	2523.261338
475.895321	2524.216636
476.265513	2525.807120
476.635645	2529.348531
477.005719	2528.882224
477.375734	2527.921884
477.745691	2527.538757
478.115588	2530.361803
478.485427	2532.148892
478.855207	2529.149405
479.224928	2529.935825
479.594591	2530.412214
479.964194	2531.238963
480.333739	2532.471526
480.703226	2528.569673
481.072653	2531.324663
481.442022	2529.456916
481.811333	2531.231402
482.180584	2527.853829
482.549777	2531.564118
482.918912	2529.368695
483.287988	2532.070754
483.657005	2531.102852
484.025964	2530.313912
484.394864	2530.250897
484.763706	2531.669982
485.132489	2532.007739
485.501213	2530.092101
485.869879	2530.845753
486.238487	2529.613191
486.607036	2532.405991
486.975527	2529.829961
487.343959	2532.022863
487.712333	2530.777698
488.080648	2531.705270
488.448905	2532.489170
488.817104	2529.996319
489.185244	2532.952956
489.553326	2530.084539
489.921350	2534.334232
490.289315	2529.784591
490.657222	2534.934129
491.025070	2532.249715
491.392861	2530.762574
491.760593	2533.031094
492.128267	2536.252391
492.495883	2533.688964
492.863440	2532.138809
493.230939	2532.121165
493.598380	2531.286854
493.965763	2525.807120
494.333088	2529.414066
494.700354	2531.082688
495.067563	2531.332225
495.434713	2526.399456
495.801805	2531.420445
496.168839	2534.903882
496.535815	2531.281813
496.902733	2527.206040
497.269593	2534.125024
497.636395	2534.566125
498.003139	2532.355579
498.369825	2533.131917
498.736453	2532.831968
499.103023	2532.148892
499.469535	2532.761392
499.835989	2533.051258
500.202385	2534.051927
500.568723	2534.210724
500.935003	2533.850281
501.301226	2533.842719
501.667390	2533.888090
502.033497	2531.475898
502.399546	2533.134437
502.765537	2532.053110
503.131470	2533.094108
503.497345	2533.099149
503.863163	2534.687113
504.228923	2532.189221
504.594625	2533.066382
504.960269	2532.927750
505.325856	2534.906403
505.691385	2531.911957
506.056856	2532.395908
506.422270	2532.146371
506.787625	2533.446989
507.152924	2531.753161
507.518164	2535.511341
507.883347	2531.584283
508.248472	2534.422452
508.613540	2533.726773
508.978550	2532.249715
509.343503	2535.395395
509.708398	2533.109232
510.073236	2535.019829
510.438016	2531.206196
510.802738	2533.199972
511.167403	2532.509334
511.532010	2534.682072
511.896561	2535.123172
512.261053	2533.731814
512.625488	2527.057326
512.989866	2533.567977
513.354186	2530.255938
513.718449	2528.073119
514.082655	2530.712163
514.446803	2532.451361
514.810894	2533.857843
515.174927	2537.104346
515.538904	2536.237268
515.902822	2534.276259
516.266684	2532.985723
516.630488	2534.616537
516.994235	2533.048738
517.357925	2533.694005
517.721558	2534.246012
518.085133	2532.612678
518.448651	2535.115611
518.812112	2532.625281
519.175516	2534.661907
519.538863	2537.542926
519.902152	2533.484798
520.265385	2533.111752
520.628560	2532.375744
520.991678	2532.965559
521.354739	2534.719880
521.717743	2534.533358
522.080690	2536.101156
522.443580	2533.812472
522.806413	2534.130065
523.169189	2532.211906
523.531908	2536.154088
523.894569	2533.643594
524.257174	2534.354397
524.619722	2536.322967
524.982213	2535.350024
525.344647	2534.366999
525.707025	2536.217103
526.069345	2533.827596
526.431608	2533.915816
526.793815	2535.057638
527.155964	2536.922864
527.518057	2533.217616
527.880093	2534.674510
528.242072	2535.370189
528.603995	2534.944212
528.965860	2534.001516
529.327669	2535.604603
529.689421	2534.177956
530.051117	2537.847916
530.412755	2535.639891
530.774337	2534.742565
531.135862	2534.235929
531.497331	2531.644776
531.858743	2530.409694
532.220098	2532.201824
532.581396	2530.213089
532.942638	2533.182328
533.303824	2532.431196
533.664953	2535.453368
534.026025	2534.435055
534.387040	2536.741383
534.747999	2535.604603
535.108902	2534.677030
535.469748	2536.423790
535.830537	2535.206352
536.191270	2533.542771
536.551947	2535.375230
536.912567	2535.047555
537.273131	2535.350024
537.633638	2534.954294
537.994089	2534.772812
538.354483	2535.937319
538.714821	2536.784233
539.075103	2532.718542
539.435328	2537.769778
539.795497	2535.864222
540.155609	2535.586959
540.515665	2535.251722
540.875665	2534.868594
541.235609	2534.049407
541.595496	2536.438914
541.955328	2536.464119
542.315102	2535.418080
542.674821	2533.925898
543.034483	2537.212731
543.394090	2532.968079
543.753640	2537.096784
544.113134	2536.053265
544.472571	2537.903369
544.831953	2536.156609
545.191278	2537.462268
545.550548	2534.608975
545.909761	2535.647452
546.268918	2534.644263
546.628019	2536.617875
546.987064	2534.976979
547.346053	2540.854964
547.704986	2535.521424
548.063863	2538.498225
548.422684	2532.048069
548.781449	2534.503111
549.140158	2533.426824
549.498811	2534.135106
549.857408	2534.906403
550.215949	2534.180477
550.574434	2532.486649
550.932864	2532.960518
551.291237	2532.917668
551.649555	2533.557894
552.007817	2535.039993
552.366022	2535.760878
552.724173	2535.274407
553.082267	2536.287679
553.440305	2535.808769
553.798288	2534.545960
554.156215	2535.846578
554.514086	2535.133255
554.871902	2534.062010
555.229661	2534.016639
555.587365	2534.351876
555.945014	2535.793646
556.302606	2533.840199
556.660143	2539.324974
557.017625	2535.876825
557.375050	2534.742565
557.732421	2534.233409
558.089735	2536.630478
558.446994	2534.641742
558.804197	2536.038142
559.161345	2537.406815
559.518437	2536.398584
559.875474	2534.971938
560.232455	2534.727442
560.589381	2536.045704
560.946251	2536.842206
561.303065	2535.702905
561.659825	2537.386651
562.016528	2535.339942
562.373177	2536.002854
562.729770	2537.374048
563.086307	2536.975797
563.442789	2537.656352
563.799216	2536.302803
564.155587	2537.308513
564.511904	2535.344983
564.868164	2534.351876
565.224370	2534.465302
565.580520	2535.271887
565.936615	2537.144675
566.292654	2536.980838
566.648638	2535.307175
567.004567	2537.500077
567.360441	2535.329860
567.716260	2535.385312
568.072023	2534.039324
568.427732	2529.943387
568.783385	2534.742565
569.138982	2535.163502
569.494525	2532.781557
569.850013	2530.442461
570.205445	2535.632329
570.560823	2535.405477
570.916145	2534.145189
571.271412	2536.038142
571.626625	2536.191897
571.981782	2536.305323
572.336884	2537.941177
572.691931	2535.433203
573.046923	2538.548637
573.401860	2536.272556
573.756743	2535.120652
574.111570	2535.473533
574.466342	2536.360776
574.821059	2536.751465
575.175722	2534.669469
575.530330	2538.057124
575.884882	2535.319777
576.239380	2537.618544
576.593823	2537.023688
576.948211	2536.824562
577.302544	2536.446475
577.656823	2533.073943
578.011047	2537.217772
578.365216	2538.404964
578.719330	2538.253729
579.073389	2535.087884
579.427394	2535.130734
579.781344	2534.493028
580.135239	2535.712987
580.489080	2533.499921
580.842866	2534.636701
581.196597	2539.980324
581.550273	2534.939170
581.903895	2537.691640
582.257463	2538.364634
582.610975	2535.526465
582.964434	2538.374717
583.317837	2536.464119
583.671186	2537.822710
584.024481	2536.088553
584.377721	2539.254398
584.730906	2536.817000
585.084037	2540.451672
585.437113	2535.279448
585.790135	2539.198945
586.143103	2537.114428
586.496016	2537.149716
586.848874	2532.093439
587.201679	2535.491177
587.554428	2532.796680
587.907124	2535.407998
588.259765	2533.651156
588.612352	2538.183153
588.964884	2536.917823
589.317362	2536.343132
589.669786	2536.426311
590.022155	2537.396733
590.374470	2535.350024
590.726731	2537.880684
591.078937	2534.893800
591.431090	2532.859694
591.783188	2533.610826
592.135232	2537.956301
592.487222	2536.136444
592.839157	2536.877494
593.191038	2536.111239
593.542866	2536.706095
593.894639	2536.406146
594.246358	2535.397915
594.598022	2539.629964
594.949633	2536.587628
595.301190	2534.699716
595.652692	2536.817000
596.004141	2536.300282
596.355535	2540.673483
596.706876	2537.275745
597.058162	2537.152237
597.409395	2536.801877
597.760573	2533.305837
598.111698	2533.910775
598.462768	2537.331198
598.813785	2538.042001
599.164748	2535.564273
599.515657	2537.081661
599.866511	2536.817000
600.217312	2539.486291
600.568060	2536.169212
600.918753	2538.881353
601.269392	2536.431352
601.619978	2536.418749
601.970510	2537.190046
602.320988	2533.784746
602.671412	2537.500077
603.021783	2537.542926
603.372100	2537.283307
603.722363	2535.468492
604.072572	2534.777853
604.422728	2538.725077
604.772830	2533.794828
605.122878	2532.887421
605.472872	2536.393543
605.822813	2529.489683
606.172701	2533.840199
606.522534	2535.919675
606.872314	2538.281455
607.222041	2537.764737
607.571714	2537.938657
607.921333	2537.747093
608.270899	2539.077958
608.620411	2537.542926
608.969870	2536.365817
609.319276	2541.641384
609.668627	2539.549306
610.017926	2541.119625
610.367171	2545.381921
610.716362	2545.455017
611.065500	2542.203473
611.414585	2541.260777
611.763616	2540.371014
612.112594	2538.760365
612.461518	2540.212217
612.810389	2539.113246
613.159207	2538.299099
613.507971	2537.273225
613.856682	2539.219110
614.205340	2537.363965
614.553945	2537.772299
614.902496	2539.035108
615.250994	2538.596527
615.599439	2538.079809
615.947830	2540.986034
616.296169	2537.542926
616.644454	2538.271373
616.992686	2537.159799
617.340864	2535.922195
617.688990	2536.980838
618.037063	2535.382792
618.385082	2538.087371
618.733048	2538.578883
619.080961	2536.065868
619.428821	2538.460416
619.776628	2537.631147
620.124382	2538.805735
620.472083	2537.825231
620.819731	2538.157947
621.167326	2535.655014
621.514868	2540.711292
621.862357	2537.235416
622.209793	2538.684748
622.557176	2537.043852
622.904506	2534.825744
623.251783	2532.837009
623.599007	2535.211393
623.946179	2532.393388
624.293297	2534.258615
624.640363	2538.089892
624.987376	2535.299613
625.334336	2539.808925
625.681243	2534.432534
626.028097	2536.454037
626.374899	2538.488143
626.721647	2536.479243
627.068343	2540.802032
627.414987	2535.891948
627.761577	2536.262473
628.108115	2536.537216
628.454600	2537.255581
628.801032	2536.491846
629.147412	2538.001671
629.493739	2537.187525
629.840014	2536.441434
630.186236	2538.571322
630.532405	2535.402957
630.878521	2536.506969
631.224585	2537.139634
631.570597	2538.702392
631.916556	2535.776002
632.262462	2535.574356
632.608316	2538.001671
632.954117	2539.148534
633.299866	2533.308357
633.645562	2534.853471
633.991206	2537.595858
634.336797	2534.500590
634.682336	2537.542926
635.027823	2535.181146
635.373257	2535.846578
635.718639	2535.458409
636.063968	2537.926054
636.409245	2538.283976
636.754470	2534.603934
637.099642	2536.010416
637.444762	2535.317257
637.789829	2534.944212
638.134845	2536.214582
638.479808	2536.249870
638.824719	2536.990920
639.169577	2536.675848
639.514383	2534.873635
639.859137	2535.148378
640.203839	2534.616537
640.548489	2537.127031
640.893086	2531.700229
641.237632	2532.673172
641.582125	2536.638039
641.926566	2528.998171
642.270955	2537.865560
642.615292	2536.915303
642.959576	2535.171063
643.303809	2535.471012
643.647990	2537.033770
643.992118	2535.632329
644.336195	2537.961342
