Dividing Wavelength (nm)	Counts (n)	Blue Motor Position (mm): 0.000000	Red Motor Position (mm): 21.700000	
326.493990	2128.430607
326.888308	2128.430607
327.282561	2128.430607
327.676750	2096.628488
328.070874	2092.020873
328.464933	2097.208220
328.858929	2105.982348
329.252859	2110.932762
329.646726	2125.035389
330.040528	2140.592390
330.434265	2152.280305
330.827938	2172.613799
331.221547	2190.426717
331.615091	2209.814994
332.008571	2230.297202
332.401986	2250.048443
332.795338	2265.981010
333.188625	2287.370626
333.581847	2305.428039
333.975006	2324.793631
334.368100	2340.103615
334.761129	2360.709332
335.154095	2377.125849
335.546996	2394.417007
335.939833	2408.184398
336.332606	2424.676533
336.725315	2437.294541
337.117960	2447.192847
337.510540	2451.697117
337.903056	2467.228913
338.295508	2473.059007
338.687896	2480.270377
339.080220	2489.639362
339.472480	2496.429796
339.864676	2499.477174
340.256807	2506.229799
340.648875	2509.020078
341.040879	2511.210459
341.432818	2511.530573
341.824694	2511.233144
342.216506	2513.340347
342.608253	2515.477796
342.999937	2513.466376
343.391557	2513.781448
343.783113	2514.129287
344.174605	2513.937723
344.566033	2512.261540
344.957397	2508.082423
345.348697	2506.973369
345.739934	2508.286590
346.131106	2505.004799
346.522215	2499.288130
346.913260	2500.266114
347.304241	2500.316526
347.695159	2499.225116
348.086012	2495.260248
348.476802	2493.556338
348.867528	2491.338231
349.258191	2492.343941
349.648789	2490.050216
350.039324	2489.208343
350.429796	2489.276399
350.820203	2487.000318
351.210548	2487.234732
351.600828	2483.963023
351.991045	2484.000831
352.381198	2482.856489
352.771288	2481.374390
353.161314	2485.911429
353.551276	2482.599391
353.941175	2486.350009
354.331010	2483.471510
354.720782	2484.242807
355.110490	2482.896819
355.500135	2483.186685
355.889717	2482.591829
356.279235	2483.859679
356.668689	2483.690800
357.058080	2483.731130
357.447408	2480.688793
357.836672	2479.816674
358.225873	2480.850110
358.615010	2481.545789
359.004084	2484.681387
359.393095	2486.276912
359.782043	2488.835298
360.170927	2487.587612
360.559748	2488.132057
360.948505	2489.616677
361.337199	2491.885196
361.725830	2492.759836
362.114398	2492.230515
362.502903	2491.776811
362.891344	2493.994919
363.279722	2490.108189
363.668037	2495.991216
364.056289	2494.854436
364.444478	2495.378716
364.832603	2497.291833
365.220665	2496.102121
365.608665	2497.458192
365.996601	2496.878459
366.384474	2497.642194
366.772284	2499.315857
367.160031	2500.800477
367.547715	2503.336177
367.935336	2507.054028
368.322893	2507.268277
368.710388	2515.140039
369.097820	2522.532891
369.485189	2518.676408
369.872495	2528.388191
370.259738	2534.430014
370.646918	2542.936961
371.034035	2547.121119
371.421090	2557.679815
371.808081	2567.293296
372.195010	2575.641447
372.581875	2590.207861
372.968678	2605.553133
373.355418	2614.770883
373.742096	2631.746968
374.128710	2648.775986
374.515262	2664.224602
374.901751	2676.038546
375.288177	2688.172603
375.674540	2712.226469
376.060841	2733.774881
376.447079	2750.972777
376.833254	2773.163937
377.219367	2783.072324
377.605417	2823.204950
377.991404	2830.638132
378.377329	2856.075794
378.763191	2868.028370
379.148991	2907.140162
379.534727	2934.122938
379.920402	2960.145374
380.306013	2970.467136
380.691563	3022.285157
381.077049	3043.740308
381.462474	3062.251424
381.847835	3100.738113
382.233134	3121.734519
382.618371	3121.048922
383.003545	3189.653985
383.388657	3198.672609
383.773706	3229.695870
384.158693	3246.059455
384.543618	3274.693209
384.928480	3309.323416
385.313280	3353.551979
385.698017	3351.359077
386.082692	3408.351842
386.467305	3413.113212
386.851856	3443.513890
387.236344	3466.713280
387.620770	3497.741582
388.005133	3523.252341
388.389435	3550.272925
388.773674	3562.880851
389.157851	3603.671348
389.541965	3619.440077
389.926018	3584.744335
390.310008	3652.862927
390.693936	3671.268179
391.077802	3713.276114
391.461606	3700.660627
391.845348	3762.848301
392.229027	3762.611367
392.612645	3776.439252
392.996200	3854.395655
393.379694	3894.339237
393.763125	3958.475317
394.146494	3925.778393
394.529801	3986.544462
394.913047	4038.886762
395.296230	4002.179600
395.679351	4057.181109
396.062410	4080.468719
396.445408	4064.599167
396.828343	4095.012448
397.211217	4120.858444
397.594028	4041.354407
397.976778	4103.869756
398.359466	4134.855208
398.742092	4161.679187
399.124656	4085.003237
399.507158	4163.315042
399.889598	4190.663301
400.271977	4250.295110
400.654294	4220.557344
401.036549	4232.865321
401.418742	4197.753684
401.800874	4302.289571
402.182944	4322.945699
402.564952	4380.727404
402.946898	4378.058113
403.328783	4368.462277
403.710606	4282.261067
404.092367	4473.151919
404.474067	4438.153708
404.855705	4447.931026
405.237282	4375.315726
405.618797	4484.388651
406.000250	4518.184546
406.381642	4598.817802
406.762972	4561.616607
407.144240	4573.614553
407.525447	4571.966096
407.906593	4629.147904
408.287677	4672.093494
408.668700	4603.311991
409.049661	4651.069362
409.430560	4696.018810
409.811399	4619.307572
410.192176	4782.104073
410.572891	4719.165268
410.953545	4820.729394
411.334138	4700.709603
411.714669	4767.111682
412.095139	4663.997401
412.475547	4802.382115
412.855894	4786.855361
413.236180	4794.013799
413.616405	4754.833952
413.996568	4836.107434
414.376670	4777.894710
414.756711	4731.972319
415.136691	4759.991052
415.516609	4838.572558
415.896466	4873.296026
416.276262	4908.047220
416.655997	4885.689703
417.035670	5069.772477
417.415283	5154.279859
417.794834	5092.392134
418.174324	5044.173497
418.553753	4947.373261
418.933121	5126.165344
419.312428	5187.526269
419.691674	5117.451710
420.070859	5233.423454
420.449983	5140.986336
420.829045	5248.856946
421.208047	5147.015556
421.586988	5210.471080
421.965867	5206.579310
422.344686	5320.438810
422.723444	5170.527498
423.102141	4984.788705
423.480777	5252.438686
423.859352	5021.571484
424.237866	5248.254528
424.616319	5223.202514
424.994712	5308.443385
425.373044	5175.029248
425.751314	5288.127535
426.129524	5087.240075
426.507673	5236.256582
426.885762	5291.343791
427.263789	5199.977919
427.641756	5077.931584
428.019662	5153.874046
428.397508	5134.745388
428.775292	5053.882760
429.153016	5111.672027
429.530679	5021.047204
429.908282	5058.714706
430.285824	4921.615486
430.663305	5098.605356
431.040726	4855.263819
431.418086	4821.339374
431.795385	4865.152042
432.172624	4839.633721
432.549802	4795.165703
432.926920	4762.491464
433.303977	4726.046443
433.680974	4711.263259
434.057910	4676.018032
434.434786	4638.559738
434.811601	4574.496755
435.188355	4679.718239
435.565050	4553.606214
435.941683	4491.957943
436.318257	4565.115168
436.694770	4501.125282
437.071222	4472.655365
437.447614	4387.081779
437.823946	4289.548055
438.200218	4317.468485
438.576429	4199.245866
438.952580	4191.265719
439.328670	4166.740506
439.704700	4069.196699
440.080670	4015.760469
440.456580	4073.542174
440.832429	3976.225220
441.208218	3864.868652
441.583947	3873.698233
441.959616	3825.144359
442.335224	3753.151641
442.710773	3751.362032
443.086261	3707.819065
443.461689	3597.221191
443.837057	3597.342179
444.212365	3591.388576
444.587612	3522.276878
444.962800	3516.736649
445.337927	3467.376192
445.712995	3329.878720
446.088002	3420.402720
446.462949	3343.525124
446.837837	3289.496557
447.212664	3286.061011
447.587431	3267.083587
447.962139	3327.935356
448.336786	3448.257616
448.711374	3364.720655
449.085901	3172.350224
449.460369	3119.743263
449.834776	3077.510997
450.209124	3092.568924
450.583412	3076.969073
450.957640	3068.381467
451.331808	3006.667662
451.705917	2934.750561
452.079965	2896.780591
452.453954	2892.024262
452.827883	2859.344982
453.201752	2841.766479
453.575562	2808.588125
453.949311	2799.924902
454.323001	2777.602672
454.696632	2765.456012
455.070202	2755.295567
455.443713	2749.697365
455.817164	2736.613051
456.190556	2718.860627
456.563888	2711.266129
456.937160	2699.850436
457.310373	2678.077693
457.683526	2669.066630
458.056619	2656.093221
458.429653	2645.189205
458.802628	2635.676548
459.175542	2632.591362
459.548398	2630.847122
459.921194	2630.219499
460.293930	2621.959568
460.666607	2625.984929
461.039224	2629.768315
461.411782	2622.851852
461.784280	2619.287757
462.156719	2609.886005
462.529099	2605.757300
462.901419	2597.202462
463.273680	2592.161308
463.645882	2592.395721
464.018024	2583.634196
464.390106	2585.121336
464.762130	2586.719382
465.134094	2589.164342
465.505999	2598.341762
465.877845	2606.311827
466.249631	2610.450614
466.621358	2604.244953
466.993026	2601.464757
467.364634	2598.462750
467.736184	2588.284660
468.107674	2587.268868
468.479105	2586.570668
468.850477	2583.578743
469.221790	2583.533373
469.593043	2579.356777
469.964238	2575.129769
470.335373	2575.585994
470.706449	2574.280335
471.077467	2574.113977
471.448425	2586.752150
471.819324	2590.333889
472.190164	2591.281626
472.560945	2581.839545
472.931667	2580.647312
473.302330	2576.997517
473.672934	2573.138514
474.043479	2574.378637
474.413965	2576.475757
474.784393	2570.126424
475.154761	2574.686148
475.525070	2573.337639
475.895321	2572.430232
476.265513	2571.457289
476.635645	2579.200501
477.005719	2576.183371
477.375734	2576.674883
477.745691	2577.128587
478.115588	2581.781572
478.485427	2580.594380
478.855207	2582.124370
479.224928	2591.054774
479.594591	2591.929415
479.964194	2592.395721
480.333739	2594.699529
480.703226	2590.616194
481.072653	2591.856318
481.442022	2593.046030
481.811333	2593.114086
482.180584	2591.669795
482.549777	2586.608477
482.918912	2589.431523
483.287988	2589.529825
483.657005	2588.473704
484.025964	2589.423961
484.394864	2588.277099
484.763706	2590.507809
485.132489	2587.586461
485.501213	2586.021182
485.869879	2587.528487
486.238487	2584.229052
486.607036	2587.042016
486.975527	2583.898857
487.343959	2584.294587
487.712333	2584.062694
488.080648	2586.023703
488.448905	2587.367170
488.817104	2581.229566
489.185244	2587.357088
489.553326	2585.512026
489.921350	2588.806420
490.289315	2594.742378
490.657222	2595.992585
491.025070	2598.868563
491.392861	2595.062492
491.760593	2592.791452
492.128267	2593.172059
492.495883	2587.531008
492.863440	2589.996132
493.230939	2587.828436
493.598380	2583.805595
493.965763	2580.904411
494.333088	2581.524473
494.700354	2579.313927
495.067563	2580.894329
495.434713	2578.252764
495.801805	2584.362643
496.168839	2580.387693
496.535815	2581.582446
496.902733	2581.620255
497.269593	2580.806109
497.636395	2580.803588
498.003139	2581.443815
498.369825	2579.059349
498.736453	2583.293918
499.103023	2578.635892
499.469535	2577.801581
499.835989	2579.820563
500.202385	2579.276118
500.568723	2577.420974
500.935003	2578.880388
501.301226	2577.673032
501.667390	2577.713361
502.033497	2583.059504
502.399546	2580.211252
502.765537	2577.456262
503.131470	2576.821077
503.497345	2579.699575
503.863163	2577.030284
504.228923	2578.698906
504.594625	2580.614545
504.960269	2580.158320
505.325856	2579.840728
505.691385	2578.885429
506.056856	2577.859554
506.422270	2578.487178
506.787625	2575.434759
507.152924	2577.673032
507.518164	2579.641602
507.883347	2579.966757
508.248472	2582.895667
508.613540	2582.162179
508.978550	2577.146231
509.343503	2578.338464
509.708398	2578.610686
510.073236	2580.007086
510.438016	2581.239648
510.802738	2579.452559
511.167403	2579.681931
511.532010	2580.508681
511.896561	2583.266192
512.261053	2582.474731
512.625488	2580.014647
512.989866	2578.063721
513.354186	2579.671849
513.718449	2577.269739
514.082655	2580.072621
514.446803	2582.671336
514.810894	2584.763414
515.174927	2581.494226
515.538904	2583.288877
515.902822	2581.242168
516.266684	2582.436922
516.630488	2582.376428
516.994235	2582.540266
517.357925	2582.784762
517.721558	2584.400451
518.085133	2584.556727
518.448651	2581.743763
518.812112	2583.556058
519.175516	2583.432550
519.538863	2583.661922
519.902152	2584.007241
520.265385	2582.910790
520.628560	2584.559248
520.991678	2583.288877
521.354739	2583.172930
521.717743	2585.131419
522.080690	2582.767117
522.443580	2582.467169
522.806413	2586.190061
523.169189	2584.881882
523.531908	2585.852304
523.894569	2584.541604
524.257174	2583.838363
524.619722	2584.710482
524.982213	2584.677715
525.344647	2582.552868
525.707025	2585.524629
526.069345	2585.794330
526.431608	2584.213929
526.793815	2585.322982
527.155964	2587.906574
527.518057	2584.077817
527.880093	2586.411872
528.242072	2584.208887
528.603995	2584.423137
528.965860	2585.917839
529.327669	2588.340113
529.689421	2584.486151
530.051117	2585.796851
530.412755	2586.918508
530.774337	2586.681573
531.135862	2583.593867
531.497331	2581.804257
531.858743	2581.307703
532.220098	2582.658733
532.581396	2579.581108
532.942638	2581.121181
533.303824	2584.372725
533.664953	2581.446335
534.026025	2581.320306
534.387040	2586.689135
534.747999	2580.803588
535.108902	2586.686615
535.469748	2583.127560
535.830537	2584.856676
536.191270	2582.010944
536.551947	2584.118147
536.912567	2586.580750
537.273131	2583.976994
537.633638	2584.748291
537.994089	2586.394228
538.354483	2585.113775
538.714821	2585.408682
539.075103	2584.594536
539.435328	2583.881212
539.795497	2585.683425
540.155609	2584.586974
540.515665	2586.414392
540.875665	2585.033116
541.235609	2584.040009
541.595496	2585.108733
541.955328	2583.538414
542.315102	2583.896336
542.674821	2583.800554
543.034483	2586.996646
543.394090	2583.437591
543.753640	2584.322313
544.113134	2584.208887
544.472571	2586.426995
544.831953	2584.886923
545.191278	2583.939186
545.550548	2587.649475
545.909761	2585.587643
546.268918	2583.351891
546.628019	2585.668302
546.987064	2583.682087
547.346053	2585.554876
547.704986	2583.588826
548.063863	2583.578743
548.422684	2585.605287
548.781449	2586.157293
549.140158	2585.086048
549.498811	2588.229208
549.857408	2583.644278
550.215949	2584.087900
550.574434	2579.576067
550.932864	2580.657395
551.291237	2581.610173
551.649555	2585.459094
552.007817	2584.786100
552.366022	2586.994125
552.724173	2585.617890
553.082267	2584.828949
553.440305	2585.524629
553.798288	2585.970771
554.156215	2584.929772
554.514086	2583.858527
554.871902	2582.744432
555.229661	2584.634865
555.587365	2584.970102
555.945014	2586.300966
556.302606	2585.602767
556.660143	2585.257447
557.017625	2585.542273
557.375050	2581.340471
557.732421	2585.973291
558.089735	2586.948755
558.446994	2589.129054
558.804197	2585.075966
559.161345	2581.380800
559.518437	2586.731985
559.875474	2585.295256
560.232455	2586.006059
560.589381	2585.504464
560.946251	2587.853642
561.303065	2585.731316
561.659825	2583.777869
562.016528	2583.944227
562.373177	2585.050760
562.729770	2585.345668
563.086307	2583.760225
563.442789	2584.108064
563.799216	2586.215267
564.155587	2584.478589
564.511904	2582.830132
564.868164	2584.818867
565.224370	2585.509505
565.580520	2582.779720
565.936615	2583.480441
566.292654	2584.176120
566.648638	2583.001531
567.004567	2583.649319
567.360441	2582.888105
567.716260	2583.210739
568.072023	2585.696028
568.427732	2578.779565
568.783385	2580.024730
569.138982	2580.821232
569.494525	2583.477920
569.850013	2578.230079
570.205445	2581.297621
570.560823	2584.014803
570.916145	2582.111767
571.271412	2581.222004
571.626625	2581.627817
571.981782	2581.733681
572.336884	2581.965574
572.691931	2581.761407
573.046923	2582.878023
573.401860	2582.522622
573.756743	2580.155800
574.111570	2580.372569
574.466342	2581.736202
574.821059	2579.550861
575.175722	2580.377611
575.530330	2580.649833
575.884882	2581.514391
576.239380	2581.670667
576.593823	2580.944740
576.948211	2581.020358
577.302544	2582.285687
577.656823	2580.163362
578.011047	2581.854669
578.365216	2578.668659
578.719330	2575.318813
579.073389	2578.504822
579.427394	2580.155800
579.781344	2580.370049
580.135239	2577.937692
580.489080	2579.056828
580.842866	2579.669328
581.196597	2583.220821
581.550273	2581.224524
581.903895	2575.384348
582.257463	2580.485995
582.610975	2578.187229
582.964434	2577.224369
583.317837	2579.157651
583.671186	2577.791499
584.024481	2578.099009
584.377721	2576.843762
584.730906	2575.989286
585.084037	2578.267888
585.437113	2575.969122
585.790135	2576.788309
586.143103	2578.472054
586.496016	2578.333423
586.848874	2572.967114
587.201679	2574.350911
587.554428	2571.921075
587.907124	2575.427197
588.259765	2570.655745
588.612352	2576.332085
588.964884	2573.972825
589.317362	2576.327043
589.669786	2575.822928
590.022155	2578.472054
590.374470	2575.780078
590.726731	2575.873340
591.078937	2573.199007
591.431090	2574.005592
591.783188	2573.214131
592.135232	2575.364183
592.487222	2573.854358
592.839157	2570.970818
593.191038	2572.785633
593.542866	2573.022567
593.894639	2573.178843
594.246358	2573.267063
594.598022	2573.801425
594.949633	2570.713719
595.301190	2572.757907
595.652692	2572.727660
596.004141	2573.695561
596.355535	2575.061714
596.706876	2574.539954
597.058162	2573.987948
597.409395	2570.529717
597.760573	2574.635736
598.111698	2571.404357
598.462768	2571.910993
598.813785	2570.983420
599.164748	2571.749676
599.515657	2571.394274
599.866511	2571.127093
600.217312	2572.006775
600.568060	2571.684141
600.918753	2573.365366
601.269392	2570.015519
601.619978	2571.669017
601.970510	2571.520303
602.320988	2570.375961
602.671412	2571.643812
603.021783	2571.235478
603.372100	2573.377968
603.722363	2574.358473
604.072572	2569.778585
604.422728	2574.696230
604.772830	2566.209448
605.122878	2564.243398
605.472872	2566.854715
605.822813	2565.425548
606.172701	2570.756568
606.522534	2569.438307
606.872314	2573.541806
607.222041	2569.755899
607.571714	2570.391085
607.921333	2572.374779
608.270899	2568.263718
608.620411	2574.098853
608.969870	2571.250602
609.319276	2570.953173
609.668627	2573.347722
610.017926	2576.591704
610.367171	2576.886612
610.716362	2577.831828
611.065500	2576.243864
611.414585	2575.890984
611.763616	2577.007599
612.112594	2574.116497
612.461518	2573.269584
612.810389	2573.912331
613.159207	2570.713719
613.507971	2572.054666
613.856682	2572.808318
614.205340	2571.031311
614.553945	2571.280848
614.902496	2570.985941
615.250994	2571.754717
615.599439	2571.968966
615.947830	2571.961404
616.296169	2570.890159
616.644454	2568.624160
616.992686	2572.422670
617.340864	2570.348235
617.688990	2571.923596
618.037063	2572.097515
618.385082	2569.670200
618.733048	2573.251940
619.080961	2569.524006
619.428821	2573.849316
619.776628	2571.603482
620.124382	2571.820252
620.472083	2570.539799
620.819731	2573.055335
621.167326	2569.743297
621.514868	2571.981569
621.862357	2567.494942
622.209793	2570.577608
622.557176	2568.384706
622.904506	2565.022256
623.251783	2567.361351
623.599007	2563.867832
623.946179	2563.625856
624.293297	2564.639128
624.640363	2569.085426
624.987376	2564.765157
625.334336	2566.297668
625.681243	2565.279355
626.028097	2565.798594
626.374899	2566.685837
626.721647	2566.378326
627.068343	2569.274469
627.414987	2565.211299
627.761577	2564.417318
628.108115	2567.648697
628.454600	2566.310271
628.801032	2564.868501
629.147412	2565.735579
629.493739	2566.592575
629.840014	2568.606516
630.186236	2567.683985
630.532405	2563.504869
630.878521	2565.705332
631.224585	2567.565518
631.570597	2562.226936
631.916556	2564.087122
632.262462	2559.524878
632.608316	2564.162739
632.954117	2562.680640
633.299866	2565.634756
633.645562	2564.419838
633.991206	2563.678788
634.336797	2562.554611
634.682336	2561.407749
635.027823	2561.357337
635.373257	2562.423541
635.718639	2560.817934
636.063968	2558.274672
636.409245	2560.258366
636.754470	2563.504869
637.099642	2562.025290
637.444762	2561.488407
637.789829	2558.307439
638.134845	2560.364230
638.479808	2561.453119
638.824719	2560.051678
639.169577	2557.682336
639.514383	2557.765515
639.859137	2560.931360
640.203839	2555.960782
640.548489	2557.664692
640.893086	2557.473128
641.237632	2555.280226
641.582125	2557.851215
641.926566	2554.004814
642.270955	2557.616801
642.615292	2558.050340
642.959576	2560.638973
643.303809	2558.320042
643.647990	2558.751061
643.992118	2556.608570
644.336195	2559.424055
