Dividing Wavelength (nm)	Counts (n)	Blue Motor Position (mm): 0.000000	Red Motor Position (mm): 4.800000	
326.493990	2129.945473
326.888308	2129.945473
327.282561	2129.945473
327.676750	2094.448188
328.070874	2093.515575
328.464933	2098.168560
328.858929	2103.615527
329.252859	2112.979470
329.646726	2123.008846
330.040528	2136.763634
330.434265	2153.734678
330.827938	2171.701351
331.221547	2190.167097
331.615091	2209.063862
332.008571	2229.046996
332.401986	2250.426530
332.795338	2266.306164
333.188625	2287.690739
333.581847	2307.394089
333.975006	2325.141471
334.368100	2342.762824
334.761129	2361.667151
335.154095	2376.097454
335.546996	2390.981461
335.939833	2407.085427
336.332606	2423.683426
336.725315	2435.545261
337.117960	2443.361570
337.510540	2451.777776
337.903056	2463.385033
338.295508	2471.876856
338.687896	2478.707620
339.080220	2488.300936
339.472480	2496.071874
339.864676	2496.840650
340.256807	2504.074706
340.648875	2505.284583
341.040879	2507.069151
341.432818	2511.104595
341.824694	2510.751714
342.216506	2508.783144
342.608253	2512.435460
342.999937	2512.690038
343.391557	2510.797085
343.783113	2509.904800
344.174605	2508.684841
344.566033	2506.121414
344.957397	2508.873884
345.348697	2506.355828
345.739934	2504.939264
346.131106	2500.074550
346.522215	2501.372647
346.913260	2499.472133
347.304241	2497.105311
347.695159	2494.289826
348.086012	2493.841164
348.476802	2489.024341
348.867528	2491.292860
349.258191	2487.499392
349.648789	2489.634321
350.039324	2484.605770
350.429796	2484.338589
350.820203	2482.702734
351.210548	2482.818681
351.600828	2481.041674
351.991045	2480.104019
352.381198	2480.706437
352.771288	2477.361632
353.161314	2478.823566
353.551276	2478.994966
353.941175	2477.953967
354.331010	2477.482619
354.720782	2480.144349
355.110490	2481.641571
355.500135	2482.317086
355.889717	2476.350880
356.279235	2480.580408
356.668689	2481.129894
357.058080	2481.886067
357.447408	2477.401961
357.836672	2474.339460
358.225873	2480.217445
358.615010	2474.931796
359.004084	2483.322796
359.393095	2483.186685
359.782043	2482.543938
360.170927	2483.968064
360.559748	2481.182826
360.948505	2483.625265
361.337199	2485.883702
361.725830	2484.381438
362.114398	2489.848570
362.502903	2486.566779
362.891344	2484.759525
363.279722	2486.352530
363.668037	2488.895792
364.056289	2489.074753
364.444478	2489.732623
364.832603	2488.593322
365.220665	2491.844867
365.608665	2488.742037
365.996601	2490.246821
366.384474	2492.800165
366.772284	2492.815289
367.160031	2495.809734
367.547715	2494.146153
367.935336	2496.510455
368.322893	2498.844509
368.710388	2500.583707
369.097820	2508.899090
369.485189	2507.477485
369.872495	2513.917559
370.259738	2514.812364
370.646918	2520.317304
371.034035	2523.427696
371.421090	2529.398942
371.808081	2533.807431
372.195010	2532.106042
372.581875	2540.822197
372.968678	2546.198588
373.355418	2546.317055
373.742096	2551.663198
374.128710	2556.916081
374.515262	2559.731565
374.901751	2559.184600
375.288177	2561.798438
375.674540	2569.740776
376.060841	2570.166753
376.447079	2571.971487
376.833254	2572.737742
377.219367	2568.745148
377.605417	2577.690676
377.991404	2572.089954
378.377329	2574.305541
378.763191	2572.939388
379.148991	2575.696899
379.534727	2574.983576
379.920402	2579.939030
380.306013	2572.178174
380.691563	2575.154975
381.077049	2569.718091
381.462474	2568.961918
381.847835	2565.659962
382.233134	2564.523182
382.618371	2560.578479
383.003545	2559.313149
383.388657	2554.342572
383.773706	2552.051367
384.158693	2548.643547
384.543618	2541.575849
384.928480	2540.882691
385.313280	2537.144675
385.698017	2535.135775
386.082692	2534.175436
386.467305	2531.029756
386.851856	2528.027748
387.236344	2521.960720
387.620770	2524.133457
388.005133	2519.682118
388.389435	2518.492406
388.773674	2515.949144
389.157851	2516.488547
389.541965	2511.918741
389.926018	2513.801612
390.310008	2508.576456
390.693936	2511.328926
391.077802	2508.780623
391.461606	2509.975377
391.845348	2509.594769
392.229027	2510.093844
392.612645	2505.546723
392.996200	2507.366579
393.379694	2508.586539
393.763125	2509.067969
394.146494	2506.524707
394.529801	2506.696106
394.913047	2508.745335
395.296230	2509.153668
395.679351	2508.276508
396.062410	2509.133504
396.445408	2507.074193
396.828343	2511.391941
397.211217	2506.297855
397.594028	2506.071003
397.976778	2504.823317
398.359466	2507.157372
398.742092	2505.007319
399.124656	2508.221055
399.507158	2509.516632
399.889598	2512.629544
400.271977	2510.716426
400.654294	2512.977384
401.036549	2509.246930
401.418742	2511.185253
401.800874	2512.611900
402.182944	2512.649709
402.564952	2511.008813
402.946898	2511.457476
403.328783	2513.040398
403.710606	2510.547548
404.092367	2513.990656
404.474067	2511.316323
404.855705	2513.320182
405.237282	2512.203567
405.618797	2512.488392
406.000250	2512.435460
406.381642	2512.324554
406.762972	2516.324710
407.144240	2511.316323
407.525447	2515.228259
407.906593	2514.809843
408.287677	2512.153155
408.668700	2516.473424
409.049661	2514.041067
409.430560	2516.680111
409.811399	2514.835049
410.192176	2514.025944
410.572891	2514.033505
410.953545	2512.899246
411.334138	2515.354288
411.714669	2514.782117
412.095139	2515.286232
412.475547	2514.610718
412.855894	2514.068793
413.236180	2516.458300
413.616405	2515.916376
413.996568	2518.487365
414.376670	2515.341685
414.756711	2518.247910
415.136691	2516.307066
415.516609	2514.935872
415.896466	2514.835049
416.276262	2517.368229
416.655997	2513.761283
417.035670	2512.359842
417.415283	2515.876047
417.794834	2511.850686
418.174324	2516.821263
418.553753	2517.007786
418.933121	2520.602129
419.312428	2519.528363
419.691674	2517.584998
420.070859	2519.732530
420.449983	2517.539628
420.829045	2518.421830
421.208047	2517.312776
421.586988	2517.595081
421.965867	2519.296470
422.344686	2519.939217
422.723444	2520.438291
423.102141	2521.285205
423.480777	2517.968126
423.859352	2519.107427
424.237866	2521.030627
424.616319	2519.162879
424.994712	2517.743795
425.373044	2520.904598
425.751314	2517.900070
426.129524	2519.346882
426.507673	2521.721265
426.885762	2520.876872
427.263789	2519.987108
427.641756	2520.108096
428.019662	2520.150946
428.397508	2520.518950
428.775292	2522.600946
429.153016	2520.516429
429.530679	2520.133302
429.908282	2522.290915
430.285824	2521.582633
430.663305	2521.796882
431.040726	2521.948117
431.418086	2521.824609
431.795385	2520.279495
432.172624	2522.316121
432.549802	2522.979033
432.926920	2522.588343
433.303977	2525.691174
433.680974	2524.690505
434.057910	2524.783766
434.434786	2521.741430
434.811601	2523.470545
435.188355	2521.441481
435.565050	2522.709331
435.941683	2523.788138
436.318257	2522.094310
436.694770	2519.102386
437.071222	2521.990967
437.447614	2519.495596
437.823946	2522.051461
438.200218	2520.211439
438.576429	2523.165556
438.952580	2524.130937
439.328670	2524.256965
439.704700	2522.931142
440.080670	2524.262007
440.456580	2523.662109
440.832429	2525.199661
441.208218	2524.196472
441.583947	2526.296112
441.959616	2525.040865
442.335224	2524.476256
442.710773	2524.158663
443.086261	2524.781245
443.461689	2525.229908
443.837057	2527.316946
444.212365	2523.314270
444.587612	2524.990453
444.962800	2524.390556
445.337927	2525.847449
445.712995	2527.006915
446.088002	2524.105731
446.462949	2526.384332
446.837837	2525.633200
447.212664	2526.775022
447.587431	2525.585309
447.962139	2526.064219
448.336786	2528.118489
448.711374	2526.772501
449.085901	2527.175793
449.460369	2525.875176
449.834776	2526.714528
450.209124	2527.364837
450.583412	2524.773684
450.957640	2526.933818
451.331808	2528.796524
451.705917	2526.785104
452.079965	2527.873993
452.453954	2529.403983
452.827883	2530.203006
453.201752	2527.914322
453.575562	2528.448685
453.949311	2527.810979
454.323001	2528.201668
454.696632	2526.507841
455.070202	2527.808458
455.443713	2528.040351
455.817164	2524.894671
456.190556	2521.456604
456.563888	2526.820392
456.937160	2521.093641
457.310373	2528.408356
457.683526	2527.569003
458.056619	2529.865249
458.429653	2526.623787
458.802628	2529.461957
459.175542	2528.972965
459.548398	2529.837523
459.921194	2526.384332
460.293930	2530.691998
460.666607	2531.312060
461.039224	2524.680422
461.411782	2531.395239
461.784280	2531.372554
462.156719	2528.504137
462.529099	2529.167049
462.901419	2527.342152
463.273680	2529.174611
463.645882	2530.306350
464.018024	2529.343490
464.390106	2528.224353
464.762130	2530.785260
465.134094	2530.039169
465.505999	2531.632173
465.877845	2530.702081
466.249631	2530.291227
466.621358	2529.686288
466.993026	2531.548994
467.364634	2533.769623
467.736184	2530.238294
468.107674	2530.238294
468.479105	2528.340300
468.850477	2530.444982
469.221790	2531.843902
469.593043	2531.438089
469.964238	2528.184024
470.335373	2529.552697
470.706449	2530.543284
471.077467	2532.128727
471.448425	2529.827440
471.819324	2531.264169
472.190164	2530.729807
472.560945	2532.879859
472.931667	2528.128572
473.302330	2531.944725
473.672934	2529.842564
474.043479	2533.333563
474.413965	2528.753675
474.784393	2528.446164
475.154761	2530.210568
475.525070	2527.498427
475.895321	2530.767616
476.265513	2526.691843
476.635645	2531.299457
477.005719	2531.818696
477.375734	2531.554036
477.745691	2532.083357
478.115588	2529.663603
478.485427	2533.167205
478.855207	2532.894983
479.224928	2531.952287
479.594591	2532.511855
479.964194	2533.562935
480.333739	2531.221319
480.703226	2531.493542
481.072653	2532.166536
481.442022	2533.976310
481.811333	2535.788605
482.180584	2531.312060
482.549777	2532.156453
482.918912	2533.084026
483.287988	2534.866074
483.657005	2532.957997
484.025964	2532.542102
484.394864	2531.949766
484.763706	2532.524458
485.132489	2531.508665
485.501213	2533.610826
485.869879	2531.150743
486.238487	2532.058151
486.607036	2532.363141
486.975527	2535.085364
487.343959	2530.790301
487.712333	2534.263656
488.080648	2531.196114
488.448905	2534.757689
488.817104	2531.591844
489.185244	2534.606454
489.553326	2534.543440
489.921350	2534.026722
490.289315	2532.985723
490.657222	2534.828265
491.025070	2532.501773
491.392861	2534.934129
491.760593	2536.638039
492.128267	2534.457740
492.495883	2534.119983
492.863440	2533.245343
493.230939	2535.216434
493.598380	2533.227699
493.965763	2529.784591
494.333088	2533.366330
494.700354	2528.786442
495.067563	2532.451361
495.434713	2525.832326
495.801805	2533.189890
496.168839	2533.646114
496.535815	2532.993285
496.902733	2534.767771
497.269593	2535.229037
497.636395	2532.925229
498.003139	2534.742565
498.369825	2536.373379
498.736453	2536.857329
499.103023	2533.651156
499.469535	2535.884387
499.835989	2532.746268
500.202385	2536.527134
500.568723	2534.442617
500.935003	2532.947915
501.301226	2535.460930
501.667390	2531.990095
502.033497	2536.322967
502.399546	2536.038142
502.765537	2534.530837
503.131470	2531.969931
503.497345	2533.656197
503.863163	2535.919675
504.228923	2532.756351
504.594625	2534.830786
504.960269	2534.510672
505.325856	2536.088553
505.691385	2534.205682
506.056856	2537.575694
506.422270	2535.292051
506.787625	2536.693492
507.152924	2534.119983
507.518164	2536.648122
507.883347	2533.409180
508.248472	2535.602082
508.613540	2534.954294
508.978550	2533.527647
509.343503	2534.619057
509.708398	2538.142824
510.073236	2536.297761
510.438016	2535.203831
510.802738	2535.715508
511.167403	2537.164840
511.532010	2536.156609
511.896561	2538.813297
512.261053	2536.259953
512.625488	2532.292565
512.989866	2533.651156
513.354186	2532.005219
513.718449	2529.257790
514.082655	2535.559232
514.446803	2536.789274
514.810894	2539.473688
515.174927	2538.717515
515.538904	2535.150899
515.902822	2538.067206
516.266684	2538.629295
516.630488	2538.170550
516.994235	2538.803215
517.357925	2536.411187
517.721558	2536.741383
518.085133	2534.891279
518.448651	2535.972607
518.812112	2536.474202
519.175516	2535.589479
519.538863	2535.045035
519.902152	2535.692823
520.265385	2535.198790
520.628560	2536.726259
520.991678	2536.562422
521.354739	2538.261291
521.717743	2536.849768
522.080690	2535.823893
522.443580	2539.088040
522.806413	2536.111239
523.169189	2534.054448
523.531908	2536.779192
523.894569	2537.555529
524.257174	2537.265663
524.619722	2537.797505
524.982213	2537.691640
525.344647	2535.665097
525.707025	2537.996630
526.069345	2536.577545
526.431608	2534.198121
526.793815	2535.428162
527.155964	2537.673996
527.518057	2537.973945
527.880093	2536.501928
528.242072	2539.418236
528.603995	2536.968235
528.965860	2536.423790
529.327669	2537.835313
529.689421	2538.783050
530.051117	2536.932947
530.412755	2533.754499
530.774337	2538.258770
531.135862	2538.649460
531.497331	2534.465302
531.858743	2534.130065
532.220098	2537.142155
532.581396	2531.808614
532.942638	2534.309026
533.303824	2536.640560
533.664953	2537.245498
534.026025	2538.553678
534.387040	2537.560570
534.747999	2536.857329
535.108902	2540.033256
535.469748	2535.418080
535.830537	2540.585263
536.191270	2538.684748
536.551947	2535.370189
536.912567	2535.818852
537.273131	2537.580735
537.633638	2536.723739
537.994089	2535.670138
538.354483	2540.250026
538.714821	2537.691640
539.075103	2536.282638
539.435328	2538.967052
539.795497	2538.508307
540.155609	2539.345139
540.515665	2539.365303
540.875665	2541.500232
541.235609	2537.986548
541.595496	2536.015457
541.955328	2538.301620
542.315102	2538.828421
542.674821	2539.859337
543.034483	2539.292207
543.394090	2539.067875
543.753640	2537.064017
544.113134	2536.363296
544.472571	2537.618544
544.831953	2537.275745
545.191278	2537.827752
545.550548	2541.374203
545.909761	2536.015457
546.268918	2537.336239
546.628019	2537.984027
546.987064	2538.959491
547.346053	2534.619057
547.704986	2533.920857
548.063863	2536.413708
548.422684	2538.120138
548.781449	2537.351363
549.140158	2537.734490
549.498811	2540.441590
549.857408	2537.089222
550.215949	2535.876825
550.574434	2534.326670
550.932864	2535.914634
551.291237	2530.797863
551.649555	2536.428831
552.007817	2537.616023
552.366022	2539.019984
552.724173	2539.657690
553.082267	2539.781199
553.440305	2540.136600
553.798288	2537.706764
554.156215	2535.496218
554.514086	2538.929244
554.871902	2539.819007
555.229661	2537.464788
555.587365	2537.323636
555.945014	2538.543595
556.302606	2538.863709
556.660143	2539.352701
557.017625	2538.805735
557.375050	2540.708771
557.732421	2538.699871
558.089735	2540.386137
558.446994	2540.045859
558.804197	2536.910262
559.161345	2537.936136
559.518437	2538.241126
559.875474	2535.975127
560.232455	2538.291538
560.589381	2536.378420
560.946251	2541.974101
561.303065	2538.344470
561.659825	2538.105015
562.016528	2538.810777
562.373177	2536.116280
562.729770	2538.558719
563.086307	2540.063503
563.442789	2537.467309
563.799216	2540.953267
564.155587	2537.018646
564.511904	2540.209697
564.868164	2537.792463
565.224370	2542.465613
565.580520	2536.549819
565.936615	2539.428318
566.292654	2537.250539
566.648638	2537.187525
567.004567	2535.468492
567.360441	2538.871270
567.716260	2536.217103
568.072023	2539.544264
568.427732	2536.020498
568.783385	2534.742565
569.138982	2534.684592
569.494525	2535.017308
569.850013	2533.419262
570.205445	2540.136600
570.560823	2537.363965
570.916145	2537.568132
571.271412	2537.857998
571.626625	2539.254398
571.981782	2538.604089
572.336884	2539.551826
572.691931	2538.543595
573.046923	2538.379758
573.401860	2539.173740
573.756743	2537.875642
574.111570	2539.221631
574.466342	2538.752803
574.821059	2537.442103
575.175722	2538.707433
575.530330	2535.647453
575.884882	2535.506300
576.239380	2537.694161
576.593823	2539.156096
576.948211	2537.555529
577.302544	2540.318082
577.656823	2536.827082
578.011047	2538.979655
578.365216	2539.529141
578.719330	2538.452855
579.073389	2537.933616
579.427394	2536.869932
579.781344	2538.137783
580.135239	2537.701723
580.489080	2536.209541
580.842866	2538.702392
581.196597	2545.288659
581.550273	2538.364634
581.903895	2538.654501
582.257463	2541.283462
582.610975	2537.742052
582.964434	2539.390509
583.317837	2539.803884
583.671186	2540.076106
584.024481	2541.583411
584.377721	2539.894625
584.730906	2534.997144
585.084037	2539.539223
585.437113	2539.077958
585.790135	2538.586445
586.143103	2539.781199
586.496016	2541.732125
586.848874	2534.402287
587.201679	2538.445293
587.554428	2535.173584
587.907124	2536.839685
588.259765	2536.683410
588.612352	2540.923020
588.964884	2538.861188
589.317362	2539.715664
589.669786	2539.922351
590.022155	2538.329346
590.374470	2539.060314
590.726731	2536.159130
591.078937	2540.804553
591.431090	2539.899666
591.783188	2538.916641
592.135232	2540.292876
592.487222	2539.645088
592.839157	2537.684079
593.191038	2539.128369
593.542866	2536.829603
593.894639	2537.444624
594.246358	2538.450334
594.598022	2537.893287
594.949633	2539.133410
595.301190	2539.148534
595.652692	2540.749100
596.004141	2536.201979
596.355535	2537.336239
596.706876	2539.612320
597.058162	2538.485622
597.409395	2538.339429
597.760573	2542.044677
598.111698	2539.864378
598.462768	2540.184491
598.813785	2536.280117
599.164748	2539.201466
599.515657	2535.891948
599.866511	2539.675334
600.217312	2540.018133
600.568060	2537.447144
600.918753	2540.302958
601.269392	2536.242309
601.619978	2539.055272
601.970510	2537.008564
602.320988	2536.935467
602.671412	2539.461085
603.021783	2538.036959
603.372100	2539.781199
603.722363	2540.789429
604.072572	2536.398584
604.422728	2538.435211
604.772830	2538.614172
605.122878	2532.579910
605.472872	2536.620395
605.822813	2532.773995
606.172701	2538.231044
606.522534	2536.166691
606.872314	2539.135931
607.222041	2541.475026
607.571714	2538.742721
607.921333	2537.580735
608.270899	2537.663914
608.620411	2539.851775
608.969870	2539.516538
609.319276	2541.598535
609.668627	2543.229348
610.017926	2544.802188
610.367171	2545.528114
610.716362	2545.802857
611.065500	2543.471323
611.414585	2540.713812
611.763616	2543.448638
612.112594	2541.280942
612.461518	2541.036446
612.810389	2538.198276
613.159207	2539.758513
613.507971	2541.177598
613.856682	2538.881353
614.205340	2543.120963
614.553945	2540.181970
614.902496	2540.003009
615.250994	2540.020653
615.599439	2541.429656
615.947830	2538.281455
616.296169	2541.054090
616.644454	2541.432177
616.992686	2537.729449
617.340864	2538.155427
617.688990	2537.865560
618.037063	2537.482432
618.385082	2540.335726
618.733048	2538.180632
619.080961	2539.123328
619.428821	2538.467978
619.776628	2537.159799
620.124382	2539.632485
620.472083	2539.009902
620.819731	2537.817669
621.167326	2536.002854
621.514868	2538.571322
621.862357	2538.286497
622.209793	2542.120294
622.557176	2538.505787
622.904506	2535.362627
623.251783	2536.852288
623.599007	2534.956814
623.946179	2532.897503
624.293297	2535.854140
624.640363	2536.771630
624.987376	2538.815818
625.334336	2539.332536
625.681243	2540.817156
626.028097	2540.597866
626.374899	2541.268339
626.721647	2540.229861
627.068343	2537.089222
627.414987	2538.561239
627.761577	2537.691640
628.108115	2540.683565
628.454600	2534.800539
628.801032	2538.982176
629.147412	2539.062834
629.493739	2539.198945
629.840014	2538.420087
630.186236	2538.987217
630.532405	2540.277752
630.878521	2538.740200
631.224585	2538.538554
631.570597	2537.762217
631.916556	2540.091230
632.262462	2539.486291
632.608316	2540.872608
632.954117	2538.447813
633.299866	2536.464119
633.645562	2538.702392
633.991206	2538.402443
634.336797	2538.536034
634.682336	2537.489994
635.027823	2537.520241
635.373257	2538.460416
635.718639	2536.895138
636.063968	2539.440921
636.409245	2537.056455
636.754470	2535.531506
637.099642	2538.425128
637.444762	2537.900848
637.789829	2538.110056
638.134845	2539.395550
638.479808	2535.748276
638.824719	2535.105528
639.169577	2535.942360
639.514383	2536.950591
639.859137	2538.215920
640.203839	2537.958822
640.548489	2538.407484
640.893086	2535.168543
641.237632	2532.325332
641.582125	2533.870446
641.926566	2531.828778
642.270955	2538.455375
642.615292	2536.869932
642.959576	2538.074768
643.303809	2536.456558
643.647990	2537.570653
643.992118	2539.171219
644.336195	2536.716177
