Dividing Wavelength (nm)	Counts (n)	Blue Motor Position (mm): 0.000000	Red Motor Position (mm): 27.800000	
326.493990	2127.505555
326.888308	2127.505555
327.282561	2127.505555
327.676750	2093.346696
328.070874	2093.074474
328.464933	2097.677048
328.858929	2104.429673
329.252859	2112.805550
329.646726	2122.739144
330.040528	2136.022584
330.434265	2153.575882
330.827938	2171.424087
331.221547	2191.931501
331.615091	2209.240303
332.008571	2226.554146
332.401986	2251.099524
332.795338	2267.838675
333.188625	2284.363577
333.581847	2305.667493
333.975006	2323.911429
334.368100	2341.925993
334.761129	2357.830833
335.154095	2377.952598
335.546996	2391.014228
335.939833	2411.337640
336.332606	2423.106213
336.725315	2437.095415
337.117960	2448.498505
337.510540	2456.713066
337.903056	2466.515589
338.295508	2474.044553
338.687896	2480.056128
339.080220	2490.962665
339.472480	2497.758140
339.864676	2504.825838
340.256807	2506.708709
340.648875	2509.622496
341.040879	2508.831035
341.432818	2514.376304
341.824694	2516.274298
342.216506	2517.816891
342.608253	2517.779083
342.999937	2517.186747
343.391557	2514.600635
343.783113	2513.186592
344.174605	2514.414113
344.566033	2513.443690
344.957397	2510.449245
345.348697	2508.790705
345.739934	2507.013699
346.131106	2506.912876
346.522215	2503.941115
346.913260	2500.631598
347.304241	2500.707215
347.695159	2499.174704
348.086012	2496.893582
348.476802	2499.265445
348.867528	2494.088180
349.258191	2490.670278
349.648789	2491.749085
350.039324	2488.248003
350.429796	2491.043323
350.820203	2485.190544
351.210548	2485.329175
351.600828	2484.567961
351.991045	2486.876810
352.381198	2483.428660
352.771288	2483.756335
353.161314	2483.804226
353.551276	2484.895636
353.941175	2484.726758
354.331010	2483.310193
354.720782	2485.119967
355.110490	2484.235245
355.500135	2487.023003
355.889717	2485.021665
356.279235	2485.412354
356.668689	2487.650627
357.058080	2485.777838
357.447408	2481.991932
357.836672	2481.702065
358.225873	2484.830101
358.615010	2482.150728
359.004084	2486.332365
359.393095	2489.392345
359.782043	2490.587099
360.170927	2488.719351
360.559748	2489.299084
360.948505	2492.003663
361.337199	2493.621873
361.725830	2491.814620
362.114398	2493.737820
362.502903	2494.183962
362.891344	2494.483911
363.279722	2494.491473
363.668037	2496.850732
364.056289	2495.489621
364.444478	2499.320898
364.832603	2498.201762
365.220665	2500.878614
365.608665	2499.121772
365.996601	2502.587566
366.384474	2501.657473
366.772284	2501.128152
367.160031	2502.764006
367.547715	2503.983965
367.935336	2508.029491
368.322893	2509.680469
368.710388	2513.466376
369.097820	2521.002901
369.485189	2522.018693
369.872495	2530.036648
370.259738	2533.618388
370.646918	2542.258926
371.034035	2549.263609
371.421090	2561.458160
371.808081	2569.715570
372.195010	2579.235789
372.581875	2597.794797
372.968678	2607.768720
373.355418	2614.927158
373.742096	2635.363996
374.128710	2648.861686
374.515262	2664.007832
374.901751	2681.170441
375.288177	2690.468849
375.674540	2716.869372
376.060841	2733.401836
376.447079	2751.960843
376.833254	2774.948505
377.219367	2786.936369
377.605417	2818.294866
377.991404	2832.299192
378.377329	2853.519929
378.763191	2868.645911
379.148991	2907.903897
379.534727	2934.884152
379.920402	2962.784418
380.306013	2974.802529
380.691563	3021.952441
381.077049	3048.199208
381.462474	3061.555745
381.847835	3100.218875
382.233134	3125.306177
382.618371	3121.510188
383.003545	3192.063657
383.388657	3199.481714
383.773706	3233.030593
384.158693	3247.531472
384.543618	3274.915020
384.928480	3311.690237
385.313280	3357.388297
385.698017	3355.455014
386.082692	3407.958632
386.467305	3411.704209
386.851856	3447.897173
387.236344	3467.492138
387.620770	3499.299298
388.005133	3527.144112
388.389435	3552.682597
388.773674	3563.750450
389.157851	3607.931122
389.541965	3622.026189
389.926018	3584.411619
390.310008	3657.435253
390.693936	3675.285979
391.077802	3714.745611
391.461606	3706.805793
391.845348	3769.427007
392.229027	3771.493880
392.612645	3782.755817
392.996200	3860.180379
393.379694	3895.614649
393.763125	3962.619145
394.146494	3931.795010
394.529801	3994.275071
394.913047	4041.334242
395.296230	4006.308305
395.679351	4065.975402
396.062410	4086.046756
396.445408	4066.673602
396.828343	4099.920012
397.211217	4124.828353
397.594028	4042.014798
397.976778	4107.685909
398.359466	4134.519971
398.742092	4165.772604
399.124656	4085.638423
399.507158	4165.455012
399.889598	4195.129764
400.271977	4251.822580
400.654294	4226.760483
401.036549	4233.868510
401.418742	4202.883058
401.800874	4303.685971
402.182944	4324.246317
402.564952	4389.201584
402.946898	4380.036766
403.328783	4375.416549
403.710606	4289.336326
404.092367	4480.900172
404.474067	4442.640335
404.855705	4452.833548
405.237282	4380.437538
405.618797	4490.584229
406.000250	4524.634703
406.381642	4606.044296
406.762972	4568.699428
407.144240	4577.390378
407.525447	4575.832661
407.906593	4636.306342
408.287677	4680.179504
408.668700	4609.764667
409.049661	4658.137059
409.430560	4702.970561
409.811399	4627.335609
410.192176	4789.552378
410.572891	4729.323193
410.953545	4832.528215
411.334138	4709.478691
411.714669	4777.539309
412.095139	4674.546015
412.475547	4812.482067
412.855894	4796.738543
413.236180	4802.825736
413.616405	4756.043829
413.996568	4850.484805
414.376670	4788.224034
414.756711	4742.137806
415.136691	4772.578813
415.516609	4854.091750
415.896466	4891.411412
416.276262	4922.101957
416.655997	4902.769132
417.035670	5090.678142
417.415283	5170.819885
417.794834	5122.462617
418.174324	5077.926543
418.553753	4979.492973
418.933121	5166.519781
419.312428	5234.298094
419.691674	5177.305329
420.070859	5301.017765
420.449983	5210.745823
420.829045	5324.418801
421.208047	5233.738526
421.586988	5306.613446
421.965867	5316.005116
422.344686	5445.940856
422.723444	5304.531449
423.102141	5122.959170
423.480777	5417.919602
423.859352	5188.093398
424.237866	5446.790290
424.616319	5437.784269
424.994712	5550.144027
425.373044	5427.583494
425.751314	5569.504578
426.129524	5374.313622
426.507673	5564.927210
426.885762	5646.641793
427.263789	5580.887503
427.641756	5463.007682
428.019662	5586.452937
428.397508	5588.950829
428.775292	5539.663468
429.153016	5635.634434
429.530679	5561.652981
429.908282	5651.430890
430.285824	5512.758830
430.663305	5794.907169
431.040726	5526.687538
431.418086	5526.178381
431.795385	5629.383403
432.172624	5645.948635
432.549802	5640.322707
432.926920	5655.007588
433.303977	5661.543444
433.680974	5698.490061
434.057910	5715.690478
434.434786	5717.182659
434.811601	5689.579821
435.188355	5923.761582
435.565050	5800.389424
435.941683	5779.917298
436.318257	5998.088354
436.694770	5977.233101
437.071222	6010.023286
437.447614	5942.607936
437.823946	5855.617785
438.200218	6011.046640
438.576429	5876.188213
438.952580	5972.779242
439.328670	6017.983268
439.704700	5925.664618
440.080670	5913.104583
440.456580	6180.310942
440.832429	6065.135701
441.208218	5906.286422
441.583947	6067.126956
441.959616	6066.300207
442.335224	5997.533828
442.710773	6130.138859
443.086261	6157.363610
443.461689	5954.401715
443.837057	6100.433860
444.212365	6254.463795
444.587612	6147.142671
444.962800	6302.395086
445.337927	6278.578154
445.712995	5887.707250
446.088002	6463.714529
446.462949	6293.583149
446.837837	6224.577314
447.212664	6392.803139
447.587431	6535.311517
447.962139	7076.345792
448.336786	7995.252356
448.711374	7733.651759
449.085901	6808.721016
449.460369	6723.449899
449.834776	6653.335011
450.209124	7039.598301
450.583412	7183.893768
450.957640	7320.302350
451.331808	7090.695436
451.705917	6637.107537
452.079965	6554.470422
452.453954	6761.324088
452.827883	6632.058821
453.201752	6718.993519
453.575562	6513.929463
453.949311	6704.782506
454.323001	6584.808086
454.696632	6651.300905
455.070202	6772.538135
455.443713	6915.255721
455.817164	6997.358473
456.190556	7066.321457
456.563888	7119.750126
456.937160	7152.421844
457.310373	6813.290822
457.683526	6824.719118
458.056619	6705.654626
458.429653	6675.649678
458.802628	6601.673266
459.175542	6684.728796
459.548398	7000.549523
459.921194	7125.098791
460.293930	7106.922910
460.666607	7554.963020
461.039224	7807.383676
461.411782	7901.519662
461.784280	7897.869867
462.156719	7772.400588
462.529099	7624.316694
462.901419	7233.748259
463.273680	7115.248376
463.645882	7105.975173
464.018024	6955.549663
464.390106	7065.131745
464.762130	7359.091508
465.134094	7706.706792
465.505999	8490.966658
465.877845	9440.581411
466.249631	9932.202295
466.621358	9590.459956
466.993026	9019.309828
467.364634	8765.225592
467.736184	8414.383969
468.107674	8088.357426
468.479105	8041.837659
468.850477	7819.058988
469.221790	7576.027482
469.593043	7270.604135
469.964238	7099.832527
470.335373	7059.094963
470.706449	7036.790378
471.077467	6964.611137
471.448425	7818.877506
471.819324	8491.561514
472.190164	8452.232952
472.560945	7521.051178
472.931667	6906.446304
473.302330	6756.134220
473.672934	6456.215813
474.043479	6618.109948
474.413965	6519.812489
474.784393	6362.483119
475.154761	6400.629530
475.525070	6374.564244
475.895321	6213.514502
476.265513	6243.995839
476.635645	6279.384739
477.005719	6193.803591
477.375734	6188.507859
477.745691	6240.472073
478.115588	6235.650209
478.485427	6273.300066
478.855207	6466.101516
479.224928	6770.761128
479.594591	6994.348904
479.964194	6805.335882
480.333739	6689.159971
480.703226	6530.003182
481.072653	6482.449978
481.442022	6483.390153
481.811333	6477.023176
482.180584	6303.794006
482.549777	6078.393935
482.918912	5926.181336
483.287988	5839.501216
483.657005	5765.993631
484.025964	5565.970729
484.394864	5514.240929
484.763706	5412.623870
485.132489	5256.648050
485.501213	5161.743287
485.869879	5107.813023
486.238487	4972.236232
486.607036	4939.504020
486.975527	4798.939007
487.343959	4779.777581
487.712333	4716.667376
488.080648	4632.825426
488.448905	4567.083738
488.817104	4488.955936
489.185244	4477.825068
489.553326	4446.983289
489.921350	4505.932022
490.289315	4656.959950
490.657222	4659.281401
491.025070	4565.193306
491.392861	4467.780569
491.760593	4320.011747
492.128267	4184.661808
492.495883	4062.060946
492.863440	3947.944347
493.230939	3837.071729
493.598380	3775.310033
493.965763	3699.962427
494.333088	3647.012668
494.700354	3584.225097
495.067563	3552.453224
495.434713	3485.189109
495.801805	3465.195892
496.168839	3416.609252
496.535815	3367.165615
496.902733	3334.725790
497.269593	3289.362967
497.636395	3268.381685
498.003139	3227.818040
498.369825	3188.219777
498.736453	3165.148936
499.103023	3135.867394
499.469535	3105.093670
499.835989	3076.631316
500.202385	3050.548386
500.568723	3013.881553
500.935003	3008.560615
501.301226	2969.292548
501.667390	2963.659058
502.033497	2948.351594
502.399546	2918.523087
502.765537	2895.200189
503.131470	2880.434649
503.497345	2869.265973
503.863163	2842.043742
504.228923	2836.017043
504.594625	2824.281237
504.960269	2800.728966
505.325856	2793.653706
505.691385	2777.164092
506.056856	2769.504059
506.422270	2756.807913
506.787625	2747.625451
507.152924	2738.032135
507.518164	2732.993502
507.883347	2721.078735
508.248472	2715.510781
508.613540	2710.509956
508.978550	2700.248687
509.343503	2696.616536
509.708398	2691.046061
510.073236	2688.137315
510.438016	2682.715554
510.802738	2676.217507
511.167403	2671.153668
511.532010	2668.076043
511.896561	2668.189469
512.261053	2665.283244
512.625488	2657.063643
512.989866	2652.410658
513.354186	2651.417551
513.718449	2644.243989
514.082655	2648.062663
514.446803	2643.949081
514.810894	2645.610141
515.174927	2641.972949
515.538904	2637.234264
515.902822	2639.825417
516.266684	2634.464150
516.630488	2633.902062
516.994235	2632.278810
517.357925	2631.220168
517.721558	2632.505662
518.085133	2630.784108
518.448651	2629.448202
518.812112	2624.618777
519.175516	2624.429733
519.538863	2625.064919
519.902152	2624.008797
520.265385	2624.442336
520.628560	2623.615587
520.991678	2620.633745
521.354739	2621.226080
521.717743	2622.312449
522.080690	2618.569392
522.443580	2621.301697
522.806413	2620.190123
523.169189	2617.104937
523.531908	2620.225411
523.894569	2617.455297
524.257174	2615.605194
524.619722	2612.940944
524.982213	2616.131994
525.344647	2614.622169
525.707025	2615.143928
526.069345	2616.870523
526.431608	2610.780809
526.793815	2613.845831
527.155964	2612.162086
527.518057	2611.552106
527.880093	2612.940944
528.242072	2609.490274
528.603995	2609.515480
528.965860	2607.191508
529.327669	2607.501539
529.689421	2609.565891
530.051117	2610.432970
530.412755	2607.279728
530.774337	2608.540017
531.135862	2608.229986
531.497331	2602.815786
531.858743	2602.876280
532.220098	2605.774944
532.581396	2599.279417
532.942638	2605.321240
533.303824	2604.628081
533.664953	2606.029522
534.026025	2601.863008
534.387040	2607.677979
534.747999	2604.973400
535.108902	2604.733945
535.469748	2602.147833
535.830537	2605.296034
536.191270	2603.186311
536.551947	2604.784357
536.912567	2604.091198
537.273131	2605.553133
537.633638	2603.821497
537.994089	2600.927874
538.354483	2601.759665
538.714821	2603.128338
539.075103	2601.285796
539.435328	2603.864346
539.795497	2600.708584
540.155609	2604.466764
540.515665	2603.385437
540.875665	2600.660693
541.235609	2600.385950
541.595496	2604.063472
541.955328	2603.236723
542.315102	2604.799480
542.674821	2604.625561
543.034483	2601.222782
543.394090	2599.380240
543.753640	2605.404419
544.113134	2601.608430
544.472571	2603.917278
544.831953	2602.243615
545.191278	2602.326794
545.550548	2603.488780
545.909761	2602.609099
546.268918	2600.895107
546.628019	2602.513317
546.987064	2601.038780
547.346053	2603.456013
547.704986	2596.960486
548.063863	2603.766044
548.422684	2599.939808
548.781449	2602.992227
549.140158	2602.135231
549.498811	2604.010540
549.857408	2600.045672
550.215949	2600.214551
550.574434	2597.648604
550.932864	2600.733790
551.291237	2599.627257
551.649555	2602.967021
552.007817	2601.752103
552.366022	2603.619850
552.724173	2601.895776
553.082267	2599.730600
553.440305	2604.330653
553.798288	2601.318564
554.156215	2601.759665
554.514086	2600.612802
554.871902	2600.738831
555.229661	2602.707402
555.587365	2602.634305
555.945014	2600.953080
556.302606	2600.547267
556.660143	2600.723707
557.017625	2599.937288
557.375050	2601.338728
557.732421	2602.160436
558.089735	2601.411825
558.446994	2602.742690
558.804197	2603.168667
559.161345	2601.575662
559.518437	2599.511310
559.875474	2602.349480
560.232455	2601.931064
560.589381	2600.154057
560.946251	2604.754110
561.303065	2602.898965
561.659825	2603.793770
562.016528	2603.037597
562.373177	2600.305292
562.729770	2600.136413
563.086307	2600.136413
563.442789	2600.963162
563.799216	2602.921651
564.155587	2601.389140
564.511904	2601.215220
564.868164	2598.329159
565.224370	2603.433328
565.580520	2603.055241
565.936615	2600.522061
566.292654	2597.194900
566.648638	2601.941146
567.004567	2602.059613
567.360441	2599.758327
567.716260	2597.472163
568.072023	2601.368975
568.427732	2596.831937
568.783385	2597.247832
569.138982	2596.784046
569.494525	2597.152050
569.850013	2595.657348
570.205445	2598.379571
570.560823	2599.392843
570.916145	2597.724221
571.271412	2597.643562
571.626625	2598.480394
571.981782	2600.285127
572.336884	2600.065837
572.691931	2598.921495
573.046923	2597.527616
573.401860	2596.733634
573.756743	2595.947214
574.111570	2597.320929
574.466342	2598.981989
574.821059	2598.634149
575.175722	2595.284302
575.530330	2594.734817
575.884882	2596.244642
576.239380	2595.218767
576.593823	2595.783377
576.948211	2596.423603
577.302544	2597.290682
577.656823	2596.030393
578.011047	2597.774632
578.365216	2596.630291
578.719330	2597.525095
579.073389	2591.314394
579.427394	2593.850094
579.781344	2594.838160
580.135239	2592.914960
580.489080	2596.146340
580.842866	2591.203488
581.196597	2597.494848
581.550273	2596.098449
581.903895	2592.912440
582.257463	2593.905547
582.610975	2595.337235
582.964434	2591.379929
583.317837	2593.207347
583.671186	2594.964189
584.024481	2592.131061
584.377721	2590.492686
584.730906	2595.122986
585.084037	2596.496700
585.437113	2590.638879
585.790135	2593.240115
586.143103	2590.956472
586.496016	2593.328335
586.848874	2587.193251
587.201679	2587.919177
587.554428	2587.982191
587.907124	2591.760536
588.259765	2588.398086
588.612352	2592.584765
588.964884	2591.967223
589.317362	2589.300453
589.669786	2589.192068
590.022155	2593.920670
590.374470	2591.203488
590.726731	2591.667275
591.078937	2590.222984
591.431090	2588.813982
591.783188	2588.889599
592.135232	2591.962182
592.487222	2588.992942
592.839157	2591.400093
593.191038	2588.491348
593.542866	2589.098807
593.894639	2590.966554
594.246358	2587.334403
594.598022	2588.221646
594.949633	2589.108889
595.301190	2587.893971
595.652692	2589.444126
596.004141	2587.084866
596.355535	2591.248859
596.706876	2584.518918
597.058162	2587.815833
597.409395	2586.868096
597.760573	2586.971440
598.111698	2588.085535
598.462768	2585.053281
598.813785	2585.660740
599.164748	2587.715010
599.515657	2587.432705
599.866511	2585.759042
600.217312	2586.588312
600.568060	2586.106882
600.918753	2588.942531
601.269392	2583.858527
601.619978	2582.799885
601.970510	2586.744588
602.320988	2584.024885
602.671412	2586.709300
603.021783	2587.523446
603.372100	2588.382963
603.722363	2587.798189
604.072572	2586.926069
604.422728	2586.757191
604.772830	2579.563464
605.122878	2579.432394
605.472872	2585.988415
605.822813	2579.581108
606.172701	2582.683938
606.522534	2584.271902
606.872314	2587.500761
607.222041	2587.210895
607.571714	2586.573189
607.921333	2584.728126
608.270899	2584.266861
608.620411	2587.188209
608.969870	2587.404979
609.319276	2585.975812
609.668627	2586.525298
610.017926	2591.979826
610.367171	2594.240784
610.716362	2592.693149
611.065500	2589.552511
611.414585	2589.060998
611.763616	2590.878334
612.112594	2590.454877
612.461518	2589.527305
612.810389	2588.645103
613.159207	2588.811461
613.507971	2586.064032
613.856682	2586.409351
614.205340	2585.580081
614.553945	2589.590319
614.902496	2588.934969
615.250994	2586.598394
615.599439	2588.415730
615.947830	2588.299784
616.296169	2585.794330
616.644454	2586.757191
616.992686	2588.173755
617.340864	2590.343972
617.688990	2584.249217
618.037063	2587.047057
618.385082	2587.097469
618.733048	2585.494382
619.080961	2588.564444
619.428821	2588.219125
619.776628	2584.811305
620.124382	2586.608477
620.472083	2585.945565
620.819731	2586.807602
621.167326	2587.634352
621.514868	2586.023703
621.862357	2585.043198
622.209793	2583.104875
622.557176	2585.254927
622.904506	2581.569843
623.251783	2578.726633
623.599007	2581.837025
623.946179	2580.675039
624.293297	2580.687642
624.640363	2580.743094
624.987376	2582.792323
625.334336	2580.796026
625.681243	2580.493557
626.028097	2580.985070
626.374899	2582.199988
626.721647	2580.576736
627.068343	2579.717219
627.414987	2579.742425
627.761577	2580.390213
628.108115	2580.117991
628.454600	2579.936510
628.801032	2580.428022
629.147412	2580.584298
629.493739	2579.417271
629.840014	2581.763928
630.186236	2578.593042
630.532405	2578.010789
630.878521	2575.734708
631.224585	2580.133115
631.570597	2579.238310
631.916556	2579.397106
632.262462	2577.173957
632.608316	2578.777044
632.954117	2576.959708
633.299866	2577.438618
633.645562	2578.431725
633.991206	2575.664132
634.336797	2576.853844
634.682336	2577.720922
635.027823	2576.455593
635.373257	2575.621282
635.718639	2572.407546
636.063968	2573.461147
636.409245	2569.156002
636.754470	2573.985427
637.099642	2572.667166
637.444762	2576.074986
637.789829	2573.453586
638.134845	2574.567681
638.479808	2575.500294
638.824719	2572.019378
639.169577	2572.856209
639.514383	2573.133473
639.859137	2571.180025
640.203839	2572.296641
640.548489	2572.402505
640.893086	2570.628019
641.237632	2567.124417
641.582125	2570.247412
641.926566	2564.717266
642.270955	2571.976528
642.615292	2571.059038
642.959576	2569.725652
643.303809	2571.734552
643.647990	2571.946281
643.992118	2570.633060
644.336195	2570.731363
