Dividing Wavelength (nm)	Counts (n)	Blue Motor Position (mm): 0.000000	Red Motor Position (mm): 32.600000	
326.493990	2127.326594
326.888308	2127.326594
327.282561	2127.326594
327.676750	2094.407859
328.070874	2094.690164
328.464933	2098.133272
328.858929	2104.107039
329.252859	2113.385283
329.646726	2124.664865
330.040528	2137.512245
330.434265	2154.397590
330.827938	2171.613130
331.221547	2190.333455
331.615091	2206.117308
332.008571	2225.031717
332.401986	2247.820253
332.795338	2264.887079
333.188625	2284.366098
333.581847	2304.649180
333.975006	2322.620894
334.368100	2342.044460
334.761129	2359.254959
335.154095	2376.805736
335.546996	2392.423231
335.939833	2412.280336
336.332606	2430.325146
336.725315	2437.113059
337.117960	2450.830039
337.510540	2458.923612
337.903056	2469.815024
338.295508	2478.079996
338.687896	2486.672643
339.080220	2493.468118
339.472480	2499.474653
339.864676	2503.840292
340.256807	2506.993534
340.648875	2513.421005
341.040879	2513.869668
341.432818	2516.317148
341.824694	2516.402848
342.216506	2519.906450
342.608253	2521.673374
342.999937	2517.166583
343.391557	2516.967457
343.783113	2517.222035
344.174605	2513.501664
344.566033	2512.816067
344.957397	2513.244565
345.348697	2508.699965
345.739934	2507.656446
346.131106	2508.195849
346.522215	2505.927330
346.913260	2506.161744
347.304241	2503.106804
347.695159	2501.284427
348.086012	2501.294510
348.476802	2498.872235
348.867528	2498.824344
349.258191	2497.359889
349.648789	2493.533653
350.039324	2491.497027
350.429796	2492.399394
350.820203	2489.052068
351.210548	2490.967706
351.600828	2490.181286
351.991045	2489.987202
352.381198	2489.452839
352.771288	2485.596357
353.161314	2486.375215
353.551276	2486.710452
353.941175	2489.687253
354.331010	2488.542911
354.720782	2488.245483
355.110490	2487.915287
355.500135	2486.581902
355.889717	2486.959989
356.279235	2486.871768
356.668689	2489.218426
357.058080	2486.251707
357.447408	2486.458394
357.836672	2483.839514
358.225873	2487.562407
358.615010	2484.444453
359.004084	2491.060967
359.393095	2491.328148
359.782043	2491.383601
360.170927	2491.544918
360.559748	2490.065339
360.948505	2494.546925
361.337199	2490.292191
361.725830	2497.511124
362.114398	2494.932573
362.502903	2496.336535
362.891344	2495.366113
363.279722	2498.695795
363.668037	2498.907523
364.056289	2498.310147
364.444478	2499.262925
364.832603	2500.427431
365.220665	2500.835765
365.608665	2501.992709
365.996601	2500.750065
366.384474	2500.886176
366.772284	2505.755931
367.160031	2503.565549
367.547715	2506.081085
367.935336	2510.797085
368.322893	2513.920079
368.710388	2516.796058
369.097820	2522.348889
369.485189	2525.696215
369.872495	2532.516896
370.259738	2538.644418
370.646918	2545.220604
371.034035	2554.619835
371.421090	2562.804148
371.808081	2573.476271
372.195010	2584.060173
372.581875	2596.819334
372.968678	2609.152517
373.355418	2620.091821
373.742096	2640.228710
374.128710	2652.486275
374.515262	2667.193842
374.901751	2683.663291
375.288177	2694.221988
375.674540	2720.017572
376.060841	2736.260170
376.447079	2756.956627
376.833254	2777.610234
377.219367	2788.148766
377.605417	2826.345589
377.991404	2840.841427
378.377329	2856.547142
378.763191	2875.214534
379.148991	2914.603590
379.534727	2937.986982
379.920402	2965.123513
380.306013	2978.782520
380.691563	3028.679860
381.077049	3046.971687
381.462474	3067.194276
381.847835	3102.237857
382.233134	3128.877834
382.618371	3126.856332
383.003545	3197.248483
383.388657	3205.281562
383.773706	3237.746593
384.158693	3254.077411
384.543618	3279.716719
384.928480	3314.077224
385.313280	3361.892568
385.698017	3358.058770
386.082692	3414.260074
386.467305	3415.507760
386.851856	3448.885239
387.236344	3468.122282
387.620770	3506.596368
388.005133	3531.292981
388.389435	3558.122002
388.773674	3568.899989
389.157851	3610.497070
389.541965	3626.480048
389.926018	3589.861107
390.310008	3662.118485
390.693936	3681.224458
391.077802	3719.943040
391.461606	3709.240671
391.845348	3774.629477
392.229027	3770.339455
392.612645	3786.773617
392.996200	3866.038199
393.379694	3906.846340
393.763125	3964.958241
394.146494	3933.065381
394.529801	3998.360926
394.913047	4045.331877
395.296230	4009.143954
395.679351	4066.292995
396.062410	4090.624124
396.445408	4072.133172
396.828343	4102.934622
397.211217	4127.495123
397.594028	4048.185170
397.976778	4111.933081
398.359466	4142.900889
398.742092	4168.212523
399.124656	4092.759053
399.507158	4173.510775
399.889598	4196.853838
400.271977	4258.769290
400.654294	4227.264599
401.036549	4240.351434
401.418742	4207.455385
401.800874	4310.768792
402.182944	4331.828212
402.564952	4395.079569
402.946898	4383.885687
403.328783	4382.685892
403.710606	4295.252120
404.092367	4486.190863
404.474067	4450.171819
404.855705	4455.039053
405.237282	4387.656470
405.618797	4495.837111
406.000250	4529.166700
406.381642	4607.423052
406.762972	4572.719748
407.144240	4582.713836
407.525447	4579.951284
407.906593	4641.849091
408.287677	4679.584648
408.668700	4612.378506
409.049661	4660.980270
409.430560	4705.476014
409.811399	4628.646309
410.192176	4791.135301
410.572891	4732.206733
410.953545	4835.361343
411.334138	4719.079568
411.714669	4780.523672
412.095139	4677.245553
412.475547	4818.753262
412.855894	4798.583605
413.236180	4810.725224
413.616405	4761.400055
413.996568	4850.126883
414.376670	4790.222852
414.756711	4750.352366
415.136691	4778.313126
415.516609	4857.040825
415.896466	4891.615579
416.276262	4928.151342
416.655997	4909.282303
417.035670	5091.547741
417.415283	5181.670968
417.794834	5122.558398
418.174324	5080.011060
418.553753	4980.672603
418.933121	5167.996839
419.312428	5239.409824
419.691674	5180.952604
420.070859	5303.447601
420.449983	5214.105752
420.829045	5328.676056
421.208047	5237.151387
421.586988	5308.017407
421.965867	5321.799922
422.344686	5449.278100
422.723444	5309.302902
423.102141	5129.437053
423.480777	5425.015026
423.859352	5192.915262
424.237866	5452.658193
424.616319	5442.238128
424.994712	5552.034459
425.373044	5431.697076
425.751314	5572.546914
426.129524	5374.152305
426.507673	5570.381739
426.885762	5651.942567
427.263789	5584.426393
427.641756	5466.932221
428.019662	5588.986117
428.397508	5594.480975
428.775292	5540.865783
429.153016	5639.092666
429.530679	5560.997631
429.908282	5649.313605
430.285824	5523.577146
430.663305	5794.261902
431.040726	5533.432602
431.418086	5535.396131
431.795385	5636.625021
432.172624	5651.619933
432.549802	5641.119209
432.926920	5661.581253
433.303977	5664.565616
433.680974	5699.170617
434.057910	5721.235747
434.434786	5724.426797
434.811601	5692.055028
435.188355	5928.838024
435.565050	5801.201050
435.941683	5789.346777
436.318257	6001.662533
436.694770	5981.951621
437.071222	6019.062075
437.447614	5948.871569
437.823946	5860.658939
438.200218	6013.907495
438.576429	5879.651486
438.952580	5976.025745
439.328670	6021.547364
439.704700	5929.306851
440.080670	5914.095170
440.456580	6188.200348
440.832429	6069.559313
441.208218	5915.670530
441.583947	6074.514767
441.959616	6075.011321
442.335224	6007.041444
442.710773	6143.016486
443.086261	6170.203429
443.461689	5963.445545
443.837057	6109.452484
444.212365	6266.862513
444.587612	6155.919320
444.962800	6310.612167
445.337927	6298.059693
445.712995	5905.399179
446.088002	6480.456201
446.462949	6311.481766
446.837837	6242.062557
447.212664	6413.406335
447.587431	6558.221041
447.962139	7098.599965
448.336786	8023.263527
448.711374	7763.918847
449.085901	6840.540779
449.460369	6759.579849
449.834776	6692.643408
450.209124	7085.152688
450.583412	7238.859989
450.957640	7388.917495
451.331808	7148.809858
451.705917	6698.407967
452.079965	6618.903930
452.453954	6832.946281
452.827883	6710.272323
453.201752	6804.743546
453.575562	6606.384224
453.949311	6810.518188
454.323001	6695.985693
454.696632	6771.608042
455.070202	6907.893115
455.443713	7061.328194
455.817164	7166.559760
456.190556	7244.248982
456.563888	7319.215981
456.937160	7362.746345
457.310373	7020.106679
457.683526	7046.608025
458.056619	6935.196005
458.429653	6923.404746
458.802628	6856.939653
459.175542	6964.641384
459.548398	7320.685478
459.921194	7481.142884
460.293930	7486.473904
460.666607	8015.782455
461.039224	8325.987336
461.411782	8447.191798
461.784280	8472.266498
462.156719	8357.489507
462.529099	8234.371927
462.901419	7824.405132
463.273680	7719.402938
463.645882	7728.683702
464.018024	7601.306348
464.390106	7766.250381
464.762130	8150.328331
465.134094	8626.624108
465.505999	9643.780240
465.877845	10860.992042
466.249631	11508.046823
466.621358	11122.758996
466.993026	10493.171813
467.364634	10240.499100
467.736184	9871.554694
468.107674	9541.454899
468.479105	9579.142565
468.850477	9343.589611
469.221790	9110.592521
469.593043	8786.448849
469.964238	8646.166141
470.335373	8657.591916
470.706449	8714.942603
471.077467	8696.391156
471.448425	10004.933543
471.819324	11074.079094
472.190164	11105.881213
472.560945	9858.263692
472.931667	9062.343638
473.302330	8930.537629
473.672934	8574.430521
474.043479	8937.602806
474.413965	8871.997230
474.784393	8753.419209
475.154761	8910.408302
475.525070	8990.993667
475.895321	8824.701125
476.265513	9001.668310
476.635645	9168.863218
477.005719	9165.881376
477.375734	9285.563409
477.745691	9509.372996
478.115588	9650.900870
478.485427	9885.145645
478.855207	10420.793447
479.224928	11233.253527
479.594591	11862.659229
479.964194	11667.919456
480.333739	11607.065167
480.703226	11524.236489
481.072653	11611.115734
481.442022	11851.460305
481.811333	12029.334898
482.180584	11841.294819
482.549777	11544.506968
482.918912	11366.599608
483.287988	11386.698688
483.657005	11388.732794
484.025964	11066.522405
484.394864	11194.572753
484.763706	11158.954481
485.132489	10914.340052
485.501213	10874.981244
485.869879	10944.072778
486.238487	10782.115628
486.607036	10886.737214
486.975527	10659.388738
487.343959	10844.106697
487.712333	10884.088088
488.080648	10800.319235
488.448905	10839.851963
488.817104	10765.686508
489.185244	11022.019098
489.553326	11162.566468
489.921350	11677.016218
490.289315	12676.424968
490.657222	13015.072039
491.025070	12907.939958
491.392861	12762.694233
491.760593	12384.811862
492.128267	12038.192206
492.495883	11704.936648
492.863440	11369.498271
493.230939	11024.585046
493.598380	10945.259969
493.965763	10793.672473
494.333088	10689.146669
494.700354	10590.188819
495.067563	10629.288008
495.434713	10448.643301
495.801805	10553.905114
496.168839	10453.341657
496.535815	10372.295026
496.902733	10353.128559
497.269593	10266.072873
497.636395	10341.604482
498.003139	10296.118150
498.369825	10151.079113
498.736453	10266.277040
499.103023	10172.367906
499.469535	10172.372947
499.835989	10139.645776
500.202385	10070.055168
500.568723	9903.540815
500.935003	10074.952649
501.301226	9858.140184
501.667390	10070.395446
502.033497	10122.006779
502.399546	9962.479465
502.765537	9840.314664
503.131470	9862.616728
503.497345	9982.538217
503.863163	9607.675496
504.228923	9840.397843
504.594625	9851.115336
504.960269	9592.879709
505.325856	9739.267255
505.691385	9515.863482
506.056856	9608.277914
506.422270	9577.032842
506.787625	9448.662380
507.152924	9485.480447
507.518164	9433.430534
507.883347	9312.006782
508.248472	9194.638638
508.613540	9331.294236
508.978550	9193.658133
509.343503	9115.384138
509.708398	9161.356940
510.073236	9192.438174
510.438016	9147.206421
510.802738	9045.269249
511.167403	9033.493114
511.532010	8882.311431
511.896561	9012.539558
512.261053	9005.968414
512.625488	8841.402467
512.989866	8768.386395
513.354186	8697.482566
513.718449	8564.083553
514.082655	8643.852251
514.446803	8501.976538
514.810894	8527.683902
515.174927	8364.952935
515.538904	8327.083787
515.902822	8354.492541
516.266684	8218.378866
516.630488	8111.375335
516.994235	8098.948891
517.357925	8053.235707
517.721558	8046.538535
518.085133	7984.829770
518.448651	7933.311699
518.812112	7792.459340
519.175516	7729.618836
519.538863	7730.904331
519.902152	7626.063454
520.265385	7630.033363
520.628560	7523.513782
520.991678	7427.746982
521.354739	7403.541882
521.717743	7299.132024
522.080690	7222.382977
522.443580	7208.113992
522.806413	7121.343131
523.169189	7071.662560
523.531908	7029.909203
523.894569	6873.106633
524.257174	6796.818852
524.619722	6784.452902
524.982213	6706.093206
525.344647	6648.550956
525.707025	6564.159520
526.069345	6539.457866
526.431608	6429.321257
526.793815	6412.856849
527.155964	6253.710142
527.518057	6216.156067
527.880093	6130.030474
528.242072	6097.227686
528.603995	5985.319112
528.965860	5896.176388
529.327669	5850.866498
529.689421	5773.789776
530.051117	5702.344023
530.412755	5670.176420
530.774337	5581.830199
531.135862	5502.454711
531.497331	5460.935768
531.858743	5347.625753
532.220098	5347.373695
532.581396	5248.156226
532.942638	5191.934758
533.303824	5123.548985
533.664953	5067.604780
534.026025	4990.328933
534.387040	4964.301456
534.747999	4918.414353
535.108902	4877.921285
535.469748	4763.643368
535.830537	4738.702259
536.191270	4680.963404
536.551947	4639.230212
536.912567	4586.461934
537.273131	4526.996483
537.633638	4474.636539
537.994089	4420.875153
538.354483	4367.373388
538.714821	4358.992469
539.075103	4314.060665
539.435328	4262.716513
539.795497	4190.265050
540.155609	4171.600178
540.515665	4149.582939
540.875665	4065.035227
541.235609	4031.428375
541.595496	3995.121985
541.955328	3977.626660
542.315102	3927.474741
542.674821	3880.607134
543.034483	3843.264787
543.394090	3806.197183
543.753640	3765.071450
544.113134	3759.526180
544.472571	3708.391236
544.831953	3691.639482
545.191278	3634.384577
545.550548	3607.081688
545.909761	3594.201540
546.268918	3560.370357
546.628019	3537.589382
546.987064	3493.885099
547.346053	3461.833443
547.704986	3436.070626
548.063863	3409.481060
548.422684	3387.766290
548.781449	3350.086186
549.140158	3339.398939
549.498811	3300.307312
549.857408	3267.428907
550.215949	3255.622524
550.574434	3225.158832
550.932864	3205.452961
551.291237	3196.124306
551.649555	3168.176149
552.007817	3154.305414
552.366022	3136.870584
552.724173	3112.365535
553.082267	3097.279882
553.440305	3083.444435
553.798288	3058.621794
554.156215	3046.273487
554.514086	3032.475849
554.871902	3009.520955
555.229661	2995.592247
555.587365	2978.974083
555.945014	2964.969758
556.302606	2950.010134
556.660143	2937.860953
557.017625	2927.569438
557.375050	2909.673342
557.732421	2903.994482
558.089735	2891.573079
558.446994	2881.508415
558.804197	2871.668083
559.161345	2857.429344
559.518437	2844.841582
559.875474	2837.826817
560.232455	2828.692246
560.589381	2816.956440
560.946251	2811.486788
561.303065	2804.096457
561.659825	2793.983902
562.016528	2782.621141
562.373177	2773.720984
562.729770	2770.461878
563.086307	2763.331166
563.442789	2758.801689
563.799216	2748.928589
564.155587	2744.136973
564.511904	2737.817886
564.868164	2732.673389
565.224370	2729.530229
565.580520	2718.537993
565.936615	2717.456666
566.292654	2707.039122
566.648638	2709.471478
567.004567	2702.955787
567.360441	2702.217258
567.716260	2696.361958
568.072023	2693.128057
568.427732	2684.714372
568.783385	2684.898374
569.138982	2681.893846
569.494525	2677.961746
569.850013	2671.579645
570.205445	2674.863957
570.560823	2671.015036
570.916145	2670.755417
571.271412	2667.382885
571.626625	2664.010353
571.981782	2662.548418
572.336884	2658.843170
572.691931	2660.884837
573.046923	2654.623724
573.401860	2657.134219
573.756743	2653.151707
574.111570	2651.104999
574.466342	2649.038126
574.821059	2648.589463
575.175722	2644.929586
575.530330	2642.726601
575.884882	2644.526293
576.239380	2643.117291
576.593823	2641.741056
576.948211	2637.594707
577.302544	2636.853657
577.656823	2635.802577
578.011047	2634.242339
578.365216	2632.364510
578.719330	2632.230919
579.073389	2628.296298
579.427394	2628.671864
579.781344	2626.320166
580.135239	2629.264200
580.489080	2625.745475
580.842866	2625.503499
581.196597	2625.634569
581.550273	2624.379322
581.903895	2623.512243
582.257463	2622.448560
582.610975	2621.843622
582.964434	2622.423354
583.317837	2618.854217
583.671186	2623.275309
584.024481	2622.249434
584.377721	2620.767335
584.730906	2617.851028
585.084037	2619.607870
585.437113	2617.472941
585.790135	2615.295163
586.143103	2613.709720
586.496016	2614.692745
586.848874	2611.809205
587.201679	2611.113526
587.554428	2609.626385
587.907124	2610.596807
588.259765	2608.033381
588.612352	2612.240223
588.964884	2609.749893
589.317362	2609.744852
589.669786	2610.954729
590.022155	2610.127980
590.374470	2608.887856
590.726731	2608.620675
591.078937	2608.393823
591.431090	2605.883328
591.783188	2607.650253
592.135232	2604.590272
592.487222	2607.829214
592.839157	2605.848040
593.191038	2605.724532
593.542866	2604.612958
593.894639	2606.034563
594.246358	2606.082454
594.598022	2603.511466
594.949633	2603.216558
595.301190	2603.871908
595.652692	2601.973914
596.004141	2605.500201
596.355535	2601.510127
596.706876	2601.230343
597.058162	2599.967534
597.409395	2601.850405
597.760573	2603.695468
598.111698	2601.381578
598.462768	2600.912751
598.813785	2600.897627
599.164748	2599.793615
599.515657	2602.094901
599.866511	2601.500045
600.217312	2599.173553
600.568060	2597.199941
600.918753	2602.036928
601.269392	2600.393512
601.619978	2597.630960
601.970510	2599.118100
602.320988	2598.097266
602.671412	2598.079622
603.021783	2593.565269
603.372100	2600.196907
603.722363	2598.664396
604.072572	2596.761361
604.422728	2598.112390
604.772830	2593.691298
605.122878	2595.213726
605.472872	2597.202462
605.822813	2592.733479
606.172701	2595.478387
606.522534	2600.196907
606.872314	2598.548450
607.222041	2595.057451
607.571714	2596.957966
607.921333	2595.433017
608.270899	2598.160281
608.620411	2597.749427
608.969870	2598.215733
609.319276	2599.070209
609.668627	2603.508945
610.017926	2602.720004
610.367171	2605.656477
610.716362	2605.724532
611.065500	2602.498194
611.414585	2600.695981
611.763616	2599.859150
612.112594	2598.833275
612.461518	2600.335539
612.810389	2600.731269
613.159207	2598.006526
613.507971	2597.464602
613.856682	2599.629777
614.205340	2598.815631
614.553945	2597.341093
614.902496	2597.099118
615.250994	2598.268666
615.599439	2598.498038
615.947830	2600.390991
616.296169	2595.952255
616.644454	2597.091556
616.992686	2595.727924
617.340864	2599.176073
617.688990	2594.356730
618.037063	2598.918974
618.385082	2597.023501
618.733048	2597.998964
619.080961	2595.564087
619.428821	2596.680702
619.776628	2596.456371
620.124382	2598.500559
620.472083	2597.333532
620.819731	2597.913264
621.167326	2593.635845
621.514868	2594.386977
621.862357	2596.968048
622.209793	2595.001998
622.557176	2594.515527
622.904506	2591.931935
623.251783	2591.019486
623.599007	2592.957810
623.946179	2589.008066
624.293297	2590.064188
624.640363	2589.292891
624.987376	2592.143664
625.334336	2591.437902
625.681243	2590.936307
626.028097	2590.129723
626.374899	2590.101996
626.721647	2592.476380
627.068343	2589.237438
627.414987	2589.822212
627.761577	2587.515884
628.108115	2588.992942
628.454600	2588.415730
628.801032	2587.820874
629.147412	2592.194075
629.493739	2588.372881
629.840014	2588.854311
630.186236	2585.817016
630.532405	2585.471697
630.878521	2587.765422
631.224585	2587.105030
631.570597	2587.684763
631.916556	2585.106213
632.262462	2584.544124
632.608316	2584.765935
632.954117	2583.936665
633.299866	2584.831470
633.645562	2584.667632
633.991206	2584.715523
634.336797	2582.363825
634.682336	2585.204515
635.027823	2580.412899
635.373257	2584.962540
635.718639	2581.158989
636.063968	2581.509350
636.409245	2580.458269
636.754470	2580.329720
637.099642	2579.223186
637.444762	2583.777869
637.789829	2581.771490
638.134845	2580.448187
638.479808	2579.986921
638.824719	2579.505491
639.169577	2578.847620
639.514383	2577.665470
639.859137	2577.985583
640.203839	2580.254102
640.548489	2576.357290
640.893086	2573.277145
641.237632	2574.928123
641.582125	2576.405181
641.926566	2574.802094
642.270955	2573.214131
642.615292	2577.110943
642.959576	2577.494071
643.303809	2578.739236
