Dividing Wavelength (nm)	Counts (n)	Blue Motor Position (mm): 0.000000	Red Motor Position (mm): 23.300000	
326.493990	2128.612088
326.888308	2128.612088
327.282561	2128.612088
327.676750	2094.392736
328.070874	2093.775194
328.464933	2097.379619
328.858929	2102.324991
329.252859	2111.623400
329.646726	2125.002622
330.040528	2137.897893
330.434265	2153.107055
330.827938	2171.393840
331.221547	2189.589885
331.615091	2206.936495
332.008571	2230.735783
332.401986	2248.228587
332.795338	2267.299272
333.188625	2285.709565
333.581847	2304.979376
333.975006	2322.172231
334.368100	2341.873060
334.761129	2360.689167
335.154095	2376.079810
335.546996	2395.180742
335.939833	2407.957546
336.332606	2427.330700
336.725315	2435.240271
337.117960	2448.485903
337.510540	2455.351954
337.903056	2467.279324
338.295508	2473.409367
338.687896	2481.545789
339.080220	2491.368478
339.472480	2498.942811
339.864676	2499.852740
340.256807	2507.258195
340.648875	2508.470592
341.040879	2511.336488
341.432818	2514.477127
341.824694	2515.722292
342.216506	2514.101561
342.608253	2515.666839
342.999937	2511.528052
343.391557	2517.637930
343.783113	2514.913187
344.174605	2511.737260
344.566033	2510.809688
344.957397	2513.698269
345.348697	2509.907321
345.739934	2508.042094
346.131106	2508.117711
346.522215	2505.042607
346.913260	2499.096567
347.304241	2500.674448
347.695159	2497.264107
348.086012	2497.286792
348.476802	2493.528612
348.867528	2495.310660
349.258191	2490.093066
349.648789	2490.188848
350.039324	2492.921153
350.429796	2489.828405
350.820203	2486.380256
351.210548	2485.666933
351.600828	2483.242138
351.991045	2481.308855
352.381198	2481.394555
352.771288	2483.290029
353.161314	2483.244658
353.551276	2482.148207
353.941175	2479.930100
354.331010	2482.168372
354.720782	2482.264154
355.110490	2481.623927
355.500135	2483.345481
355.889717	2482.014617
356.279235	2483.499237
356.668689	2484.638537
357.058080	2485.387149
357.447408	2481.414719
357.836672	2481.765080
358.225873	2483.466469
358.615010	2479.914976
359.004084	2486.990236
359.393095	2484.076449
359.782043	2486.947386
360.170927	2486.672643
360.559748	2491.207161
360.948505	2491.900319
361.337199	2491.935607
361.725830	2489.326810
362.114398	2492.222953
362.502903	2490.786224
362.891344	2494.743530
363.279722	2492.381750
363.668037	2492.553149
364.056289	2495.494662
364.444478	2494.844353
364.832603	2496.076915
365.220665	2495.580362
365.608665	2496.767553
365.996601	2496.845691
366.384474	2496.893582
366.772284	2500.245950
367.160031	2501.901969
367.547715	2504.513286
367.935336	2506.461692
368.322893	2508.120232
368.710388	2512.112826
369.097820	2520.161028
369.485189	2518.779752
369.872495	2527.851308
370.259738	2533.714170
370.646918	2542.455531
371.034035	2549.750080
371.421090	2559.179559
371.808081	2569.332442
372.195010	2578.451890
372.581875	2591.112748
372.968678	2607.181426
373.355418	2611.831890
373.742096	2634.315436
374.128710	2647.465286
374.515262	2661.388953
374.901751	2679.476613
375.288177	2691.966072
375.674540	2714.187478
376.060841	2734.158009
376.447079	2751.870103
376.833254	2773.534461
377.219367	2786.081893
377.605417	2823.396514
377.991404	2833.120900
378.377329	2853.277953
378.763191	2871.408463
379.148991	2909.156623
379.534727	2932.509768
379.920402	2962.073615
380.306013	2975.654484
380.691563	3022.033099
381.077049	3045.051008
381.462474	3064.361147
381.847835	3100.216354
382.233134	3124.083697
382.618371	3125.878348
383.003545	3189.187678
383.388657	3201.644369
383.773706	3230.015983
384.158693	3247.730598
384.543618	3273.432921
384.928480	3307.934578
385.313280	3357.370653
385.698017	3354.469469
386.082692	3406.547109
386.467305	3414.489447
386.851856	3444.512038
387.236344	3467.421562
387.620770	3501.156963
388.005133	3523.922814
388.389435	3551.054304
388.773674	3563.833629
389.157851	3604.190586
389.541965	3621.620376
389.926018	3584.923296
390.310008	3657.266375
390.693936	3679.202956
391.077802	3717.825756
391.461606	3708.726473
391.845348	3767.629835
392.229027	3768.053292
392.612645	3780.678862
392.996200	3857.090151
393.379694	3899.319897
393.763125	3963.415648
394.146494	3931.343827
394.529801	3992.011593
394.913047	4039.534550
395.296230	4006.681351
395.679351	4061.957602
396.062410	4083.112805
396.445408	4065.693097
396.828343	4097.807768
397.211217	4125.261892
397.594028	4040.714180
397.976778	4109.306640
398.359466	4132.584168
398.742092	4166.753109
399.124656	4088.711006
399.507158	4167.070701
399.889598	4192.077345
400.271977	4256.336933
400.654294	4222.341912
401.036549	4230.546390
401.418742	4203.082184
401.800874	4304.923574
402.182944	4328.158252
402.564952	4391.195360
402.946898	4377.556518
403.328783	4372.916136
403.710606	4285.426911
404.092367	4478.747600
404.474067	4438.683029
404.855705	4454.877736
405.237282	4378.456364
405.618797	4489.848220
406.000250	4524.158313
406.381642	4602.437350
406.762972	4566.632555
407.144240	4573.561621
407.525447	4573.039862
407.906593	4634.811640
408.287677	4677.290923
408.668700	4605.817444
409.049661	4658.212677
409.430560	4697.221125
409.811399	4625.460300
410.192176	4785.832007
410.572891	4724.342533
410.953545	4828.948996
411.334138	4708.110017
411.714669	4777.549391
412.095139	4672.947969
412.475547	4808.413855
412.855894	4794.550682
413.236180	4801.968740
413.616405	4755.005351
413.996568	4848.438096
414.376670	4785.950474
414.756711	4739.473556
415.136691	4771.671406
415.516609	4846.066233
415.896466	4886.675248
416.276262	4921.030712
416.655997	4902.000356
417.035670	5082.269497
417.415283	5172.717879
417.794834	5118.013798
418.174324	5068.403803
418.553753	4978.025997
418.933121	5160.215818
419.312428	5230.900356
419.691674	5165.037681
420.070859	5292.246158
420.449983	5205.840781
420.829045	5317.393953
421.208047	5228.127722
421.586988	5297.741015
421.965867	5309.597809
422.344686	5439.810813
422.723444	5295.119615
423.102141	5106.648517
423.480777	5409.334517
423.859352	5172.516233
424.237866	5435.256130
424.616319	5419.013533
424.994712	5523.246950
425.373044	5404.240431
425.751314	5540.084404
426.129524	5339.590154
426.507673	5523.246950
426.885762	5597.553558
427.263789	5524.986148
427.641756	5406.677829
428.019662	5511.775805
428.397508	5512.816803
428.775292	5449.920847
429.153016	5539.943252
429.530679	5458.178257
429.908282	5526.647208
430.285824	5391.793822
430.663305	5640.259693
431.040726	5374.414445
431.418086	5361.088154
431.795385	5450.861022
432.172624	5445.935815
432.549802	5423.106950
432.926920	5417.954890
433.303977	5407.320576
433.680974	5422.272639
434.057910	5417.024797
434.434786	5400.812447
434.811601	5352.964335
435.188355	5534.390421
435.565050	5401.104834
435.941683	5362.519842
436.318257	5519.093039
436.694770	5473.044620
437.071222	5473.120237
437.447614	5383.153285
437.823946	5285.052431
438.200218	5376.476277
438.576429	5234.809771
438.952580	5273.122540
439.328670	5274.473570
439.704700	5165.766128
440.080670	5117.071103
440.456580	5281.705105
440.832429	5151.426566
441.208218	4996.819419
441.583947	5070.004370
441.959616	5028.377042
442.335224	4933.003452
442.710773	4983.039425
443.086261	4948.565494
443.461689	4772.271303
443.837057	4819.080937
444.212365	4867.342423
444.587612	4757.536010
444.962800	4797.754336
445.337927	4735.329727
445.712995	4457.247078
446.088002	4729.542483
446.462949	4587.273560
446.837837	4491.680680
447.212664	4541.648597
447.587431	4549.061613
447.962139	4755.522069
448.336786	5136.141787
448.711374	4953.455413
449.085901	4466.399293
449.460369	4364.933469
449.834776	4274.709418
450.209124	4382.769072
450.583412	4370.670302
450.957640	4389.045308
451.331808	4229.281060
451.705917	4005.635311
452.079965	3929.881892
452.453954	3943.805559
452.827883	3855.534955
453.201752	3832.665761
453.575562	3722.574523
453.949311	3727.043506
454.323001	3658.798885
454.696632	3631.488434
455.070202	3616.990076
455.443713	3613.161320
455.817164	3585.228286
456.190556	3550.734191
456.563888	3524.401724
456.937160	3491.984584
457.310373	3381.447204
457.683526	3341.218796
458.056619	3280.430042
458.429653	3241.575349
458.802628	3195.698328
459.175542	3182.054446
459.548398	3199.378371
459.921194	3184.582584
460.293930	3157.748522
460.666607	3193.928883
461.039224	3204.001109
461.411782	3180.653005
461.784280	3139.020636
462.156719	3087.578181
462.529099	3037.529606
462.901419	2967.497897
463.273680	2931.839295
463.645882	2906.935995
464.018024	2871.726056
464.390106	2860.728779
464.762130	2864.746578
465.134094	2878.062786
465.505999	2932.580345
465.877845	2981.940803
466.249631	2976.345122
466.621358	2916.761204
466.993026	2857.056298
467.364634	2829.723162
467.736184	2787.563992
468.107674	2764.987185
468.479105	2747.340626
468.850477	2729.452092
469.221790	2708.672455
469.593043	2690.350382
469.964238	2674.064934
470.335373	2664.796773
470.706449	2659.092707
471.077467	2656.332676
471.448425	2671.703154
471.819324	2681.195646
472.190164	2676.358659
472.560945	2651.621717
472.931667	2634.733852
473.302330	2629.324694
473.672934	2617.977057
474.043479	2618.685339
474.413965	2613.742487
474.784393	2607.385592
475.154761	2608.776951
475.525070	2605.031373
475.895321	2602.094901
476.265513	2600.859819
476.635645	2603.599686
477.005719	2602.840992
477.375734	2599.581886
477.745691	2601.386619
478.115588	2603.342587
478.485427	2605.583380
478.855207	2608.189656
479.224928	2614.329782
479.594591	2617.498147
479.964194	2613.215687
480.333739	2613.094699
480.703226	2613.729884
481.072653	2613.629061
481.442022	2612.260388
481.811333	2614.513784
482.180584	2610.916921
482.549777	2608.867692
482.918912	2604.179418
483.287988	2605.341404
483.657005	2603.287134
484.025964	2600.517020
484.394864	2600.456526
484.763706	2601.114397
485.132489	2598.336721
485.501213	2597.623398
485.869879	2596.501741
486.238487	2595.022162
486.607036	2597.028542
486.975527	2595.143150
487.343959	2594.513006
487.712333	2594.089549
488.080648	2593.174580
488.448905	2594.485280
488.817104	2593.751792
489.185244	2594.777667
489.553326	2598.283789
489.921350	2597.366299
490.289315	2605.842999
490.657222	2610.148145
491.025070	2607.451127
491.392861	2607.617485
491.760593	2605.782505
492.128267	2599.533995
492.495883	2598.291351
492.863440	2598.346803
493.230939	2594.185331
493.598380	2593.698860
493.965763	2587.256265
494.333088	2589.814651
494.700354	2589.242480
495.067563	2589.456729
495.434713	2586.051429
495.801805	2592.962851
496.168839	2590.157449
496.535815	2587.596543
496.902733	2591.183324
497.269593	2591.717686
497.636395	2586.810123
498.003139	2588.748447
498.369825	2585.774166
498.736453	2586.331213
499.103023	2588.367839
499.469535	2587.533528
499.835989	2588.592171
500.202385	2584.919690
500.568723	2584.160997
500.935003	2585.900195
501.301226	2583.661922
501.667390	2586.550503
502.033497	2588.808940
502.399546	2585.517067
502.765537	2583.172930
503.131470	2587.722572
503.497345	2584.213929
503.863163	2587.372212
504.228923	2584.755853
504.594625	2589.018148
504.960269	2583.924062
505.325856	2584.410534
505.691385	2583.979515
506.056856	2586.968919
506.422270	2583.722416
506.787625	2586.273240
507.152924	2586.981522
507.518164	2587.296594
507.883347	2586.517736
508.248472	2584.256778
508.613540	2586.283322
508.978550	2584.186202
509.343503	2583.614031
509.708398	2587.825915
510.073236	2586.086717
510.438016	2588.168714
510.802738	2586.001018
511.167403	2584.768456
511.532010	2583.488003
511.896561	2586.666450
512.261053	2588.307346
512.625488	2585.401120
512.989866	2582.890626
513.354186	2585.207036
513.718449	2580.488516
514.082655	2587.674681
514.446803	2584.133270
514.810894	2584.024885
515.174927	2590.001173
515.538904	2586.868096
515.902822	2586.351378
516.266684	2586.789958
516.630488	2587.231059
516.994235	2586.910946
517.357925	2589.527305
517.721558	2587.871286
518.085133	2588.839187
518.448651	2589.895309
518.812112	2587.296594
519.175516	2587.107551
519.538863	2590.464959
519.902152	2588.506471
520.265385	2589.630648
520.628560	2589.915474
520.991678	2586.747108
521.354739	2590.447315
521.717743	2588.267016
522.080690	2589.187027
522.443580	2591.747933
522.806413	2589.542428
523.169189	2587.853642
523.531908	2592.133581
523.894569	2587.687284
524.257174	2588.400607
524.619722	2591.299270
524.982213	2589.368508
525.344647	2591.818509
525.707025	2588.365319
526.069345	2590.883375
526.431608	2592.599888
526.793815	2590.270875
527.155964	2590.127202
527.518057	2589.010587
527.880093	2589.187027
528.242072	2590.464959
528.603995	2590.452357
528.965860	2586.263158
529.327669	2589.751636
529.689421	2588.713158
530.051117	2590.311204
530.412755	2586.076635
530.774337	2589.741554
531.135862	2589.779362
531.497331	2584.536562
531.858743	2584.574371
532.220098	2586.240472
532.581396	2585.645616
532.942638	2586.013621
533.303824	2587.291553
533.664953	2587.967068
534.026025	2587.651996
534.387040	2590.134764
534.747999	2587.291553
535.108902	2589.907912
535.469748	2589.262644
535.830537	2587.906574
536.191270	2588.183837
536.551947	2589.444126
536.912567	2586.585792
537.273131	2586.835329
537.633638	2586.389187
537.994089	2589.413879
538.354483	2588.950093
538.714821	2590.406986
539.075103	2588.927408
539.435328	2589.093766
539.795497	2587.014290
540.155609	2587.659557
540.515665	2591.102665
540.875665	2589.512181
541.235609	2586.774835
541.595496	2590.782552
541.955328	2590.054105
542.315102	2588.934969
542.674821	2589.242480
543.034483	2590.107038
543.394090	2589.066039
543.753640	2589.605443
544.113134	2590.170052
544.472571	2588.304825
544.831953	2589.358426
545.191278	2588.695514
545.550548	2589.444126
545.909761	2593.744230
546.268918	2590.379260
546.628019	2589.877665
546.987064	2589.764239
547.346053	2586.810123
547.704986	2587.639393
548.063863	2588.065370
548.422684	2588.307346
548.781449	2588.483786
549.140158	2590.222984
549.498811	2591.644589
549.857408	2587.818354
550.215949	2584.949937
550.574434	2586.885740
550.932864	2585.373394
551.291237	2584.866758
551.649555	2590.351533
552.007817	2592.451174
552.366022	2589.691142
552.724173	2589.665937
553.082267	2591.367326
553.440305	2589.207192
553.798288	2588.975298
554.156215	2590.165011
554.514086	2591.117789
554.871902	2590.031420
555.229661	2590.114599
555.587365	2589.187027
555.945014	2589.222315
556.302606	2589.106368
556.660143	2589.325659
557.017625	2589.131574
557.375050	2589.242480
557.732421	2588.037644
558.089735	2590.860690
558.446994	2589.887747
558.804197	2593.260279
559.161345	2590.792634
559.518437	2589.058477
559.875474	2591.153077
560.232455	2591.712645
560.589381	2587.886409
560.946251	2590.356575
561.303065	2591.279106
561.659825	2590.401945
562.016528	2590.424630
562.373177	2591.142995
562.729770	2590.969075
563.086307	2592.176431
563.442789	2588.062850
563.799216	2591.276585
564.155587	2587.367170
564.511904	2589.063519
564.868164	2588.456060
565.224370	2591.163159
565.580520	2588.398086
565.936615	2590.906060
566.292654	2587.911615
566.648638	2588.330031
567.004567	2588.524115
567.360441	2590.147367
567.716260	2587.946903
568.072023	2589.497058
568.427732	2585.166707
568.783385	2585.930442
569.138982	2584.423137
569.494525	2586.177458
569.850013	2583.140163
570.205445	2588.057808
570.560823	2588.161152
570.916145	2587.203333
571.271412	2584.055132
571.626625	2588.501430
571.981782	2587.281471
572.336884	2588.327510
572.691931	2588.070411
573.046923	2588.849270
573.401860	2585.179310
573.756743	2586.681573
574.111570	2585.638055
574.466342	2588.110741
574.821059	2584.859196
575.175722	2586.542942
575.530330	2584.392890
575.884882	2585.149063
576.239380	2586.636203
576.593823	2587.972109
576.948211	2585.025554
577.302544	2582.948599
577.656823	2583.508167
578.011047	2585.506985
578.365216	2584.692838
578.719330	2583.924062
579.073389	2582.628486
579.427394	2584.546645
579.781344	2585.166707
580.135239	2582.131932
580.489080	2587.253744
580.842866	2582.406675
581.196597	2585.333065
581.550273	2585.953127
581.903895	2583.147725
582.257463	2583.452714
582.610975	2581.557241
582.964434	2585.121336
583.317837	2582.777200
583.671186	2584.990266
584.024481	2583.462797
584.377721	2582.668815
584.730906	2583.195616
585.084037	2581.491706
585.437113	2579.843248
585.790135	2584.803744
586.143103	2583.490523
586.496016	2579.646643
586.848874	2578.162023
587.201679	2581.595049
587.554428	2578.431725
587.907124	2578.295614
588.259765	2577.758731
588.612352	2579.031622
588.964884	2578.882908
589.317362	2580.531366
589.669786	2579.306365
590.022155	2578.121694
590.374470	2580.596901
590.726731	2581.158989
591.078937	2579.694534
591.431090	2579.775193
591.783188	2578.908114
592.135232	2579.460121
592.487222	2581.292580
592.839157	2580.511201
593.191038	2578.436766
593.542866	2580.375090
593.894639	2577.055490
594.246358	2579.518094
594.598022	2576.677404
594.949633	2580.768300
595.301190	2577.133628
595.652692	2579.359297
596.004141	2579.533217
596.355535	2579.245872
596.706876	2576.057342
597.058162	2574.003072
597.409395	2578.623289
597.760573	2577.093299
598.111698	2578.454410
598.462768	2577.967939
598.813785	2577.748649
599.164748	2575.414595
599.515657	2576.531210
599.866511	2575.326374
600.217312	2577.395768
600.568060	2576.775706
600.918753	2577.733525
601.269392	2577.531879
601.619978	2577.489029
601.970510	2575.901066
602.320988	2577.398289
602.671412	2575.346539
603.021783	2576.992476
603.372100	2577.794019
603.722363	2576.216138
604.072572	2578.333423
604.422728	2575.278483
604.772830	2571.674058
605.122878	2572.185736
605.472872	2573.108267
605.822813	2572.732701
606.172701	2570.252453
606.522534	2573.887125
606.872314	2575.671693
607.222041	2572.954512
607.571714	2574.640778
607.921333	2576.916858
608.270899	2574.837382
608.620411	2576.218659
608.969870	2574.804615
609.319276	2577.262178
609.668627	2581.637899
610.017926	2580.549010
610.367171	2584.236614
610.716362	2579.374421
611.065500	2580.115471
611.414585	2579.137487
611.763616	2579.260995
612.112594	2580.485995
612.461518	2581.640420
612.810389	2577.433577
613.159207	2580.170923
613.507971	2577.355439
613.856682	2579.157651
614.205340	2576.248906
614.553945	2577.723443
614.902496	2576.120356
615.250994	2575.180181
615.599439	2576.448031
615.947830	2575.754872
616.296169	2577.587332
616.644454	2575.923751
616.992686	2575.066755
617.340864	2577.073134
617.688990	2572.689851
618.037063	2576.082548
618.385082	2575.480130
618.733048	2577.652867
619.080961	2576.939544
619.428821	2577.368042
619.776628	2577.035326
620.124382	2576.390058
620.472083	2577.045408
620.819731	2579.167734
621.167326	2573.836713
621.514868	2577.874678
621.862357	2572.732701
622.209793	2577.017682
622.557176	2573.425859
622.904506	2571.245560
623.251783	2568.583831
623.599007	2569.755899
623.946179	2569.771023
624.293297	2570.181877
624.640363	2571.686661
624.987376	2573.176322
625.334336	2572.205900
625.681243	2570.461661
626.028097	2571.306054
626.374899	2573.627506
626.721647	2571.810170
627.068343	2571.797567
627.414987	2570.260015
627.761577	2572.273956
628.108115	2568.079716
628.454600	2568.785477
628.801032	2568.233471
629.147412	2570.154151
629.493739	2568.021742
629.840014	2571.018708
630.186236	2569.720611
630.532405	2570.282700
630.878521	2569.939902
631.224585	2568.523337
631.570597	2565.783470
631.916556	2566.879921
632.262462	2571.522824
632.608316	2567.673903
632.954117	2567.991496
633.299866	2567.031156
633.645562	2568.427555
633.991206	2569.627350
634.336797	2564.941598
634.682336	2566.756413
635.027823	2564.157698
635.373257	2566.426217
635.718639	2563.126782
636.063968	2564.281206
636.409245	2563.005794
636.754470	2564.225754
637.099642	2564.114848
637.444762	2563.681309
637.789829	2563.492266
638.134845	2565.445713
638.479808	2563.830023
638.824719	2565.929664
639.169577	2564.482852
639.514383	2561.470763
639.859137	2563.880435
640.203839	2561.863973
640.548489	2564.734910
640.893086	2560.744837
641.237632	2557.954558
641.582125	2562.083263
641.926566	2559.446740
642.270955	2560.288612
642.615292	2561.238870
642.959576	2564.291289
643.303809	2563.935887
643.647990	2561.029662
643.992118	2560.596123
644.336195	2564.727348
