Dividing Wavelength (nm)	Counts (n)	Blue Motor Position (mm): 0.000000	Red Motor Position (mm): 5.100000	
326.493990	2129.895062
326.888308	2129.895062
327.282561	2129.895062
327.676750	2096.578076
328.070874	2093.971799
328.464933	2096.963724
328.858929	2101.553695
329.252859	2112.016610
329.646726	2123.452467
330.040528	2138.311268
330.434265	2153.394400
330.827938	2172.523059
331.221547	2191.162725
331.615091	2208.794161
332.008571	2229.727552
332.401986	2249.241858
332.795338	2266.066709
333.188625	2284.542538
333.581847	2304.999541
333.975006	2325.300267
334.368100	2339.221413
334.761129	2360.237984
335.154095	2374.499408
335.546996	2393.907850
335.939833	2408.950653
336.332606	2420.499937
336.725315	2433.932091
337.117960	2442.330654
337.510540	2451.901284
337.903056	2464.632718
338.295508	2471.488687
338.687896	2478.868937
339.080220	2488.419403
339.472480	2493.949548
339.864676	2498.784015
340.256807	2501.982627
340.648875	2504.014212
341.040879	2507.328771
341.432818	2510.958402
341.824694	2510.320696
342.216506	2507.976559
342.608253	2515.807992
342.999937	2513.007631
343.391557	2510.179543
343.783113	2508.677279
344.174605	2509.456138
344.566033	2506.930520
344.957397	2506.996055
345.348697	2504.125118
345.739934	2501.826351
346.131106	2502.539675
346.522215	2500.266114
346.913260	2497.659838
347.304241	2495.408963
347.695159	2495.882831
348.086012	2491.456698
348.476802	2488.915956
348.867528	2491.164311
349.258191	2489.813282
349.648789	2489.246152
350.039324	2483.980667
350.429796	2484.820019
350.820203	2484.131901
351.210548	2481.785244
351.600828	2480.923207
351.991045	2478.130408
352.381198	2480.552682
352.771288	2477.916159
353.161314	2480.986221
353.551276	2480.996304
353.941175	2479.559575
354.331010	2479.418423
354.720782	2478.896663
355.110490	2478.551344
355.500135	2479.665439
355.889717	2479.796509
356.279235	2478.657208
356.668689	2478.768114
357.058080	2479.632672
357.447408	2478.528659
357.836672	2477.681745
358.225873	2480.507312
358.615010	2475.902218
359.004084	2484.106696
359.393095	2481.717189
359.782043	2480.930769
360.170927	2483.287508
360.559748	2485.054433
360.948505	2484.363794
361.337199	2485.276243
361.725830	2485.518219
362.114398	2486.281953
362.502903	2486.312200
362.891344	2486.367653
363.279722	2488.018631
363.668037	2485.283805
364.056289	2488.192551
364.444478	2487.131388
364.832603	2491.454177
365.220665	2490.430823
365.608665	2490.619866
365.996601	2492.812768
366.384474	2487.771614
366.772284	2493.044661
367.160031	2494.932573
367.547715	2494.249497
367.935336	2496.102121
368.322893	2499.209993
368.710388	2503.404233
369.097820	2511.941427
369.485189	2506.375993
369.872495	2517.090965
370.259738	2515.949144
370.646918	2522.192613
371.034035	2526.563293
371.421090	2532.960517
371.808081	2535.486136
372.195010	2540.761703
372.581875	2547.184133
372.968678	2552.089176
373.355418	2555.718807
373.742096	2564.596278
374.128710	2565.443192
374.515262	2569.045097
374.901751	2577.524318
375.288177	2576.906776
375.674540	2581.668146
376.060841	2584.266861
376.447079	2587.611666
376.833254	2588.846749
377.219367	2585.769125
377.605417	2594.298757
377.991404	2588.579568
378.377329	2591.173242
378.763191	2588.067891
379.148991	2596.297574
379.534727	2594.898654
379.920402	2596.262286
380.306013	2590.543097
380.691563	2594.205496
381.077049	2595.415373
381.462474	2585.857345
381.847835	2587.982191
382.233134	2583.551017
382.618371	2576.518607
383.003545	2578.814853
383.388657	2573.506518
383.773706	2569.909655
384.158693	2565.070147
384.543618	2559.129147
384.928480	2558.176369
385.313280	2551.716130
385.698017	2546.337219
386.082692	2546.496016
386.467305	2537.515200
386.851856	2536.713657
387.236344	2534.011598
387.620770	2531.985054
388.005133	2526.767460
388.389435	2526.165042
388.773674	2521.895185
389.157851	2519.183044
389.541965	2515.147600
389.926018	2513.849503
390.310008	2512.937054
390.693936	2513.753721
391.077802	2513.471417
391.461606	2511.419667
391.845348	2512.836231
392.229027	2509.078051
392.612645	2509.751045
392.996200	2511.517970
393.379694	2508.591580
393.763125	2507.974038
394.146494	2509.645181
394.529801	2512.158196
394.913047	2507.167454
395.296230	2507.666528
395.679351	2509.609893
396.062410	2510.096364
396.445408	2511.084430
396.828343	2510.542506
397.211217	2505.561846
397.594028	2505.909686
397.976778	2507.658966
398.359466	2507.454800
398.742092	2505.045128
399.124656	2508.697444
399.507158	2507.656446
399.889598	2509.188957
400.271977	2509.057887
400.654294	2510.285407
401.036549	2509.773730
401.418742	2510.824811
401.800874	2508.662156
402.182944	2513.249606
402.564952	2511.258350
402.946898	2513.426046
403.328783	2511.149965
403.710606	2511.323885
404.092367	2510.991169
404.474067	2510.514780
404.855705	2512.843793
405.237282	2512.143073
405.618797	2510.587877
406.000250	2510.809688
406.381642	2511.991838
406.762972	2510.487054
407.144240	2514.691376
407.525447	2513.569719
407.906593	2512.944616
408.287677	2514.547703
408.668700	2512.679956
409.049661	2514.157014
409.430560	2511.704492
409.811399	2514.585512
410.192176	2515.566016
410.572891	2515.301356
410.953545	2514.719102
411.334138	2516.402848
411.714669	2517.378311
412.095139	2514.416633
412.475547	2516.856552
412.855894	2513.605007
413.236180	2514.278001
413.616405	2514.479647
413.996568	2513.778927
414.376670	2516.521315
414.756711	2514.910666
415.136691	2518.051305
415.516609	2516.070132
415.896466	2515.061901
416.276262	2518.925945
416.655997	2513.627692
417.035670	2514.913187
417.415283	2514.998886
417.794834	2512.395130
418.174324	2516.478465
418.553753	2517.539628
418.933121	2518.739422
419.312428	2516.909484
419.691674	2518.741943
420.070859	2516.211284
420.449983	2517.073321
420.829045	2517.451408
421.208047	2517.590039
421.586988	2516.980060
421.965867	2517.862262
422.344686	2517.852179
422.723444	2516.322189
423.102141	2518.976357
423.480777	2519.535925
423.859352	2519.062056
424.237866	2518.752025
424.616319	2519.248579
424.994712	2522.616070
425.373044	2519.495596
425.751314	2522.694208
426.129524	2518.361336
426.507673	2517.312776
426.885762	2520.944927
427.263789	2519.959382
427.641756	2521.053312
428.019662	2518.305883
428.397508	2520.755884
428.775292	2519.752694
429.153016	2521.696059
429.530679	2523.170597
429.908282	2521.320493
430.285824	2519.293949
430.663305	2521.948117
431.040726	2520.483662
431.418086	2520.274454
431.795385	2520.304701
432.172624	2522.197654
432.549802	2524.556914
432.926920	2522.679084
433.303977	2522.689167
433.680974	2522.898374
434.057910	2522.999197
434.434786	2522.053981
434.811601	2522.926101
435.188355	2521.181862
435.565050	2520.980215
435.941683	2522.250586
436.318257	2521.557427
436.694770	2517.612725
437.071222	2518.746984
437.447614	2520.176151
437.823946	2520.753363
438.200218	2522.230422
438.576429	2523.422654
438.952580	2523.528519
439.328670	2523.420134
439.704700	2523.946934
440.080670	2522.981553
440.456580	2521.519619
440.832429	2522.293436
441.208218	2523.268899
441.583947	2525.166894
441.959616	2526.701925
442.335224	2524.975330
442.710773	2525.824764
443.086261	2523.790659
443.461689	2526.598581
443.837057	2525.426513
444.212365	2522.558097
444.587612	2524.350227
444.962800	2522.129598
445.337927	2526.606143
445.712995	2522.361492
446.088002	2525.562624
446.462949	2522.497603
446.837837	2524.998015
447.212664	2523.805782
447.587431	2524.050278
447.962139	2525.340813
448.336786	2529.184693
448.711374	2525.038344
449.085901	2525.829805
449.460369	2524.009949
449.834776	2525.353416
450.209124	2527.934487
450.583412	2527.218643
450.957640	2526.482635
451.331808	2530.197965
451.705917	2524.065402
452.079965	2528.597399
452.453954	2526.916174
452.827883	2522.870648
453.201752	2527.453057
453.575562	2526.651513
453.949311	2524.919877
454.323001	2529.817358
454.696632	2526.979188
455.070202	2529.837523
455.443713	2524.446009
455.817164	2525.204702
456.190556	2522.134640
456.563888	2528.884745
456.937160	2524.559435
457.310373	2528.446164
457.683526	2527.198479
458.056619	2527.994981
458.429653	2526.149919
458.802628	2528.766278
459.175542	2528.743592
459.548398	2526.696884
459.921194	2526.744775
460.293930	2530.011443
460.666607	2530.034128
461.039224	2528.632687
461.411782	2525.406348
461.784280	2531.049920
462.156719	2528.115969
462.529099	2531.637215
462.901419	2530.941535
463.273680	2529.436751
463.645882	2528.544467
464.018024	2529.918181
464.390106	2527.997502
464.762130	2530.475229
465.134094	2528.834333
465.505999	2531.370033
465.877845	2530.959179
466.249631	2527.758047
466.621358	2531.382636
466.993026	2529.635877
467.364634	2531.236443
467.736184	2529.235105
468.107674	2530.074457
468.479105	2527.727800
468.850477	2528.794004
469.221790	2529.789632
469.593043	2529.371216
469.964238	2532.476567
470.335373	2533.620909
470.706449	2532.282482
471.077467	2532.471526
471.448425	2530.029087
471.819324	2532.511855
472.190164	2531.566638
472.560945	2529.346010
472.931667	2531.359951
473.302330	2531.107893
473.672934	2530.593696
474.043479	2529.948428
474.413965	2528.645290
474.784393	2525.499610
475.154761	2527.516071
475.525070	2528.778880
475.895321	2529.288037
476.265513	2524.100690
476.635645	2531.601927
477.005719	2525.519774
477.375734	2531.060003
477.745691	2531.511186
478.115588	2531.952287
478.485427	2532.811803
478.855207	2531.433048
479.224928	2530.916330
479.594591	2532.521937
479.964194	2531.856505
480.333739	2533.071423
480.703226	2531.821217
481.072653	2535.960004
481.442022	2531.012112
481.811333	2531.463295
482.180584	2532.564787
482.549777	2532.673172
482.918912	2533.676361
483.287988	2530.263500
483.657005	2534.039324
484.025964	2531.876669
484.394864	2531.715353
484.763706	2533.628470
485.132489	2530.384488
485.501213	2533.772143
485.869879	2529.837523
486.238487	2532.559746
486.607036	2530.424817
486.975527	2534.180477
487.343959	2531.806093
487.712333	2532.713501
488.080648	2532.247194
488.448905	2534.689633
488.817104	2532.514375
489.185244	2531.904396
489.553326	2532.143851
489.921350	2532.050589
490.289315	2528.705784
490.657222	2535.087884
491.025070	2534.465302
491.392861	2534.079654
491.760593	2536.254912
492.128267	2532.353058
492.495883	2534.223327
492.863440	2533.283151
493.230939	2532.121165
493.598380	2535.503780
493.965763	2530.699560
494.333088	2532.053110
494.700354	2529.519930
495.067563	2528.211751
495.434713	2530.979344
495.801805	2535.639891
496.168839	2532.960518
496.535815	2532.191742
496.902733	2532.219468
497.269593	2534.545960
497.636395	2535.110570
498.003139	2534.364479
498.369825	2534.528316
498.736453	2534.167874
499.103023	2532.040507
499.469535	2535.332380
499.835989	2533.096629
500.202385	2534.258615
500.568723	2533.908254
500.935003	2534.760209
501.301226	2533.109232
501.667390	2535.085364
502.033497	2535.798687
502.399546	2536.867412
502.765537	2532.312729
503.131470	2537.023688
503.497345	2533.613347
503.863163	2537.752134
504.228923	2534.283820
504.594625	2535.662576
504.960269	2535.032432
505.325856	2534.336753
505.691385	2536.622916
506.056856	2536.060827
506.422270	2533.958666
506.787625	2532.963038
507.152924	2536.819521
507.518164	2536.897659
507.883347	2535.823893
508.248472	2531.425486
508.613540	2535.748276
508.978550	2535.302133
509.343503	2535.584438
509.708398	2536.973276
510.073236	2535.251722
510.438016	2535.460930
510.802738	2532.327853
511.167403	2536.264994
511.532010	2536.146527
511.896561	2537.268183
512.261053	2534.679551
512.625488	2532.713501
512.989866	2532.784077
513.354186	2533.358769
513.718449	2531.816176
514.082655	2536.270035
514.446803	2535.866743
514.810894	2534.273738
515.174927	2535.692823
515.538904	2534.394726
515.902822	2534.961856
516.266684	2534.767771
516.630488	2536.315405
516.994235	2537.265663
517.357925	2537.212731
517.721558	2536.607792
518.085133	2535.382792
518.448651	2535.692823
518.812112	2533.898172
519.175516	2536.945550
519.538863	2534.787936
519.902152	2537.253060
520.265385	2534.276259
520.628560	2534.939170
520.991678	2535.642411
521.354739	2535.271887
521.717743	2537.061496
522.080690	2536.963194
522.443580	2534.089736
522.806413	2537.008564
523.169189	2535.113090
523.531908	2536.738862
523.894569	2535.677699
524.257174	2539.282124
524.619722	2535.987730
524.982213	2538.246167
525.344647	2536.743903
525.707025	2536.461599
526.069345	2534.765251
526.431608	2537.174922
526.793815	2531.085208
527.155964	2539.551826
527.518057	2535.138296
527.880093	2537.628626
528.242072	2536.398584
528.603995	2537.903369
528.965860	2536.454037
529.327669	2536.907741
529.689421	2537.495035
530.051117	2536.970755
530.412755	2538.152906
530.774337	2537.240457
531.135862	2538.548637
531.497331	2535.148378
531.858743	2533.472195
532.220098	2534.929088
532.581396	2533.845240
532.942638	2532.355579
533.303824	2535.355066
533.664953	2538.946888
534.026025	2535.934798
534.387040	2535.264325
534.747999	2536.065868
535.108902	2539.503935
535.469748	2537.933616
535.830537	2539.677855
536.191270	2537.996630
536.551947	2538.183153
536.912567	2534.626619
537.273131	2538.014274
537.633638	2535.488656
537.994089	2537.603420
538.354483	2538.962011
538.714821	2539.942516
539.075103	2536.053265
539.435328	2537.419418
539.795497	2535.234078
540.155609	2537.721887
540.515665	2538.495704
540.875665	2537.971424
541.235609	2537.038811
541.595496	2537.328677
541.955328	2537.691640
542.315102	2534.530837
542.674821	2535.531506
543.034483	2537.464788
543.394090	2534.835827
543.753640	2539.594676
544.113134	2537.207690
544.472571	2539.014943
544.831953	2538.846065
545.191278	2537.109387
545.550548	2539.362783
545.909761	2540.078627
546.268918	2534.924047
546.628019	2538.904038
546.987064	2536.126362
547.346053	2537.222813
547.704986	2539.173740
548.063863	2538.634336
548.422684	2537.512679
548.781449	2538.346990
549.140158	2539.060314
549.498811	2539.347659
549.857408	2536.307844
550.215949	2534.467822
550.574434	2533.424304
550.932864	2535.246681
551.291237	2531.801052
551.649555	2538.795653
552.007817	2535.982689
552.366022	2537.505118
552.724173	2539.035108
553.082267	2538.067206
553.440305	2536.320447
553.798288	2537.074099
554.156215	2538.762886
554.514086	2539.481250
554.871902	2539.587114
555.229661	2538.730118
555.587365	2538.263811
555.945014	2539.403112
556.302606	2536.827083
556.660143	2539.506456
557.017625	2537.618544
557.375050	2539.778678
557.732421	2538.778009
558.089735	2538.835982
558.446994	2538.160468
558.804197	2538.273894
559.161345	2538.034439
559.518437	2537.265663
559.875474	2537.822710
560.232455	2537.331198
560.589381	2537.739531
560.946251	2539.519059
561.303065	2537.681558
561.659825	2537.726928
562.016528	2536.678368
562.373177	2538.074768
562.729770	2538.253729
563.086307	2538.939326
563.442789	2536.479243
563.799216	2537.185004
564.155587	2537.850437
564.511904	2537.679038
564.868164	2536.819521
565.224370	2536.433872
565.580520	2536.529654
565.936615	2538.258770
566.292654	2538.321785
566.648638	2538.856147
567.004567	2535.781043
567.360441	2540.406302
567.716260	2537.668955
568.072023	2534.472864
568.427732	2532.781557
568.783385	2537.739531
569.138982	2533.636032
569.494525	2535.365148
569.850013	2533.197452
570.205445	2537.691640
570.560823	2538.334388
570.916145	2541.278421
571.271412	2535.375230
571.626625	2540.479398
571.981782	2538.256250
572.336884	2537.096784
572.691931	2534.558563
573.046923	2536.138965
573.401860	2537.237937
573.756743	2539.680376
574.111570	2536.091074
574.466342	2537.764737
574.821059	2539.085519
575.175722	2538.551157
575.530330	2538.974614
575.884882	2538.767927
576.239380	2537.800025
576.593823	2538.326826
576.948211	2536.330529
577.302544	2539.393030
577.656823	2540.010571
578.011047	2537.956301
578.365216	2538.498225
578.719330	2537.409336
579.073389	2539.902186
579.427394	2538.092412
579.781344	2540.376055
580.135239	2538.258770
580.489080	2537.245498
580.842866	2538.160468
581.196597	2543.635161
581.550273	2540.958308
581.903895	2537.578214
582.257463	2540.532331
582.610975	2539.062834
582.964434	2539.415715
583.317837	2537.137113
583.671186	2537.263142
584.024481	2536.461599
584.377721	2539.503935
584.730906	2539.272042
585.084037	2537.011085
585.437113	2539.052752
585.790135	2540.239944
586.143103	2540.108874
586.496016	2537.686599
586.848874	2535.070240
587.201679	2538.178112
587.554428	2534.336753
587.907124	2536.431352
588.259765	2532.095960
588.612352	2538.788091
588.964884	2539.740869
589.317362	2537.028729
589.669786	2539.534182
590.022155	2544.434184
590.374470	2535.478574
590.726731	2538.188194
591.078937	2539.917310
591.431090	2540.176929
591.783188	2538.180632
592.135232	2539.806404
592.487222	2537.714326
592.839157	2539.451003
593.191038	2536.569984
593.542866	2541.049049
593.894639	2536.479243
594.246358	2536.804397
594.598022	2539.831610
594.949633	2538.956970
595.301190	2537.220293
595.652692	2539.632485
596.004141	2538.969573
596.355535	2541.502753
596.706876	2537.915972
597.058162	2537.038811
597.409395	2536.683410
597.760573	2538.780530
598.111698	2538.263811
598.462768	2536.108718
598.813785	2539.138452
599.164748	2537.369007
599.515657	2539.589635
599.866511	2536.915303
600.217312	2539.065355
600.568060	2536.270035
600.918753	2539.884542
601.269392	2536.973276
601.619978	2538.818338
601.970510	2536.499408
602.320988	2538.193235
602.671412	2541.359080
603.021783	2540.229861
603.372100	2537.129552
603.722363	2539.362783
604.072572	2539.030067
604.422728	2540.290355
604.772830	2536.325488
605.122878	2535.372710
605.472872	2534.976979
605.822813	2531.022194
606.172701	2538.462937
606.522534	2541.033925
606.872314	2536.443955
607.222041	2535.985210
607.571714	2540.166847
607.921333	2539.942516
608.270899	2537.648791
608.620411	2538.094933
608.969870	2539.410674
609.319276	2541.505273
609.668627	2544.232537
610.017926	2543.630120
610.367171	2543.766231
610.716362	2542.732794
611.065500	2543.766231
611.414585	2544.088865
611.763616	2542.314378
612.112594	2539.123328
612.461518	2542.432846
612.810389	2539.025026
613.159207	2538.241126
613.507971	2538.523431
613.856682	2540.444110
614.205340	2538.621733
614.553945	2541.031405
614.902496	2537.331198
615.250994	2539.017464
615.599439	2538.024357
615.947830	2539.541744
616.296169	2538.246167
616.644454	2540.875129
616.992686	2537.353883
617.340864	2541.948895
617.688990	2537.817669
618.037063	2536.862371
618.385082	2538.848585
618.733048	2539.602238
619.080961	2538.916641
619.428821	2538.770447
619.776628	2540.000489
620.124382	2538.067206
620.472083	2538.112577
620.819731	2537.973945
621.167326	2537.295910
621.514868	2538.117618
621.862357	2537.709284
622.209793	2538.530993
622.557176	2537.426980
622.904506	2534.427493
623.251783	2532.451361
623.599007	2536.151568
623.946179	2534.767771
624.293297	2534.019160
624.640363	2536.627957
624.987376	2537.028729
625.334336	2534.588810
625.681243	2538.268853
626.028097	2539.884542
626.374899	2537.515200
626.721647	2535.531506
627.068343	2539.665252
627.414987	2537.137113
627.761577	2538.616692
628.108115	2539.070396
628.454600	2540.222300
628.801032	2536.839685
629.147412	2539.642567
629.493739	2538.621733
629.840014	2536.794315
630.186236	2540.867567
630.532405	2539.203987
630.878521	2538.694830
631.224585	2540.403781
631.570597	2538.828421
631.916556	2538.397402
632.262462	2537.537885
632.608316	2539.599717
632.954117	2534.919006
633.299866	2539.554347
633.645562	2536.343132
633.991206	2537.608461
634.336797	2536.209541
634.682336	2538.667104
635.027823	2536.577545
635.373257	2535.488656
635.718639	2536.093595
636.063968	2536.627957
636.409245	2535.702905
636.754470	2535.813811
637.099642	2536.413708
637.444762	2537.520241
637.789829	2536.880015
638.134845	2536.317926
638.479808	2539.692978
638.824719	2539.254398
639.169577	2535.929757
639.514383	2536.118800
639.859137	2537.043852
640.203839	2538.916641
640.548489	2539.365303
640.893086	2532.610157
641.237632	2532.358100
641.582125	2534.921526
641.926566	2531.967410
642.270955	2536.743903
642.615292	2536.650642
642.959576	2537.207690
643.303809	2536.217103
643.647990	2538.034439
643.992118	2538.152906
644.336195	2536.333049
