Dividing Wavelength (nm)	Counts (n)	Blue Motor Position (mm): 0.000000	Red Motor Position (mm): 48.400000	
326.493990	2127.298868
326.888308	2127.298868
327.282561	2127.298868
327.676750	2095.272417
328.070874	2095.751327
328.464933	2096.414238
328.858929	2103.565115
329.252859	2112.550972
329.646726	2123.850718
330.040528	2137.154323
330.434265	2152.633186
330.827938	2173.160765
331.221547	2190.663651
331.615091	2207.496063
332.008571	2229.236039
332.401986	2249.612383
332.795338	2268.418408
333.188625	2287.552107
333.581847	2304.293779
333.975006	2323.384629
334.368100	2341.394151
334.761129	2359.501975
335.154095	2375.563092
335.546996	2402.069478
335.939833	2424.099321
336.332606	2437.796136
336.725315	2453.000256
337.117960	2462.341514
337.510540	2469.595734
337.903056	2479.126036
338.295508	2488.502582
338.687896	2496.817965
339.080220	2507.817763
339.472480	2512.095182
339.864676	2516.763290
340.256807	2519.160359
340.648875	2521.895185
341.040879	2525.398787
341.432818	2526.298633
341.824694	2528.899868
342.216506	2526.424662
342.608253	2527.647141
342.999937	2527.500948
343.391557	2529.290558
343.783113	2527.838705
344.174605	2525.144208
344.566033	2522.311080
344.957397	2524.216636
345.348697	2523.389887
345.739934	2519.241017
346.131106	2519.074659
346.522215	2516.838908
346.913260	2512.997548
347.304241	2512.571571
347.695159	2510.950840
348.086012	2509.657784
348.476802	2509.176354
348.867528	2505.186280
349.258191	2505.927330
349.648789	2505.453462
350.039324	2501.954901
350.429796	2502.471619
350.820203	2501.498676
351.210548	2500.082112
351.600828	2500.576145
351.991045	2498.952894
352.381198	2493.611791
352.771288	2497.490959
353.161314	2494.183962
353.551276	2499.467091
353.941175	2499.393995
354.331010	2498.330311
354.720782	2497.266628
355.110490	2497.969869
355.500135	2495.459374
355.889717	2497.276710
356.279235	2494.620022
356.668689	2499.467091
357.058080	2501.982627
357.447408	2499.336021
357.836672	2496.092039
358.225873	2497.561535
358.615010	2496.056751
359.004084	2499.013387
359.393095	2500.031701
359.782043	2500.903820
360.170927	2501.188645
360.559748	2503.910868
360.948505	2502.436331
361.337199	2503.467247
361.725830	2505.760972
362.114398	2508.863802
362.502903	2504.684686
362.891344	2507.104439
363.279722	2507.724501
363.668037	2509.236847
364.056289	2510.643329
364.444478	2508.432783
364.832603	2511.117198
365.220665	2511.815398
365.608665	2510.527383
365.996601	2512.569050
366.384474	2513.904956
366.772284	2514.991325
367.160031	2513.904956
367.547715	2516.546521
367.935336	2520.203878
368.322893	2522.742099
368.710388	2526.230577
369.097820	2533.731814
369.485189	2535.796167
369.872495	2543.499050
370.259738	2547.214380
370.646918	2555.744012
371.034035	2562.652914
371.421090	2573.163719
371.808081	2584.765935
372.195010	2593.098962
372.581875	2607.446086
372.968678	2617.641820
373.355418	2628.109776
373.742096	2649.602735
374.128710	2660.844508
374.515262	2677.170285
374.901751	2695.724252
375.288177	2705.952753
375.674540	2725.585527
376.060841	2743.506828
376.447079	2763.268152
376.833254	2787.022068
377.219367	2795.723100
377.605417	2839.119873
377.991404	2847.226048
378.377329	2868.938298
378.763191	2885.755587
379.148991	2924.645568
379.534727	2948.578446
379.920402	2975.538537
380.306013	2989.368943
380.691563	3035.286292
381.077049	3059.287226
381.462474	3076.810277
381.847835	3117.565485
382.233134	3138.085502
382.618371	3139.005512
383.003545	3207.247612
383.388657	3210.599979
383.773706	3246.210690
384.158693	3264.741972
384.543618	3287.328861
384.928480	3322.299346
385.313280	3368.806510
385.698017	3367.289123
386.082692	3420.163265
386.467305	3425.350612
386.851856	3460.311014
387.236344	3481.370435
387.620770	3512.169364
388.005133	3538.249773
388.389435	3566.248342
388.773674	3576.481884
389.157851	3617.466465
389.541965	3634.475318
389.926018	3598.983074
390.310008	3669.251718
390.693936	3689.686035
391.077802	3730.698342
391.461606	3718.949933
391.845348	3780.232720
392.229027	3784.928555
392.612645	3795.968682
392.996200	3876.488511
393.379694	3910.370106
393.763125	3976.164726
394.146494	3946.263122
394.529801	4002.857635
394.913047	4051.038463
395.296230	4021.961088
395.679351	4073.537133
396.062410	4098.231225
396.445408	4079.163061
396.828343	4112.008698
397.211217	4136.717914
397.594028	4056.182961
397.976778	4126.547386
398.359466	4152.118639
398.742092	4179.406405
399.124656	4101.286164
399.507158	4180.538144
399.889598	4207.581414
400.271977	4269.501906
400.654294	4239.935539
401.036549	4249.657404
401.418742	4217.404102
401.800874	4320.619206
402.182944	4340.413297
402.564952	4405.958379
402.946898	4394.860279
403.328783	4385.927354
403.710606	4300.189930
404.092367	4493.908870
404.474067	4451.553095
404.855705	4466.553048
405.237282	4394.008324
405.618797	4501.838605
406.000250	4538.044172
406.381642	4619.173981
406.762972	4581.657714
407.144240	4590.935958
407.525447	4592.002162
407.906593	4652.977438
408.287677	4692.114436
408.668700	4624.086586
409.049661	4676.625491
409.430560	4714.509762
409.811399	4641.498731
410.192176	4801.557886
410.572891	4742.047065
410.953545	4845.385678
411.334138	4727.553748
411.714669	4791.911638
412.095139	4689.573695
412.475547	4827.902956
412.855894	4810.309329
413.236180	4822.483716
413.616405	4774.401190
413.996568	4861.245148
414.376670	4799.599398
414.756711	4758.508953
415.136691	4787.732522
415.516609	4862.439901
415.896466	4900.787958
416.276262	4939.748516
416.655997	4918.827728
417.035670	5097.249286
417.415283	5190.896280
417.794834	5138.405266
418.174324	5088.132359
418.553753	4997.515098
418.933121	5184.582235
419.312428	5247.863839
419.691674	5186.525600
420.070859	5314.709539
420.449983	5226.486826
420.829045	5341.621739
421.208047	5249.693778
421.586988	5319.475950
421.965867	5329.724616
422.344686	5466.642354
422.723444	5319.170960
423.102141	5133.837980
423.480777	5435.102375
423.859352	5207.428744
424.237866	5463.186643
424.616319	5453.132062
424.994712	5565.113733
425.373044	5439.518426
425.751314	5583.397998
426.129524	5387.062700
426.507673	5581.124437
426.885762	5663.179299
427.263789	5593.150110
427.641756	5477.059899
428.019662	5598.682776
428.397508	5608.192913
428.775292	5558.187187
429.153016	5649.928626
429.530679	5577.643521
429.908282	5663.953116
430.285824	5535.534763
430.663305	5805.738088
431.040726	5541.001894
431.418086	5540.880906
431.795385	5649.593389
432.172624	5660.383979
432.549802	5658.075130
432.926920	5665.765411
433.303977	5672.049209
433.680974	5713.497576
434.057910	5730.750925
434.434786	5739.028499
434.811601	5708.673192
435.188355	5941.352688
435.565050	5815.273431
435.941683	5798.748528
436.318257	6011.253328
436.694770	5999.699003
437.071222	6026.749835
437.447614	5964.292459
437.823946	5872.445157
438.200218	6027.886615
438.576429	5888.879318
438.952580	5988.777343
439.328670	6036.829622
439.704700	5946.401404
440.080670	5932.137459
440.456580	6196.709816
440.832429	6081.590027
441.208218	5930.710813
441.583947	6086.905923
441.959616	6087.011788
442.335224	6014.146950
442.710773	6156.657849
443.086261	6181.684657
443.461689	5977.651517
443.837057	6120.603516
444.212365	6276.796107
444.587612	6167.750908
444.962800	6325.004661
445.337927	6308.056302
445.712995	5914.485859
446.088002	6491.776112
446.462949	6324.492984
446.837837	6253.553867
447.212664	6428.169354
447.587431	6567.489202
447.962139	7107.984073
448.336786	8037.593007
448.711374	7777.250178
449.085901	6850.726431
449.460369	6776.379494
449.834776	6705.397527
450.209124	7097.347239
450.583412	7249.648058
450.957640	7400.098774
451.331808	7162.234450
451.705917	6715.303394
452.079965	6638.019985
452.453954	6848.835998
452.827883	6727.049283
453.201752	6818.384908
453.575562	6613.731706
453.949311	6819.110834
454.323001	6709.720317
454.696632	6781.675226
455.070202	6925.481701
455.443713	7077.742191
455.817164	7175.273395
456.190556	7257.038390
456.563888	7337.041501
456.937160	7382.053964
457.310373	7036.303907
457.683526	7059.588996
458.056619	6948.234949
458.429653	6936.710871
458.802628	6873.804833
459.175542	6983.848180
459.548398	7334.578897
459.921194	7500.206007
460.293930	7502.640884
460.666607	8028.839043
461.039224	8342.514759
461.411782	8462.184190
461.784280	8479.543403
462.156719	8377.263433
462.529099	8252.426819
462.901419	7844.073193
463.273680	7732.956080
463.645882	7749.279336
464.018024	7609.410002
464.390106	7776.796475
464.762130	8163.934405
465.134094	8640.630954
465.505999	9661.192385
465.877845	10874.784639
466.249631	11524.624657
466.621358	11146.066771
466.993026	10518.455720
467.364634	10257.021482
467.736184	9896.969671
468.107674	9565.223939
468.479105	9597.457077
468.850477	9361.238690
469.221790	9131.367116
469.593043	8800.785891
469.964238	8662.597782
470.335373	8676.118156
470.706449	8736.606961
471.077467	8715.088796
471.448425	10033.053099
471.819324	11099.718403
472.190164	11126.756631
472.560945	9880.583401
472.931667	9088.514788
473.302330	8949.275598
473.672934	8593.697811
474.043479	8953.351371
474.413965	8900.651148
474.784393	8778.335112
475.154761	8934.114328
475.525070	9020.045836
475.895321	8848.812963
476.265513	9027.174028
476.635645	9192.816261
477.005719	9193.292650
477.375734	9309.211462
477.745691	9539.806442
478.115588	9676.502369
478.485427	9920.524463
478.855207	10459.229724
479.224928	11274.321287
479.594591	11896.460165
479.964194	11708.447812
480.333739	11650.822382
480.703226	11569.795917
481.072653	11659.417550
481.442022	11892.545709
481.811333	12090.567273
482.180584	11895.590566
482.549777	11600.060484
482.918912	11419.347721
483.287988	11454.852568
483.657005	11465.756583
484.025964	11145.509724
484.394864	11265.567323
484.763706	11241.702501
485.132489	10995.787454
485.501213	10965.744698
485.869879	11040.870493
486.238487	10884.713191
486.607036	10994.431384
486.975527	10771.108269
487.343959	10962.215890
487.712333	11003.588640
488.080648	10939.883579
488.448905	10974.039917
488.817104	10921.702658
489.185244	11188.024295
489.553326	11346.598830
489.921350	11876.635828
490.289315	12933.559102
490.657222	13287.329635
491.025070	13189.412783
491.392861	13062.622723
491.760593	12691.006505
492.128267	12335.494254
492.495883	12010.322187
492.863440	11675.876917
493.230939	11338.719507
493.598380	11266.136973
493.965763	11141.799434
494.333088	11034.427899
494.700354	10959.571805
495.067563	11022.331650
495.434713	10844.000833
495.801805	10979.559980
496.168839	10895.523946
496.535815	10842.359937
496.902733	10831.173617
497.269593	10778.082705
497.636395	10871.891016
498.003139	10858.859634
498.369825	10726.642771
498.736453	10877.602644
499.103023	10805.027672
499.469535	10836.635707
499.835989	10822.545682
500.202385	10792.739860
500.568723	10634.102310
500.935003	10861.445746
501.301226	10665.607001
501.667390	10922.587380
502.033497	11022.908862
502.399546	10887.594211
502.765537	10797.387804
503.131470	10861.672598
503.497345	11043.849815
503.863163	10642.334514
504.228923	10964.849893
504.594625	11032.108968
504.960269	10773.520461
505.325856	10998.746612
505.691385	10788.230548
506.056856	10940.054978
506.422270	10969.747374
506.787625	10859.956085
507.152924	10980.311112
507.518164	10953.247678
507.883347	10872.198527
508.248472	10797.745726
508.613540	11031.834225
508.978550	10916.661504
509.343503	10886.008768
509.708398	11004.934628
510.073236	11120.140117
510.438016	11114.272214
510.802738	11064.115254
511.167403	11121.904521
511.532010	11016.882163
511.896561	11250.950497
512.261053	11318.091105
512.625488	11196.690038
512.989866	11169.740030
513.354186	11158.856178
513.718449	11064.150542
514.082655	11256.558781
514.446803	11157.800057
514.810894	11278.533171
515.174927	11144.259517
515.538904	11172.164825
515.902822	11321.536734
516.266684	11208.471215
516.630488	11157.565643
516.994235	11209.182017
517.357925	11264.410378
517.721558	11353.268277
518.085133	11373.460618
518.448651	11379.951104
518.812112	11265.237127
519.175516	11275.311873
519.538863	11404.587223
519.902152	11313.700260
520.265385	11479.070271
520.628560	11390.290510
520.991678	11366.075328
521.354739	11428.169740
521.717743	11358.175840
522.080690	11340.252017
522.443580	11478.104890
522.806413	11428.741911
523.169189	11461.302724
523.531908	11517.441013
523.894569	11338.288488
524.257174	11344.020280
524.619722	11460.070162
524.982213	11409.726679
525.344647	11458.157044
525.707025	11410.011504
526.069345	11506.839467
526.431608	11423.741087
526.793815	11528.249247
527.155964	11324.984883
527.518057	11373.100176
527.880093	11324.006899
528.242072	11390.492157
528.603995	11299.156531
528.965860	11223.637526
529.327669	11268.728127
529.689421	11218.838347
530.051117	11194.913031
530.412755	11296.421705
530.774337	11189.849192
531.135862	11169.082159
531.497331	11192.354646
531.858743	11041.069619
532.220098	11215.533871
532.581396	11076.874414
532.942638	11069.053064
533.303824	11032.620645
533.664953	11038.750688
534.026025	10952.607451
534.387040	11052.825590
534.747999	11054.421115
535.108902	11117.735487
535.469748	10870.570234
535.830537	10975.403549
536.191270	10951.601741
536.551947	10978.004784
536.912567	10974.017232
537.273131	10900.784390
537.633638	10875.939063
537.994089	10862.446415
538.354483	10814.381533
538.714821	10957.363780
539.075103	10968.073711
539.435328	10934.476941
539.795497	10759.158213
540.155609	10917.725187
540.515665	11007.513178
540.875665	10744.438044
541.235609	10813.234671
541.595496	10801.975254
541.955328	10957.583070
542.315102	10850.665238
542.674821	10798.522063
543.034483	10804.987343
543.394090	10802.065994
543.753640	10728.162679
544.113134	10948.224168
544.472571	10804.868876
544.831953	10948.040166
545.191278	10759.654767
545.550548	10781.800556
545.909761	10923.585528
546.268918	10900.721375
546.628019	10981.916720
546.987064	10840.976140
547.346053	10762.248441
547.704986	10862.474141
548.063863	10851.071051
548.422684	10842.523775
548.781449	10759.143090
549.140158	10862.524552
549.498811	10736.513350
549.857408	10592.507750
550.215949	10819.863788
550.574434	10671.190079
550.932864	10777.266038
551.291237	10831.380304
551.649555	10782.125710
552.007817	10793.117946
552.366022	10752.604713
552.724173	10747.646739
553.082267	10733.438247
553.440305	10867.386745
553.798288	10668.609008
554.156215	10822.465023
554.514086	10803.321242
554.871902	10651.045628
555.229661	10690.142297
555.587365	10665.354943
555.945014	10553.032994
556.302606	10686.071565
556.660143	10576.444113
557.017625	10729.954809
557.375050	10630.039140
557.732421	10763.523853
558.089735	10677.998157
558.446994	10682.134424
558.804197	10713.036697
559.161345	10719.703623
559.518437	10560.582122
559.875474	10653.145269
560.232455	10681.975627
560.589381	10630.878492
560.946251	10629.436722
561.303065	10739.810265
561.659825	10672.846098
562.016528	10599.903122
562.373177	10479.215379
562.729770	10597.659809
563.086307	10512.986068
563.442789	10603.179872
563.799216	10480.243774
564.155587	10532.570951
564.511904	10486.598148
564.868164	10475.318567
565.224370	10485.912552
565.580520	10409.793649
565.936615	10415.732128
566.292654	10292.765783
566.648638	10421.592470
567.004567	10378.314164
567.360441	10364.849242
567.716260	10268.545559
568.072023	10365.912925
568.427732	10312.776643
568.783385	10222.880267
569.138982	10293.882399
569.494525	10311.181118
569.850013	10178.813021
570.205445	10270.420869
570.560823	10166.734416
570.916145	10087.870606
571.271412	10152.936778
571.626625	10099.515671
571.981782	10071.877545
572.336884	10046.409636
572.691931	10059.279702
573.046923	10006.773564
573.401860	9956.351943
573.756743	9890.390965
574.111570	9941.659500
574.466342	9921.164689
574.821059	9946.249471
575.175722	9844.808852
575.530330	9848.824131
575.884882	9840.952370
576.239380	9767.928736
576.593823	9743.983255
576.948211	9761.385318
577.302544	9646.084047
577.656823	9662.659361
578.011047	9653.678545
578.365216	9631.489907
578.719330	9553.465448
579.073389	9567.005987
579.427394	9513.060600
579.781344	9496.170214
580.135239	9443.701885
580.489080	9450.830076
580.842866	9354.090334
581.196597	9352.779634
581.550273	9397.850070
581.903895	9360.805151
582.257463	9428.822919
582.610975	9307.454620
582.964434	9338.324125
583.317837	9253.385724
583.671186	9236.974248
584.024481	9232.230522
584.377721	9157.749995
584.730906	9126.033575
585.084037	9157.266044
585.437113	9096.101724
585.790135	9115.679045
586.143103	9014.036781
586.496016	8985.244231
586.848874	9049.944920
587.201679	9033.760295
587.554428	8917.188654
587.907124	8970.720666
588.259765	8942.333929
588.612352	8943.032129
588.964884	8815.732912
589.317362	8833.571035
589.669786	8835.368206
590.022155	8881.063745
590.374470	8893.974140
590.726731	8832.124224
591.078937	8689.683901
591.431090	8803.003998
591.783188	8678.343826
592.135232	8667.422166
592.487222	8660.934201
592.839157	8721.057522
593.191038	8650.302407
593.542866	8595.681505
593.894639	8497.560487
594.246358	8546.215183
594.598022	8564.126403
594.949633	8455.978529
595.301190	8441.094523
595.652692	8460.097152
596.004141	8576.595697
596.355535	8349.045574
596.706876	8333.130651
597.058162	8272.301568
597.409395	8342.514759
597.760573	8404.694871
598.111698	8307.967732
598.462768	8295.412738
598.813785	8262.519209
599.164748	8238.825786
599.515657	8223.427582
599.866511	8135.116649
600.217312	8256.008559
600.568060	8115.284750
600.918753	8221.290133
601.269392	8188.991460
601.619978	8097.456709
601.970510	8164.050351
602.320988	8161.060947
602.671412	8221.060760
603.021783	8159.089856
603.372100	8128.548025
603.722363	8134.297461
604.072572	8110.432639
604.422728	8112.295345
604.772830	8046.714975
605.122878	8055.297539
605.472872	8047.062815
605.822813	8076.941733
606.172701	8024.692694
606.522534	8102.112215
606.872314	8096.398067
607.222041	8068.772544
607.571714	8122.733054
607.921333	8080.049605
608.270899	8085.693177
608.620411	8178.369749
608.969870	8081.428360
609.319276	8072.502998
609.668627	8088.967406
610.017926	8124.573076
610.367171	8166.709560
610.716362	8144.921693
611.065500	8139.550344
611.414585	8169.260384
611.763616	8159.183117
612.112594	8140.072103
612.461518	8155.797982
612.810389	8215.941468
613.159207	8150.703897
613.507971	8097.418900
613.856682	8221.421203
614.205340	8171.639808
614.553945	8249.266016
614.902496	8154.978795
615.250994	8206.678348
615.599439	8186.188578
615.947830	8202.267339
616.296169	8176.693565
616.644454	8188.358795
616.992686	8179.864451
617.340864	8245.863237
617.688990	8147.822877
618.037063	8239.108091
618.385082	8183.680604
618.733048	8272.392309
619.080961	8204.719860
619.428821	8226.064105
619.776628	8227.452943
620.124382	8183.736057
620.472083	8166.800301
620.819731	8194.204013
621.167326	8086.270389
621.514868	8098.795135
621.862357	7983.045202
622.209793	8005.198552
622.557176	7934.085516
622.904506	7903.210969
623.251783	7841.189653
623.599007	7795.264742
623.946179	7799.970659
624.293297	7753.040037
624.640363	7673.679673
624.987376	7653.419275
625.334336	7605.810618
625.681243	7549.531177
626.028097	7540.447018
626.374899	7516.887185
626.721647	7511.941813
627.068343	7446.553007
627.414987	7413.523367
627.761577	7371.807819
628.108115	7405.258395
628.454600	7297.334853
628.801032	7347.748912
629.147412	7309.189126
629.493739	7293.405273
629.840014	7236.369659
630.186236	7292.245808
630.532405	7171.366501
630.878521	7223.600416
631.224585	7183.414858
631.570597	7108.347036
631.916556	7140.078579
632.262462	7134.520707
632.608316	7090.302226
632.954117	7075.377890
633.299866	7060.569501
633.645562	7053.587503
633.991206	6973.057591
634.336797	6916.168169
634.682336	6869.784513
635.027823	6835.592887
635.373257	6830.672721
635.718639	6757.190342
636.063968	6775.764473
636.409245	6669.983421
636.754470	6667.369583
637.099642	6627.027749
637.444762	6569.581281
637.789829	6576.296098
638.134845	6519.419279
638.479808	6506.768504
638.824719	6512.921232
639.169577	6438.344923
639.514383	6458.857378
639.859137	6386.577314
640.203839	6395.946298
640.548489	6383.156891
