Dividing Wavelength (nm)	Counts (n)	Blue Motor Position (mm): 0.000000	Red Motor Position (mm): 0.600000	
326.493990	2128.438168
326.888308	2128.438168
327.282561	2128.438168
327.676750	2096.343662
328.070874	2094.531368
328.464933	2096.081522
328.858929	2105.851278
329.252859	2115.885695
329.646726	2123.880965
330.040528	2138.865795
330.434265	2155.322642
330.827938	2171.071206
331.221547	2189.942766
331.615091	2210.450180
332.008571	2229.621688
332.401986	2249.015007
332.795338	2267.140475
333.188625	2285.437343
333.581847	2305.097843
333.975006	2323.639207
334.368100	2341.389110
334.761129	2358.501306
335.154095	2374.461599
335.546996	2392.869373
335.939833	2410.011816
336.332606	2421.787952
336.725315	2433.627102
337.117960	2444.168154
337.510540	2451.951696
337.903056	2466.429890
338.295508	2471.176136
338.687896	2478.856334
339.080220	2489.896461
339.472480	2494.352841
339.864676	2499.046155
340.256807	2504.740138
340.648875	2507.452279
341.040879	2510.615603
341.432818	2512.281704
341.824694	2510.539986
342.216506	2513.967970
342.608253	2513.395799
342.999937	2512.788340
343.391557	2512.352281
343.783113	2513.058042
344.174605	2508.644512
344.566033	2509.330109
344.957397	2507.439676
345.348697	2505.760972
345.739934	2502.975734
346.131106	2502.390961
346.522215	2501.118069
346.913260	2497.571618
347.304241	2495.603047
347.695159	2494.640187
348.086012	2494.491473
348.476802	2491.796976
348.867528	2490.408138
349.258191	2488.190030
349.648789	2489.049547
350.039324	2485.293887
350.429796	2485.472848
350.820203	2483.615183
351.210548	2482.123002
351.600828	2480.998824
351.991045	2482.276757
352.381198	2479.844400
352.771288	2478.629482
353.161314	2481.606283
353.551276	2479.423464
353.941175	2478.931951
354.331010	2477.517908
354.720782	2478.722743
355.110490	2479.284832
355.500135	2478.800881
355.889717	2481.757518
356.279235	2476.900366
356.668689	2480.822384
357.058080	2480.837507
357.447408	2478.798361
357.836672	2477.777527
358.225873	2480.146869
358.615010	2476.262660
359.004084	2483.368167
359.393095	2480.242651
359.782043	2481.271047
360.170927	2483.219452
360.559748	2482.367497
360.948505	2485.550986
361.337199	2485.324134
361.725830	2483.887405
362.114398	2486.849083
362.502903	2487.416213
362.891344	2484.693990
363.279722	2488.671460
363.668037	2485.682056
364.056289	2488.426964
364.444478	2487.804382
364.832603	2490.733292
365.220665	2488.096769
365.608665	2488.825216
365.996601	2490.266986
366.384474	2487.723723
366.772284	2493.984837
367.160031	2491.812099
367.547715	2493.788232
367.935336	2493.440392
368.322893	2490.105669
368.710388	2492.595999
369.097820	2494.204127
369.485189	2492.452326
369.872495	2495.585403
370.259738	2493.110196
370.646918	2492.938797
371.034035	2494.821668
371.421090	2495.441730
371.808081	2496.296206
372.195010	2496.797800
372.581875	2492.359064
372.968678	2497.226298
373.355418	2494.488952
373.742096	2495.202275
374.128710	2495.812255
374.515262	2497.889210
374.901751	2496.182780
375.288177	2494.990547
375.674540	2495.061123
376.060841	2499.288130
376.447079	2495.567759
376.833254	2496.260917
377.219367	2495.101452
377.605417	2496.220588
377.991404	2492.737151
378.377329	2496.757471
378.763191	2492.084322
379.148991	2499.023470
379.534727	2498.468943
379.920402	2496.518016
380.306013	2498.224447
380.691563	2499.928357
381.077049	2497.349807
381.462474	2499.915754
381.847835	2499.852740
382.233134	2502.141423
382.618371	2498.922647
383.003545	2501.876763
383.388657	2500.162771
383.773706	2502.065806
384.158693	2503.048831
384.543618	2501.228975
384.928480	2501.039931
385.313280	2505.720643
385.698017	2502.496825
386.082692	2503.515138
386.467305	2501.370127
386.851856	2504.503204
387.236344	2504.009171
387.620770	2502.448934
388.005133	2504.301558
388.389435	2503.983965
388.773674	2501.478512
389.157851	2502.668224
389.541965	2503.941115
389.926018	2503.242916
390.310008	2504.525889
390.693936	2502.920282
391.077802	2504.263749
391.461606	2503.958759
391.845348	2504.236023
392.229027	2505.753410
392.612645	2504.790550
392.996200	2506.953205
393.379694	2507.008658
393.763125	2508.402537
394.146494	2507.452279
394.529801	2509.314985
394.913047	2505.715602
395.296230	2508.276508
395.679351	2508.054697
396.062410	2509.042763
396.445408	2506.134017
396.828343	2509.572084
397.211217	2503.868019
397.594028	2506.018071
397.976778	2502.295179
398.359466	2506.481857
398.742092	2503.888183
399.124656	2507.900942
399.507158	2505.793739
399.889598	2508.531086
400.271977	2508.533607
400.654294	2509.453617
401.036549	2510.222393
401.418742	2511.054183
401.800874	2509.415808
402.182944	2513.325223
402.564952	2510.575274
402.946898	2512.266581
403.328783	2512.188443
403.710606	2508.742814
404.092367	2509.657784
404.474067	2512.460665
404.855705	2511.170130
405.237282	2513.741118
405.618797	2508.989831
406.000250	2512.712723
406.381642	2511.026457
406.762972	2512.291787
407.144240	2509.413288
407.525447	2512.899246
407.906593	2511.651560
408.287677	2516.216325
408.668700	2512.932013
409.049661	2514.250275
409.430560	2514.872857
409.811399	2512.984945
410.192176	2512.493433
410.572891	2511.560819
410.953545	2513.932682
411.334138	2517.075842
411.714669	2513.189112
412.095139	2514.020902
412.475547	2512.372445
412.855894	2512.818587
413.236180	2513.844462
413.616405	2515.888650
413.996568	2516.591891
414.376670	2516.004597
414.756711	2516.249093
415.136691	2513.302538
415.516609	2516.102899
415.896466	2515.140039
416.276262	2516.533918
416.655997	2512.306910
417.035670	2513.410923
417.415283	2512.639626
417.794834	2512.488392
418.174324	2517.519463
418.553753	2516.425533
418.933121	2515.883609
419.312428	2515.505522
419.691674	2515.944103
420.070859	2516.261695
420.449983	2515.175327
420.829045	2519.982067
421.208047	2520.559279
421.586988	2516.982580
421.965867	2517.569875
422.344686	2520.765966
422.723444	2518.482324
423.102141	2518.220184
423.480777	2520.403003
423.859352	2517.852179
424.237866	2518.434433
424.616319	2518.071470
424.994712	2519.064577
425.373044	2517.930317
425.751314	2517.227076
426.129524	2517.678260
426.507673	2520.304701
426.885762	2519.422499
427.263789	2520.881913
427.641756	2518.739423
428.019662	2519.777900
428.397508	2519.109947
428.775292	2522.096831
429.153016	2521.287726
429.530679	2518.739423
429.908282	2520.781090
430.285824	2517.716068
430.663305	2520.219001
431.040726	2522.737058
431.418086	2521.207067
431.795385	2520.733199
432.172624	2520.350071
432.549802	2519.248579
432.926920	2520.619773
433.303977	2520.599608
433.680974	2521.237314
434.057910	2518.986439
434.434786	2519.997190
434.811601	2521.126409
435.188355	2522.605988
435.565050	2525.318128
435.941683	2523.326873
436.318257	2518.396624
436.694770	2518.003414
437.071222	2519.553569
437.447614	2518.290760
437.823946	2518.255472
438.200218	2520.864269
438.576429	2523.513395
438.952580	2520.619773
439.328670	2523.596574
439.704700	2522.868127
440.080670	2523.641945
440.456580	2523.649506
440.832429	2523.437778
441.208218	2523.468025
441.583947	2523.583971
441.959616	2522.424506
442.335224	2524.589682
442.710773	2524.687984
443.086261	2525.350896
443.461689	2523.924249
443.837057	2524.864424
444.212365	2523.583971
444.587612	2523.929290
444.962800	2524.932480
445.337927	2524.209074
445.712995	2524.110772
446.088002	2525.870135
446.462949	2521.459125
446.837837	2526.691843
447.212664	2523.546163
447.587431	2525.391225
447.962139	2525.512213
448.336786	2527.022038
448.711374	2523.291584
449.085901	2529.706453
449.460369	2525.282840
449.834776	2523.127747
450.209124	2525.300484
450.583412	2527.082532
450.957640	2525.799558
451.331808	2523.810823
451.705917	2524.377953
452.079965	2527.029600
452.453954	2525.837367
452.827883	2526.248221
453.201752	2528.942718
453.575562	2526.071781
453.949311	2526.197810
454.323001	2525.890299
454.696632	2526.845598
455.070202	2528.078160
455.443713	2525.718900
455.817164	2525.119003
456.190556	2521.570030
456.563888	2525.897861
456.937160	2523.341996
457.310373	2525.759229
457.683526	2526.364168
458.056619	2526.795186
458.429653	2525.366019
458.802628	2526.046575
459.175542	2528.431041
459.548398	2528.231915
459.921194	2526.104548
460.293930	2528.385670
460.666607	2528.899868
461.039224	2527.649662
461.411782	2527.385001
461.784280	2527.984899
462.156719	2526.717048
462.529099	2527.309384
462.901419	2527.505989
463.273680	2528.138654
463.645882	2528.516740
464.018024	2527.430372
464.390106	2529.570342
464.762130	2530.495393
465.134094	2525.106400
465.505999	2529.782070
465.877845	2526.815351
466.249631	2529.651000
466.621358	2531.924560
466.993026	2533.981351
467.364634	2533.872966
467.736184	2527.455577
468.107674	2528.912471
468.479105	2527.493386
468.850477	2528.302491
469.221790	2527.879034
469.593043	2529.749303
469.964238	2531.034797
470.335373	2530.170239
470.706449	2529.550177
471.077467	2528.420958
471.448425	2531.496062
471.819324	2531.407842
472.190164	2531.511186
472.560945	2528.037831
472.931667	2530.999509
473.302330	2532.353058
473.672934	2529.842564
474.043479	2529.696370
474.413965	2529.835002
474.784393	2526.338962
475.154761	2527.828623
475.525070	2529.507327
475.895321	2523.261337
476.265513	2526.528005
476.635645	2528.988088
477.005719	2529.645959
477.375734	2529.716535
477.745691	2529.729138
478.115588	2531.163346
478.485427	2532.733666
478.855207	2530.424817
479.224928	2531.004550
479.594591	2531.697708
479.964194	2530.807945
480.333739	2528.783922
480.703226	2533.618388
481.072653	2532.262318
481.442022	2528.904909
481.811333	2531.864067
482.180584	2528.554549
482.549777	2530.238294
482.918912	2528.088242
483.287988	2532.597554
483.657005	2532.146371
484.025964	2531.911958
484.394864	2530.523120
484.763706	2530.815507
485.132489	2531.730476
485.501213	2532.794159
485.869879	2530.543284
486.238487	2532.645445
486.607036	2530.737369
486.975527	2532.645445
487.343959	2531.947246
487.712333	2533.893131
488.080648	2530.921371
488.448905	2535.652494
488.817104	2533.189890
489.185244	2533.872966
489.553326	2530.800383
489.921350	2533.956145
490.289315	2532.688295
490.657222	2530.757533
491.025070	2534.314067
491.392861	2535.397915
491.760593	2532.683254
492.128267	2532.688295
492.495883	2531.811134
492.863440	2530.074457
493.230939	2533.784746
493.598380	2533.081505
493.965763	2528.960362
494.333088	2529.179652
494.700354	2529.630835
495.067563	2530.684437
495.434713	2525.242511
495.801805	2532.660569
496.168839	2533.472195
496.535815	2531.722914
496.902733	2533.711649
497.269593	2532.839530
497.636395	2535.027391
498.003139	2533.784746
498.369825	2533.487318
498.736453	2533.646114
499.103023	2532.620240
499.469535	2530.712163
499.835989	2531.354910
500.202385	2534.170394
500.568723	2532.169056
500.935003	2532.466484
501.301226	2535.350024
501.667390	2534.480425
502.033497	2532.463964
502.399546	2532.113604
502.765537	2533.706608
503.131470	2533.043697
503.497345	2533.870446
503.863163	2533.562935
504.228923	2531.778367
504.594625	2536.620395
504.960269	2534.251053
505.325856	2531.922040
505.691385	2535.274407
506.056856	2533.726773
506.422270	2535.118131
506.787625	2534.198121
507.152924	2536.093595
507.518164	2534.256094
507.883347	2531.952287
508.248472	2531.201155
508.613540	2534.072092
508.978550	2533.605785
509.343503	2536.179294
509.708398	2535.425642
510.073236	2534.487987
510.438016	2535.322298
510.802738	2534.553522
511.167403	2534.172915
511.532010	2532.557225
511.896561	2534.004036
512.261053	2534.228368
512.625488	2531.402801
512.989866	2531.498583
513.354186	2533.696526
513.718449	2529.071267
514.082655	2535.075282
514.446803	2533.794828
514.810894	2531.760723
515.174927	2535.113090
515.538904	2531.980013
515.902822	2532.597554
516.266684	2535.203831
516.630488	2534.629139
516.994235	2535.292051
517.357925	2533.187369
517.721558	2533.716691
518.085133	2536.648122
518.448651	2535.166022
518.812112	2537.384130
519.175516	2535.465971
519.538863	2539.105684
519.902152	2535.927237
520.265385	2533.502442
520.628560	2534.712318
520.991678	2531.289375
521.354739	2536.549819
521.717743	2533.716691
522.080690	2535.148378
522.443580	2536.625436
522.806413	2537.553009
523.169189	2534.528316
523.531908	2534.530837
523.894569	2537.343801
524.257174	2536.527134
524.619722	2534.467823
524.982213	2536.927906
525.344647	2534.878677
525.707025	2533.331042
526.069345	2535.634850
526.431608	2533.832637
526.793815	2532.239632
527.155964	2534.886238
527.518057	2531.533871
527.880093	2536.345652
528.242072	2538.651980
528.603995	2535.526465
528.965860	2534.717360
529.327669	2535.269366
529.689421	2533.167205
530.051117	2535.077802
530.412755	2534.470343
530.774337	2534.883718
531.135862	2535.468492
531.497331	2533.797349
531.858743	2530.329035
532.220098	2534.442617
532.581396	2529.643438
532.942638	2531.700229
533.303824	2535.140817
533.664953	2535.440765
534.026025	2535.597041
534.387040	2534.735004
534.747999	2534.689633
535.108902	2535.929757
535.469748	2535.206352
535.830537	2534.735004
536.191270	2537.671476
536.551947	2538.478060
536.912567	2535.413039
537.273131	2535.206352
537.633638	2538.795653
537.994089	2536.665766
538.354483	2536.242309
538.714821	2537.104346
539.075103	2534.694674
539.435328	2536.549819
539.795497	2535.637370
540.155609	2536.544778
540.515665	2534.167874
540.875665	2538.588966
541.235609	2536.529654
541.595496	2536.113759
541.955328	2537.636188
542.315102	2536.454037
542.674821	2536.985879
543.034483	2537.358924
543.394090	2537.850437
543.753640	2534.883718
544.113134	2536.418749
544.472571	2533.774664
544.831953	2536.645601
545.191278	2536.078471
545.550548	2536.703574
545.909761	2538.732639
546.268918	2535.385313
546.628019	2537.613503
546.987064	2535.730632
547.346053	2536.290200
547.704986	2538.775488
548.063863	2536.149047
548.422684	2534.724921
548.781449	2536.983358
549.140158	2535.644932
549.498811	2536.960673
549.857408	2533.567977
550.215949	2535.050076
550.574434	2529.252749
550.932864	2534.883718
551.291237	2530.281144
551.649555	2539.178781
552.007817	2536.398584
552.366022	2537.805066
552.724173	2539.514017
553.082267	2533.479756
553.440305	2535.594520
553.798288	2536.451517
554.156215	2536.615354
554.514086	2535.516382
554.871902	2537.663914
555.229661	2540.179450
555.587365	2537.285828
555.945014	2540.050900
556.302606	2537.437062
556.660143	2538.132741
557.017625	2535.009747
557.375050	2535.954963
557.732421	2535.082843
558.089735	2536.133924
558.446994	2538.387320
558.804197	2535.886907
559.161345	2535.680220
559.518437	2535.997813
559.875474	2538.611651
560.232455	2536.454037
560.589381	2539.387989
560.946251	2538.488143
561.303065	2538.369676
561.659825	2539.892104
562.016528	2537.358924
562.373177	2534.361958
562.729770	2536.781712
563.086307	2539.662732
563.442789	2538.276414
563.799216	2535.526465
564.155587	2534.243491
564.511904	2536.224665
564.868164	2537.706764
565.224370	2537.384130
565.580520	2536.975797
565.936615	2537.066537
566.292654	2535.047555
566.648638	2535.632329
567.004567	2537.288348
567.360441	2535.876825
567.716260	2537.679038
568.072023	2536.201979
568.427732	2532.874818
568.783385	2533.797349
569.138982	2530.669313
569.494525	2534.036804
569.850013	2529.615712
570.205445	2540.343287
570.560823	2538.236085
570.916145	2539.027546
571.271412	2533.857843
571.626625	2536.759027
571.981782	2538.503266
572.336884	2537.716846
572.691931	2536.837165
573.046923	2538.664583
573.401860	2538.210879
573.756743	2537.081661
574.111570	2536.035621
574.466342	2536.640560
574.821059	2535.544109
575.175722	2534.669469
575.530330	2538.851106
575.884882	2539.987886
576.239380	2537.144675
576.593823	2535.629808
576.948211	2536.096115
577.302544	2538.888914
577.656823	2537.149716
578.011047	2538.210879
578.365216	2536.103677
578.719330	2534.813142
579.073389	2536.317926
579.427394	2537.434542
579.781344	2537.817669
580.135239	2538.238606
580.489080	2534.563604
580.842866	2537.006043
581.196597	2538.407484
581.550273	2537.653832
581.903895	2535.768440
582.257463	2537.331198
582.610975	2538.190715
582.964434	2537.182484
583.317837	2539.428318
583.671186	2535.486136
584.024481	2537.520241
584.377721	2536.562422
584.730906	2537.419418
585.084037	2537.716846
585.437113	2538.233564
585.790135	2535.687782
586.143103	2536.524613
586.496016	2538.853626
586.848874	2528.035310
587.201679	2533.578059
587.554428	2532.116124
587.907124	2533.754499
588.259765	2536.141486
588.612352	2539.022505
588.964884	2538.374717
589.317362	2536.844727
589.669786	2537.205169
590.022155	2538.470499
590.374470	2538.253729
590.726731	2538.586445
591.078937	2538.054603
591.431090	2538.868750
591.783188	2537.555529
592.135232	2537.870601
592.487222	2537.260622
592.839157	2538.563760
593.191038	2537.154757
593.542866	2538.289017
593.894639	2538.289017
594.246358	2537.389171
594.598022	2535.337422
594.949633	2534.543440
595.301190	2535.203831
595.652692	2538.122659
596.004141	2536.917823
596.355535	2538.442772
596.706876	2536.267514
597.058162	2537.830272
597.409395	2538.036959
597.760573	2536.607792
598.111698	2537.563091
598.462768	2537.777340
598.813785	2535.849099
599.164748	2537.847916
599.515657	2535.229037
599.866511	2535.823893
600.217312	2536.874973
600.568060	2539.551826
600.918753	2536.905220
601.269392	2538.704912
601.619978	2536.685930
601.970510	2536.514531
602.320988	2538.087371
602.671412	2537.550488
603.021783	2538.147865
603.372100	2537.406815
603.722363	2539.355221
604.072572	2537.734490
604.422728	2535.740714
604.772830	2533.946063
605.122878	2534.256094
605.472872	2531.589324
605.822813	2531.344828
606.172701	2534.598893
606.522534	2537.069058
606.872314	2539.957639
607.222041	2537.926054
607.571714	2539.183822
607.921333	2539.052752
608.270899	2537.789943
608.620411	2536.680889
608.969870	2538.180632
609.319276	2541.601055
609.668627	2543.456200
610.017926	2543.229348
610.367171	2544.973587
610.716362	2543.957795
611.065500	2542.758000
611.414585	2542.475695
611.763616	2541.593493
612.112594	2539.902186
612.461518	2538.513348
612.810389	2538.467978
613.159207	2540.073586
613.507971	2538.473019
613.856682	2538.674665
614.205340	2536.885056
614.553945	2539.882022
614.902496	2538.362114
615.250994	2536.650642
615.599439	2536.171732
615.947830	2538.331867
616.296169	2535.334901
616.644454	2537.661393
616.992686	2538.155427
617.340864	2538.306661
617.688990	2536.650642
618.037063	2537.868081
618.385082	2538.122659
618.733048	2538.813297
619.080961	2537.381609
619.428821	2539.612320
619.776628	2537.860519
620.124382	2539.183822
620.472083	2539.733308
620.819731	2538.765406
621.167326	2537.036290
621.514868	2538.392361
621.862357	2537.905889
622.209793	2537.008564
622.557176	2538.276414
622.904506	2536.131403
623.251783	2531.899355
623.599007	2535.997813
623.946179	2531.274252
624.293297	2533.595703
624.640363	2538.271373
624.987376	2538.878832
625.334336	2536.232226
625.681243	2536.935467
626.028097	2538.062165
626.374899	2537.177443
626.721647	2535.909593
627.068343	2538.420087
627.414987	2535.382792
627.761577	2536.877494
628.108115	2536.809438
628.454600	2536.912782
628.801032	2538.251208
629.147412	2538.714995
629.493739	2535.793646
629.840014	2538.243647
630.186236	2537.489994
630.532405	2534.868594
630.878521	2538.183153
631.224585	2538.689789
631.570597	2537.452186
631.916556	2537.321116
632.262462	2538.755324
632.608316	2539.529141
632.954117	2538.478060
633.299866	2537.041332
633.645562	2536.622916
633.991206	2537.124511
634.336797	2536.292720
634.682336	2536.638039
635.027823	2534.041845
635.373257	2537.288348
635.718639	2534.956814
636.063968	2536.847247
636.409245	2534.805580
636.754470	2537.318595
637.099642	2537.121990
637.444762	2535.476053
637.789829	2535.372710
638.134845	2537.497556
638.479808	2536.325488
638.824719	2538.558719
639.169577	2538.218441
639.514383	2534.404808
639.859137	2535.907072
640.203839	2537.560570
640.548489	2535.808769
640.893086	2533.008408
641.237632	2532.532019
641.582125	2535.208872
641.926566	2531.039838
642.270955	2536.264994
642.615292	2535.960004
642.959576	2536.212062
643.303809	2537.527803
643.647990	2537.381609
643.992118	2537.174922
644.336195	2534.997144
