Dividing Wavelength (nm)	Counts (n)	Blue Motor Position (mm): 0.000000	Red Motor Position (mm): 29.000000	
326.493990	2126.880452
326.888308	2126.880452
327.282561	2126.880452
327.676750	2094.811152
328.070874	2094.904413
328.464933	2095.632860
328.858929	2103.131576
329.252859	2110.118615
329.646726	2124.942128
330.040528	2136.521658
330.434265	2152.867600
330.827938	2170.088181
331.221547	2188.881603
331.615091	2207.629654
332.008571	2225.871069
332.401986	2247.832856
332.795338	2268.088212
333.188625	2284.376180
333.581847	2302.496608
333.975006	2320.942190
334.368100	2342.152844
334.761129	2356.356295
335.154095	2375.217773
335.546996	2395.591596
335.939833	2407.947464
336.332606	2424.913467
336.725315	2434.166505
337.117960	2447.127312
337.510540	2455.619135
337.903056	2469.399129
338.295508	2473.048925
338.687896	2482.281798
339.080220	2491.877634
339.472480	2497.496000
339.864676	2502.728718
340.256807	2508.029491
340.648875	2508.747856
341.040879	2510.499657
341.432818	2512.571571
341.824694	2514.333454
342.216506	2516.808661
342.608253	2513.728516
342.999937	2514.910666
343.391557	2516.221366
343.783113	2513.547034
344.174605	2511.097033
344.566033	2514.880419
344.957397	2509.022598
345.348697	2508.493277
345.739934	2507.122083
346.131106	2503.452123
346.522215	2505.735766
346.913260	2499.620847
347.304241	2499.086484
347.695159	2496.691936
348.086012	2495.146823
348.476802	2495.542553
348.867528	2491.595330
349.258191	2495.900475
349.648789	2490.337562
350.039324	2489.846049
350.429796	2487.930411
350.820203	2489.359578
351.210548	2487.217088
351.600828	2487.877479
351.991045	2481.208032
352.381198	2484.018475
352.771288	2485.079638
353.161314	2483.584936
353.551276	2482.997642
353.941175	2483.935296
354.331010	2483.675677
354.720782	2483.206850
355.110490	2485.591315
355.500135	2482.501088
355.889717	2488.212715
356.279235	2483.282467
356.668689	2485.245996
357.058080	2486.594505
357.447408	2485.732468
357.836672	2484.056284
358.225873	2483.174082
358.615010	2482.541417
359.004084	2486.181130
359.393095	2487.693477
359.782043	2489.798158
360.170927	2488.537870
360.559748	2492.996770
360.948505	2491.169352
361.337199	2494.020125
361.725830	2492.172542
362.114398	2493.614312
362.502903	2490.622387
362.891344	2494.030207
363.279722	2491.577686
363.668037	2494.078098
364.056289	2495.945845
364.444478	2494.206647
364.832603	2498.380723
365.220665	2497.672441
365.608665	2500.588748
365.996601	2497.669920
366.384474	2501.249139
366.772284	2505.113184
367.160031	2500.099756
367.547715	2504.160406
367.935336	2506.862464
368.322893	2508.379851
368.710388	2512.019564
369.097820	2520.526512
369.485189	2523.052130
369.872495	2527.904240
370.259738	2535.521424
370.646918	2543.584749
371.034035	2550.602035
371.421090	2558.004970
371.808081	2569.612227
372.195010	2580.100347
372.581875	2593.456884
372.968678	2608.108998
373.355418	2616.305914
373.742096	2633.682771
374.128710	2650.769762
374.515262	2664.229643
374.901751	2676.900583
375.288177	2691.479600
375.674540	2715.533466
376.060841	2733.956362
376.447079	2753.326996
376.833254	2772.919441
377.219367	2781.829680
377.605417	2825.569251
377.991404	2833.105776
378.377329	2852.597398
378.763191	2871.337887
379.148991	2908.493712
379.534727	2933.046651
379.920402	2962.469346
380.306013	2974.275728
380.691563	3028.354706
381.077049	3046.613765
381.462474	3064.252763
381.847835	3101.811879
382.233134	3126.092597
382.618371	3124.181999
383.003545	3195.363092
383.388657	3200.527754
383.773706	3232.773494
384.158693	3248.277563
384.543618	3273.261522
384.928480	3311.712922
385.313280	3358.202443
385.698017	3358.126826
386.082692	3409.712953
386.467305	3413.012388
386.851856	3445.280814
387.236344	3467.013228
387.620770	3500.499093
388.005133	3525.503216
388.389435	3555.699727
388.773674	3563.334555
389.157851	3606.421297
389.541965	3623.629276
389.926018	3587.065787
390.310008	3658.856859
390.693936	3677.012574
391.077802	3718.460941
391.461606	3705.900906
391.845348	3771.632511
392.229027	3770.999847
392.612645	3781.871095
392.996200	3858.504195
393.379694	3898.480545
393.763125	3962.394814
394.146494	3930.776697
394.529801	3997.604753
394.913047	4038.430537
395.296230	4007.961804
395.679351	4059.174886
396.062410	4086.765121
396.445408	4066.282913
396.828343	4097.356585
397.211217	4125.869351
397.594028	4042.735683
397.976778	4110.773616
398.359466	4138.996516
398.742092	4166.344775
399.124656	4089.436932
399.507158	4168.698994
399.889598	4194.305535
400.271977	4253.975153
400.654294	4226.962130
401.036549	4233.676947
401.418742	4202.162173
401.800874	4306.501455
402.182944	4328.687573
402.564952	4393.922624
402.946898	4379.462075
403.328783	4377.652300
403.710606	4288.055873
404.092367	4482.299092
404.474067	4446.650573
404.855705	4452.432777
405.237282	4382.043145
405.618797	4494.168489
406.000250	4527.258623
406.381642	4606.427424
406.762972	4570.577258
407.144240	4576.626643
407.525447	4577.491201
407.906593	4637.145695
408.287677	4678.258825
408.668700	4607.599492
409.049661	4659.057070
409.430560	4702.680695
409.811399	4631.197133
410.192176	4791.873830
410.572891	4727.231114
410.953545	4831.709027
411.334138	4710.091191
411.714669	4779.260863
412.095139	4674.810676
412.475547	4822.037574
412.855894	4796.335251
413.236180	4806.432682
413.616405	4762.103296
413.996568	4847.240822
414.376670	4790.991628
414.756711	4743.138475
415.136691	4778.040903
415.516609	4858.669118
415.896466	4891.744128
416.276262	4924.713275
416.655997	4907.162498
417.035670	5089.193522
417.415283	5180.640053
417.794834	5122.384479
418.174324	5076.114248
418.553753	4988.562009
418.933121	5169.703269
419.312428	5237.416048
419.691674	5178.474877
420.070859	5301.756294
420.449983	5213.044589
420.829045	5330.064894
421.208047	5238.625925
421.586988	5307.384743
421.965867	5321.986445
422.344686	5452.864881
422.723444	5303.334175
423.102141	5124.610148
423.480777	5424.715078
423.859352	5190.331671
424.237866	5451.939829
424.616319	5446.800373
424.994712	5553.962701
425.373044	5428.659781
425.751314	5574.505402
426.129524	5377.020721
426.507673	5568.244289
426.885762	5650.563811
427.263789	5581.830199
427.641756	5466.929700
428.019662	5587.516621
428.397508	5593.336633
428.775292	5540.674219
429.153016	5639.768180
429.530679	5563.417385
429.908282	5651.657742
430.285824	5522.566394
430.663305	5798.844310
431.040726	5530.632241
431.418086	5529.046798
431.795385	5637.713910
432.172624	5647.518954
432.549802	5643.755733
432.926920	5658.760727
433.303977	5663.688455
433.680974	5702.790165
434.057910	5722.186004
434.434786	5725.306479
434.811601	5695.581315
435.188355	5930.239465
435.565050	5803.202388
435.941683	5786.606909
436.318257	6002.126319
436.694770	5980.993802
437.071222	6014.552763
437.447614	5945.486435
437.823946	5864.948961
438.200218	6014.648545
438.576429	5881.882197
438.952580	5973.883254
439.328670	6018.857908
439.704700	5928.893477
440.080670	5918.738072
440.456580	6187.499628
440.832429	6067.273150
441.208218	5918.309574
441.583947	6073.811526
441.959616	6077.476445
442.335224	6002.771586
442.710773	6138.734026
443.086261	6165.215207
443.461689	5959.147962
443.837057	6106.420230
444.212365	6264.679693
444.587612	6156.882180
444.962800	6315.376057
445.337927	6287.881604
445.712995	5903.990177
446.088002	6482.008877
446.462949	6307.421116
446.837837	6239.426033
447.212664	6414.843063
447.587431	6553.535288
447.962139	7089.155364
448.336786	8019.860748
448.711374	7759.555728
449.085901	6834.872002
449.460369	6757.394508
449.834776	6688.129055
450.209124	7077.971564
450.583412	7229.153247
450.957640	7373.864609
451.331808	7143.438508
451.705917	6694.453182
452.079965	6614.719772
452.453954	6827.867319
452.827883	6700.999120
453.201752	6793.176618
453.575562	6597.451300
453.949311	6790.300640
454.323001	6682.485483
454.696632	6759.088336
455.070202	6895.554891
455.443713	7041.531583
455.817164	7144.792058
456.190556	7220.709314
456.563888	7292.079450
456.937160	7332.635533
457.310373	6988.473439
457.683526	7007.022365
458.056619	6894.700416
458.429653	6883.675412
458.802628	6814.029351
459.175542	6917.332676
459.548398	7259.001919
459.921194	7414.549242
460.293930	7409.162769
460.666607	7919.435923
461.039224	8215.702014
461.411782	8325.147984
461.784280	8337.892021
462.156719	8224.302222
462.529099	8098.575845
462.901419	7678.204108
463.273680	7572.589415
463.645882	7572.357522
464.018024	7437.209228
464.390106	7576.440856
464.762130	7944.583719
465.134094	8366.520734
465.505999	9307.240371
465.877845	10445.694226
466.249631	11043.398632
466.621358	10672.009266
466.993026	10056.040760
467.364634	9802.077512
467.736184	9435.898179
468.107674	9104.417107
468.479105	9096.595757
468.850477	8862.603040
469.221790	8620.582285
469.593043	8295.584138
469.964238	8135.565312
470.335373	8124.000905
470.706449	8142.075962
471.077467	8090.051254
471.448425	9224.709121
471.819324	10128.119178
472.190164	10130.750660
472.560945	8995.601281
472.931667	8251.670646
473.302330	8097.423942
473.672934	7751.131960
474.043479	8019.671705
474.413965	7936.394364
474.784393	7775.407637
475.154761	7869.924230
475.525070	7903.205928
475.895321	7708.559416
476.265513	7809.901732
476.635645	7907.243892
477.005719	7839.175712
477.375734	7886.285295
477.745691	8017.282198
478.115588	8057.692087
478.485427	8185.384514
478.855207	8526.305146
479.224928	9037.647025
479.594591	9444.906721
479.964194	9231.113907
480.333739	9133.481880
480.703226	8973.115214
481.072653	8958.407648
481.442022	9018.878809
481.811333	9066.232888
482.180584	8858.113892
482.549777	8561.527688
482.918912	8364.839509
483.287988	8290.893344
483.657005	8217.834422
484.025964	7928.038652
484.394864	7925.321470
484.763706	7821.808937
485.132489	7587.959893
485.501213	7472.290618
485.869879	7445.738860
486.238487	7254.157370
486.607036	7247.699652
486.975527	7026.544233
487.343959	7055.109931
487.712333	6984.533777
488.080648	6876.012858
488.448905	6795.311547
488.817104	6691.138623
489.185244	6737.229893
489.553326	6711.754422
489.921350	6881.928652
490.289315	7258.994357
490.657222	7326.896179
491.025070	7178.958478
491.392861	7024.641197
491.760593	6774.209277
492.128267	6529.146186
492.495883	6298.914169
492.863440	6077.305046
493.230939	5857.626685
493.598380	5750.950828
493.965763	5608.848263
494.333088	5512.368140
494.700354	5394.359770
495.067563	5354.267473
495.434713	5208.557962
495.801805	5182.601061
496.168839	5088.155044
496.535815	4990.764993
496.902733	4931.034882
497.269593	4832.253472
497.636395	4805.495027
498.003139	4721.501842
498.369825	4631.948265
498.736453	4600.178913
499.103023	4531.835991
499.469535	4468.075477
499.835989	4407.813524
500.202385	4335.677133
500.568723	4243.948298
500.935003	4241.062237
501.301226	4136.097852
501.667390	4143.883914
502.033497	4104.071402
502.399546	4024.514432
502.765537	3959.397848
503.131470	3916.071651
503.497345	3891.503588
503.863163	3787.645737
504.228923	3784.530303
504.594625	3747.951691
504.960269	3671.510155
505.325856	3651.527021
505.691385	3588.290787
506.056856	3564.269689
506.422270	3526.745860
506.787625	3478.290290
507.152924	3449.401958
507.518164	3411.222779
507.883347	3366.159905
508.248472	3327.874862
508.613540	3316.471772
508.978550	3274.012653
509.343503	3240.972931
509.708398	3220.468038
510.073236	3198.574307
510.438016	3170.807631
510.802738	3136.157260
511.167403	3116.647995
511.532010	3080.765062
511.896561	3075.214752
512.261053	3055.783624
512.625488	3019.746936
512.989866	2995.103255
513.354186	2975.720019
513.718449	2950.902418
514.082655	2945.425205
514.446803	2923.539035
514.810894	2910.058990
515.174927	2889.796072
515.538904	2875.519524
515.902822	2863.758512
516.266684	2844.879391
516.630488	2828.346927
516.994235	2819.204795
517.357925	2809.866057
517.721558	2801.233081
518.085133	2788.052984
518.448651	2778.721809
518.812112	2767.636311
519.175516	2758.290012
519.538863	2750.476224
519.902152	2743.143865
520.265385	2734.984758
520.628560	2726.099724
520.991678	2718.364074
521.354739	2713.708568
521.717743	2706.058617
522.080690	2704.339584
522.443580	2696.336752
522.806413	2694.073274
523.169189	2692.041689
523.531908	2687.870134
523.894569	2681.382169
524.257174	2674.876560
524.619722	2674.022084
524.982213	2674.130469
525.344647	2668.159222
525.707025	2662.992040
526.069345	2660.224446
526.431608	2657.822337
526.793815	2656.962820
527.155964	2653.718837
527.518057	2650.593322
527.880093	2648.881850
528.242072	2648.218938
528.603995	2645.468989
528.965860	2642.953453
529.327669	2641.093267
529.689421	2637.660242
530.051117	2637.375417
530.412755	2637.657721
530.774337	2634.443986
531.135862	2633.763430
531.497331	2632.361989
531.858743	2623.660957
532.220098	2630.025414
532.581396	2625.190948
532.942638	2626.206740
533.303824	2625.143057
533.664953	2623.154322
534.026025	2625.828654
534.387040	2622.935031
534.747999	2621.702469
535.108902	2623.479476
535.469748	2616.676439
535.830537	2618.914711
536.191270	2619.161728
536.551947	2618.650051
536.912567	2617.845987
537.273131	2617.924124
537.633638	2616.983949
537.994089	2614.324741
538.354483	2614.123094
538.714821	2615.481685
539.075103	2611.834411
539.435328	2613.719802
539.795497	2612.154524
540.155609	2613.155193
540.515665	2611.471447
540.875665	2612.068824
541.235609	2612.146962
541.595496	2613.918928
541.955328	2614.191150
542.315102	2612.663680
542.674821	2612.799792
543.034483	2610.259050
543.394090	2611.002620
543.753640	2612.341047
544.113134	2610.145624
544.472571	2608.330809
544.831953	2611.080758
545.191278	2609.707044
545.550548	2605.366610
545.909761	2610.115377
546.268918	2610.390120
546.628019	2611.771396
546.987064	2606.720160
547.346053	2604.048348
547.704986	2608.570263
548.063863	2607.637650
548.422684	2607.849378
548.781449	2605.091867
549.140158	2609.049173
549.498811	2609.419698
549.857408	2606.977259
550.215949	2603.587083
550.574434	2603.599686
550.932864	2605.071703
551.291237	2602.049531
551.649555	2609.397013
552.007817	2607.010026
552.366022	2607.546909
552.724173	2607.183946
553.082267	2605.969028
553.440305	2609.134873
553.798288	2605.366610
554.156215	2607.604882
554.514086	2607.035232
554.871902	2605.810232
555.229661	2607.879625
555.587365	2605.293513
555.945014	2604.628081
556.302606	2605.409460
556.660143	2605.601024
557.017625	2604.784357
557.375050	2604.378544
557.732421	2606.604213
558.089735	2606.021960
558.446994	2608.169492
558.804197	2608.771910
559.161345	2606.251333
559.518437	2605.827876
559.875474	2605.749738
560.232455	2604.660849
560.589381	2604.335694
560.946251	2608.108998
561.303065	2608.222424
561.659825	2604.479367
562.016528	2606.248812
562.373177	2603.647577
562.729770	2605.656477
563.086307	2604.902824
563.442789	2604.464244
563.799216	2601.474839
564.155587	2604.466764
564.511904	2605.001127
564.868164	2603.826538
565.224370	2605.648915
565.580520	2603.655138
565.936615	2603.818976
566.292654	2600.534664
566.648638	2602.843513
567.004567	2603.526589
567.360441	2603.813935
567.716260	2602.387288
568.072023	2603.571959
568.427732	2597.872935
568.783385	2599.894438
569.138982	2598.182966
569.494525	2598.152719
569.850013	2598.059458
570.205445	2603.329984
570.560823	2602.014243
570.916145	2602.047010
571.271412	2601.396702
571.626625	2603.405601
571.981782	2604.045828
572.336884	2599.816300
572.691931	2602.699840
573.046923	2600.093563
573.401860	2600.469129
573.756743	2599.433172
574.111570	2599.589448
574.466342	2598.906372
574.821059	2601.114397
575.175722	2599.665065
575.530330	2598.041814
575.884882	2599.234047
576.239380	2598.248501
576.593823	2601.777309
576.948211	2597.061309
577.302544	2598.354365
577.656823	2596.915116
578.011047	2598.785384
578.365216	2596.894951
578.719330	2598.528285
579.073389	2596.544591
579.427394	2597.671289
579.781344	2594.044179
580.135239	2595.087698
580.489080	2597.782194
580.842866	2597.056268
581.196597	2595.924529
581.550273	2595.911926
581.903895	2593.895465
582.257463	2594.883531
582.610975	2595.117944
582.964434	2595.256576
583.317837	2597.830085
583.671186	2595.286823
584.024481	2594.737337
584.377721	2595.649786
584.730906	2595.543922
585.084037	2593.582913
585.437113	2592.183993
585.790135	2592.942687
586.143103	2594.185331
586.496016	2593.184662
586.848874	2589.991091
587.201679	2590.790114
587.554428	2590.601071
587.907124	2594.656679
588.259765	2590.099476
588.612352	2591.311873
588.964884	2591.395052
589.317362	2592.448653
589.669786	2591.828592
590.022155	2595.359920
590.374470	2593.197265
590.726731	2591.879003
591.078937	2590.883375
591.431090	2592.627614
591.783188	2590.578385
592.135232	2590.228025
592.487222	2592.806575
592.839157	2592.241966
593.191038	2589.502099
593.542866	2591.168200
593.894639	2590.570824
594.246358	2591.180803
594.598022	2588.539239
594.949633	2591.115268
595.301190	2588.841708
595.652692	2587.611666
596.004141	2588.314907
596.355535	2589.050916
596.706876	2585.905236
597.058162	2589.131574
597.409395	2588.922366
597.760573	2588.942531
598.111698	2588.463621
598.462768	2592.110896
598.813785	2590.391863
599.164748	2587.357088
599.515657	2586.001018
599.866511	2586.404310
600.217312	2586.482448
600.568060	2588.829105
600.918753	2590.059147
601.269392	2587.099989
601.619978	2587.248703
601.970510	2585.128898
602.320988	2587.878847
602.671412	2587.583940
603.021783	2586.041347
603.372100	2586.827767
603.722363	2585.801892
604.072572	2587.394897
604.422728	2590.641400
604.772830	2581.620255
605.122878	2581.164031
605.472872	2582.197467
605.822813	2582.368866
606.172701	2586.094279
606.522534	2587.838518
606.872314	2586.694176
607.222041	2585.985894
607.571714	2588.481265
607.921333	2588.221646
608.270899	2585.048240
608.620411	2589.353385
608.969870	2588.060329
609.319276	2589.764239
609.668627	2590.482603
610.017926	2594.502924
610.367171	2595.375043
610.716362	2592.937645
611.065500	2592.607450
611.414585	2589.900350
611.763616	2593.610639
612.112594	2591.110227
612.461518	2593.328335
612.810389	2590.215422
613.159207	2589.101327
613.507971	2590.439754
613.856682	2588.970257
614.205340	2588.612335
614.553945	2589.761718
614.902496	2589.315576
615.250994	2589.517222
615.599439	2589.373550
615.947830	2587.533528
616.296169	2589.429002
616.644454	2590.220463
616.992686	2588.070411
617.340864	2588.254413
617.688990	2587.856162
618.037063	2588.072932
618.385082	2585.733837
618.733048	2587.160483
619.080961	2586.626121
619.428821	2586.477407
619.776628	2589.514702
620.124382	2590.517892
620.472083	2588.176276
620.819731	2588.206522
621.167326	2586.414392
621.514868	2586.605956
621.862357	2586.384145
622.209793	2589.250041
622.557176	2587.631831
622.904506	2584.647468
623.251783	2580.465831
623.599007	2581.900039
623.946179	2584.067735
624.293297	2581.050605
624.640363	2582.918352
624.987376	2582.749473
625.334336	2581.408527
625.681243	2580.725450
626.028097	2581.423650
626.374899	2584.216449
626.721647	2581.176633
627.068343	2582.207549
627.414987	2582.124370
627.761577	2580.254102
628.108115	2580.990111
628.454600	2581.723599
628.801032	2581.196798
629.147412	2582.817529
629.493739	2582.021027
629.840014	2582.066397
630.186236	2582.600759
630.532405	2580.866603
630.878521	2579.031623
631.224585	2580.793506
631.570597	2579.971798
631.916556	2578.343505
632.262462	2580.924576
632.608316	2577.166396
632.954117	2576.422825
633.299866	2576.992476
633.645562	2577.783937
633.991206	2578.111612
634.336797	2574.988617
634.682336	2577.131107
635.027823	2576.427867
635.373257	2576.952147
635.718639	2574.217321
636.063968	2577.846951
636.409245	2574.502146
636.754470	2576.158165
637.099642	2576.700089
637.444762	2574.797053
637.789829	2573.201528
638.134845	2574.154306
638.479808	2572.384861
638.824719	2572.951991
639.169577	2572.921744
639.514383	2573.471230
639.859137	2572.853688
640.203839	2574.590366
640.548489	2574.915520
640.893086	2570.570046
641.237632	2570.673389
641.582125	2568.987123
641.926566	2567.275652
642.270955	2572.044583
642.615292	2570.373441
642.959576	2571.369069
643.303809	2571.427042
643.647990	2573.456106
643.992118	2572.778071
644.336195	2571.885787
