Dividing Wavelength (nm)	Counts (n)	Blue Motor Position (mm): 0.000000	Red Motor Position (mm): 6.400000	
326.493990	2126.744341
326.888308	2126.744341
327.282561	2126.744341
327.676750	2093.863415
328.070874	2095.428693
328.464933	2094.324680
328.858929	2103.486977
329.252859	2112.266147
329.646726	2123.344082
330.040528	2136.987965
330.434265	2152.789462
330.827938	2171.414005
331.221547	2188.730368
331.615091	2207.765765
332.008571	2224.595657
332.401986	2247.076683
332.795338	2264.466143
333.188625	2285.631428
333.581847	2303.545168
333.975006	2321.620225
334.368100	2344.428925
334.761129	2359.224712
335.154095	2374.726260
335.546996	2392.609753
335.939833	2405.968811
336.332606	2420.613363
336.725315	2432.031576
337.117960	2443.348967
337.510540	2451.271140
337.903056	2462.190279
338.295508	2472.214614
338.687896	2479.025213
339.080220	2487.166676
339.472480	2493.074908
339.864676	2497.669920
340.256807	2503.686537
340.648875	2506.862464
341.040879	2506.633092
341.432818	2507.769872
341.824694	2510.093844
342.216506	2509.781292
342.608253	2512.367404
342.999937	2511.021416
343.391557	2510.257681
343.783113	2510.240037
344.174605	2509.191477
344.566033	2509.206601
344.957397	2507.164933
345.348697	2503.825169
345.739934	2501.607061
346.131106	2503.303409
346.522215	2501.639829
346.913260	2497.800990
347.304241	2493.231184
347.695159	2494.849394
348.086012	2490.425782
348.476802	2487.660709
348.867528	2488.439567
349.258191	2487.622900
349.648789	2487.582571
350.039324	2484.482262
350.429796	2484.976295
350.820203	2482.604432
351.210548	2479.425984
351.600828	2481.699545
351.991045	2479.473875
352.381198	2479.582260
352.771288	2478.135449
353.161314	2479.423464
353.551276	2479.405820
353.941175	2474.573874
354.331010	2476.918010
354.720782	2479.617548
355.110490	2481.056798
355.500135	2478.372383
355.889717	2476.774337
356.279235	2477.822897
356.668689	2478.695017
357.058080	2480.736684
357.447408	2478.067393
357.836672	2476.260140
358.225873	2477.976652
358.615010	2475.251909
359.004084	2479.930100
359.393095	2480.769452
359.782043	2480.015799
360.170927	2483.584936
360.559748	2482.249030
360.948505	2486.579382
361.337199	2482.717858
361.725830	2482.753146
362.114398	2485.172900
362.502903	2485.639206
362.891344	2485.253558
363.279722	2488.263127
363.668037	2484.628455
364.056289	2486.723054
364.444478	2487.814464
364.832603	2488.487458
365.220665	2486.110554
365.608665	2488.731954
365.996601	2491.088694
366.384474	2488.464773
366.772284	2491.073570
367.160031	2492.727069
367.547715	2496.081957
367.935336	2495.774446
368.322893	2500.074550
368.710388	2503.361383
369.097820	2509.922444
369.485189	2511.865809
369.872495	2518.560462
370.259738	2525.678571
370.646918	2529.696370
371.034035	2536.055786
371.421090	2544.300593
371.808081	2556.575803
372.195010	2557.571431
372.581875	2573.385530
372.968678	2580.924576
373.355418	2588.014959
373.742096	2600.431321
374.128710	2607.133535
374.515262	2618.229114
374.901751	2625.322018
375.288177	2629.115486
375.674540	2641.736015
376.060841	2647.659370
376.447079	2655.097593
376.833254	2663.082781
377.219367	2663.014725
377.605417	2677.293793
377.991404	2676.706499
378.377329	2680.275636
378.763191	2681.714885
379.148991	2692.823068
379.534727	2697.912112
379.920402	2700.021835
380.306013	2694.728624
380.691563	2706.953422
381.077049	2704.047197
381.462474	2700.294058
381.847835	2699.225333
382.233134	2696.961855
382.618371	2687.363498
383.003545	2692.770136
383.388657	2682.738239
383.773706	2682.153466
384.158693	2673.354132
384.543618	2664.995898
384.928480	2660.857111
385.313280	2658.651606
385.698017	2645.158958
386.082692	2644.422950
386.467305	2632.210754
386.851856	2622.191461
387.236344	2615.627879
387.620770	2607.899790
388.005133	2600.028028
388.389435	2594.603747
388.773674	2583.152766
389.157851	2576.944585
389.541965	2569.256825
389.926018	2560.633932
390.310008	2558.637635
390.693936	2553.024310
391.077802	2544.729091
391.461606	2539.604758
391.845348	2536.645601
392.229027	2535.087884
392.612645	2529.734179
392.996200	2527.818541
393.379694	2522.868127
393.763125	2523.629342
394.146494	2519.936697
394.529801	2520.899557
394.913047	2517.048115
395.296230	2516.906963
395.679351	2514.870337
396.062410	2514.288084
396.445408	2512.574091
396.828343	2511.384379
397.211217	2508.609224
397.594028	2507.338853
397.976778	2510.010665
398.359466	2509.884636
398.742092	2505.829027
399.124656	2510.736591
399.507158	2510.232475
399.889598	2512.059894
400.271977	2508.558812
400.654294	2511.979235
401.036549	2510.605521
401.418742	2511.633916
401.800874	2508.301713
402.182944	2510.958402
402.564952	2509.942609
402.946898	2513.506705
403.328783	2510.456807
403.710606	2512.874040
404.092367	2513.826818
404.474067	2513.899915
404.855705	2512.110305
405.237282	2509.009996
405.618797	2513.118536
406.000250	2513.078207
406.381642	2511.414626
406.762972	2513.574760
407.144240	2512.357322
407.525447	2514.830008
407.906593	2513.907477
408.287677	2514.885460
408.668700	2512.853875
409.049661	2515.245903
409.430560	2516.047446
409.811399	2516.271778
410.192176	2516.193640
410.572891	2514.935872
410.953545	2514.111643
411.334138	2512.291787
411.714669	2515.533249
412.095139	2515.235821
412.475547	2516.057529
412.855894	2515.687004
413.236180	2516.975019
413.616405	2516.032323
413.996568	2516.009638
414.376670	2517.889988
414.756711	2514.608197
415.136691	2513.451252
415.516609	2515.505522
415.896466	2516.924607
416.276262	2519.241017
416.655997	2513.854544
417.035670	2511.649040
417.415283	2517.141377
417.794834	2510.759276
418.174324	2518.116840
418.553753	2516.997704
418.933121	2518.638599
419.312428	2517.514422
419.691674	2518.661285
420.070859	2518.638599
420.449983	2518.746984
420.829045	2519.866120
421.208047	2515.548372
421.586988	2518.883095
421.965867	2520.128260
422.344686	2520.284536
422.723444	2517.327899
423.102141	2519.752694
423.480777	2521.098683
423.859352	2518.792355
424.237866	2521.738909
424.616319	2519.813188
424.994712	2519.732530
425.373044	2518.784793
425.751314	2517.721109
426.129524	2521.580113
426.507673	2523.163035
426.885762	2518.124402
427.263789	2523.475587
427.641756	2519.419978
428.019662	2521.040709
428.397508	2519.493075
428.775292	2521.622962
429.153016	2520.652540
429.530679	2521.312932
429.908282	2520.103055
430.285824	2521.943076
430.663305	2519.334279
431.040726	2520.680267
431.418086	2522.369053
431.795385	2522.081708
432.172624	2521.985926
432.549802	2524.761081
432.926920	2520.939886
433.303977	2526.321318
433.680974	2523.420134
434.057910	2523.324352
434.434786	2522.222860
434.811601	2526.396935
435.188355	2525.461801
435.565050	2524.579599
435.941683	2524.017511
436.318257	2524.814013
436.694770	2519.462828
437.071222	2522.094310
437.447614	2518.545338
437.823946	2519.049453
438.200218	2522.721934
438.576429	2524.186389
438.952580	2524.990453
439.328670	2524.340144
439.704700	2524.521626
440.080670	2524.992974
440.456580	2524.897192
440.832429	2525.101359
441.208218	2524.677902
441.583947	2525.350896
441.959616	2523.641945
442.335224	2526.318797
442.710773	2525.088756
443.086261	2524.204033
443.461689	2526.898530
443.837057	2523.452901
444.212365	2524.509023
444.587612	2525.938190
444.962800	2527.569003
445.337927	2524.970289
445.712995	2526.124713
446.088002	2527.644621
446.462949	2526.144877
446.837837	2523.757891
447.212664	2526.563293
447.587431	2526.535567
447.962139	2527.132944
448.336786	2526.941380
448.711374	2525.560104
449.085901	2527.962213
449.460369	2527.410207
449.834776	2524.347706
450.209124	2527.379960
450.583412	2528.040351
450.957640	2526.374250
451.331808	2527.279137
451.705917	2530.477749
452.079965	2528.720907
452.453954	2526.462470
452.827883	2526.064219
453.201752	2529.093953
453.575562	2528.020187
453.949311	2525.915505
454.323001	2527.538757
454.696632	2525.708818
455.070202	2529.366175
455.443713	2527.450536
455.817164	2527.097656
456.190556	2523.251255
456.563888	2527.054806
456.937160	2524.128416
457.310373	2529.315763
457.683526	2528.310053
458.056619	2529.391381
458.429653	2526.669158
458.802628	2527.715197
459.175542	2527.730320
459.548398	2531.067564
459.921194	2528.156298
460.293930	2530.369364
460.666607	2530.674354
461.039224	2528.534384
461.411782	2530.366844
461.784280	2532.524458
462.156719	2529.053623
462.529099	2529.618233
462.901419	2530.298788
463.273680	2528.932636
463.645882	2528.529343
464.018024	2529.910619
464.390106	2528.259642
464.762130	2528.811648
465.134094	2530.356762
465.505999	2528.879703
465.877845	2533.759540
466.249631	2533.109232
466.621358	2530.215609
466.993026	2536.184335
467.364634	2530.828109
467.736184	2530.147554
468.107674	2529.416586
468.479105	2530.848274
468.850477	2527.175793
469.221790	2531.647297
469.593043	2531.589324
469.964238	2532.484128
470.335373	2531.803573
470.706449	2532.567308
471.077467	2530.833151
471.448425	2530.422297
471.819324	2533.265507
472.190164	2531.133099
472.560945	2532.698377
472.931667	2532.050589
473.302330	2530.087060
473.672934	2532.433717
474.043479	2531.014632
474.413965	2533.593182
474.784393	2527.488345
475.154761	2529.449354
475.525070	2528.020187
475.895321	2527.768129
476.265513	2528.675537
476.635645	2532.191742
477.005719	2530.727286
477.375734	2530.702081
477.745691	2534.591331
478.115588	2531.480939
478.485427	2532.398429
478.855207	2533.638553
479.224928	2531.498583
479.594591	2533.961187
479.964194	2530.742410
480.333739	2533.872966
480.703226	2531.241484
481.072653	2532.645445
481.442022	2531.120496
481.811333	2533.459592
482.180584	2531.352389
482.549777	2533.283151
482.918912	2534.046886
483.287988	2536.479243
483.657005	2531.196114
484.025964	2535.546629
484.394864	2531.790970
484.763706	2533.444468
485.132489	2534.112421
485.501213	2532.121165
485.869879	2533.799870
486.238487	2530.409694
486.607036	2533.560415
486.975527	2533.653676
487.343959	2535.753317
487.712333	2532.801721
488.080648	2534.089736
488.448905	2533.583100
488.817104	2533.116793
489.185244	2534.251053
489.553326	2532.786598
489.921350	2537.656352
490.289315	2532.370702
490.657222	2536.380940
491.025070	2537.542926
491.392861	2538.876312
491.760593	2535.836496
492.128267	2536.590148
492.495883	2535.332380
492.863440	2536.441434
493.230939	2536.065868
493.598380	2537.013605
493.965763	2528.635207
494.333088	2532.169056
494.700354	2529.885414
495.067563	2533.804911
495.434713	2529.872811
495.801805	2536.035621
496.168839	2533.252904
496.535815	2534.341794
496.902733	2534.740045
497.269593	2534.177956
497.636395	2534.152750
498.003139	2538.339429
498.369825	2533.270548
498.736453	2534.218285
499.103023	2536.333049
499.469535	2533.434386
499.835989	2536.068389
500.202385	2534.379602
500.568723	2535.534027
500.935003	2534.021680
501.301226	2536.542257
501.667390	2536.272556
502.033497	2536.010416
502.399546	2535.050076
502.765537	2533.956145
503.131470	2536.580066
503.497345	2535.491177
503.863163	2536.673327
504.228923	2535.012267
504.594625	2534.810621
504.960269	2536.179294
505.325856	2536.504449
505.691385	2535.103008
506.056856	2537.041332
506.422270	2537.908410
506.787625	2533.341125
507.152924	2536.391023
507.518164	2536.237267
507.883347	2535.886907
508.248472	2536.690971
508.613540	2534.372041
508.978550	2534.702236
509.343503	2535.912113
509.708398	2537.563091
510.073236	2537.245498
510.438016	2539.345139
510.802738	2534.891279
511.167403	2534.364479
511.532010	2536.479243
511.896561	2536.592669
512.261053	2535.342463
512.625488	2531.188552
512.989866	2533.825075
513.354186	2534.399767
513.718449	2531.072605
514.082655	2534.712318
514.446803	2537.003523
514.810894	2537.316074
515.174927	2538.578883
515.538904	2537.845396
515.902822	2536.713657
516.266684	2536.015457
516.630488	2537.550488
516.994235	2539.582073
517.357925	2539.246836
517.721558	2537.409336
518.085133	2539.534182
518.448651	2537.570653
518.812112	2537.495035
519.175516	2539.806404
519.538863	2536.685930
519.902152	2537.643749
520.265385	2538.523431
520.628560	2539.075437
520.991678	2537.127031
521.354739	2538.110056
521.717743	2537.288348
522.080690	2538.614172
522.443580	2536.917823
522.806413	2536.837165
523.169189	2537.021167
523.531908	2536.995961
523.894569	2537.739531
524.257174	2537.951260
524.619722	2535.607123
524.982213	2541.079296
525.344647	2538.488143
525.707025	2538.825900
526.069345	2535.239119
526.431608	2536.595189
526.793815	2537.066537
527.155964	2538.346990
527.518057	2537.058976
527.880093	2537.905889
528.242072	2538.062165
528.603995	2539.471168
528.965860	2538.384799
529.327669	2538.735159
529.689421	2536.217103
530.051117	2540.076106
530.412755	2538.399923
530.774337	2537.361445
531.135862	2537.842875
531.497331	2537.230375
531.858743	2533.457071
532.220098	2537.058976
532.581396	2534.366999
532.942638	2533.676361
533.303824	2539.070396
533.664953	2539.876981
534.026025	2538.404964
534.387040	2537.794984
534.747999	2538.835982
535.108902	2539.151054
535.469748	2537.772299
535.830537	2538.924203
536.191270	2537.159799
536.551947	2539.070396
536.912567	2538.125180
537.273131	2539.534182
537.633638	2538.747762
537.994089	2536.857329
538.354483	2539.962680
538.714821	2540.721374
539.075103	2537.404295
539.435328	2535.493697
539.795497	2541.868236
540.155609	2538.450334
540.515665	2538.377237
540.875665	2538.268853
541.235609	2537.389171
541.595496	2539.088040
541.955328	2539.939995
542.315102	2540.171888
542.674821	2538.334387
543.034483	2542.395037
543.394090	2541.177598
543.753640	2539.176260
544.113134	2538.039480
544.472571	2538.742721
544.831953	2537.215251
545.191278	2538.745242
545.550548	2539.017464
545.909761	2538.263811
546.268918	2540.776827
546.628019	2541.036446
546.987064	2539.514018
547.346053	2539.604758
547.704986	2539.927392
548.063863	2542.195911
548.422684	2539.209028
548.781449	2538.578883
549.140158	2539.408153
549.498811	2538.987217
549.857408	2539.161137
550.215949	2536.522093
550.574434	2537.084181
550.932864	2533.845240
551.291237	2533.363810
551.649555	2538.689789
552.007817	2541.548123
552.366022	2541.492670
552.724173	2539.733308
553.082267	2537.237937
553.440305	2541.147351
553.798288	2539.738349
554.156215	2540.146682
554.514086	2540.486960
554.871902	2538.599048
555.229661	2540.325643
555.587365	2541.769934
555.945014	2541.956457
556.302606	2539.211548
556.660143	2539.241795
557.017625	2538.155427
557.375050	2538.054603
557.732421	2540.204656
558.089735	2539.685417
558.446994	2540.854964
558.804197	2537.825231
559.161345	2539.176260
559.518437	2537.321116
559.875474	2538.170550
560.232455	2538.485622
560.589381	2539.869419
560.946251	2540.812115
561.303065	2537.341280
561.659825	2538.896476
562.016528	2538.800694
562.373177	2540.686086
562.729770	2542.581560
563.086307	2537.931095
563.442789	2543.335212
563.799216	2541.437218
564.155587	2539.824048
564.511904	2537.185004
564.868164	2538.760365
565.224370	2542.241282
565.580520	2540.681045
565.936615	2538.783050
566.292654	2538.863709
566.648638	2539.395550
567.004567	2538.357073
567.360441	2538.846065
567.716260	2540.330684
568.072023	2538.936805
568.427732	2535.410518
568.783385	2537.701723
569.138982	2535.927237
569.494525	2535.826413
569.850013	2535.266845
570.205445	2540.819676
570.560823	2537.716846
570.916145	2538.399923
571.271412	2538.697351
571.626625	2541.356559
571.981782	2538.657021
572.336884	2541.633823
572.691931	2540.318082
573.046923	2539.272042
573.401860	2539.529141
573.756743	2539.251877
574.111570	2539.682896
574.466342	2540.373534
574.821059	2538.888914
575.175722	2540.522248
575.530330	2538.742721
575.884882	2538.019315
576.239380	2537.336239
576.593823	2540.068544
576.948211	2540.998637
577.302544	2539.786240
577.656823	2539.032587
578.011047	2539.524100
578.365216	2539.249357
578.719330	2541.389327
579.073389	2539.763555
579.427394	2539.637526
579.781344	2538.972093
580.135239	2540.003009
580.489080	2539.955118
580.842866	2538.296579
581.196597	2543.657846
581.550273	2540.562578
581.903895	2538.767927
582.257463	2538.283976
582.610975	2536.794315
582.964434	2539.418236
583.317837	2539.700540
583.671186	2541.243133
584.024481	2539.259439
584.377721	2541.069213
584.730906	2540.353370
585.084037	2541.734646
585.437113	2539.211548
585.790135	2539.720705
586.143103	2537.815149
586.496016	2539.433359
586.848874	2534.815662
587.201679	2537.081661
587.554428	2533.736855
587.907124	2537.820190
588.259765	2535.196269
588.612352	2541.185160
588.964884	2540.343287
589.317362	2538.858667
589.669786	2540.270191
590.022155	2538.629295
590.374470	2538.566281
590.726731	2538.568801
591.078937	2538.084850
591.431090	2539.640046
591.783188	2541.792619
592.135232	2541.434697
592.487222	2537.341280
592.839157	2540.575180
593.191038	2536.438914
593.542866	2541.263298
593.894639	2538.525951
594.246358	2539.607279
594.598022	2540.202135
594.949633	2540.713812
595.301190	2536.748945
595.652692	2540.423946
596.004141	2538.659542
596.355535	2539.342618
596.706876	2536.696013
597.058162	2541.525438
597.409395	2538.727598
597.760573	2540.136600
598.111698	2539.516538
598.462768	2540.083668
598.813785	2535.569315
599.164748	2541.593493
599.515657	2539.675334
599.866511	2540.542413
600.217312	2535.917154
600.568060	2538.021836
600.918753	2539.582073
601.269392	2538.987217
601.619978	2536.373379
601.970510	2537.144675
602.320988	2540.920499
602.671412	2538.856147
603.021783	2537.540406
603.372100	2539.007382
603.722363	2538.077289
604.072572	2537.618544
604.422728	2539.115766
604.772830	2536.045704
605.122878	2533.517565
605.472872	2535.400436
605.822813	2532.829448
606.172701	2538.941847
606.522534	2536.557381
606.872314	2537.847916
607.222041	2538.684748
607.571714	2540.345808
607.921333	2537.464788
608.270899	2540.711292
608.620411	2537.537885
608.969870	2542.067362
609.319276	2542.047197
609.668627	2544.817311
610.017926	2544.897970
610.367171	2545.044163
610.716362	2543.773792
611.065500	2542.987373
611.414585	2543.798998
611.763616	2542.563916
612.112594	2542.856302
612.461518	2539.203987
612.810389	2540.406302
613.159207	2539.783719
613.507971	2541.961498
613.856682	2539.370345
614.205340	2536.766589
614.553945	2543.607434
614.902496	2539.990407
615.250994	2540.497043
615.599439	2540.499563
615.947830	2541.351518
616.296169	2537.167360
616.644454	2542.314378
616.992686	2539.375386
617.340864	2541.890922
617.688990	2538.415046
618.037063	2537.134593
618.385082	2538.745242
618.733048	2538.775488
619.080961	2538.649460
619.428821	2541.477547
619.776628	2539.486291
620.124382	2538.223482
620.472083	2537.041332
620.819731	2542.563916
621.167326	2536.632998
621.514868	2540.623071
621.862357	2539.030067
622.209793	2538.359593
622.557176	2539.360262
622.904506	2537.313554
623.251783	2533.096629
623.599007	2535.559232
623.946179	2535.203831
624.293297	2533.855322
624.640363	2539.703061
624.987376	2538.891435
625.334336	2539.095602
625.681243	2541.480067
626.028097	2538.513348
626.374899	2537.164840
626.721647	2540.355890
627.068343	2537.026208
627.414987	2540.428987
627.761577	2537.578214
628.108115	2537.676517
628.454600	2537.280786
628.801032	2537.996630
629.147412	2539.508976
629.493739	2538.921682
629.840014	2538.173071
630.186236	2538.737680
630.532405	2538.556198
630.878521	2539.451003
631.224585	2537.812628
631.570597	2535.894469
631.916556	2536.811959
632.262462	2537.111908
632.608316	2538.465457
632.954117	2537.931095
633.299866	2535.223996
633.645562	2536.880015
633.991206	2537.641229
634.336797	2536.718698
634.682336	2538.876312
635.027823	2537.023687
635.373257	2536.189377
635.718639	2537.530323
636.063968	2536.539737
636.409245	2538.594007
636.754470	2537.452186
637.099642	2537.986548
637.444762	2538.170550
637.789829	2536.305323
638.134845	2538.314223
638.479808	2537.976466
638.824719	2538.530992
639.169577	2535.125693
639.514383	2536.222144
639.859137	2536.935467
640.203839	2538.790612
640.548489	2536.360776
640.893086	2534.024201
641.237632	2533.716691
641.582125	2534.125024
641.926566	2529.502286
642.270955	2534.838347
642.615292	2534.800539
642.959576	2535.977648
643.303809	2535.034952
643.647990	2536.144006
643.992118	2536.905220
644.336195	2536.191897
