Dividing Wavelength (nm)	Counts (n)	Blue Motor Position (mm): 0.000000	Red Motor Position (mm): 25.600000	
326.493990	2127.245935
326.888308	2127.245935
327.282561	2127.245935
327.676750	2093.717221
328.070874	2092.366192
328.464933	2095.622777
328.858929	2104.336412
329.252859	2113.902001
329.646726	2124.294340
330.040528	2137.517286
330.434265	2154.498413
330.827938	2169.896618
331.221547	2189.287416
331.615091	2207.987576
332.008571	2229.311657
332.401986	2245.387896
332.795338	2264.009919
333.188625	2283.728392
333.581847	2303.489715
333.975006	2320.501089
334.368100	2340.136383
334.761129	2357.914012
335.154095	2375.258102
335.546996	2390.258055
335.939833	2410.417629
336.332606	2423.655699
336.725315	2435.144489
337.117960	2445.766200
337.510540	2454.484876
337.903056	2467.049952
338.295508	2475.113277
338.687896	2477.510346
339.080220	2492.911071
339.472480	2495.749240
339.864676	2500.193018
340.256807	2505.768534
340.648875	2508.478154
341.040879	2511.011334
341.432818	2511.951509
341.824694	2514.504853
342.216506	2514.091479
342.608253	2512.874040
342.999937	2514.761952
343.391557	2514.099040
343.783113	2512.889163
344.174605	2513.511746
344.566033	2511.901097
344.957397	2509.705675
345.348697	2506.582680
345.739934	2505.261898
346.131106	2504.064624
346.522215	2502.726197
346.913260	2500.490446
347.304241	2499.204951
347.695159	2496.717142
348.086012	2495.751761
348.476802	2494.748571
348.867528	2492.908550
349.258191	2492.361585
349.648789	2491.822182
350.039324	2486.980153
350.429796	2489.263796
350.820203	2485.238435
351.210548	2485.742550
351.600828	2483.801706
351.991045	2486.279433
352.381198	2484.139463
352.771288	2483.630307
353.161314	2483.534525
353.551276	2482.039823
353.941175	2482.967395
354.331010	2482.349853
354.720782	2482.022178
355.110490	2483.907570
355.500135	2480.885398
355.889717	2485.561068
356.279235	2481.099647
356.668689	2486.942345
357.058080	2482.097796
357.447408	2481.636530
357.836672	2482.780872
358.225873	2482.901860
358.615010	2477.026395
359.004084	2486.728096
359.393095	2486.735657
359.782043	2488.028713
360.170927	2485.966881
360.559748	2488.003508
360.948505	2488.505102
361.337199	2491.489465
361.725830	2489.873776
362.114398	2491.244969
362.502903	2490.700525
362.891344	2495.003150
363.279722	2493.508448
363.668037	2494.108345
364.056289	2493.674806
364.444478	2496.591113
364.832603	2497.453150
365.220665	2496.447440
365.608665	2497.004488
365.996601	2495.872749
366.384474	2499.875425
366.772284	2501.659993
367.160031	2499.643532
367.547715	2503.920951
367.935336	2504.170488
368.322893	2509.468741
368.710388	2506.280211
369.097820	2521.895185
369.485189	2522.762263
369.872495	2527.208561
370.259738	2534.026722
370.646918	2539.781199
371.034035	2548.910728
371.421090	2556.230484
371.808081	2571.099367
372.195010	2578.252764
372.581875	2593.751792
372.968678	2604.958277
373.355418	2615.297683
373.742096	2634.648152
374.128710	2646.378917
374.515262	2660.980619
374.901751	2678.990142
375.288177	2690.446164
375.674540	2714.333671
376.060841	2731.687843
376.447079	2751.068559
376.833254	2773.814245
377.219367	2780.760955
377.605417	2822.269816
377.991404	2828.909016
378.377329	2853.003211
378.763191	2869.114738
379.148991	2907.561098
379.534727	2932.489604
379.920402	2962.164356
380.306013	2974.469813
380.691563	3023.878161
381.077049	3043.082437
381.462474	3063.874676
381.847835	3103.099894
382.233134	3122.997328
382.618371	3121.812657
383.003545	3189.785055
383.388657	3198.844008
383.773706	3231.740058
384.158693	3245.073910
384.543618	3274.413425
384.928480	3309.913231
385.313280	3355.538193
385.698017	3353.962833
386.082692	3407.431831
386.467305	3412.351997
386.851856	3444.396092
387.236344	3468.588589
387.620770	3499.206037
388.005133	3523.859800
388.389435	3547.233110
388.773674	3563.518557
389.157851	3606.983386
389.541965	3618.300776
389.926018	3584.068821
390.310008	3658.309893
390.693936	3676.319416
391.077802	3714.453224
391.461606	3705.427038
391.845348	3765.668826
392.229027	3765.293260
392.612645	3781.361938
392.996200	3857.755584
393.379694	3898.586409
393.763125	3963.594609
394.146494	3929.075308
394.529801	3993.125688
394.913047	4040.333573
395.296230	4003.538191
395.679351	4059.890729
396.062410	4082.049121
396.445408	4068.362388
396.828343	4097.618725
397.211217	4118.292497
397.594028	4040.867935
397.976778	4109.536013
398.359466	4133.814209
398.742092	4166.622039
399.124656	4083.964760
399.507158	4165.510464
399.889598	4188.203218
400.271977	4252.767796
400.654294	4222.767890
401.036549	4231.383222
401.418742	4204.100497
401.800874	4303.814520
402.182944	4324.558868
402.564952	4391.911204
402.946898	4377.453175
403.328783	4373.566445
403.710606	4286.024288
404.092367	4478.556036
404.474067	4444.639153
404.855705	4452.750369
405.237282	4379.814955
405.618797	4487.809074
406.000250	4521.642778
406.381642	4602.744861
406.762972	4565.057195
407.144240	4575.510027
407.525447	4573.906940
407.906593	4634.168893
408.287677	4675.539122
408.668700	4606.772743
409.049661	4657.285104
409.430560	4701.347309
409.811399	4624.855362
410.192176	4785.627840
410.572891	4724.196339
410.953545	4831.963606
411.334138	4709.660172
411.714669	4776.752889
412.095139	4669.608205
412.475547	4812.474505
412.855894	4796.514212
413.236180	4802.944203
413.616405	4756.857975
413.996568	4842.570193
414.376670	4786.414260
414.756711	4743.105707
415.136691	4773.869349
415.516609	4848.901882
415.896466	4883.242222
416.276262	4920.219086
416.655997	4898.481631
417.035670	5084.243109
417.415283	5169.383156
417.794834	5117.610506
418.174324	5074.143157
418.553753	4978.890555
418.933121	5164.488196
419.312428	5229.866920
419.691674	5168.964740
420.070859	5293.380417
420.449983	5207.663158
420.829045	5324.557433
421.208047	5227.172423
421.586988	5300.296880
421.965867	5310.837933
422.344686	5444.476401
422.723444	5295.853103
423.102141	5115.566318
423.480777	5418.801804
423.859352	5185.469478
424.237866	5443.692501
424.616319	5433.128763
424.994712	5542.531884
425.373044	5417.576804
425.751314	5564.975101
426.129524	5368.158373
426.507673	5558.131735
426.885762	5642.434951
427.263789	5574.084466
427.641756	5457.016271
428.019662	5576.239559
428.397508	5584.348255
428.775292	5529.442528
429.153016	5629.948012
429.530679	5554.955808
429.908282	5638.901102
430.285824	5510.896123
430.663305	5783.569614
431.040726	5517.973903
431.418086	5519.057751
431.795385	5624.818638
432.172624	5634.061594
432.549802	5631.606552
432.926920	5642.366895
433.303977	5648.237319
433.680974	5692.785995
434.057910	5702.996852
434.434786	5707.579261
434.811601	5674.970557
435.188355	5905.976391
435.565050	5786.054903
435.941683	5762.240492
436.318257	5970.782945
436.694770	5947.815448
437.071222	5983.300130
437.447614	5911.443523
437.823946	5819.177804
438.200218	5968.736236
438.576429	5828.733312
438.952580	5921.437610
439.328670	5960.504032
439.704700	5863.124063
440.080670	5839.269323
440.456580	6103.511484
440.832429	5974.720086
441.208218	5815.701929
441.583947	5964.526873
441.959616	5956.813907
442.335224	5872.036823
442.710773	5994.110884
443.086261	6007.074211
443.461689	5797.445390
443.837057	5925.301655
444.212365	6062.978087
444.587612	5945.272186
444.962800	6072.074849
445.337927	6038.939345
445.712995	5662.108053
446.088002	6176.247773
446.462949	6000.288818
446.837837	5912.350930
447.212664	6055.489453
447.587431	6155.163147
447.962139	6617.139526
448.336786	7399.070379
448.711374	7146.415310
449.085901	6312.230377
449.460369	6210.257917
449.834776	6116.043793
450.209124	6418.613847
450.583412	6505.936713
450.957640	6603.314162
451.331808	6366.624427
451.705917	5952.828875
452.079965	5861.528538
452.453954	5985.399770
452.827883	5854.453278
453.201752	5887.578700
453.575562	5692.796077
453.949311	5800.066790
454.323001	5678.660682
454.696632	5699.064752
455.070202	5750.111476
455.443713	5815.205375
455.817164	5833.265309
456.190556	5841.215208
456.563888	5840.305280
456.937160	5821.635367
457.310373	5535.020565
457.683526	5493.005068
458.056619	5374.535432
458.429653	5310.134692
458.802628	5217.790836
459.175542	5240.660030
459.548398	5388.711157
459.921194	5429.294966
460.293930	5371.782962
460.666607	5587.415797
461.039224	5696.420667
461.411782	5700.836718
461.784280	5638.228108
462.156719	5514.046844
462.529099	5375.208426
462.901419	5104.337148
463.273680	4986.706864
463.645882	4936.817085
464.018024	4796.713337
464.390106	4816.787212
464.762130	4916.869239
465.134094	5053.015681
465.505999	5409.853756
465.877845	5820.183515
466.249631	5994.304968
466.621358	5739.958592
466.993026	5392.514707
467.364634	5205.518147
467.736184	4989.023274
468.107674	4801.842711
468.479105	4725.307914
468.850477	4592.317234
469.221790	4447.936067
469.593043	4278.742341
469.964238	4168.542718
470.335373	4112.280921
470.706449	4067.873397
471.077467	4011.626722
471.448425	4263.016462
471.819324	4443.522537
472.190164	4384.898959
472.560945	4049.853792
472.931667	3822.752332
473.302330	3743.591093
473.672934	3626.122126
474.043479	3637.620998
474.413965	3583.136207
474.784393	3510.412522
475.154761	3492.024913
475.525070	3460.361426
475.895321	3395.771642
476.265513	3375.203735
476.635645	3364.208978
477.005719	3323.131136
477.375734	3297.612815
477.745691	3286.691155
478.115588	3260.245262
478.485427	3247.556678
478.855207	3270.577107
479.224928	3310.752583
479.594591	3335.066068
479.964194	3266.710542
480.333739	3215.288252
480.703226	3161.375632
481.072653	3138.705564
481.442022	3125.825416
481.811333	3110.419649
482.180584	3062.979871
482.549777	3013.037160
482.918912	2979.664722
483.287988	2956.069601
483.657005	2934.750561
484.025964	2895.820251
484.394864	2878.234186
484.763706	2853.925742
485.132489	2828.326762
485.501213	2811.816984
485.869879	2799.171249
486.238487	2777.022940
486.607036	2769.889707
486.975527	2749.447828
487.343959	2743.451376
487.712333	2732.552401
488.080648	2723.831205
488.448905	2712.886860
488.817104	2703.422094
489.185244	2702.749100
489.553326	2696.021680
489.921350	2698.580065
490.289315	2708.856457
490.657222	2708.735470
491.025070	2700.105014
491.392861	2693.344827
491.760593	2685.011800
492.128267	2674.251457
492.495883	2664.108655
492.863440	2657.126657
493.230939	2648.700369
493.598380	2642.492188
493.965763	2636.052114
494.333088	2633.413070
494.700354	2627.893006
495.067563	2627.709004
495.434713	2621.987294
495.801805	2629.478449
496.168839	2623.797069
496.535815	2619.534773
496.902733	2618.614762
497.269593	2620.366563
497.636395	2616.961264
498.003139	2617.656943
498.369825	2612.091509
498.736453	2614.841459
499.103023	2610.735439
499.469535	2609.598659
499.835989	2610.445573
500.202385	2608.270315
500.568723	2608.658484
500.935003	2606.883997
501.301226	2606.677310
501.667390	2606.528596
502.033497	2611.783999
502.399546	2605.270828
502.765537	2603.624892
503.131470	2602.772937
503.497345	2605.578339
503.863163	2602.820828
504.228923	2600.206989
504.594625	2601.938626
504.960269	2601.245467
505.325856	2601.681527
505.691385	2598.198089
506.056856	2600.837133
506.422270	2598.903851
506.787625	2597.885538
507.152924	2597.197420
507.518164	2598.429982
507.883347	2595.377564
508.248472	2596.824375
508.613540	2598.308995
508.978550	2594.331524
509.343503	2596.012749
509.708398	2597.593151
510.073236	2595.559045
510.438016	2596.174066
510.802738	2596.380753
511.167403	2597.502410
511.532010	2595.972420
511.896561	2595.934611
512.261053	2596.652976
512.625488	2593.950917
512.989866	2592.395721
513.354186	2592.940166
513.718449	2590.845567
514.082655	2595.271700
514.446803	2595.186000
514.810894	2597.948552
515.174927	2594.737337
515.538904	2594.490321
515.902822	2594.825557
516.266684	2595.468305
516.630488	2591.354723
516.994235	2593.887903
517.357925	2595.780856
517.721558	2598.316557
518.085133	2595.803541
518.448651	2595.952255
518.812112	2594.462594
519.175516	2592.415886
519.538863	2593.759353
519.902152	2596.121134
520.265385	2595.798500
520.628560	2594.480238
520.991678	2596.879828
521.354739	2594.956627
521.717743	2595.574169
522.080690	2596.428644
522.443580	2597.527616
522.806413	2597.116762
523.169189	2598.820672
523.531908	2599.546598
523.894569	2596.836978
524.257174	2595.059971
524.619722	2598.205651
524.982213	2596.400918
525.344647	2598.296392
525.707025	2595.044848
526.069345	2596.557194
526.431608	2595.276741
526.793815	2595.662389
527.155964	2596.325301
527.518057	2595.654827
527.880093	2594.510485
528.242072	2597.394025
528.603995	2597.782194
528.965860	2596.353027
529.327669	2596.496700
529.689421	2595.574169
530.051117	2595.990064
530.412755	2598.578697
530.774337	2595.211206
531.135862	2596.131216
531.497331	2595.117944
531.858743	2590.696852
532.220098	2593.729107
532.581396	2591.223653
532.942638	2593.706421
533.303824	2591.536205
533.664953	2593.507296
534.026025	2594.087028
534.387040	2594.399580
534.747999	2593.923191
535.108902	2595.846391
535.469748	2590.477562
535.830537	2597.199941
536.191270	2594.460074
536.551947	2593.744230
536.912567	2593.600557
537.273131	2593.940835
537.633638	2594.560897
537.994089	2593.577872
538.354483	2591.218612
538.714821	2594.505444
539.075103	2597.751947
539.435328	2592.763726
539.795497	2594.109714
540.155609	2595.879159
540.515665	2593.227512
540.875665	2595.407811
541.235609	2594.444950
541.595496	2593.174580
541.955328	2595.269179
542.315102	2594.974272
542.674821	2594.452512
543.034483	2596.259766
543.394090	2593.345979
543.753640	2594.787749
544.113134	2592.599888
544.472571	2596.284972
544.831953	2595.604416
545.191278	2596.269848
545.550548	2592.398242
545.909761	2594.875969
546.268918	2595.160794
546.628019	2594.495362
546.987064	2594.112234
547.346053	2594.306319
547.704986	2596.237081
548.063863	2592.799014
548.422684	2596.421083
548.781449	2592.844384
549.140158	2595.309508
549.498811	2594.664241
549.857408	2591.579054
550.215949	2594.707090
550.574434	2590.207861
550.932864	2591.962182
551.291237	2592.267172
551.649555	2596.272369
552.007817	2591.314394
552.366022	2593.320773
552.724173	2593.703901
553.082267	2592.428489
553.440305	2594.823037
553.798288	2591.947059
554.156215	2594.878490
554.514086	2594.933942
554.871902	2592.405804
555.229661	2596.383274
555.587365	2593.368664
555.945014	2595.818665
556.302606	2594.003849
556.660143	2593.935794
557.017625	2597.061309
557.375050	2593.802203
557.732421	2595.922008
558.089735	2593.207347
558.446994	2594.470156
558.804197	2593.910588
559.161345	2594.581062
559.518437	2595.211206
559.875474	2594.689446
560.232455	2595.624580
560.589381	2590.343972
560.946251	2596.708428
561.303065	2594.339086
561.659825	2595.465784
562.016528	2595.548963
562.373177	2593.996288
562.729770	2594.460074
563.086307	2595.637183
563.442789	2595.183479
563.799216	2594.651638
564.155587	2594.681885
564.511904	2596.050558
564.868164	2596.035434
565.224370	2592.141143
565.580520	2598.372009
565.936615	2594.588623
566.292654	2594.412183
566.648638	2595.599375
567.004567	2592.642738
567.360441	2593.174580
567.716260	2592.022676
568.072023	2593.290526
568.427732	2589.431523
568.783385	2591.805906
569.138982	2589.368508
569.494525	2588.874475
569.850013	2587.861203
570.205445	2593.648448
570.560823	2591.558890
570.916145	2590.868252
571.271412	2594.114755
571.626625	2593.376226
571.981782	2591.306832
572.336884	2593.371185
572.691931	2591.538725
573.046923	2592.478900
573.401860	2592.078129
573.756743	2588.798858
574.111570	2590.641400
574.466342	2592.398242
574.821059	2589.630648
575.175722	2590.540577
575.530330	2589.325659
575.884882	2591.150556
576.239380	2592.183993
576.593823	2593.204827
576.948211	2593.779518
577.302544	2591.982347
577.656823	2589.522264
578.011047	2590.971595
578.365216	2591.992429
578.719330	2592.834302
579.073389	2588.851790
579.427394	2588.362798
579.781344	2589.343303
580.135239	2588.952613
580.489080	2586.598394
580.842866	2587.394897
581.196597	2591.216091
581.550273	2586.936152
581.903895	2588.085535
582.257463	2588.201481
582.610975	2585.053281
582.964434	2588.133426
583.317837	2587.067222
583.671186	2589.653334
584.024481	2589.741554
584.377721	2589.159301
584.730906	2587.036975
585.084037	2587.866245
585.437113	2587.364650
585.790135	2589.867583
586.143103	2588.874475
586.496016	2586.303487
586.848874	2583.150245
587.201679	2586.903384
587.554428	2584.198805
587.907124	2582.910790
588.259765	2583.913980
588.612352	2587.016810
588.964884	2583.102354
589.317362	2588.481265
589.669786	2584.821388
590.022155	2584.453383
590.374470	2584.294587
590.726731	2587.899012
591.078937	2584.967581
591.431090	2584.571851
591.783188	2584.231573
592.135232	2585.365832
592.487222	2587.967068
592.839157	2582.764597
593.191038	2584.942375
593.542866	2583.205698
593.894639	2583.203177
594.246358	2583.447673
594.598022	2583.220821
594.949633	2581.590008
595.301190	2583.135122
595.652692	2585.968250
596.004141	2582.729309
596.355535	2581.912642
596.706876	2581.342992
597.058162	2581.413568
597.409395	2580.659915
597.760573	2582.467169
598.111698	2582.031109
598.462768	2582.651171
598.813785	2581.458938
599.164748	2580.254102
599.515657	2582.162179
599.866511	2579.104719
600.217312	2581.486664
600.568060	2581.690831
600.918753	2585.491861
601.269392	2581.970615
601.619978	2582.023547
601.970510	2581.693352
602.320988	2581.368197
602.671412	2581.721078
603.021783	2580.420460
603.372100	2582.189905
603.722363	2579.392065
604.072572	2579.606314
604.422728	2582.212591
604.772830	2580.874164
605.122878	2576.334605
605.472872	2578.696386
605.822813	2575.119687
606.172701	2578.141859
606.522534	2579.961715
606.872314	2580.412899
607.222041	2581.358115
607.571714	2581.655543
607.921333	2580.049936
608.270899	2580.574216
608.620411	2582.941037
608.969870	2581.408527
609.319276	2582.477251
609.668627	2583.447673
610.017926	2587.788107
610.367171	2590.376739
610.716362	2586.043867
611.065500	2585.305338
611.414585	2585.607808
611.763616	2585.998497
612.112594	2582.212591
612.461518	2583.651840
612.810389	2585.461614
613.159207	2582.414237
613.507971	2580.992631
613.856682	2581.310224
614.205340	2582.537745
614.553945	2584.019844
614.902496	2578.348546
615.250994	2581.610173
615.599439	2582.215111
615.947830	2580.528845
616.296169	2582.588157
616.644454	2583.881212
616.992686	2579.621437
617.340864	2580.775862
617.688990	2579.203022
618.037063	2581.534555
618.385082	2581.297621
618.733048	2583.724937
619.080961	2581.438773
619.428821	2583.036819
619.776628	2581.829463
620.124382	2582.573033
620.472083	2580.821232
620.819731	2584.236614
621.167326	2579.429874
621.514868	2582.646130
621.862357	2580.095306
622.209793	2580.538927
622.557176	2579.752507
622.904506	2577.047928
623.251783	2575.928792
623.599007	2578.300655
623.946179	2573.287228
624.293297	2574.610531
624.640363	2575.575912
624.987376	2576.934502
625.334336	2578.474575
625.681243	2576.732856
626.028097	2579.248392
626.374899	2576.700089
626.721647	2575.364183
627.068343	2576.775706
627.414987	2574.981055
627.761577	2575.893504
628.108115	2573.032649
628.454600	2574.524831
628.801032	2575.160016
629.147412	2577.718402
629.493739	2574.267732
629.840014	2578.958526
630.186236	2576.367373
630.532405	2574.106415
630.878521	2575.250757
631.224585	2572.616754
631.570597	2574.708833
631.916556	2574.429049
632.262462	2575.432239
632.608316	2572.634398
632.954117	2574.131621
633.299866	2574.101374
633.645562	2572.853688
633.991206	2571.593400
634.336797	2571.182546
634.682336	2572.931826
635.027823	2572.490725
635.373257	2570.696075
635.718639	2567.129458
636.063968	2568.566187
636.409245	2568.062072
636.754470	2570.043245
637.099642	2571.038873
637.444762	2570.920406
637.789829	2568.639284
638.134845	2569.682803
638.479808	2566.655590
638.824719	2570.428893
639.169577	2566.010322
639.514383	2569.541650
639.859137	2565.949828
640.203839	2568.349417
640.548489	2569.098029
640.893086	2563.517472
641.237632	2561.826164
641.582125	2565.924623
641.926566	2560.991853
642.270955	2566.146433
642.615292	2566.219530
642.959576	2568.218347
643.303809	2566.814386
643.647990	2566.937894
643.992118	2565.304561
644.336195	2567.207596
