Dividing Wavelength (nm)	Counts (n)	Blue Motor Position (mm): 0.000000	Red Motor Position (mm): 37.200000	
326.493990	2128.302057
326.888308	2128.302057
327.282561	2128.302057
327.676750	2097.293920
328.070874	2092.862746
328.464933	2097.850967
328.858929	2106.178953
329.252859	2113.937289
329.646726	2125.287447
330.040528	2136.826648
330.434265	2155.456232
330.827938	2171.638336
331.221547	2189.370595
331.615091	2210.881198
332.008571	2230.208982
332.401986	2247.981570
332.795338	2267.052255
333.188625	2287.330296
333.581847	2304.719757
333.975006	2323.336738
334.368100	2340.063286
334.761129	2360.230422
335.154095	2375.008565
335.546996	2396.476318
335.939833	2418.067580
336.332606	2430.607450
336.725315	2444.478185
337.117960	2451.934052
337.510540	2462.318829
337.903056	2470.883749
338.295508	2480.688793
338.687896	2487.907726
339.080220	2495.401401
339.472480	2504.614109
339.864676	2506.360869
340.256807	2512.296828
340.648875	2514.651047
341.040879	2516.143228
341.432818	2517.953002
341.824694	2523.122706
342.216506	2521.766635
342.608253	2521.317973
342.999937	2520.322345
343.391557	2522.389218
343.783113	2519.467869
344.174605	2520.675226
344.566033	2516.670029
344.957397	2518.434433
345.348697	2514.361180
345.739934	2513.065604
346.131106	2512.886643
346.522215	2506.496980
346.913260	2507.172495
347.304241	2504.576301
347.695159	2502.622854
348.086012	2502.206958
348.476802	2497.899293
348.867528	2501.544047
349.258191	2498.547081
349.648789	2498.428614
350.039324	2494.262100
350.429796	2494.183962
350.820203	2491.587768
351.210548	2493.820999
351.600828	2490.705566
351.991045	2492.086842
352.381198	2489.730103
352.771288	2491.484424
353.161314	2490.266986
353.551276	2492.381750
353.941175	2487.816985
354.331010	2490.430823
354.720782	2486.899495
355.110490	2491.186996
355.500135	2488.565596
355.889717	2490.211533
356.279235	2493.982316
356.668689	2490.486276
357.058080	2490.428302
357.447408	2488.253045
357.836672	2487.663230
358.225873	2491.529795
358.615010	2486.430668
359.004084	2491.960813
359.393095	2493.284116
359.782043	2492.878303
360.170927	2497.251504
360.559748	2495.708911
360.948505	2496.018942
361.337199	2495.267810
361.725830	2496.631442
362.114398	2499.000785
362.502903	2500.722339
362.891344	2500.187976
363.279722	2500.198059
363.668037	2498.917606
364.056289	2499.943480
364.444478	2501.864160
364.832603	2502.249808
365.220665	2500.276197
365.608665	2504.490601
365.996601	2505.093019
366.384474	2506.416322
366.772284	2506.943122
367.160031	2508.279028
367.547715	2511.117198
367.935336	2512.480830
368.322893	2515.979391
368.710388	2517.191788
369.097820	2525.718900
369.485189	2527.085053
369.872495	2533.167205
370.259738	2542.279090
370.646918	2550.498692
371.034035	2555.411296
371.421090	2565.828841
371.808081	2576.904256
372.195010	2586.979002
372.581875	2599.347472
372.968678	2612.570419
373.355418	2624.535598
373.742096	2642.613175
374.128710	2654.590957
374.515262	2670.198369
374.901751	2686.677901
375.288177	2698.512010
375.674540	2723.241390
376.060841	2738.669841
376.447079	2756.949065
376.833254	2780.980246
377.219367	2793.419293
377.605417	2829.518995
377.991404	2837.282372
378.377329	2863.854294
378.763191	2879.537324
379.148991	2917.948396
379.534727	2939.529575
379.920402	2967.618884
380.306013	2985.396513
380.691563	3031.134902
381.077049	3050.992007
381.462474	3068.489852
381.847835	3108.269597
382.233134	3131.683236
382.618371	3132.620891
383.003545	3198.067671
383.388657	3208.472612
383.773706	3239.921851
384.158693	3259.020262
384.543618	3281.218983
384.928480	3319.383038
385.313280	3361.847198
385.698017	3363.788042
386.082692	3418.696289
386.467305	3416.594128
386.851856	3453.286167
387.236344	3475.895742
387.620770	3508.222141
388.005133	3531.270296
388.389435	3560.982857
388.773674	3573.928540
389.157851	3615.830611
389.541965	3627.213536
389.926018	3594.312445
390.310008	3664.323990
390.693936	3682.152031
391.077802	3730.093404
391.461606	3714.533882
391.845348	3777.273563
392.229027	3776.469498
392.612645	3788.759832
392.996200	3868.115155
393.379694	3905.248294
393.763125	3970.879076
394.146494	3938.577883
394.529801	4001.302439
394.913047	4047.774316
395.296230	4017.197197
395.679351	4069.584868
396.062410	4090.185543
396.445408	4071.364396
396.828343	4110.876959
397.211217	4131.528046
397.594028	4050.370510
397.976778	4119.429277
398.359466	4144.077999
398.742092	4173.800642
399.124656	4093.946244
399.507158	4171.547246
399.889598	4198.973643
400.271977	4261.388169
400.654294	4234.843974
401.036549	4244.475098
401.418742	4210.457392
401.800874	4310.587310
402.182944	4337.658306
402.564952	4398.696597
402.946898	4386.237385
403.328783	4385.579515
403.710606	4295.272285
404.092367	4489.223117
404.474067	4453.274649
404.855705	4461.496771
405.237282	4392.120412
405.618797	4494.733098
406.000250	4534.318759
406.381642	4614.205924
406.762972	4579.033794
407.144240	4590.240279
407.525447	4589.738684
407.906593	4648.024505
408.287677	4685.876008
408.668700	4615.861943
409.049661	4672.257331
409.430560	4712.677303
409.811399	4636.394563
410.192176	4797.293070
410.572891	4738.752671
410.953545	4840.412579
411.334138	4719.722315
411.714669	4789.781751
412.095139	4683.640257
412.475547	4823.219724
412.855894	4808.310512
413.236180	4816.744362
413.616405	4765.453142
413.996568	4855.528479
414.376670	4799.927073
414.756711	4749.938991
415.136691	4787.193118
415.516609	4858.951423
415.896466	4900.951796
416.276262	4932.585036
416.655997	4916.460906
417.035670	5095.804995
417.415283	5187.745559
417.794834	5128.302793
418.174324	5086.851906
418.553753	4991.155682
418.933121	5176.380278
419.312428	5247.551287
419.691674	5179.843550
420.070859	5308.297191
420.449983	5221.211259
420.829045	5332.857693
421.208047	5245.141616
421.586988	5317.401515
421.965867	5324.678421
422.344686	5456.945695
422.723444	5313.154343
423.102141	5129.129543
423.480777	5430.000727
423.859352	5200.683680
424.237866	5457.659018
424.616319	5446.467657
424.994712	5560.538886
425.373044	5437.985915
425.751314	5581.063944
426.129524	5381.610692
426.507673	5575.339713
426.885762	5659.486653
427.263789	5591.148772
427.641756	5472.779959
428.019662	5592.048618
428.397508	5600.832828
428.775292	5549.821393
429.153016	5647.065250
429.530679	5577.784673
429.908282	5655.771323
430.285824	5528.867837
430.663305	5801.506040
431.040726	5537.886461
431.418086	5541.006935
431.795385	5644.000229
432.172624	5656.333412
432.549802	5650.798225
432.926920	5664.616027
433.303977	5671.391338
433.680974	5713.500096
434.057910	5725.094750
434.434786	5738.806689
434.811601	5702.606163
435.188355	5938.043171
435.565050	5806.529549
435.941683	5792.126973
436.318257	6012.652248
436.694770	5990.135934
437.071222	6027.775709
437.447614	5958.848013
437.823946	5869.637234
438.200218	6023.861253
438.576429	5886.310850
438.952580	5981.717207
439.328670	6032.005238
439.704700	5940.757832
440.080670	5924.479947
440.456580	6196.545978
440.832429	6078.300674
441.208218	5923.141520
441.583947	6080.589358
441.959616	6084.365182
442.335224	6008.359705
442.710773	6147.601416
443.086261	6179.547208
443.461689	5970.112471
443.837057	6123.706347
444.212365	6274.169665
444.587612	6171.733419
444.962800	6320.959135
445.337927	6302.173275
445.712995	5911.806486
446.088002	6495.516648
446.462949	6321.064999
446.837837	6243.993318
447.212664	6423.090391
447.587431	6568.731846
447.962139	7107.903415
448.336786	8037.585445
448.711374	7773.103829
449.085901	6851.805238
449.460369	6768.124604
449.834776	6702.687907
450.209124	7095.983607
450.583412	7247.770228
450.957640	7390.926395
451.331808	7157.329408
451.705917	6707.779472
452.079965	6631.511856
452.453954	6840.210584
452.827883	6718.880093
453.201752	6815.118241
453.575562	6614.407221
453.949311	6819.138561
454.323001	6708.765018
454.696632	6782.471728
455.070202	6920.213695
455.443713	7074.775472
455.817164	7174.302973
456.190556	7254.560662
456.563888	7327.049934
456.937160	7374.013323
457.310373	7030.304934
457.683526	7051.084570
458.056619	6944.736388
458.429653	6933.048473
458.802628	6866.752259
459.175542	6982.981102
459.548398	7337.011254
459.921194	7494.983372
460.293930	7498.449165
460.666607	8029.373406
461.039224	8337.876898
461.411782	8461.856515
461.784280	8477.698341
462.156719	8368.375878
462.529099	8249.873475
462.901419	7836.889549
463.273680	7731.315185
463.645882	7746.945282
464.018024	7610.783717
464.390106	7774.061649
464.762130	8163.639497
465.134094	8634.372361
465.505999	9654.041508
465.877845	10884.524148
466.249631	11526.212621
466.621358	11143.417645
466.993026	10510.883907
467.364634	10256.703889
467.736184	9894.912880
468.107674	9559.643382
468.479105	9590.154966
468.850477	9353.256023
469.221790	9123.215570
469.593043	8803.606416
469.964238	8663.248090
470.335373	8672.922065
470.706449	8733.690654
471.077467	8715.698776
471.448425	10017.634730
471.819324	11102.140677
472.190164	11116.500404
472.560945	9873.727431
472.931667	9085.800126
473.302330	8946.311399
473.672934	8588.696987
474.043479	8949.618396
474.413965	8888.252431
474.784393	8773.979555
475.154761	8928.226260
475.525070	9019.395527
475.895321	8842.917334
476.265513	9023.120940
476.635645	9191.598822
477.005719	9193.027989
477.375734	9303.010843
477.745691	9538.309219
478.115588	9670.495835
478.485427	9921.986397
478.855207	10455.872316
479.224928	11272.093097
479.594591	11895.933365
479.964194	11712.052237
480.333739	11653.395891
480.703226	11566.294835
481.072653	11652.506128
481.442022	11896.979404
481.811333	12086.872108
482.180584	11890.045297
482.549777	11597.260123
482.918912	11421.066755
483.287988	11447.701691
483.657005	11461.317848
484.025964	11134.991356
484.394864	11271.893971
484.763706	11240.792573
485.132489	10997.607311
485.501213	10960.396034
485.869879	11033.306242
486.238487	10876.440658
486.607036	10984.011319
486.975527	10765.255489
487.343959	10962.798144
487.712333	11004.387663
488.080648	10932.926787
488.448905	10981.493263
488.817104	10917.422718
489.185244	11189.980262
489.553326	11336.667757
489.921350	11873.185158
490.289315	12935.585646
490.657222	13282.888378
491.025070	13189.795911
491.392861	13060.845716
491.760593	12681.554342
492.128267	12333.737412
492.495883	12001.326247
492.863440	11666.722182
493.230939	11330.358753
493.598380	11261.514235
493.965763	11129.892229
494.333088	11036.519977
494.700354	10951.022008
495.067563	11021.184788
495.434713	10848.227840
495.801805	10968.179575
496.168839	10891.576722
496.535815	10830.170427
496.902733	10827.793523
497.269593	10756.783830
497.636395	10856.407112
498.003139	10849.430155
498.369825	10724.853162
498.736453	10877.194310
499.103023	10803.653958
499.469535	10838.629483
499.835989	10818.543006
500.202385	10779.146388
500.568723	10631.203647
500.935003	10857.115394
501.301226	10661.518625
501.667390	10919.575291
502.033497	11018.568429
502.399546	10879.147757
502.765537	10781.367017
503.131470	10860.238389
503.497345	11033.291118
503.863163	10641.540533
504.228923	10952.562081
504.594625	11022.145127
504.960269	10766.392269
505.325856	10985.604324
505.691385	10775.655389
506.056856	10932.589029
506.422270	10962.205808
506.787625	10848.641215
507.152924	10966.911725
507.518164	10942.406676
507.883347	10867.379184
508.248472	10788.419591
508.613540	11021.991372
508.978550	10901.008721
509.343503	10870.272806
509.708398	10995.187557
510.073236	11107.305339
510.438016	11114.173911
510.802738	11057.181147
511.167403	11110.695515
511.532010	11011.372182
511.896561	11238.904660
512.261053	11310.010135
512.625488	11174.448467
512.989866	11156.751497
513.354186	11145.650876
513.718449	11047.091277
514.082655	11244.742317
514.446803	11141.411266
514.810894	11257.627506
515.174927	11134.454473
515.538904	11152.441310
515.902822	11299.832046
516.266684	11190.978411
516.630488	11133.584874
516.994235	11185.881804
517.357925	11250.302709
517.721558	11334.938641
518.085133	11345.265445
518.448651	11363.335461
518.812112	11243.045968
519.175516	11251.802453
519.538863	11380.629139
519.902152	11291.609924
520.265385	11446.184304
520.628560	11359.695748
520.991678	11338.157418
521.354739	11406.601164
521.717743	11336.095586
522.080690	11312.059364
522.443580	11444.891248
522.806413	11402.517829
523.169189	11424.860223
523.531908	11480.789304
523.894569	11304.288426
524.257174	11305.888992
524.619722	11425.046746
524.982213	11371.905422
525.344647	11419.544326
525.707025	11369.001718
526.069345	11453.010026
526.431608	11370.201512
526.793815	11483.821558
527.155964	11269.519588
527.518057	11321.037659
527.880093	11266.779721
528.242072	11333.834628
528.603995	11237.571275
528.965860	11151.659931
529.327669	11206.449712
529.689421	11148.816721
530.051117	11113.425300
530.412755	11216.453882
530.774337	11107.154105
531.135862	11082.941443
531.497331	11107.123858
531.858743	10950.457399
532.220098	11117.372523
532.581396	10980.411935
532.942638	10958.959305
533.303824	10917.851216
533.664953	10931.593401
534.026025	10838.473207
534.387040	10932.336972
534.747999	10928.805643
535.108902	10976.681481
535.469748	10737.231715
535.830537	10832.950623
536.191270	10802.910388
536.551947	10813.597634
536.912567	10815.089815
537.273131	10727.535055
537.633638	10706.946983
537.994089	10692.244458
538.354483	10629.729109
538.714821	10764.096024
539.075103	10763.856569
539.435328	10718.705474
539.795497	10545.894721
540.155609	10687.699858
540.515665	10766.389749
540.875665	10498.381846
541.235609	10554.147089
541.595496	10546.285410
541.955328	10687.858654
542.315102	10564.158821
542.674821	10502.195478
543.034483	10490.424384
543.394090	10486.247788
543.753640	10397.710003
544.113134	10605.965110
544.472571	10458.314755
544.831953	10580.968548
545.191278	10384.676100
545.550548	10394.869313
545.909761	10513.782571
546.268918	10474.753957
546.628019	10539.200068
546.987064	10394.549200
547.346053	10307.773298
547.704986	10380.108815
548.063863	10355.588642
548.422684	10328.174848
548.781449	10232.065250
549.140158	10314.586417
549.498811	10185.648826
549.857408	10031.719713
550.215949	10218.791892
550.574434	10072.180014
550.932864	10136.185024
551.291237	10180.443834
551.649555	10102.852915
552.007817	10099.737482
552.366022	10045.860150
552.724173	10013.745479
553.082267	9988.811933
553.440305	10076.538092
553.798288	9881.213545
554.156215	9993.404424
554.514086	9948.326426
554.871902	9787.450604
555.229661	9794.364546
555.587365	9753.087579
555.945014	9643.180342
556.302606	9716.592145
556.660143	9607.718346
557.017625	9711.689623
557.375050	9597.300801
557.732421	9690.821767
558.089735	9580.508718
558.446994	9557.253875
558.804197	9556.825377
559.161345	9534.324187
559.518437	9378.025733
559.875474	9417.374459
560.232455	9411.642667
560.589381	9347.146145
560.946251	9302.022777
561.303065	9378.166885
561.659825	9278.914127
562.016528	9192.085293
562.373177	9074.273528
562.729770	9119.923697
563.086307	9031.932877
563.442789	9073.174557
563.799216	8925.703162
564.155587	8942.006254
564.511904	8875.891521
564.868164	8830.750509
565.224370	8819.400351
565.580520	8697.215385
565.936615	8695.138430
566.292654	8543.969349
566.648638	8615.505843
567.004567	8543.644195
567.360441	8507.642795
567.716260	8395.288078
568.072023	8435.559336
568.427732	8352.206378
568.783385	8268.223275
569.138982	8269.909541
569.494525	8251.108558
569.850013	8126.944938
570.205445	8142.630489
570.560823	8041.464613
570.916145	7940.200435
571.271412	7949.944986
571.626625	7874.826752
571.981782	7824.805903
572.336884	7764.029753
572.691931	7747.358657
573.046923	7649.411558
573.401860	7583.798420
573.756743	7504.896801
574.111570	7491.676375
574.466342	7457.492311
574.821059	7431.863084
575.175722	7326.132444
575.530330	7296.984493
575.884882	7257.837412
576.239380	7166.239647
576.593823	7128.214224
576.948211	7088.928512
577.302544	6994.754717
577.656823	6957.477905
578.011047	6927.745179
578.365216	6869.129163
578.719330	6787.883407
579.073389	6750.616677
579.427394	6697.019129
579.781344	6650.605226
580.135239	6578.032775
580.489080	6559.345218
580.842866	6457.836544
581.196597	6426.588952
581.550273	6420.214413
581.903895	6355.939701
582.257463	6363.347677
582.610975	6251.895327
582.964434	6238.889150
583.317837	6158.956615
583.671186	6127.058714
584.024481	6085.103711
584.377721	6012.097721
584.730906	5960.347756
585.084037	5941.604746
585.437113	5886.986365
585.790135	5849.570921
586.143103	5771.717862
586.496016	5732.285956
586.848874	5723.703392
587.201679	5688.795922
587.554428	5597.432570
587.907124	5587.700623
588.259765	5541.135485
588.612352	5506.033930
588.964884	5431.170275
589.317362	5402.534001
589.669786	5371.959403
590.022155	5369.408579
590.374470	5333.102189
590.726731	5286.632833
591.078937	5185.736659
591.431090	5194.951888
591.783188	5121.671155
592.135232	5076.593158
592.487222	5060.310231
592.839157	5045.733734
593.191038	4994.240868
593.542866	4944.613229
593.894639	4874.568917
594.246358	4868.300242
594.598022	4845.778888
594.949633	4775.540491
595.301190	4743.385491
595.652692	4728.564499
596.004141	4728.698090
596.355535	4632.459942
596.706876	4595.644396
597.058162	4545.532806
597.409395	4546.833423
597.760573	4542.515675
598.111698	4489.888550
598.462768	4453.829176
598.813785	4422.450514
599.164748	4378.315212
599.515657	4358.934496
599.866511	4297.954179
600.217312	4318.214576
600.568060	4253.471037
600.918753	4256.089917
601.269392	4226.521029
601.619978	4171.522040
601.970510	4169.500538
602.320988	4151.211231
602.671412	4139.281341
603.021783	4099.431020
603.372100	4071.238367
603.722363	4043.328018
604.072572	4024.332951
604.422728	4004.354858
604.772830	3963.208960
605.122878	3940.420424
605.472872	3923.061211
605.822813	3904.741658
606.172701	3878.946074
606.522534	3872.327039
606.872314	3857.382538
607.222041	3825.681242
607.571714	3818.255623
607.921333	3793.155718
608.270899	3769.384157
608.620411	3769.575721
608.969870	3732.974423
609.319276	3713.510528
609.668627	3697.744319
610.017926	3690.749718
610.367171	3677.524251
610.716362	3659.466838
611.065500	3638.911533
611.414585	3622.603401
611.763616	3606.839713
612.112594	3584.015889
612.461518	3569.368816
612.810389	3567.470822
613.159207	3536.939073
613.507971	3514.364787
613.856682	3519.468955
614.205340	3494.059019
614.553945	3492.256806
614.902496	3463.544915
615.250994	3456.285653
615.599439	3439.465843
615.947830	3424.065118
616.296169	3408.719846
616.644454	3399.577713
616.992686	3383.488871
617.340864	3383.244375
617.688990	3354.136753
618.037063	3357.289994
618.385082	3339.129238
618.733048	3335.459278
619.080961	3319.234324
619.428821	3311.097902
619.776628	3293.176600
620.124382	3280.682100
620.472083	3260.822474
620.819731	3253.043974
621.167326	3225.728482
621.514868	3215.873026
621.862357	3190.097607
622.209793	3179.574198
622.557176	3155.200219
622.904506	3136.520223
623.251783	3119.813840
623.599007	3099.545881
623.946179	3088.450301
624.293297	3075.650811
624.640363	3060.146743
624.987376	3044.335164
625.334336	3035.354348
625.681243	3019.071421
626.028097	3010.461130
626.374899	2999.027793
626.721647	2985.945999
627.068343	2977.489464
627.414987	2965.385653
627.761577	2950.761266
628.108115	2948.838066
628.454600	2930.306784
628.801032	2925.442071
629.147412	2923.695311
629.493739	2911.858682
629.840014	2900.490880
630.186236	2900.455592
630.532405	2883.666029
630.878521	2880.850544
631.224585	2876.729401
631.570597	2865.389326
631.916556	2860.625435
632.262462	2855.881709
632.608316	2850.288549
632.954117	2844.650019
633.299866	2836.642146
633.645562	2832.127792
633.991206	2821.579178
634.336797	2809.762713
634.682336	2804.779533
635.027823	2794.263686
635.373257	2789.156997
635.718639	2780.284566
636.063968	2776.307096
636.409245	2764.500714
636.754470	2759.938469
637.099642	2754.100813
637.444762	2748.323651
637.789829	2745.997158
638.134845	2735.861919
638.479808	2733.333780
638.824719	2728.854715
639.169577	2726.838253
639.514383	2720.060422
639.859137	2714.603373
640.203839	2712.052549
640.548489	2710.482230
640.893086	2702.529809
641.237632	2697.060157
