Dividing Wavelength (nm)	Counts (n)	Blue Motor Position (mm): 0.000000	Red Motor Position (mm): 5.400000	
326.493990	2129.693416
326.888308	2129.693416
327.282561	2129.693416
327.676750	2095.557242
328.070874	2092.474577
328.464933	2094.722931
328.858929	2103.469333
329.252859	2112.119953
329.646726	2125.332818
330.040528	2136.917389
330.434265	2153.825419
330.827938	2172.210507
331.221547	2189.794052
331.615091	2208.796681
332.008571	2226.380226
332.401986	2246.945613
332.795338	2265.499580
333.188625	2284.666047
333.581847	2304.785292
333.975006	2324.990236
334.368100	2339.397854
334.761129	2358.904599
335.154095	2375.517721
335.546996	2389.980792
335.939833	2406.656928
336.332606	2420.174783
336.725315	2434.191711
337.117960	2442.202104
337.510540	2452.186109
337.903056	2460.657768
338.295508	2469.721763
338.687896	2479.612507
339.080220	2486.559217
339.472480	2493.142964
339.864676	2498.552122
340.256807	2500.969355
340.648875	2502.643018
341.040879	2506.098729
341.432818	2508.034532
341.824694	2510.822290
342.216506	2511.565861
342.608253	2512.440501
342.999937	2510.938237
343.391557	2509.085613
343.783113	2509.975377
344.174605	2510.615603
344.566033	2507.356497
344.957397	2505.869357
345.348697	2505.110663
345.739934	2504.223420
346.131106	2501.385250
346.522215	2500.089674
346.913260	2497.317039
347.304241	2496.271000
347.695159	2496.167656
348.086012	2489.770432
348.476802	2491.403766
348.867528	2489.576347
349.258191	2488.532829
349.648789	2485.354381
350.039324	2482.523773
350.429796	2483.874803
350.820203	2482.236428
351.210548	2480.393886
351.600828	2480.373721
351.991045	2481.951602
352.381198	2480.398927
352.771288	2477.787609
353.161314	2479.516725
353.551276	2478.057311
353.941175	2478.795840
354.331010	2476.202166
354.720782	2478.989924
355.110490	2477.071765
355.500135	2479.531848
355.889717	2479.252064
356.279235	2478.397589
356.668689	2479.920017
357.058080	2478.662249
357.447408	2479.841879
357.836672	2475.803915
358.225873	2479.834318
358.615010	2474.490695
359.004084	2481.946561
359.393095	2481.026551
359.782043	2482.559061
360.170927	2482.543938
360.559748	2483.743733
360.948505	2482.183495
361.337199	2485.475369
361.725830	2484.018475
362.114398	2483.889926
362.502903	2483.499237
362.891344	2486.355050
363.279722	2487.975781
363.668037	2486.690287
364.056289	2486.032416
364.444478	2490.597181
364.832603	2488.590802
365.220665	2488.111892
365.608665	2487.945534
365.996601	2491.239928
366.384474	2489.657006
366.772284	2491.638179
367.160031	2492.661534
367.547715	2496.759992
367.935336	2495.655979
368.322893	2500.465240
368.710388	2505.985303
369.097820	2507.142248
369.485189	2509.781292
369.872495	2513.395799
370.259738	2520.619773
370.646918	2522.485000
371.034035	2527.236287
371.421090	2535.718029
371.808081	2542.871426
372.195010	2545.288659
372.581875	2552.608415
372.968678	2560.074363
373.355418	2563.628377
373.742096	2572.992320
374.128710	2574.557598
374.515262	2580.433063
374.901751	2587.415061
375.288177	2589.542428
375.674540	2594.938983
376.060841	2600.514500
376.447079	2603.302258
376.833254	2607.148658
377.219367	2602.853595
377.605417	2610.982456
377.991404	2610.984976
378.377329	2610.254009
378.763191	2610.352311
379.148991	2616.868003
379.534727	2617.435132
379.920402	2615.693414
380.306013	2613.303907
380.691563	2620.295987
381.077049	2615.852210
381.462474	2610.987497
381.847835	2611.317692
382.233134	2604.186980
382.618371	2596.572317
383.003545	2600.748913
383.388657	2592.988057
383.773706	2587.687284
384.158693	2583.830801
384.543618	2578.900552
384.928480	2577.166396
385.313280	2569.718091
385.698017	2565.624674
386.082692	2562.214333
386.467305	2555.391132
386.851856	2550.113043
387.236344	2542.758000
387.620770	2542.722712
388.005133	2537.482432
388.389435	2535.576876
388.773674	2528.431041
389.157851	2526.225536
389.541965	2524.773684
389.926018	2519.480472
390.310008	2520.526512
390.693936	2519.306552
391.077802	2514.091479
391.461606	2514.545183
391.845348	2511.454955
392.229027	2511.812877
392.612645	2510.958402
392.996200	2509.206601
393.379694	2509.672907
393.763125	2511.212980
394.146494	2510.088803
394.529801	2510.671056
394.913047	2508.130314
395.296230	2511.659122
395.679351	2509.020078
396.062410	2509.793895
396.445408	2508.021929
396.828343	2508.420181
397.211217	2505.796260
397.594028	2505.246774
397.976778	2506.754079
398.359466	2509.050325
398.742092	2505.844151
399.124656	2510.905469
399.507158	2508.251302
399.889598	2509.675428
400.271977	2511.565861
400.654294	2509.027640
401.036549	2511.903618
401.418742	2509.677948
401.800874	2512.281704
402.182944	2509.771210
402.564952	2512.269102
402.946898	2510.076200
403.328783	2511.268433
403.710606	2508.193329
404.092367	2512.432939
404.474067	2513.116015
404.855705	2510.739111
405.237282	2514.225069
405.618797	2510.116529
406.000250	2511.152486
406.381642	2512.306910
406.762972	2511.661643
407.144240	2509.357835
407.525447	2516.148269
407.906593	2514.651047
408.287677	2514.275481
408.668700	2510.066117
409.049661	2513.247085
409.430560	2514.819925
409.811399	2512.140552
410.192176	2512.639626
410.572891	2513.771365
410.953545	2515.994514
411.334138	2513.148783
411.714669	2515.893691
412.095139	2515.281191
412.475547	2513.758763
412.855894	2514.696417
413.236180	2514.915707
413.616405	2515.578619
413.996568	2514.451921
414.376670	2516.266737
414.756711	2514.570388
415.136691	2517.131294
415.516609	2513.852024
415.896466	2516.891840
416.276262	2519.598939
416.655997	2513.204236
417.035670	2512.216169
417.415283	2515.936541
417.794834	2512.032167
418.174324	2514.545183
418.553753	2517.559792
418.933121	2513.877230
419.312428	2517.332941
419.691674	2518.721778
420.070859	2518.005935
420.449983	2516.712879
420.829045	2518.016017
421.208047	2520.216481
421.586988	2519.404855
421.965867	2520.319824
422.344686	2518.189937
422.723444	2520.647499
423.102141	2520.219001
423.480777	2519.793024
423.859352	2520.410565
424.237866	2519.460307
424.616319	2521.406193
424.994712	2520.322345
425.373044	2518.845287
425.751314	2520.705473
426.129524	2520.539114
426.507673	2518.419309
426.885762	2522.467356
427.263789	2518.973836
427.641756	2520.501306
428.019662	2519.873682
428.397508	2520.350071
428.775292	2521.817047
429.153016	2522.669002
429.530679	2521.285205
429.908282	2521.257479
430.285824	2519.644310
430.663305	2521.186903
431.040726	2520.851666
431.418086	2518.968795
431.795385	2523.374763
432.172624	2520.496265
432.549802	2523.679753
432.926920	2521.902747
433.303977	2523.589012
433.680974	2522.482479
434.057910	2524.317459
434.434786	2519.573733
434.811601	2521.441481
435.188355	2522.973992
435.565050	2527.238808
435.941683	2522.190092
436.318257	2520.488703
436.694770	2518.439474
437.071222	2520.612211
437.447614	2520.019876
437.823946	2518.880575
438.200218	2523.198323
438.576429	2521.927952
438.952580	2522.101872
439.328670	2522.147243
439.704700	2523.087418
440.080670	2524.393077
440.456580	2522.666481
440.832429	2521.093641
441.208218	2524.322500
441.583947	2525.454239
441.959616	2526.185207
442.335224	2525.885258
442.710773	2526.321318
443.086261	2527.097656
443.461689	2524.541791
443.837057	2525.928108
444.212365	2526.528005
444.587612	2525.285361
444.962800	2525.570186
445.337927	2525.406348
445.712995	2523.586492
446.088002	2525.872655
446.462949	2526.621267
446.837837	2526.381812
447.212664	2525.234949
447.587431	2524.748478
447.962139	2526.505320
448.336786	2525.761750
448.711374	2526.369209
449.085901	2529.240146
449.460369	2526.298633
449.834776	2525.149250
450.209124	2523.934332
450.583412	2525.663447
450.957640	2525.260155
451.331808	2526.893489
451.705917	2528.226874
452.079965	2524.695546
452.453954	2527.669827
452.827883	2524.007428
453.201752	2525.124044
453.575562	2525.318128
453.949311	2525.749147
454.323001	2525.708818
454.696632	2523.667150
455.070202	2527.445495
455.443713	2527.193438
455.817164	2525.877696
456.190556	2525.141688
456.563888	2525.010618
456.937160	2523.241173
457.310373	2528.156298
457.683526	2525.696215
458.056619	2528.541946
458.429653	2527.248890
458.802628	2531.833820
459.175542	2526.671678
459.548398	2529.419107
459.921194	2525.192099
460.293930	2529.162008
460.666607	2528.662934
461.039224	2527.619415
461.411782	2526.505320
461.784280	2529.320804
462.156719	2530.097142
462.529099	2529.338448
462.901419	2530.606299
463.273680	2530.197965
463.645882	2531.856505
464.018024	2527.561442
464.390106	2530.593696
464.762130	2529.978675
465.134094	2527.251411
465.505999	2530.336597
465.877845	2529.474560
466.249631	2531.286854
466.621358	2530.639066
466.993026	2532.315250
467.364634	2533.764582
467.736184	2530.334076
468.107674	2528.322656
468.479105	2530.049251
468.850477	2528.557070
469.221790	2530.747451
469.593043	2529.398942
469.964238	2531.639735
470.335373	2530.182842
470.706449	2530.523120
471.077467	2528.259642
471.448425	2531.516227
471.819324	2528.680578
472.190164	2532.408511
472.560945	2530.006401
472.931667	2531.750641
473.302330	2531.906916
473.672934	2532.801721
474.043479	2528.052954
474.413965	2532.032945
474.784393	2527.533715
475.154761	2528.105886
475.525070	2529.401463
475.895321	2526.225536
476.265513	2524.675381
476.635645	2531.354910
477.005719	2530.984385
477.375734	2531.213758
477.745691	2534.510672
478.115588	2528.549508
478.485427	2530.457585
478.855207	2530.991947
479.224928	2532.920188
479.594591	2533.010929
479.964194	2529.925743
480.333739	2531.682585
480.703226	2530.964221
481.072653	2534.404808
481.442022	2531.543953
481.811333	2533.041176
482.180584	2529.824920
482.549777	2530.069416
482.918912	2532.025383
483.287988	2534.266176
483.657005	2529.172090
484.025964	2532.879859
484.394864	2533.257946
484.763706	2535.934798
485.132489	2534.399767
485.501213	2533.618388
485.869879	2530.326515
486.238487	2532.312729
486.607036	2531.637215
486.975527	2533.356248
487.343959	2535.045035
487.712333	2532.622760
488.080648	2531.826258
488.448905	2532.804242
488.817104	2530.281144
489.185244	2534.729963
489.553326	2533.782226
489.921350	2536.164171
490.289315	2533.832637
490.657222	2533.212575
491.025070	2533.167205
491.392861	2535.009747
491.760593	2534.102339
492.128267	2535.324819
492.495883	2532.574869
492.863440	2532.390867
493.230939	2534.921526
493.598380	2534.694674
493.965763	2528.544467
494.333088	2533.078985
494.700354	2528.052954
495.067563	2532.847092
495.434713	2527.780732
495.801805	2532.965559
496.168839	2533.575538
496.535815	2535.491177
496.902733	2535.032432
497.269593	2536.053265
497.636395	2534.959335
498.003139	2533.139478
498.369825	2531.440610
498.736453	2534.329191
499.103023	2534.039324
499.469535	2534.649304
499.835989	2531.548994
500.202385	2534.213244
500.568723	2536.355735
500.935003	2533.389016
501.301226	2532.136289
501.667390	2532.799201
502.033497	2537.520241
502.399546	2536.731301
502.765537	2534.593851
503.131470	2534.195600
503.497345	2534.636701
503.863163	2534.382123
504.228923	2533.797349
504.594625	2536.549819
504.960269	2537.031249
505.325856	2534.765251
505.691385	2534.382123
506.056856	2537.225334
506.422270	2534.389685
506.787625	2534.535878
507.152924	2534.603934
507.518164	2533.545291
507.883347	2534.089736
508.248472	2534.467822
508.613540	2535.536547
508.978550	2533.638553
509.343503	2534.576207
509.708398	2534.407329
510.073236	2536.857329
510.438016	2537.845396
510.802738	2534.636701
511.167403	2535.884387
511.532010	2535.697864
511.896561	2536.300282
512.261053	2537.923533
512.625488	2533.197452
512.989866	2532.622760
513.354186	2534.026722
513.718449	2531.072605
514.082655	2533.837678
514.446803	2534.256094
514.810894	2533.666279
515.174927	2537.505118
515.538904	2535.904551
515.902822	2535.566794
516.266684	2535.619726
516.630488	2536.663245
516.994235	2534.180477
517.357925	2536.575025
517.721558	2535.866743
518.085133	2536.433872
518.448651	2537.361445
518.812112	2535.334901
519.175516	2538.508307
519.538863	2535.448327
519.902152	2535.276928
520.265385	2537.331198
520.628560	2534.606454
520.991678	2535.627288
521.354739	2536.632998
521.717743	2536.413708
522.080690	2536.577545
522.443580	2537.411856
522.806413	2536.937988
523.169189	2534.296423
523.531908	2536.229706
523.894569	2535.649973
524.257174	2538.563760
524.619722	2535.254242
524.982213	2535.649973
525.344647	2538.778009
525.707025	2537.127031
526.069345	2536.340611
526.431608	2537.177443
526.793815	2537.104346
527.155964	2537.769778
527.518057	2535.168543
527.880093	2538.631816
528.242072	2536.872453
528.603995	2537.046373
528.965860	2536.484284
529.327669	2537.502597
529.689421	2535.647453
530.051117	2539.771116
530.412755	2538.213400
530.774337	2535.342463
531.135862	2536.786753
531.497331	2534.760209
531.858743	2531.790970
532.220098	2536.872453
532.581396	2533.842719
532.942638	2533.724252
533.303824	2538.465458
533.664953	2538.994779
534.026025	2535.287010
534.387040	2538.410005
534.747999	2536.670807
535.108902	2538.546116
535.469748	2537.905889
535.830537	2536.275076
536.191270	2538.331867
536.551947	2538.979655
536.912567	2537.530323
537.273131	2538.331867
537.633638	2537.260622
537.994089	2538.165509
538.354483	2539.692978
538.714821	2536.438914
539.075103	2536.355735
539.435328	2534.813142
539.795497	2539.055272
540.155609	2538.659542
540.515665	2536.839685
540.875665	2538.213400
541.235609	2536.622916
541.595496	2535.055117
541.955328	2534.964376
542.315102	2539.849254
542.674821	2537.323636
543.034483	2539.433359
543.394090	2535.987730
543.753640	2540.209697
544.113134	2537.048893
544.472571	2538.377237
544.831953	2539.007382
545.191278	2538.457896
545.550548	2538.982176
545.909761	2538.452855
546.268918	2538.079809
546.628019	2535.413039
546.987064	2537.242978
547.346053	2540.131559
547.704986	2538.810777
548.063863	2534.787936
548.422684	2536.683410
548.781449	2539.561908
549.140158	2538.704912
549.498811	2538.346990
549.857408	2538.515869
550.215949	2536.542257
550.574434	2534.818183
550.932864	2536.958152
551.291237	2534.621578
551.649555	2536.101156
552.007817	2537.686599
552.366022	2540.297917
552.724173	2535.460930
553.082267	2537.613502
553.440305	2538.099974
553.798288	2537.500077
554.156215	2537.409336
554.514086	2537.842875
554.871902	2536.023018
555.229661	2539.758513
555.587365	2538.155427
555.945014	2538.558719
556.302606	2538.578883
556.660143	2537.726928
557.017625	2538.397402
557.375050	2537.011085
557.732421	2539.574511
558.089735	2536.113759
558.446994	2536.330529
558.804197	2538.089892
559.161345	2539.355221
559.518437	2537.356404
559.875474	2535.738193
560.232455	2535.715508
560.589381	2537.061496
560.946251	2539.352701
561.303065	2539.753472
561.659825	2539.211548
562.016528	2538.399923
562.373177	2541.134748
562.729770	2540.786909
563.086307	2539.566950
563.442789	2538.916641
563.799216	2538.614172
564.155587	2540.756662
564.511904	2539.819007
564.868164	2540.398740
565.224370	2539.995448
565.580520	2538.157947
565.936615	2538.442772
566.292654	2539.748431
566.648638	2541.762372
567.004567	2541.381765
567.360441	2536.191897
567.716260	2538.783050
568.072023	2538.820859
568.427732	2535.647452
568.783385	2536.874973
569.138982	2532.600075
569.494525	2537.361445
569.850013	2534.969417
570.205445	2538.871270
570.560823	2534.966897
570.916145	2537.109387
571.271412	2538.145344
571.626625	2540.091230
571.981782	2538.422608
572.336884	2537.530323
572.691931	2539.088040
573.046923	2538.099974
573.401860	2541.228010
573.756743	2538.306661
574.111570	2536.128883
574.466342	2537.706764
574.821059	2538.074768
575.175722	2540.562577
575.530330	2534.556043
575.884882	2540.318082
576.239380	2538.941847
576.593823	2540.774306
576.948211	2536.718698
577.302544	2537.419418
577.656823	2536.880015
578.011047	2538.830941
578.365216	2536.708615
578.719330	2537.361445
579.073389	2538.800694
579.427394	2537.699202
579.781344	2538.253729
580.135239	2539.627443
580.489080	2539.647608
580.842866	2538.709953
581.196597	2542.175747
581.550273	2539.667773
581.903895	2536.779192
582.257463	2537.366486
582.610975	2539.854295
582.964434	2537.497556
583.317837	2537.600900
583.671186	2540.912938
584.024481	2538.132741
584.377721	2540.129038
584.730906	2535.181146
585.084037	2541.119625
585.437113	2538.394881
585.790135	2538.483102
586.143103	2539.027546
586.496016	2537.336239
586.848874	2535.740714
587.201679	2539.161137
587.554428	2534.510672
587.907124	2537.686599
588.259765	2534.508152
588.612352	2539.393030
588.964884	2539.967721
589.317362	2538.478060
589.669786	2539.698020
590.022155	2539.461085
590.374470	2537.237937
590.726731	2536.988399
591.078937	2534.946732
591.431090	2538.175591
591.783188	2539.229192
592.135232	2539.453524
592.487222	2536.945550
592.839157	2537.311033
593.191038	2536.542257
593.542866	2540.696168
593.894639	2540.610468
594.246358	2537.237937
594.598022	2536.068389
594.949633	2540.139121
595.301190	2536.726259
595.652692	2536.204500
596.004141	2537.550488
596.355535	2539.443441
596.706876	2539.171219
597.058162	2537.058976
597.409395	2536.070909
597.760573	2539.226672
598.111698	2538.946888
598.462768	2538.198276
598.813785	2538.838503
599.164748	2540.076106
599.515657	2538.470499
599.866511	2541.432177
600.217312	2539.229192
600.568060	2536.388502
600.918753	2539.050231
601.269392	2537.822710
601.619978	2539.418236
601.970510	2538.704912
602.320988	2536.577545
602.671412	2537.305992
603.021783	2536.771630
603.372100	2541.175078
603.722363	2535.864222
604.072572	2537.086702
604.422728	2539.750952
604.772830	2536.564943
605.122878	2533.492359
605.472872	2535.387833
605.822813	2531.962369
606.172701	2534.858512
606.522534	2537.691640
606.872314	2536.012936
607.222041	2539.017464
607.571714	2537.089222
607.921333	2539.869419
608.270899	2536.643080
608.620411	2539.070396
608.969870	2538.382278
609.319276	2540.187012
609.668627	2541.444779
610.017926	2543.398227
610.367171	2545.540717
610.716362	2546.405275
611.065500	2543.191539
611.414585	2544.164482
611.763616	2542.382434
612.112594	2542.715150
612.461518	2540.943185
612.810389	2539.657690
613.159207	2541.243133
613.507971	2538.377237
613.856682	2539.198945
614.205340	2539.824048
614.553945	2538.510828
614.902496	2538.110056
615.250994	2538.924203
615.599439	2538.886394
615.947830	2539.955118
616.296169	2539.617361
616.644454	2540.156765
616.992686	2536.627957
617.340864	2538.493184
617.688990	2537.152237
618.037063	2539.002340
618.385082	2539.637526
618.733048	2538.916641
619.080961	2537.752134
619.428821	2539.113246
619.776628	2537.608461
620.124382	2538.800694
620.472083	2538.072248
620.819731	2538.573842
621.167326	2539.582073
621.514868	2541.099460
621.862357	2538.853626
622.209793	2537.694161
622.557176	2539.002340
622.904506	2534.195600
623.251783	2536.771630
623.599007	2536.446475
623.946179	2534.281300
624.293297	2536.602751
624.640363	2537.258101
624.987376	2540.202135
625.334336	2537.207690
625.681243	2538.588966
626.028097	2538.921682
626.374899	2537.182484
626.721647	2537.595858
627.068343	2537.242978
627.414987	2538.379758
627.761577	2540.151723
628.108115	2537.492515
628.454600	2537.487474
628.801032	2537.928575
629.147412	2537.648791
629.493739	2536.670807
629.840014	2538.571322
630.186236	2540.902855
630.532405	2538.357073
630.878521	2537.837834
631.224585	2538.246167
631.570597	2537.293389
631.916556	2538.455375
632.262462	2535.468492
632.608316	2537.820190
632.954117	2539.541744
633.299866	2539.945036
633.645562	2536.436393
633.991206	2538.185673
634.336797	2535.967566
634.682336	2538.165509
635.027823	2538.455375
635.373257	2537.358924
635.718639	2538.379758
636.063968	2536.007895
636.409245	2538.644418
636.754470	2536.416228
637.099642	2536.522093
637.444762	2537.346321
637.789829	2536.943029
638.134845	2538.576363
638.479808	2535.365148
638.824719	2535.846578
639.169577	2537.187525
639.514383	2534.518234
639.859137	2535.745755
640.203839	2537.749614
640.548489	2536.141486
640.893086	2537.177443
641.237632	2532.164015
641.582125	2533.326001
641.926566	2533.139478
642.270955	2535.846578
642.615292	2537.235416
642.959576	2537.333718
643.303809	2534.669469
643.647990	2539.045190
643.992118	2537.631147
644.336195	2536.403626
