Dividing Wavelength (nm)	Counts (n)	Blue Motor Position (mm): 0.000000	Red Motor Position (mm): 3.500000	
326.493990	2126.991357
326.888308	2126.991357
327.282561	2126.991357
327.676750	2096.762078
328.070874	2094.397777
328.464933	2097.069588
328.858929	2104.563264
329.252859	2112.762700
329.646726	2124.964813
330.040528	2138.041566
330.434265	2157.245842
330.827938	2172.759993
331.221547	2190.852694
331.615091	2209.578060
332.008571	2227.900134
332.401986	2247.953844
332.795338	2265.590320
333.188625	2284.940789
333.581847	2304.301341
333.975006	2321.516881
334.368100	2339.702844
334.761129	2361.047089
335.154095	2373.201311
335.546996	2394.371637
335.939833	2407.372772
336.332606	2422.287026
336.725315	2433.223809
337.117960	2445.148659
337.510540	2453.224587
337.903056	2466.177832
338.295508	2470.036835
338.687896	2481.437405
339.080220	2488.409320
339.472480	2496.167656
339.864676	2497.906854
340.256807	2503.537823
340.648875	2507.127125
341.040879	2508.705006
341.432818	2510.282887
341.824694	2513.252127
342.216506	2511.626354
342.608253	2512.470748
342.999937	2510.030829
343.391557	2510.860099
343.783113	2512.014523
344.174605	2506.998575
344.566033	2508.586539
344.957397	2507.444717
345.348697	2506.663338
345.739934	2506.776764
346.131106	2503.981445
346.522215	2502.055724
346.913260	2497.685043
347.304241	2494.572131
347.695159	2495.451812
348.086012	2494.572131
348.476802	2490.687922
348.867528	2489.145329
349.258191	2490.088025
349.648789	2487.506954
350.039324	2485.969402
350.429796	2484.714155
350.820203	2481.202991
351.210548	2481.956643
351.600828	2482.596870
351.991045	2480.383803
352.381198	2479.665439
352.771288	2481.954123
353.161314	2477.006230
353.551276	2479.055459
353.941175	2476.660911
354.331010	2479.768783
354.720782	2479.073103
355.110490	2477.500263
355.500135	2478.465644
355.889717	2478.511015
356.279235	2480.041005
356.668689	2480.033443
357.058080	2478.516056
357.447408	2476.955819
357.836672	2475.839203
358.225873	2479.294914
358.615010	2478.352218
359.004084	2482.087713
359.393095	2482.780872
359.782043	2484.749443
360.170927	2485.626603
360.559748	2484.439412
360.948505	2483.965543
361.337199	2485.477889
361.725830	2485.278764
362.114398	2487.612818
362.502903	2482.874133
362.891344	2485.389669
363.279722	2488.028713
363.668037	2489.586430
364.056289	2487.580051
364.444478	2490.665237
364.832603	2489.488127
365.220665	2491.302943
365.608665	2490.713128
365.996601	2490.758498
366.384474	2492.109527
366.772284	2491.542398
367.160031	2492.074239
367.547715	2493.528612
367.935336	2496.165136
368.322893	2495.522388
368.710388	2496.449961
369.097820	2498.416011
369.485189	2497.616988
369.872495	2500.223264
370.259738	2499.825013
370.646918	2500.752586
371.034035	2502.073368
371.421090	2505.453462
371.808081	2502.244767
372.195010	2506.585201
372.581875	2507.109481
372.968678	2509.345232
373.355418	2507.669049
373.742096	2509.362876
374.128710	2510.008144
374.515262	2510.313134
374.901751	2511.875892
375.288177	2509.630058
375.674540	2509.425891
376.060841	2513.607528
376.447079	2512.889163
376.833254	2510.444204
377.219367	2509.584687
377.605417	2510.078720
377.991404	2508.495798
378.377329	2513.849503
378.763191	2508.092506
379.148991	2513.065604
379.534727	2513.841942
379.920402	2513.345388
380.306013	2509.451097
380.691563	2512.425377
381.077049	2510.456807
381.462474	2512.725326
381.847835	2509.834224
382.233134	2509.435973
382.618371	2508.551251
383.003545	2509.735922
383.388657	2506.040756
383.773706	2508.246261
384.158693	2504.072185
384.543618	2508.521004
384.928480	2504.901455
385.313280	2508.069820
385.698017	2505.524038
386.082692	2505.254336
386.467305	2503.782319
386.851856	2504.672083
387.236344	2505.957577
387.620770	2507.099398
388.005133	2504.064624
388.389435	2507.298524
388.773674	2503.492453
389.157851	2502.832062
389.541965	2505.171157
389.926018	2504.644356
390.310008	2505.382885
390.693936	2503.570591
391.077802	2505.599655
391.461606	2504.447751
391.845348	2505.390447
392.229027	2504.997237
392.612645	2506.978411
392.996200	2506.572598
393.379694	2505.768534
393.763125	2505.776095
394.146494	2506.877588
394.529801	2505.594614
394.913047	2506.862464
395.296230	2505.518997
395.679351	2506.363390
396.062410	2509.567043
396.445408	2505.450941
396.828343	2508.825993
397.211217	2504.432628
397.594028	2504.966990
397.976778	2504.656959
398.359466	2505.224089
398.742092	2501.667555
399.124656	2508.732732
399.507158	2508.243740
399.889598	2508.813391
400.271977	2507.500170
400.654294	2508.016888
401.036549	2511.119718
401.418742	2508.621827
401.800874	2509.365397
402.182944	2511.535614
402.564952	2509.811539
402.946898	2510.708864
403.328783	2510.527383
403.710606	2512.735408
404.092367	2510.482013
404.474067	2513.869668
404.855705	2510.476971
405.237282	2515.412261
405.618797	2512.226252
406.000250	2512.274143
406.381642	2510.076200
406.762972	2512.803464
407.144240	2511.177692
407.525447	2512.846314
407.906593	2511.976715
408.287677	2511.908659
408.668700	2511.570902
409.049661	2511.568381
409.430560	2512.180881
409.811399	2512.861437
410.192176	2514.076355
410.572891	2515.225738
410.953545	2512.294307
411.334138	2512.669873
411.714669	2515.631551
412.095139	2513.015192
412.475547	2516.186078
412.855894	2516.347395
413.236180	2515.077024
413.616405	2517.204391
413.996568	2515.782786
414.376670	2513.118536
414.756711	2516.027282
415.136691	2515.608866
415.516609	2515.976870
415.896466	2516.143228
416.276262	2517.748836
416.655997	2511.573422
417.035670	2510.751714
417.415283	2514.557785
417.794834	2511.245747
418.174324	2517.476613
418.553753	2516.294463
418.933121	2517.511902
419.312428	2515.432426
419.691674	2519.175482
420.070859	2516.017199
420.449983	2516.372601
420.829045	2516.128105
421.208047	2518.076511
421.586988	2514.754390
421.965867	2518.903260
422.344686	2518.923425
422.723444	2518.870492
423.102141	2517.630369
423.480777	2518.547859
423.859352	2518.792355
424.237866	2516.906963
424.616319	2516.843949
424.994712	2517.494258
425.373044	2518.356295
425.751314	2521.408713
426.129524	2521.781759
426.507673	2518.676408
426.885762	2517.821932
427.263789	2517.274967
427.641756	2520.029958
428.019662	2519.046933
428.397508	2519.929135
428.775292	2522.525329
429.153016	2519.500637
429.530679	2518.295801
429.908282	2517.406037
430.285824	2519.793024
430.663305	2519.866120
431.040726	2519.067098
431.418086	2516.803619
431.795385	2522.570699
432.172624	2521.068436
432.549802	2521.572551
432.926920	2520.440812
433.303977	2518.366377
433.680974	2522.636234
434.057910	2521.229752
434.434786	2521.416275
434.811601	2521.431399
435.188355	2521.133971
435.565050	2522.432068
435.941683	2522.056502
436.318257	2519.558610
436.694770	2518.673888
437.071222	2519.044412
437.447614	2516.327230
437.823946	2520.420647
438.200218	2523.468025
438.576429	2521.454084
438.952580	2523.316790
439.328670	2523.896523
439.704700	2521.796882
440.080670	2523.568848
440.456580	2522.195133
440.832429	2524.972809
441.208218	2523.034486
441.583947	2524.705628
441.959616	2522.537932
442.335224	2524.607326
442.710773	2523.737727
443.086261	2524.045237
443.461689	2523.339475
443.837057	2526.245701
444.212365	2522.230422
444.587612	2522.893333
444.962800	2525.938190
445.337927	2524.118334
445.712995	2524.312418
446.088002	2524.365350
446.462949	2525.272758
446.837837	2526.868283
447.212664	2524.566996
447.587431	2526.565814
447.962139	2523.273940
448.336786	2525.663447
448.711374	2526.754857
449.085901	2526.349044
449.460369	2526.853160
449.834776	2526.959024
450.209124	2526.318797
450.583412	2524.917357
450.957640	2524.675381
451.331808	2527.211082
451.705917	2526.291071
452.079965	2526.684281
452.453954	2527.780732
452.827883	2526.840557
453.201752	2529.172090
453.575562	2524.839219
453.949311	2527.274096
454.323001	2526.248221
454.696632	2527.553880
455.070202	2525.890299
455.443713	2524.685463
455.817164	2524.214116
456.190556	2521.862417
456.563888	2522.469876
456.937160	2523.120185
457.310373	2527.654703
457.683526	2528.229395
458.056619	2525.847449
458.429653	2526.565814
458.802628	2527.110258
459.175542	2527.836185
459.548398	2524.040196
459.921194	2526.477594
460.293930	2528.695701
460.666607	2527.488345
461.039224	2523.445340
461.411782	2527.405166
461.784280	2528.418438
462.156719	2526.520443
462.529099	2529.056144
462.901419	2526.850639
463.273680	2529.835002
463.645882	2527.982378
464.018024	2529.512368
464.390106	2527.901720
464.762130	2530.308871
465.134094	2531.773326
465.505999	2526.636390
465.877845	2528.922553
466.249631	2531.556556
466.621358	2528.819210
466.993026	2533.028573
467.364634	2533.141999
467.736184	2528.305012
468.107674	2525.963396
468.479105	2527.884076
468.850477	2529.630835
469.221790	2527.949611
469.593043	2529.136802
469.964238	2528.534384
470.335373	2531.309540
470.706449	2529.351051
471.077467	2530.331556
471.448425	2531.251566
471.819324	2529.792152
472.190164	2532.000178
472.560945	2530.883562
472.931667	2531.649817
473.302330	2527.127903
473.672934	2532.605116
474.043479	2529.570342
474.413965	2529.131761
474.784393	2526.374250
475.154761	2527.626977
475.525070	2526.044054
475.895321	2527.856349
476.265513	2525.217305
476.635645	2527.957172
477.005719	2530.039169
477.375734	2529.671165
477.745691	2530.787780
478.115588	2533.056299
478.485427	2530.384488
478.855207	2528.922553
479.224928	2531.070085
479.594591	2532.567308
479.964194	2528.952800
480.333739	2531.012112
480.703226	2532.569828
481.072653	2529.567821
481.442022	2528.196627
481.811333	2532.350538
482.180584	2530.208047
482.549777	2533.757020
482.918912	2530.780218
483.287988	2531.559077
483.657005	2532.557225
484.025964	2532.569828
484.394864	2529.998840
484.763706	2532.411032
485.132489	2531.334745
485.501213	2532.416073
485.869879	2531.569159
486.238487	2530.792821
486.607036	2533.580579
486.975527	2534.228368
487.343959	2531.833820
487.712333	2533.023532
488.080648	2532.615198
488.448905	2531.927081
488.817104	2531.624612
489.185244	2532.831968
489.553326	2530.177801
489.921350	2534.387164
490.289315	2533.976310
490.657222	2532.816845
491.025070	2532.905065
491.392861	2532.952956
491.760593	2532.443799
492.128267	2534.268697
492.495883	2531.105373
492.863440	2533.109232
493.230939	2533.441948
493.598380	2532.723583
493.965763	2529.192255
494.333088	2529.139323
494.700354	2529.519930
495.067563	2532.330373
495.434713	2527.884076
495.801805	2531.100332
496.168839	2533.114273
496.535815	2532.310209
496.902733	2532.421114
497.269593	2536.179294
497.636395	2532.257277
498.003139	2532.630322
498.369825	2535.644932
498.736453	2532.668131
499.103023	2533.749458
499.469535	2532.358100
499.835989	2532.489170
500.202385	2533.399098
500.568723	2533.217616
500.935003	2531.914478
501.301226	2533.678882
501.667390	2535.221475
502.033497	2535.115611
502.399546	2535.254242
502.765537	2534.044366
503.131470	2534.780374
503.497345	2534.021680
503.863163	2534.412370
504.228923	2534.825744
504.594625	2532.368182
504.960269	2532.887421
505.325856	2533.396577
505.691385	2535.279448
506.056856	2533.822555
506.422270	2533.643594
506.787625	2534.775333
507.152924	2532.731145
507.518164	2533.310878
507.883347	2532.950435
508.248472	2536.212062
508.613540	2531.871628
508.978550	2532.801721
509.343503	2534.901362
509.708398	2535.103008
510.073236	2534.883718
510.438016	2534.961856
510.802738	2532.436238
511.167403	2534.099818
511.532010	2534.145189
511.896561	2533.109232
512.261053	2535.347504
512.625488	2528.410876
512.989866	2529.764426
513.354186	2532.844571
513.718449	2527.087573
514.082655	2533.152081
514.446803	2534.122503
514.810894	2534.046886
515.174927	2533.404139
515.538904	2536.804397
515.902822	2534.883718
516.266684	2535.259284
516.630488	2534.956814
516.994235	2537.099305
517.357925	2537.459747
517.721558	2535.085364
518.085133	2536.441434
518.448651	2533.205013
518.812112	2536.431352
519.175516	2534.160312
519.538863	2534.873635
519.902152	2534.694674
520.265385	2530.949097
520.628560	2536.232226
520.991678	2537.260622
521.354739	2537.164840
521.717743	2533.313398
522.080690	2534.959335
522.443580	2533.540250
522.806413	2534.881197
523.169189	2536.688451
523.531908	2534.858512
523.894569	2534.853471
524.257174	2537.747093
524.619722	2538.334388
524.982213	2537.926054
525.344647	2535.839016
525.707025	2535.566794
526.069345	2534.820703
526.431608	2536.053265
526.793815	2536.315405
527.155964	2536.499408
527.518057	2536.572504
527.880093	2535.465971
528.242072	2534.596372
528.603995	2539.448483
528.965860	2537.525282
529.327669	2535.760878
529.689421	2534.601413
530.051117	2538.127700
530.412755	2534.374561
530.774337	2534.424973
531.135862	2535.382792
531.497331	2536.035621
531.858743	2533.217616
532.220098	2534.747607
532.581396	2531.806093
532.942638	2533.444468
533.303824	2535.259284
533.664953	2536.940508
534.026025	2532.983203
534.387040	2536.469161
534.747999	2536.625436
535.108902	2534.767771
535.469748	2537.016126
535.830537	2536.489325
536.191270	2536.131403
536.551947	2537.658873
536.912567	2533.101670
537.273131	2537.268183
537.633638	2534.573687
537.994089	2537.245498
538.354483	2536.224665
538.714821	2534.974458
539.075103	2537.109387
539.435328	2537.043852
539.795497	2534.911444
540.155609	2537.500077
540.515665	2536.844727
540.875665	2537.575694
541.235609	2537.058976
541.595496	2537.346321
541.955328	2534.755168
542.315102	2536.970755
542.674821	2540.018133
543.034483	2538.997299
543.394090	2534.926567
543.753640	2536.300282
544.113134	2537.739531
544.472571	2536.116280
544.831953	2537.132072
545.191278	2537.542926
545.550548	2535.836496
545.909761	2536.713657
546.268918	2536.844727
546.628019	2536.292720
546.987064	2537.459747
547.346053	2535.859181
547.704986	2536.469161
548.063863	2537.936136
548.422684	2534.603934
548.781449	2534.901362
549.140158	2536.837165
549.498811	2537.361445
549.857408	2536.383461
550.215949	2533.762061
550.574434	2532.474046
550.932864	2533.489839
551.291237	2530.288706
551.649555	2535.652494
552.007817	2535.758358
552.366022	2538.977135
552.724173	2535.846578
553.082267	2535.367668
553.440305	2535.395395
553.798288	2535.942360
554.156215	2536.746424
554.514086	2537.578214
554.871902	2537.721887
555.229661	2537.573173
555.587365	2537.081661
555.945014	2536.106197
556.302606	2537.782381
556.660143	2539.274563
557.017625	2538.659542
557.375050	2537.550488
557.732421	2535.216434
558.089735	2536.360776
558.446994	2536.171732
558.804197	2535.438245
559.161345	2536.325488
559.518437	2537.497556
559.875474	2535.604603
560.232455	2535.294572
560.589381	2538.611651
560.946251	2538.722556
561.303065	2536.146527
561.659825	2537.106867
562.016528	2535.758358
562.373177	2534.858512
562.729770	2537.061496
563.086307	2536.587628
563.442789	2535.894469
563.799216	2539.972763
564.155587	2535.350024
564.511904	2537.958822
564.868164	2537.800025
565.224370	2535.942360
565.580520	2535.518903
565.936615	2535.332380
566.292654	2536.932947
566.648638	2534.283820
567.004567	2535.952442
567.360441	2532.126207
567.716260	2535.660055
568.072023	2535.571835
568.427732	2533.855322
568.783385	2536.766589
569.138982	2532.373223
569.494525	2536.176774
569.850013	2531.859025
570.205445	2537.356404
570.560823	2536.995961
570.916145	2537.043852
571.271412	2538.520910
571.626625	2537.845396
571.981782	2538.692309
572.336884	2537.149716
572.691931	2536.340611
573.046923	2537.986548
573.401860	2539.385468
573.756743	2535.682741
574.111570	2538.974614
574.466342	2538.508307
574.821059	2536.869932
575.175722	2536.978317
575.530330	2536.769109
575.884882	2537.926054
576.239380	2535.624767
576.593823	2537.684079
576.948211	2535.702905
577.302544	2537.326157
577.656823	2537.396733
578.011047	2536.751465
578.365216	2537.331198
578.719330	2536.196938
579.073389	2537.111908
579.427394	2536.020498
579.781344	2536.088553
580.135239	2536.476722
580.489080	2536.585107
580.842866	2536.270035
581.196597	2537.926054
581.550273	2537.351362
581.903895	2538.528472
582.257463	2535.977648
582.610975	2538.546116
582.964434	2539.869419
583.317837	2540.812115
583.671186	2537.381609
584.024481	2536.791794
584.377721	2537.900848
584.730906	2536.638039
585.084037	2540.945705
585.437113	2536.607792
585.790135	2538.962011
586.143103	2538.256250
586.496016	2538.442772
586.848874	2532.295085
587.201679	2538.110056
587.554428	2533.242822
587.907124	2535.045035
588.259765	2531.183511
588.612352	2535.791125
588.964884	2538.031918
589.317362	2538.674665
589.669786	2537.525282
590.022155	2537.396733
590.374470	2535.967566
590.726731	2537.358924
591.078937	2538.906558
591.431090	2538.891435
591.783188	2540.219779
592.135232	2537.013605
592.487222	2537.623585
592.839157	2537.116949
593.191038	2535.914634
593.542866	2536.481763
593.894639	2537.013605
594.246358	2541.285983
594.598022	2536.217103
594.949633	2539.168698
595.301190	2537.482432
595.652692	2537.462268
596.004141	2535.347504
596.355535	2539.393030
596.706876	2536.343132
597.058162	2539.420756
597.409395	2534.435055
597.760573	2538.780530
598.111698	2539.642567
598.462768	2537.298430
598.813785	2535.889428
599.164748	2538.346990
599.515657	2535.113090
599.866511	2539.972763
600.217312	2537.215251
600.568060	2537.316074
600.918753	2539.244316
601.269392	2539.307330
601.619978	2537.855478
601.970510	2536.101156
602.320988	2537.311033
602.671412	2537.981507
603.021783	2535.400436
603.372100	2538.160468
603.722363	2535.765920
604.072572	2536.144006
604.422728	2538.654501
604.772830	2532.312729
605.122878	2533.630991
605.472872	2535.970086
605.822813	2532.786598
606.172701	2535.977648
606.522534	2537.815149
606.872314	2537.192566
607.222041	2538.641898
607.571714	2535.523944
607.921333	2537.245498
608.270899	2537.878163
608.620411	2540.618030
608.969870	2538.417567
609.319276	2541.351518
609.668627	2542.190870
610.017926	2542.969728
610.367171	2546.806047
610.716362	2543.504091
611.065500	2545.094575
611.414585	2540.814635
611.763616	2540.209697
612.112594	2540.005530
612.461518	2539.148534
612.810389	2538.480581
613.159207	2540.108874
613.507971	2536.012936
613.856682	2537.169881
614.205340	2539.642567
614.553945	2539.909748
614.902496	2539.660211
615.250994	2537.502597
615.599439	2538.016795
615.947830	2539.398071
616.296169	2537.028729
616.644454	2538.142824
616.992686	2538.281455
617.340864	2536.365817
617.688990	2536.784233
618.037063	2538.155427
618.385082	2538.087371
618.733048	2538.843544
619.080961	2535.259284
619.428821	2538.525951
619.776628	2538.687268
620.124382	2539.705581
620.472083	2541.790098
620.819731	2536.887576
621.167326	2535.619726
621.514868	2535.876825
621.862357	2539.186343
622.209793	2539.183822
622.557176	2538.412525
622.904506	2535.218954
623.251783	2534.513193
623.599007	2534.530837
623.946179	2533.663758
624.293297	2534.379602
624.640363	2536.161650
624.987376	2538.742721
625.334336	2538.455375
625.681243	2538.805735
626.028097	2536.186856
626.374899	2537.608461
626.721647	2536.771630
627.068343	2539.088040
627.414987	2536.108718
627.761577	2535.665097
628.108115	2538.374717
628.454600	2539.592155
628.801032	2539.660211
629.147412	2538.911600
629.493739	2535.503780
629.840014	2538.639377
630.186236	2539.854295
630.532405	2537.127031
630.878521	2537.462268
631.224585	2537.111908
631.570597	2538.117618
631.916556	2538.687268
632.262462	2536.176774
632.608316	2538.495704
632.954117	2538.394881
633.299866	2538.969573
633.645562	2537.187525
633.991206	2537.162319
634.336797	2534.361958
634.682336	2536.474202
635.027823	2536.196938
635.373257	2538.031918
635.718639	2536.040663
636.063968	2535.609644
636.409245	2536.922864
636.754470	2537.769778
637.099642	2537.187525
637.444762	2541.323792
637.789829	2534.853471
638.134845	2540.277752
638.479808	2535.108049
638.824719	2537.651311
639.169577	2538.495704
639.514383	2536.512010
639.859137	2538.208359
640.203839	2538.866229
640.548489	2535.856660
640.893086	2534.636701
641.237632	2532.592513
641.582125	2534.271217
641.926566	2532.837009
642.270955	2537.517721
642.615292	2537.452186
642.959576	2534.661907
643.303809	2536.446475
643.647990	2538.888914
643.992118	2540.040818
644.336195	2539.385468
