Dividing Wavelength (nm)	Counts (n)	Blue Motor Position (mm): 0.000000	Red Motor Position (mm): 18.700000	
326.493990	2131.188118
326.888308	2131.188118
327.282561	2131.188118
327.676750	2096.588158
328.070874	2094.503641
328.464933	2097.145206
328.858929	2104.475043
329.252859	2113.778493
329.646726	2123.893568
330.040528	2137.681124
330.434265	2154.442960
330.827938	2171.713953
331.221547	2190.487210
331.615091	2210.994624
332.008571	2229.167984
332.401986	2250.179513
332.795338	2265.179466
333.188625	2286.317024
333.581847	2306.622792
333.975006	2324.617191
334.368100	2342.367093
334.761129	2361.296626
335.154095	2375.802546
335.546996	2391.886348
335.939833	2410.904101
336.332606	2426.481266
336.725315	2435.207503
337.117960	2446.552620
337.510540	2453.975719
337.903056	2466.482822
338.295508	2473.437093
338.687896	2481.427322
339.080220	2490.675319
339.472480	2495.850063
339.864676	2501.566732
340.256807	2505.125787
340.648875	2504.924140
341.040879	2510.459327
341.432818	2510.965963
341.824694	2512.916890
342.216506	2511.596108
342.608253	2512.639626
342.999937	2516.057529
343.391557	2516.022241
343.783113	2512.059894
344.174605	2511.744822
344.566033	2509.302383
344.957397	2509.556961
345.348697	2505.965139
345.739934	2504.649397
346.131106	2505.398009
346.522215	2502.650580
346.913260	2501.057575
347.304241	2497.959786
347.695159	2495.668582
348.086012	2497.725373
348.476802	2495.688747
348.867528	2495.751761
349.258191	2491.156749
349.648789	2489.483086
350.039324	2487.620380
350.429796	2486.118116
350.820203	2486.344968
351.210548	2485.767756
351.600828	2483.589977
351.991045	2484.336068
352.381198	2483.201808
352.771288	2485.135091
353.161314	2480.777013
353.551276	2482.654843
353.941175	2480.930769
354.331010	2482.243989
354.720782	2483.680718
355.110490	2482.987559
355.500135	2481.510501
355.889717	2482.836325
356.279235	2481.704586
356.668689	2481.190388
357.058080	2482.402786
357.447408	2480.285501
357.836672	2481.518063
358.225873	2483.131232
358.615010	2481.775162
359.004084	2485.155256
359.393095	2486.718013
359.782043	2488.104331
360.170927	2486.375215
360.559748	2489.243631
360.948505	2488.958806
361.337199	2489.435195
361.725830	2488.948724
362.114398	2489.621718
362.502903	2492.094404
362.891344	2491.534836
363.279722	2492.742192
363.668037	2491.847387
364.056289	2494.340238
364.444478	2493.634476
364.832603	2493.619353
365.220665	2497.012049
365.608665	2498.002636
365.996601	2497.193531
366.384474	2497.992554
366.772284	2499.552791
367.160031	2500.349293
367.547715	2503.036228
367.935336	2504.039418
368.322893	2507.744666
368.710388	2513.594925
369.097820	2516.770852
369.485189	2519.510719
369.872495	2525.119003
370.259738	2534.820703
370.646918	2542.619368
371.034035	2548.280584
371.421090	2558.304918
371.808081	2566.143913
372.195010	2572.334450
372.581875	2590.293560
372.968678	2605.389295
373.355418	2612.499843
373.742096	2632.107411
374.128710	2646.946047
374.515262	2660.151350
374.901751	2679.738753
375.288177	2689.780731
375.674540	2712.397868
376.060841	2730.866135
376.447079	2747.690986
376.833254	2771.011364
377.219367	2782.467386
377.605417	2820.991884
377.991404	2826.438850
378.377329	2854.180320
378.763191	2867.582227
379.148991	2904.939698
379.534727	2929.558173
379.920402	2960.294088
380.306013	2970.593165
380.691563	3021.135774
381.077049	3045.177036
381.462474	3059.894685
381.847835	3097.166456
382.233134	3121.893316
382.618371	3122.115126
383.003545	3187.186340
383.388657	3198.493648
383.773706	3227.886096
384.158693	3242.797829
384.543618	3271.774381
384.928480	3305.315698
385.313280	3355.109695
385.698017	3354.126670
386.082692	3404.475194
386.467305	3409.594486
386.851856	3443.730659
387.236344	3461.513330
387.620770	3494.865603
388.005133	3526.254348
388.389435	3546.774365
388.773674	3558.366498
389.157851	3600.689505
389.541965	3616.478399
389.926018	3583.783996
390.310008	3655.743946
390.693936	3669.803724
391.077802	3713.644119
391.461606	3701.663817
391.845348	3763.135647
392.229027	3763.682612
392.612645	3774.843726
392.996200	3852.900952
393.379694	3893.991397
393.763125	3956.801654
394.146494	3926.035492
394.529801	3986.408350
394.913047	4036.860218
395.296230	4000.097604
395.679351	4054.194226
396.062410	4076.730704
396.445408	4062.630597
396.828343	4087.846448
397.211217	4118.141262
397.594028	4034.715207
397.976778	4100.081328
398.359466	4128.992346
398.742092	4156.471675
399.124656	4079.084923
399.507158	4156.829597
399.889598	4178.894728
400.271977	4247.076333
400.654294	4214.444945
401.036549	4220.542220
401.418742	4190.950647
401.800874	4295.723468
402.182944	4316.203156
402.564952	4383.976428
402.946898	4366.745764
403.328783	4359.216801
403.710606	4277.764358
404.092367	4465.184375
404.474067	4429.016617
404.855705	4434.634983
405.237282	4361.986915
405.618797	4463.475424
406.000250	4495.602697
406.381642	4572.296292
406.762972	4535.397566
407.144240	4533.920508
407.525447	4528.856669
407.906593	4581.496397
408.287677	4614.788177
408.668700	4537.845046
409.049661	4579.515224
409.430560	4602.581023
409.811399	4523.429867
410.192176	4666.923790
410.572891	4591.155248
410.953545	4670.739944
411.334138	4543.528947
411.714669	4591.142645
412.095139	4477.169718
412.475547	4587.480247
412.855894	4550.160585
413.236180	4536.655334
413.616405	4476.146364
413.996568	4533.865055
414.376670	4456.304383
414.756711	4391.704517
415.136691	4397.499323
415.516609	4428.693983
415.896466	4432.777318
416.276262	4428.126853
416.655997	4386.239906
417.035670	4492.484744
417.415283	4522.283004
417.794834	4445.493628
418.174324	4381.299575
418.553753	4276.859470
418.933121	4367.446484
419.312428	4377.836303
419.691674	4286.293990
420.070859	4330.787214
420.449983	4229.608735
420.829045	4252.709823
421.208047	4158.848579
421.586988	4149.519924
421.965867	4112.028863
422.344686	4132.478304
422.723444	4012.425745
423.102141	3870.146740
423.480777	3977.891321
423.859352	3813.521979
424.237866	3888.940161
424.616319	3839.143644
424.994712	3839.315043
425.373044	3739.013725
425.751314	3745.524376
426.129524	3619.336733
426.507673	3645.911176
426.885762	3632.952890
427.263789	3553.227042
427.641756	3478.643170
428.019662	3467.318218
428.397508	3427.409924
428.775292	3360.571786
429.153016	3348.314220
429.530679	3290.628297
429.908282	3269.929319
430.285824	3204.043959
430.663305	3222.885271
431.040726	3131.489152
431.418086	3097.201744
431.795385	3081.964857
432.172624	3051.082748
432.549802	3018.839528
432.926920	2988.733757
433.303977	2961.115796
433.680974	2937.820624
434.057910	2909.461613
434.434786	2887.182234
434.811601	2855.422964
435.188355	2856.022862
435.565050	2820.253355
435.941683	2796.950621
436.318257	2792.353089
436.694770	2766.938112
437.071222	2751.872623
437.447614	2723.748026
437.823946	2707.528113
438.200218	2702.146682
438.576429	2681.462827
438.952580	2670.894048
439.328670	2662.853408
439.704700	2648.788589
440.080670	2634.764099
440.456580	2635.106897
440.832429	2622.672891
441.208218	2611.272322
441.583947	2607.312496
441.959616	2600.355703
442.335224	2593.492172
442.710773	2589.474373
443.086261	2585.506985
443.461689	2576.929461
443.837057	2573.309913
444.212365	2572.546178
444.587612	2571.976528
444.962800	2566.567370
445.337927	2563.104097
445.712995	2560.538150
446.088002	2563.467060
446.462949	2559.408931
446.837837	2557.231153
447.212664	2555.703683
447.587431	2556.956410
447.962139	2560.838098
448.336786	2568.059551
448.711374	2563.245249
449.085901	2554.400545
449.460369	2554.009855
449.834776	2552.232849
450.209124	2554.887016
450.583412	2554.019938
450.957640	2554.345092
451.331808	2553.069680
451.705917	2548.578012
452.079965	2547.317724
452.453954	2550.062632
452.827883	2552.409289
453.201752	2550.140770
453.575562	2547.718495
453.949311	2549.891233
454.323001	2548.262940
454.696632	2548.535162
455.070202	2548.842673
455.443713	2550.203784
455.817164	2546.087682
456.190556	2544.897970
456.563888	2548.580533
456.937160	2546.869061
457.310373	2547.501726
457.683526	2547.562220
458.056619	2547.988197
458.429653	2548.709082
458.802628	2549.498023
459.175542	2548.298228
459.548398	2552.752088
459.921194	2549.182951
460.293930	2546.780841
460.666607	2550.861655
461.039224	2553.717468
461.411782	2553.349464
461.784280	2556.716955
462.156719	2555.060936
462.529099	2557.752912
462.901419	2554.105637
463.273680	2550.319731
463.645882	2556.106975
464.018024	2552.600853
464.390106	2555.842315
464.762130	2555.985988
465.134094	2560.326421
465.505999	2562.536967
465.877845	2567.731876
466.249631	2567.358831
466.621358	2568.087277
466.993026	2566.577452
467.364634	2569.912175
467.736184	2563.300702
468.107674	2563.046124
468.479105	2561.072512
468.850477	2563.048644
469.221790	2560.984292
469.593043	2560.558314
469.964238	2559.648386
470.335373	2558.660320
470.706449	2563.187276
471.077467	2560.961607
471.448425	2566.378326
471.819324	2572.825962
472.190164	2575.023905
472.560945	2568.974521
472.931667	2561.778273
473.302330	2561.816082
473.672934	2557.770556
474.043479	2561.309446
474.413965	2562.448747
474.784393	2559.424055
475.154761	2560.875907
475.525070	2559.839950
475.895321	2559.552604
476.265513	2560.797769
476.635645	2564.850857
477.005719	2563.794735
477.375734	2566.249777
477.745691	2567.908317
478.115588	2567.416804
478.485427	2569.430745
478.855207	2572.750345
479.224928	2576.778227
479.594591	2580.329720
479.964194	2580.637230
480.333739	2574.439131
480.703226	2575.666652
481.072653	2577.625141
481.442022	2579.664287
481.811333	2577.615058
482.180584	2579.845769
482.549777	2579.576067
482.918912	2576.306879
483.287988	2576.301838
483.657005	2579.545820
484.025964	2576.284194
484.394864	2573.980386
484.763706	2574.708833
485.132489	2576.566498
485.501213	2573.950139
485.869879	2574.534913
486.238487	2573.188925
486.607036	2574.189594
486.975527	2571.898390
487.343959	2573.070458
487.712333	2575.137331
488.080648	2575.810325
488.448905	2574.199677
488.817104	2572.652042
489.185244	2577.337795
489.553326	2574.630695
489.921350	2576.490881
490.289315	2581.421129
490.657222	2579.762590
491.025070	2580.760738
491.392861	2582.320975
491.760593	2579.528176
492.128267	2576.364852
492.495883	2574.580284
492.863440	2572.765468
493.230939	2572.571384
493.598380	2573.085582
493.965763	2566.101063
494.333088	2565.831361
494.700354	2565.354972
495.067563	2569.425704
495.434713	2565.481001
495.801805	2571.064079
496.168839	2568.563667
496.535815	2571.285890
496.902733	2571.235478
497.269593	2570.040725
497.636395	2569.110632
498.003139	2571.938719
498.369825	2569.213975
498.736453	2571.865622
499.103023	2569.219017
499.469535	2567.860426
499.835989	2569.040056
500.202385	2570.444017
500.568723	2567.603327
500.935003	2572.452917
501.301226	2570.396126
501.667390	2571.898390
502.033497	2571.936198
502.399546	2571.341342
502.765537	2570.093657
503.131470	2572.100036
503.497345	2569.967628
503.863163	2572.437793
504.228923	2570.524675
504.594625	2573.188925
504.960269	2570.736404
505.325856	2573.877043
505.691385	2570.733883
506.056856	2574.071127
506.422270	2572.762948
506.787625	2569.150961
507.152924	2570.471743
507.518164	2573.466189
507.883347	2572.362176
508.248472	2570.514593
508.613540	2571.684141
508.978550	2573.897207
509.343503	2573.415777
509.708398	2574.804615
510.073236	2572.795715
510.438016	2572.336970
510.802738	2573.262022
511.167403	2575.336457
511.532010	2570.295303
511.896561	2573.730849
512.261053	2575.407033
512.625488	2570.963256
512.989866	2571.207752
513.354186	2571.517783
513.718449	2569.158523
514.082655	2573.884604
514.446803	2573.004923
514.810894	2572.460478
515.174927	2572.833524
515.538904	2574.338308
515.902822	2575.500294
516.266684	2572.906621
516.630488	2575.674214
516.994235	2576.747980
517.357925	2574.494584
517.721558	2576.916858
518.085133	2575.316292
518.448651	2576.891653
518.812112	2575.147413
519.175516	2577.330233
519.538863	2576.619430
519.902152	2575.666652
520.265385	2576.407702
520.628560	2576.909297
520.991678	2575.139852
521.354739	2575.815366
521.717743	2571.270766
522.080690	2575.238154
522.443580	2578.066242
522.806413	2577.042887
523.169189	2575.825449
523.531908	2576.712692
523.894569	2575.747311
524.257174	2576.969791
524.619722	2576.175809
524.982213	2579.349215
525.344647	2577.738567
525.707025	2575.543144
526.069345	2575.732187
526.431608	2577.841910
526.793815	2575.449883
527.155964	2576.334605
527.518057	2576.473237
527.880093	2576.085068
528.242072	2576.493402
528.603995	2579.283680
528.965860	2576.813515
529.327669	2576.102712
529.689421	2574.539954
530.051117	2576.279153
530.412755	2577.095819
530.774337	2576.332085
531.135862	2575.129769
531.497331	2573.582135
531.858743	2571.865622
532.220098	2571.855540
532.581396	2570.113821
532.942638	2572.851168
533.303824	2576.213617
533.664953	2574.176991
534.026025	2574.368555
534.387040	2575.245716
534.747999	2573.672876
535.108902	2574.464337
535.469748	2572.861250
535.830537	2575.833010
536.191270	2573.032649
536.551947	2574.766806
536.912567	2572.457958
537.273131	2574.620613
537.633638	2573.614903
537.994089	2576.422825
538.354483	2572.939388
538.714821	2574.524831
539.075103	2574.764286
539.435328	2575.349060
539.795497	2574.759245
540.155609	2578.996334
540.515665	2576.684965
540.875665	2575.396951
541.235609	2573.945098
541.595496	2574.860068
541.955328	2574.769327
542.315102	2575.817887
542.674821	2573.776220
543.034483	2575.918710
543.394090	2575.631364
543.753640	2575.709502
544.113134	2575.923751
544.472571	2573.383010
544.831953	2574.454255
545.191278	2576.221179
545.550548	2573.350242
545.909761	2572.876374
546.268918	2575.039029
546.628019	2577.680593
546.987064	2574.602969
547.346053	2571.563153
547.704986	2573.758576
548.063863	2573.834193
548.422684	2575.328895
548.781449	2577.015161
549.140158	2576.049780
549.498811	2576.543813
549.857408	2577.620099
550.215949	2570.859912
550.574434	2570.197000
550.932864	2572.712536
551.291237	2569.924778
551.649555	2574.318144
552.007817	2577.168916
552.366022	2573.443503
552.724173	2575.359142
553.082267	2573.987948
553.440305	2572.473081
553.798288	2572.031980
554.156215	2574.050962
554.514086	2573.700602
554.871902	2573.274625
555.229661	2574.005592
555.587365	2575.434759
555.945014	2574.000551
556.302606	2573.196487
556.660143	2575.379307
557.017625	2573.083061
557.375050	2571.517783
557.732421	2573.660273
558.089735	2574.645819
558.446994	2574.416446
558.804197	2571.963925
559.161345	2573.844275
559.518437	2574.232444
559.875474	2574.784450
560.232455	2574.013154
560.589381	2573.567012
560.946251	2573.907290
561.303065	2575.623802
561.659825	2573.539285
562.016528	2573.950139
562.373177	2573.188925
562.729770	2573.935016
563.086307	2575.706982
563.442789	2573.514080
563.799216	2573.302351
564.155587	2572.508369
564.511904	2573.423339
564.868164	2573.226734
565.224370	2573.952660
565.580520	2572.021898
565.936615	2574.643298
566.292654	2572.773030
566.648638	2572.634398
567.004567	2573.135993
567.360441	2572.563822
567.716260	2573.057855
568.072023	2573.914851
568.427732	2569.440827
568.783385	2571.033832
569.138982	2568.364541
569.494525	2573.012485
569.850013	2570.073492
570.205445	2572.878894
570.560823	2573.002402
570.916145	2572.170612
571.271412	2570.658266
571.626625	2573.945098
571.981782	2572.004254
572.336884	2572.369738
572.691931	2572.868812
573.046923	2571.429562
573.401860	2570.156671
573.756743	2572.374779
574.111570	2569.158523
574.466342	2571.822772
574.821059	2570.035683
575.175722	2570.527196
575.530330	2568.956877
575.884882	2568.888821
576.239380	2569.690364
576.593823	2571.555591
576.948211	2572.021898
577.302544	2566.650549
577.656823	2567.951166
578.011047	2570.925447
578.365216	2569.692885
578.719330	2569.299675
579.073389	2569.781105
579.427394	2570.761610
579.781344	2566.834551
580.135239	2569.196331
580.489080	2568.873697
580.842866	2569.118193
581.196597	2569.203893
581.550273	2568.966959
581.903895	2565.793552
582.257463	2569.176167
582.610975	2564.964283
582.964434	2567.013512
583.317837	2567.880590
583.671186	2568.525858
584.024481	2566.950497
584.377721	2569.564336
584.730906	2566.358162
585.084037	2566.622822
585.437113	2565.796073
585.790135	2565.334807
586.143103	2565.092832
586.496016	2566.297668
586.848874	2563.235167
587.201679	2565.765826
587.554428	2563.149467
587.907124	2565.312122
588.259765	2562.804148
588.612352	2566.572411
588.964884	2567.900755
589.317362	2567.436969
589.669786	2567.194993
590.022155	2567.361351
590.374470	2566.128789
590.726731	2565.291958
591.078937	2564.767678
591.431090	2565.995199
591.783188	2567.426886
592.135232	2564.692060
592.487222	2565.957390
592.839157	2567.772205
593.191038	2564.124931
593.542866	2564.122410
593.894639	2564.205589
594.246358	2566.700960
594.598022	2563.968655
594.949633	2564.286248
595.301190	2563.358675
595.652692	2566.804304
596.004141	2565.339849
596.355535	2564.051834
596.706876	2563.686350
597.058162	2562.302553
597.409395	2563.056206
597.760573	2562.952862
598.111698	2563.338511
598.462768	2565.042421
598.813785	2562.199210
599.164748	2561.508572
599.515657	2564.185424
599.866511	2562.287430
600.217312	2562.668037
600.568060	2562.395815
600.918753	2565.057544
601.269392	2561.758109
601.619978	2560.898592
601.970510	2561.914385
602.320988	2563.041083
602.671412	2560.936401
603.021783	2562.781463
603.372100	2561.690053
603.722363	2561.460681
604.072572	2566.101063
604.422728	2565.153326
604.772830	2559.487069
605.122878	2559.764333
605.472872	2559.522357
605.822813	2558.236863
606.172701	2561.793397
606.522534	2560.964127
606.872314	2561.894220
607.222041	2559.051009
607.571714	2562.970506
607.921333	2562.312636
608.270899	2564.082081
608.620411	2563.540157
608.969870	2568.067113
609.319276	2561.899261
609.668627	2567.018553
610.017926	2567.749520
610.367171	2570.880077
610.716362	2571.235478
611.065500	2570.252453
611.414585	2566.179201
611.763616	2564.447564
612.112594	2566.073337
612.461518	2567.749520
612.810389	2565.942267
613.159207	2563.724159
613.507971	2564.641649
613.856682	2566.514437
614.205340	2563.583007
614.553945	2567.265569
614.902496	2562.700805
615.250994	2563.275496
615.599439	2563.789694
615.947830	2562.836916
616.296169	2561.193500
616.644454	2561.710218
616.992686	2563.058727
617.340864	2564.293809
617.688990	2563.527554
618.037063	2562.627708
618.385082	2560.722152
618.733048	2560.994374
619.080961	2564.558470
619.428821	2561.750547
619.776628	2563.341031
620.124382	2563.983778
620.472083	2562.390774
620.819731	2562.403377
621.167326	2561.337172
621.514868	2562.536967
621.862357	2560.205433
622.209793	2562.516802
622.557176	2562.279868
622.904506	2558.244425
623.251783	2556.210319
623.599007	2558.521688
623.946179	2556.071687
624.293297	2558.151163
624.640363	2558.763663
624.987376	2559.005639
625.334336	2556.613611
625.681243	2557.798283
626.028097	2562.325239
626.374899	2559.411452
626.721647	2557.306770
627.068343	2559.620660
627.414987	2558.695608
627.761577	2559.650907
628.108115	2560.260886
628.454600	2556.787531
628.801032	2559.156873
629.147412	2558.420865
629.493739	2558.234342
629.840014	2560.119734
630.186236	2558.234342
630.532405	2558.491441
630.878521	2558.153684
631.224585	2561.024621
631.570597	2557.513457
631.916556	2558.083108
632.262462	2558.597305
632.608316	2557.331976
632.954117	2556.540515
633.299866	2557.253838
633.645562	2554.380380
633.991206	2556.540515
634.336797	2556.669064
634.682336	2557.793241
635.027823	2554.866852
635.373257	2555.693601
635.718639	2555.421378
636.063968	2555.726368
636.409245	2551.428785
636.754470	2554.771070
637.099642	2552.184958
637.444762	2556.681667
637.789829	2556.298539
638.134845	2555.305432
638.479808	2554.640000
638.824719	2551.879968
639.169577	2554.196378
639.514383	2554.554300
639.859137	2556.689229
640.203839	2557.034548
640.548489	2553.873744
640.893086	2551.471634
641.237632	2549.061963
641.582125	2550.637323
641.926566	2547.950388
642.270955	2553.364588
642.615292	2554.196378
642.959576	2551.900133
643.303809	2553.316697
643.647990	2554.198899
643.992118	2552.336192
644.336195	2552.018600
