Dividing Wavelength (nm)	Counts (n)	Blue Motor Position (mm): 0.000000	Red Motor Position (mm): 16.200000	
326.493990	2130.154681
326.888308	2130.154681
327.282561	2130.154681
327.676750	2099.617892
328.070874	2095.060689
328.464933	2096.608323
328.858929	2103.020671
329.252859	2113.612135
329.646726	2128.080246
330.040528	2139.609365
330.434265	2155.378094
330.827938	2174.668070
331.221547	2190.391428
331.615091	2211.924717
332.008571	2229.064640
332.401986	2249.861920
332.795338	2267.911772
333.188625	2288.482200
333.581847	2307.441980
333.975006	2324.468477
334.368100	2344.083606
334.761129	2361.583972
335.154095	2377.377907
335.546996	2396.204096
335.939833	2412.313103
336.332606	2424.777356
336.725315	2437.917123
337.117960	2446.613114
337.510540	2453.060750
337.903056	2467.629684
338.295508	2471.390385
338.687896	2482.611993
339.080220	2488.651296
339.472480	2498.584889
339.864676	2501.564211
340.256807	2509.350273
340.648875	2508.117711
341.040879	2512.233813
341.432818	2515.203053
341.824694	2515.190450
342.216506	2516.347395
342.608253	2516.599453
342.999937	2515.195491
343.391557	2515.112312
343.783113	2514.555265
344.174605	2515.066942
344.566033	2511.225583
344.957397	2512.110305
345.348697	2506.050838
345.739934	2505.216527
346.131106	2503.767196
346.522215	2507.500170
346.913260	2499.514982
347.304241	2499.197390
347.695159	2498.103459
348.086012	2495.676144
348.476802	2493.236225
348.867528	2495.477018
349.258191	2490.188848
349.648789	2488.210195
350.039324	2488.757160
350.429796	2490.854280
350.820203	2488.656337
351.210548	2484.028558
351.600828	2481.805409
351.991045	2483.317755
352.381198	2481.928917
352.771288	2483.622745
353.161314	2481.392034
353.551276	2482.722899
353.941175	2481.414719
354.331010	2483.776500
354.720782	2483.100985
355.110490	2482.564103
355.500135	2481.427322
355.889717	2486.052581
356.279235	2482.304483
356.668689	2483.743733
357.058080	2483.673156
357.447408	2482.712817
357.836672	2481.656695
358.225873	2483.489154
358.615010	2479.320120
359.004084	2487.461583
359.393095	2485.523260
359.782043	2490.047695
360.170927	2488.121975
360.559748	2490.435864
360.948505	2492.283447
361.337199	2492.490134
361.725830	2492.694301
362.114398	2491.865031
362.502903	2490.324959
362.891344	2495.577841
363.279722	2494.090701
363.668037	2494.110865
364.056289	2492.608602
364.444478	2496.447440
364.832603	2496.765033
365.220665	2496.512975
365.608665	2494.473828
365.996601	2496.737307
366.384474	2501.506238
366.772284	2498.337873
367.160031	2500.024139
367.547715	2500.535816
367.935336	2505.561846
368.322893	2509.304903
368.710388	2512.596777
369.097820	2519.062056
369.485189	2519.399814
369.872495	2529.739220
370.259738	2531.556556
370.646918	2542.037115
371.034035	2547.892415
371.421090	2560.013870
371.808081	2568.722463
372.195010	2578.217476
372.581875	2591.047213
372.968678	2603.350149
373.355418	2613.079576
373.742096	2632.694705
374.128710	2646.860347
374.515262	2665.159736
374.901751	2677.717250
375.288177	2689.826102
375.674540	2713.799309
376.060841	2730.634242
376.447079	2750.272057
376.833254	2769.176384
377.219367	2780.965122
377.605417	2820.596153
377.991404	2829.234170
378.377329	2850.805267
378.763191	2868.958462
379.148991	2906.459606
379.534727	2930.987340
379.920402	2959.953810
380.306013	2969.252218
380.691563	3020.374559
381.077049	3043.163095
381.462474	3059.526681
381.847835	3101.118721
382.233134	3120.446504
382.618371	3119.728140
383.003545	3187.919828
383.388657	3193.127340
383.773706	3228.697722
384.158693	3246.339239
384.543618	3269.132817
384.928480	3305.809731
385.313280	3349.589632
385.698017	3350.612986
386.082692	3402.315060
386.467305	3405.972417
386.851856	3436.352931
387.236344	3461.919143
387.620770	3491.689677
388.005133	3520.310828
388.389435	3542.668345
388.773674	3557.895150
389.157851	3599.734206
389.541965	3616.387658
389.926018	3581.888522
390.310008	3651.927793
390.693936	3669.856656
391.077802	3708.272769
391.461606	3698.127447
391.845348	3760.214298
392.229027	3760.156325
392.612645	3771.108231
392.996200	3848.265612
393.379694	3887.896642
393.763125	3951.838638
394.146494	3917.526024
394.529801	3985.654698
394.913047	4029.225391
395.296230	3993.586953
395.679351	4045.881363
396.062410	4070.991350
396.445408	4050.524266
396.828343	4080.365376
397.211217	4101.724745
397.594028	4017.245088
397.976778	4079.243719
398.359466	4101.843212
398.742092	4126.711224
399.124656	4041.026732
399.507158	4110.171198
399.889598	4124.326758
400.271977	4175.491949
400.654294	4135.490393
401.036549	4133.191627
401.418742	4086.765121
401.800874	4168.164632
402.182944	4170.344931
402.564952	4211.934450
402.946898	4181.742980
403.328783	4156.622910
403.710606	4058.617838
404.092367	4204.392884
404.474067	4152.322806
404.855705	4132.165752
405.237282	4050.458731
405.618797	4109.646918
406.000250	4111.754120
406.381642	4146.084378
406.762972	4084.723453
407.144240	4062.008014
407.525447	4030.185730
407.906593	4040.247873
408.287677	4031.163714
408.668700	3948.526600
409.049661	3945.310344
409.430560	3932.672171
409.811399	3842.712781
410.192176	3908.061258
410.572891	3829.058815
410.953545	3851.065972
411.334138	3742.161926
411.714669	3735.590782
412.095139	3642.389930
412.475547	3669.072757
412.855894	3618.409161
413.236180	3578.899118
413.616405	3515.567102
413.996568	3517.124818
414.376670	3450.538738
414.756711	3393.659399
415.136691	3363.115048
415.516609	3350.940661
415.896466	3325.863441
416.276262	3298.510141
416.655997	3251.778644
417.035670	3266.776077
417.415283	3254.324427
417.794834	3200.313505
418.174324	3154.209632
418.553753	3096.745520
418.933121	3102.726849
419.312428	3077.372365
419.691674	3028.644572
420.070859	3019.494878
420.449983	2970.336066
420.829045	2957.728141
421.208047	2919.251534
421.586988	2899.235633
421.965867	2871.927702
422.344686	2860.146526
422.723444	2821.148159
423.102141	2782.895884
423.480777	2789.590536
423.859352	2751.320617
424.237866	2749.054618
424.616319	2730.926629
424.994712	2719.412634
425.373044	2697.970086
425.751314	2685.745288
426.129524	2663.619663
426.507673	2661.787204
426.885762	2650.404279
427.263789	2633.518934
427.641756	2620.568210
428.019662	2614.493619
428.397508	2607.383072
428.775292	2597.371340
429.153016	2593.151894
429.530679	2585.844742
429.908282	2578.978690
430.285824	2571.497618
430.663305	2573.193966
431.040726	2563.209961
431.418086	2560.331462
431.795385	2562.121072
432.172624	2556.175031
432.549802	2555.270144
432.926920	2551.050698
433.303977	2551.340564
433.680974	2549.440049
434.057910	2549.641696
434.434786	2546.974925
434.811601	2546.314534
435.188355	2544.056097
435.565050	2543.665408
435.941683	2543.758669
436.318257	2540.537372
436.694770	2537.986548
437.071222	2541.248174
437.447614	2539.246836
437.823946	2538.354552
438.200218	2538.838503
438.576429	2541.636343
438.952580	2538.329346
439.328670	2538.331867
439.704700	2538.851106
440.080670	2539.357742
440.456580	2538.586445
440.832429	2538.967052
441.208218	2537.469830
441.583947	2540.892773
441.959616	2537.618544
442.335224	2537.840354
442.710773	2539.738349
443.086261	2540.534851
443.461689	2538.977135
443.837057	2542.649615
444.212365	2542.213555
444.587612	2538.841023
444.962800	2540.305479
445.337927	2543.120963
445.712995	2537.621064
446.088002	2540.938143
446.462949	2538.775488
446.837837	2540.802032
447.212664	2541.220448
447.587431	2540.517207
447.962139	2543.788916
448.336786	2546.402754
448.711374	2541.081816
449.085901	2542.999975
449.460369	2542.911755
449.834776	2539.932433
450.209124	2541.495191
450.583412	2542.533669
450.957640	2543.821683
451.331808	2543.244471
451.705917	2542.079965
452.079965	2541.822866
452.453954	2542.450490
452.827883	2541.926210
453.201752	2542.208514
453.575562	2539.592155
453.949311	2544.028371
454.323001	2542.417722
454.696632	2540.857485
455.070202	2545.621375
455.443713	2546.246478
455.817164	2541.343956
456.190556	2542.856303
456.563888	2541.790098
456.937160	2539.939995
457.310373	2542.851261
457.683526	2545.054246
458.056619	2542.773123
458.429653	2542.896632
458.802628	2544.179605
459.175542	2546.798485
459.548398	2545.959133
459.921194	2547.945347
460.293930	2549.520708
460.666607	2549.273691
461.039224	2549.949206
461.411782	2550.160934
461.784280	2552.608415
462.156719	2548.635985
462.529099	2550.478527
462.901419	2550.501212
463.273680	2549.377035
463.645882	2549.384597
464.018024	2549.692107
464.390106	2547.509288
464.762130	2553.359547
465.134094	2552.701676
465.505999	2560.785166
465.877845	2559.608057
466.249631	2562.988150
466.621358	2561.324570
466.993026	2560.550752
467.364634	2564.029149
467.736184	2559.633262
468.107674	2557.059753
468.479105	2554.211502
468.850477	2557.631924
469.221790	2557.702501
469.593043	2555.260062
469.964238	2553.740154
470.335373	2555.892726
470.706449	2558.259548
471.077467	2557.815927
471.448425	2561.077553
471.819324	2564.046793
472.190164	2564.790363
472.560945	2559.391287
472.931667	2558.015052
473.302330	2555.013045
473.672934	2554.607232
474.043479	2559.078736
474.413965	2555.560010
474.784393	2554.226625
475.154761	2557.074877
475.525070	2557.097562
475.895321	2556.341389
476.265513	2557.647048
476.635645	2557.208468
477.005719	2557.624363
477.375734	2559.517316
477.745691	2560.981771
478.115588	2561.490928
478.485427	2563.169632
478.855207	2565.216340
479.224928	2567.210117
479.594591	2570.915365
479.964194	2571.210272
480.333739	2568.409911
480.703226	2570.703636
481.072653	2567.265569
481.442022	2570.980900
481.811333	2571.795046
482.180584	2571.109449
482.549777	2570.582649
482.918912	2567.905796
483.287988	2566.227092
483.657005	2566.375806
484.025964	2565.743141
484.394864	2564.392112
484.763706	2566.516958
485.132489	2566.428738
485.501213	2564.364385
485.869879	2566.111145
486.238487	2562.468912
486.607036	2566.574931
486.975527	2564.687019
487.343959	2565.601989
487.712333	2565.269272
488.080648	2565.231464
488.448905	2565.932184
488.817104	2564.182904
489.185244	2565.329766
489.553326	2566.799263
489.921350	2568.883780
490.289315	2571.227916
490.657222	2571.502659
491.025070	2568.702298
491.392861	2569.826476
491.760593	2571.061558
492.128267	2569.521486
492.495883	2566.678275
492.863440	2565.206258
493.230939	2564.066957
493.598380	2563.696432
493.965763	2559.219888
494.333088	2562.466391
494.700354	2560.157542
495.067563	2561.795917
495.434713	2560.238201
495.801805	2565.861608
496.168839	2562.746175
496.535815	2566.000240
496.902733	2562.461350
497.269593	2565.622153
497.636395	2564.833213
498.003139	2567.739438
498.369825	2564.187945
498.736453	2565.654921
499.103023	2565.317163
499.469535	2564.823130
499.835989	2564.397153
500.202385	2563.454457
500.568723	2565.576783
500.935003	2564.150136
501.301226	2565.972513
501.667390	2562.597461
502.033497	2566.645507
502.399546	2563.091494
502.765537	2561.148129
503.131470	2565.176011
503.497345	2565.528892
503.863163	2565.491083
504.228923	2566.015363
504.594625	2567.893193
504.960269	2565.339849
505.325856	2565.738100
505.691385	2563.615774
506.056856	2565.775908
506.422270	2564.553429
506.787625	2566.824468
507.152924	2563.630898
507.518164	2564.833213
507.883347	2565.768347
508.248472	2565.465877
508.613540	2567.462174
508.978550	2565.881773
509.343503	2565.470919
509.708398	2566.446382
510.073236	2565.130641
510.438016	2567.865467
510.802738	2565.481001
511.167403	2567.119376
511.532010	2564.855898
511.896561	2566.726166
512.261053	2566.993347
512.625488	2565.251628
512.989866	2562.151319
513.354186	2565.377657
513.718449	2563.484704
514.082655	2567.366392
514.446803	2565.906978
514.810894	2567.356310
515.174927	2567.386557
515.538904	2570.537278
515.902822	2566.690878
516.266684	2566.239695
516.630488	2566.146433
516.994235	2568.485529
517.357925	2570.338153
517.721558	2567.961249
518.085133	2566.239695
518.448651	2568.014181
518.812112	2565.581824
519.175516	2566.635425
519.538863	2567.525189
519.902152	2567.212637
520.265385	2566.794222
520.628560	2568.314129
520.991678	2565.864129
521.354739	2569.397977
521.717743	2568.959397
522.080690	2567.084088
522.443580	2566.874880
522.806413	2566.688357
523.169189	2566.027966
523.531908	2568.500652
523.894569	2565.533933
524.257174	2568.631722
524.619722	2570.509552
524.982213	2570.907803
525.344647	2568.775395
525.707025	2566.204407
526.069345	2568.243553
526.431608	2568.598955
526.793815	2568.730025
527.155964	2567.865467
527.518057	2566.637946
527.880093	2566.963100
528.242072	2567.033676
528.603995	2567.840261
528.965860	2567.104253
529.327669	2568.107442
529.689421	2566.138872
530.051117	2567.792370
530.412755	2566.862277
530.774337	2566.156516
531.135862	2566.832030
531.497331	2563.217523
531.858743	2560.729713
532.220098	2565.969993
532.581396	2565.516289
532.942638	2561.904302
533.303824	2565.990157
533.664953	2566.763975
534.026025	2565.430589
534.387040	2568.024263
534.747999	2565.014694
535.108902	2564.676937
535.469748	2562.932698
535.830537	2565.052503
536.191270	2567.696588
536.551947	2565.531412
536.912567	2567.409242
537.273131	2566.653069
537.633638	2564.558470
537.994089	2566.257339
538.354483	2565.932184
538.714821	2566.474108
539.075103	2563.479663
539.435328	2565.901937
539.795497	2564.356824
540.155609	2566.980744
540.515665	2570.645663
540.875665	2568.800601
541.235609	2565.271793
541.595496	2568.530899
541.955328	2566.287586
542.315102	2565.233984
542.674821	2566.728687
543.034483	2567.951166
543.394090	2566.355641
543.753640	2567.900755
544.113134	2565.120558
544.472571	2565.279355
544.831953	2567.598286
545.191278	2563.885476
545.550548	2566.058213
545.909761	2565.874211
546.268918	2562.897410
546.628019	2566.617781
546.987064	2566.617781
547.346053	2563.698953
547.704986	2564.520661
548.063863	2564.724828
548.422684	2564.540826
548.781449	2565.279355
549.140158	2562.710887
549.498811	2568.853533
549.857408	2563.333469
550.215949	2565.637277
550.574434	2561.901782
550.932864	2563.351113
551.291237	2563.358675
551.649555	2565.440672
552.007817	2565.244067
552.366022	2566.751372
552.724173	2563.391443
553.082267	2566.290106
553.440305	2567.406722
553.798288	2566.219530
554.156215	2565.357493
554.514086	2567.565518
554.871902	2566.892524
555.229661	2564.883624
555.587365	2566.834551
555.945014	2568.727504
556.302606	2567.565518
556.660143	2564.729869
557.017625	2566.438820
557.375050	2564.916392
557.732421	2564.465208
558.089735	2565.556618
558.446994	2566.602658
558.804197	2565.012174
559.161345	2567.394119
559.518437	2567.479818
559.875474	2566.101063
560.232455	2566.970662
560.589381	2567.315981
560.946251	2567.845302
561.303065	2566.567370
561.659825	2567.273131
562.016528	2564.959242
562.373177	2563.081412
562.729770	2564.563511
563.086307	2566.118707
563.442789	2565.881773
563.799216	2563.204920
564.155587	2561.692574
564.511904	2566.085939
564.868164	2563.462019
565.224370	2562.375650
565.580520	2563.419169
565.936615	2563.951011
566.292654	2563.172152
566.648638	2567.109294
567.004567	2562.269786
567.360441	2565.801114
567.716260	2563.225085
568.072023	2564.808007
568.427732	2560.898592
568.783385	2562.176525
569.138982	2560.593602
569.494525	2563.671227
569.850013	2560.026472
570.205445	2565.097873
570.560823	2565.163408
570.916145	2565.775908
571.271412	2565.077709
571.626625	2566.660631
571.981782	2565.604509
572.336884	2564.356824
572.691931	2564.198027
573.046923	2565.954869
573.401860	2567.066444
573.756743	2565.533933
574.111570	2562.191648
574.466342	2563.840105
574.821059	2561.064950
575.175722	2561.967317
575.530330	2564.230795
575.884882	2566.096022
576.239380	2561.080074
576.593823	2565.715415
576.948211	2562.473953
577.302544	2562.922615
577.656823	2564.583676
578.011047	2564.477811
578.365216	2563.456978
578.719330	2564.644169
579.073389	2562.771381
579.427394	2559.005639
579.781344	2561.027142
580.135239	2560.694425
580.489080	2562.940259
580.842866	2562.355486
581.196597	2563.862791
581.550273	2565.554098
581.903895	2562.325239
582.257463	2561.596792
582.610975	2563.676268
582.964434	2562.521844
583.317837	2563.474622
583.671186	2563.789694
584.024481	2563.154508
584.377721	2560.666699
584.730906	2559.996226
585.084037	2564.079560
585.437113	2560.444888
585.790135	2561.357337
586.143103	2560.346586
586.496016	2560.880948
586.848874	2557.873900
587.201679	2559.439178
587.554428	2556.049002
587.907124	2560.820454
588.259765	2556.306101
588.612352	2561.982440
588.964884	2561.967317
589.317362	2562.148798
589.669786	2559.257697
590.022155	2564.341700
590.374470	2558.614949
590.726731	2560.901113
591.078937	2559.991184
591.431090	2559.930691
591.783188	2558.912378
592.135232	2558.103272
592.487222	2561.518654
592.839157	2562.189128
593.191038	2558.930022
593.542866	2560.432285
593.894639	2559.597974
594.246358	2559.265258
594.598022	2560.346586
594.949633	2560.281051
595.301190	2557.415155
595.652692	2561.075032
596.004141	2559.734086
596.355535	2561.102759
596.706876	2559.537481
597.058162	2558.713252
597.409395	2560.787687
597.760573	2557.710062
598.111698	2558.834240
598.462768	2560.875907
598.813785	2559.534960
599.164748	2559.660989
599.515657	2558.740978
599.866511	2560.061761
600.217312	2560.780125
600.568060	2557.437840
600.918753	2559.918088
601.269392	2557.420196
601.619978	2557.145453
601.970510	2559.285423
602.320988	2561.294323
602.671412	2560.535629
603.021783	2558.133519
603.372100	2557.682336
603.722363	2559.245094
604.072572	2558.191492
604.422728	2558.980433
604.772830	2555.534804
605.122878	2554.768549
605.472872	2556.094373
605.822813	2556.429609
606.172701	2556.427089
606.522534	2559.116544
606.872314	2557.276523
607.222041	2557.505896
607.571714	2558.216698
607.921333	2558.425906
608.270899	2556.054043
608.620411	2559.487069
608.969870	2562.869683
609.319276	2559.333314
609.668627	2564.341700
610.017926	2564.487894
610.367171	2565.354972
610.716362	2568.621640
611.065500	2564.165260
611.414585	2559.025803
611.763616	2561.745506
612.112594	2559.915567
612.461518	2562.635270
612.810389	2560.926318
613.159207	2560.606205
613.507971	2560.288613
613.856682	2562.146278
614.205340	2560.253324
614.553945	2561.526216
614.902496	2559.403890
615.250994	2560.616288
615.599439	2559.161915
615.947830	2560.291133
616.296169	2559.192162
616.644454	2560.707028
616.992686	2556.905998
617.340864	2557.810885
617.688990	2558.138560
618.037063	2560.349106
618.385082	2558.173848
618.733048	2558.788869
619.080961	2558.700649
619.428821	2559.575289
619.776628	2561.012018
620.124382	2557.659651
620.472083	2560.278530
620.819731	2559.005639
621.167326	2556.790052
621.514868	2558.254507
621.862357	2558.385577
622.209793	2557.662171
622.557176	2555.426420
622.904506	2554.030020
623.251783	2551.020451
623.599007	2554.508930
623.946179	2554.677808
624.293297	2554.017417
624.640363	2555.373488
624.987376	2556.807696
625.334336	2558.221739
625.681243	2555.320555
626.028097	2558.088149
626.374899	2555.128992
626.721647	2557.362223
627.068343	2558.582182
627.414987	2555.940617
627.761577	2553.876265
628.108115	2556.296019
628.454600	2555.648230
628.801032	2556.134702
629.147412	2554.818961
629.493739	2554.493806
629.840014	2556.646379
630.186236	2557.710062
630.532405	2557.478169
630.878521	2556.336348
631.224585	2556.641338
631.570597	2555.554969
631.916556	2551.219577
632.262462	2555.776780
632.608316	2555.912891
632.954117	2554.665205
633.299866	2553.785524
633.645562	2555.733930
633.991206	2552.716799
634.336797	2554.604712
634.682336	2551.796789
635.027823	2550.208825
635.373257	2552.797458
635.718639	2551.799309
636.063968	2555.078580
636.409245	2552.971378
636.754470	2552.114382
637.099642	2550.712941
637.444762	2551.885009
637.789829	2550.796120
638.134845	2552.754608
638.479808	2550.912066
638.824719	2551.433826
639.169577	2552.318548
639.514383	2550.632282
639.859137	2553.911553
640.203839	2549.608928
640.548489	2551.910215
640.893086	2548.590615
641.237632	2549.263609
641.582125	2548.860317
641.926566	2546.606921
642.270955	2551.816953
642.615292	2551.738816
642.959576	2550.458362
643.303809	2553.104968
643.647990	2552.240410
643.992118	2550.735626
644.336195	2553.659495
