Dividing Wavelength (nm)	Counts (n)	Blue Motor Position (mm): 0.000000	Red Motor Position (mm): 26.500000	
326.493990	2129.466564
326.888308	2129.466564
327.282561	2129.466564
327.676750	2094.233939
328.070874	2093.535740
328.464933	2096.580597
328.858929	2101.778026
329.252859	2111.756990
329.646726	2125.085801
330.040528	2137.565177
330.434265	2153.217960
330.827938	2169.253870
331.221547	2188.122909
331.615091	2208.612679
332.008571	2227.574979
332.401986	2247.757239
332.795338	2268.214241
333.188625	2287.690739
333.581847	2302.962914
333.975006	2322.870431
334.368100	2342.659480
334.761129	2359.542305
335.154095	2375.966384
335.546996	2394.903478
335.939833	2412.174471
336.332606	2426.635021
336.725315	2436.077102
337.117960	2448.049843
337.510540	2454.106789
337.903056	2466.876032
338.295508	2470.752679
338.687896	2482.586788
339.080220	2489.672129
339.472480	2496.190341
339.864676	2500.548419
340.256807	2505.123266
340.648875	2507.989162
341.040879	2512.841273
341.432818	2512.581653
341.824694	2512.606859
342.216506	2515.258506
342.608253	2512.435460
342.999937	2514.809843
343.391557	2514.540141
343.783113	2514.091479
344.174605	2511.701972
344.566033	2509.226765
344.957397	2510.807167
345.348697	2510.829852
345.739934	2506.106291
346.131106	2506.449089
346.522215	2503.212669
346.913260	2503.500014
347.304241	2499.315857
347.695159	2496.767553
348.086012	2497.226298
348.476802	2493.611791
348.867528	2492.069198
349.258191	2491.965854
349.648789	2491.708756
350.039324	2489.183137
350.429796	2491.348313
350.820203	2486.299597
351.210548	2486.534011
351.600828	2483.721047
351.991045	2482.483444
352.381198	2486.894454
352.771288	2485.397231
353.161314	2481.926397
353.551276	2485.109885
353.941175	2482.909422
354.331010	2483.418578
354.720782	2481.666777
355.110490	2484.094093
355.500135	2484.441932
355.889717	2483.625265
356.279235	2480.154431
356.668689	2485.966881
357.058080	2485.019144
357.447408	2480.650985
357.836672	2480.648464
358.225873	2482.554020
358.615010	2483.148876
359.004084	2485.235914
359.393095	2486.866727
359.782043	2487.922849
360.170927	2489.014259
360.559748	2489.377222
360.948505	2490.645072
361.337199	2490.125833
361.725830	2491.718838
362.114398	2492.774960
362.502903	2491.118941
362.891344	2492.593478
363.279722	2494.927532
363.668037	2492.064157
364.056289	2493.510968
364.444478	2494.783859
364.832603	2494.168839
365.220665	2496.729745
365.608665	2496.160094
365.996601	2497.934581
366.384474	2500.150168
366.772284	2498.063130
367.160031	2502.481701
367.547715	2502.811897
367.935336	2505.924809
368.322893	2506.895232
368.710388	2510.648371
369.097820	2520.788652
369.485189	2523.430216
369.872495	2526.603623
370.259738	2534.855991
370.646918	2544.146838
371.034035	2548.378887
371.421090	2558.771225
371.808081	2567.913358
372.195010	2573.960222
372.581875	2591.057295
372.968678	2604.065992
373.355418	2616.416819
373.742096	2631.746968
374.128710	2648.344967
374.515262	2666.296516
374.901751	2676.890501
375.288177	2693.848942
375.674540	2714.711758
376.060841	2731.574417
376.447079	2751.812129
376.833254	2771.916251
377.219367	2783.430246
377.605417	2822.211843
377.991404	2835.795232
378.377329	2853.787110
378.763191	2870.390150
379.148991	2909.781726
379.534727	2933.722166
379.920402	2964.505972
380.306013	2972.518886
380.691563	3022.900177
381.077049	3046.855741
381.462474	3062.684964
381.847835	3101.403546
382.233134	3121.343830
382.618371	3122.014303
383.003545	3195.600026
383.388657	3199.448947
383.773706	3231.316601
384.158693	3248.494333
384.543618	3275.083899
384.928480	3309.704023
385.313280	3357.300077
385.698017	3353.393183
386.082692	3407.961152
386.467305	3410.660690
386.851856	3443.125721
387.236344	3467.890389
387.620770	3500.302488
388.005133	3526.440871
388.389435	3551.918862
388.773674	3565.915626
389.157851	3607.510186
389.541965	3621.380921
389.926018	3586.070159
390.310008	3658.251920
390.693936	3675.238088
391.077802	3715.758883
391.461606	3705.427038
391.845348	3769.328704
392.229027	3772.371040
392.612645	3782.884367
392.996200	3861.662478
393.379694	3901.442223
393.763125	3961.920946
394.146494	3928.732509
394.529801	3992.170389
394.913047	4037.893655
395.296230	4006.552801
395.679351	4061.733271
396.062410	4087.725460
396.445408	4066.814754
396.828343	4099.801544
397.211217	4123.706696
397.594028	4043.542267
397.976778	4110.551805
398.359466	4138.273110
398.742092	4162.982326
399.124656	4088.332919
399.507158	4167.930218
399.889598	4188.992159
400.271977	4255.537910
400.654294	4226.447932
401.036549	4232.416658
401.418742	4200.884241
401.800874	4307.562618
402.182944	4329.806709
402.564952	4388.009351
402.946898	4377.246488
403.328783	4371.373543
403.710606	4284.522024
404.092367	4479.292044
404.474067	4444.513124
404.855705	4452.518476
405.237282	4378.915109
405.618797	4487.325123
406.000250	4522.961039
406.381642	4604.663020
406.762972	4563.885126
407.144240	4579.545471
407.525447	4576.896344
407.906593	4635.966065
408.287677	4679.115821
408.668700	4607.044965
409.049661	4658.636133
409.430560	4700.220612
409.811399	4622.876709
410.192176	4787.823262
410.572891	4726.989138
410.953545	4833.541487
411.334138	4714.401377
411.714669	4778.229947
412.095139	4673.762116
412.475547	4814.637160
412.855894	4794.351557
413.236180	4806.372188
413.616405	4753.205659
413.996568	4844.143033
414.376670	4787.329229
414.756711	4744.194597
415.136691	4772.142753
415.516609	4850.081512
415.896466	4890.030136
416.276262	4923.107667
416.655997	4903.714348
417.035670	5085.458027
417.415283	5175.782901
417.794834	5121.910610
418.174324	5077.150205
418.553753	4982.557994
418.933121	5164.369728
419.312428	5231.311210
419.691674	5176.168549
420.070859	5302.358712
420.449983	5211.958221
420.829045	5321.822607
421.208047	5230.131580
421.586988	5300.644720
421.965867	5315.795908
422.344686	5448.968069
422.723444	5300.569103
423.102141	5120.201659
423.480777	5416.127472
423.859352	5186.817987
424.237866	5443.619405
424.616319	5435.762766
424.994712	5543.560280
425.373044	5423.356487
425.751314	5565.401079
426.129524	5367.664340
426.507673	5561.804215
426.885762	5647.254294
427.263789	5579.254169
427.641756	5456.925530
428.019662	5580.133851
428.397508	5587.294810
428.775292	5532.278177
429.153016	5637.023272
429.530679	5555.495211
429.908282	5645.066433
430.285824	5515.332339
430.663305	5789.467764
431.040726	5524.827352
431.418086	5520.413822
431.795385	5628.536489
432.172624	5642.490403
432.549802	5635.735257
432.926920	5646.485518
433.303977	5654.803422
433.680974	5697.076017
434.057910	5710.533377
434.434786	5718.085026
434.811601	5685.188976
435.188355	5917.190438
435.565050	5796.512777
435.941683	5773.424292
436.318257	5987.738866
436.694770	5971.745805
437.071222	6004.162945
437.447614	5934.254744
437.823946	5847.476322
438.200218	6002.085989
438.576429	5862.975349
438.952580	5965.386389
439.328670	6006.018089
439.704700	5910.475621
440.080670	5896.559516
440.456580	6162.974414
440.832429	6043.083173
441.208218	5885.589965
441.583947	6040.096289
441.959616	6037.845414
442.335224	5965.610721
442.710773	6095.254074
443.086261	6121.452951
443.461689	5917.261014
443.837057	6051.373351
444.212365	6205.519232
444.587612	6087.468012
444.962800	6236.499643
445.337927	6206.865220
445.712995	5819.495397
446.088002	6373.671960
446.462949	6203.563265
446.837837	6120.437158
447.212664	6284.113341
447.587431	6405.153966
447.962139	6914.968375
448.336786	7777.149355
448.711374	7522.041765
449.085901	6628.673686
449.460369	6536.959974
449.834776	6463.142358
450.209124	6811.672612
450.583412	6927.944305
450.957640	7046.557614
451.331808	6812.222098
451.705917	6377.876282
452.079965	6280.846674
452.453954	6456.462830
452.827883	6323.872922
453.201752	6385.019597
453.575562	6182.098032
453.949311	6331.346432
454.323001	6212.992743
454.696632	6250.365337
455.070202	6339.281208
455.443713	6444.724503
455.817164	6498.102760
456.190556	6535.351846
456.563888	6557.328756
456.937160	6560.229940
457.310373	6246.123206
457.683526	6227.821297
458.056619	6093.288024
458.429653	6042.503440
458.802628	5955.823321
459.175542	6004.299056
459.548398	6237.586012
459.921194	6305.639068
460.293930	6263.633654
460.666607	6581.856490
461.039224	6751.579538
461.411782	6788.289220
461.784280	6749.520226
462.156719	6619.738241
462.529099	6475.898998
462.901419	6140.528677
463.273680	6011.817937
463.645882	5972.234797
464.018024	5816.261497
464.390106	5869.712851
464.762130	6049.843360
465.134094	6261.561740
465.505999	6792.740559
465.877845	7429.917199
466.249631	7742.647698
466.621358	7425.959893
466.993026	6967.850079
467.364634	6745.837663
467.736184	6460.112625
468.107674	6200.412543
468.479105	6117.064626
468.850477	5936.014107
469.221790	5742.206947
469.593043	5500.652499
469.964238	5357.052711
470.335373	5289.163492
470.706449	5244.816462
471.077467	5165.801416
471.448425	5640.973016
471.819324	5988.525286
472.190164	5924.217807
472.560945	5352.929047
472.931667	4964.619048
473.302330	4846.071275
473.672934	4650.653466
474.043479	4703.716652
474.413965	4619.778920
474.784393	4506.962938
475.154761	4498.256865
475.525070	4454.779434
475.895321	4344.534440
476.265513	4328.770752
476.635645	4320.057118
477.005719	4253.206377
477.375734	4223.750915
477.745691	4220.998445
478.115588	4186.088454
478.485427	4178.183925
478.855207	4240.948811
479.224928	4358.642109
479.594591	4430.097944
479.964194	4310.037824
480.333739	4217.489802
480.703226	4114.249491
481.072653	4074.494952
481.442022	4058.945513
481.811333	4035.214281
482.180584	3935.429682
482.549777	3823.831139
482.918912	3744.264087
483.287988	3696.514278
483.657005	3647.141217
484.025964	3556.304666
484.394864	3514.654653
484.763706	3462.811427
485.132489	3393.611508
485.501213	3347.248016
485.869879	3316.509580
486.238487	3254.568923
486.607036	3231.006570
486.975527	3175.667304
487.343959	3156.463028
487.712333	3127.499079
488.080648	3095.898606
488.448905	3065.979358
488.817104	3032.117927
489.185244	3019.520084
489.553326	3002.667507
489.921350	3012.144876
490.289315	3038.510110
490.657222	3029.254552
491.025070	2997.999398
491.392861	2970.908237
491.760593	2926.936773
492.128267	2889.236504
492.495883	2855.440608
492.863440	2828.480518
493.230939	2800.547484
493.598380	2787.183385
493.965763	2767.989192
494.333088	2756.076946
494.700354	2741.291241
495.067563	2734.223544
495.434713	2716.642520
495.801805	2715.994731
496.168839	2705.045345
496.535815	2699.210210
496.902733	2691.585464
497.269593	2684.535411
497.636395	2679.433763
498.003139	2672.229954
498.369825	2667.692916
498.736453	2663.125630
499.103023	2659.183448
499.469535	2655.246307
499.835989	2649.002838
500.202385	2646.046201
500.568723	2639.200314
500.935003	2641.788947
501.301226	2636.770478
501.667390	2637.032618
502.033497	2639.207876
502.399546	2634.232257
502.765537	2629.846453
503.131470	2627.696401
503.497345	2632.528347
503.863163	2623.976030
504.228923	2623.915536
504.594625	2622.388066
504.960269	2621.652058
505.325856	2621.644496
505.691385	2616.862962
506.056856	2618.715586
506.422270	2616.258023
506.787625	2614.962447
507.152924	2614.181068
507.518164	2613.510594
507.883347	2613.986983
508.248472	2609.215531
508.613540	2611.947837
508.978550	2609.528083
509.343503	2607.042794
509.708398	2611.680655
510.073236	2610.274173
510.438016	2609.444904
510.802738	2607.801487
511.167403	2608.098916
511.532010	2605.711929
511.896561	2605.916096
512.261053	2607.884667
512.625488	2601.283276
512.989866	2601.789912
513.354186	2602.523399
513.718449	2599.728080
514.082655	2605.931219
514.446803	2602.795622
514.810894	2600.070878
515.174927	2605.089347
515.538904	2605.081785
515.902822	2603.103132
516.266684	2602.334356
516.630488	2602.142792
516.994235	2602.503235
517.357925	2602.309150
517.721558	2602.016763
518.085133	2603.357710
518.448651	2605.028853
518.812112	2600.295209
519.175516	2600.416197
519.538863	2600.859819
519.902152	2600.756475
520.265385	2599.781012
520.628560	2602.165477
520.991678	2600.441403
521.354739	2601.767226
521.717743	2602.104984
522.080690	2600.330497
522.443580	2600.645570
522.806413	2600.438882
523.169189	2599.455857
523.531908	2600.592637
523.894569	2603.435848
524.257174	2598.006526
524.619722	2599.934767
524.982213	2603.090529
525.344647	2599.657503
525.707025	2599.208841
526.069345	2601.147164
526.431608	2600.703543
526.793815	2600.900148
527.155964	2599.418049
527.518057	2598.286310
527.880093	2601.797473
528.242072	2598.886207
528.603995	2599.193717
528.965860	2599.307143
529.327669	2597.469643
529.689421	2599.833944
530.051117	2597.015939
530.412755	2597.386464
530.774337	2599.246649
531.135862	2600.713625
531.497331	2596.000146
531.858743	2591.256421
532.220098	2595.541401
532.581396	2594.760022
532.942638	2595.934611
533.303824	2597.265476
533.664953	2598.104828
534.026025	2596.458891
534.387040	2599.231526
534.747999	2595.193562
535.108902	2597.651124
535.469748	2594.301277
535.830537	2597.530137
536.191270	2596.388315
536.551947	2598.659355
536.912567	2595.538881
537.273131	2596.456371
537.633638	2595.377564
537.994089	2596.020311
538.354483	2594.235742
538.714821	2600.869901
539.075103	2598.243460
539.435328	2594.858325
539.795497	2596.663058
540.155609	2597.777153
540.515665	2597.540219
540.875665	2594.807913
541.235609	2597.136927
541.595496	2596.715990
541.955328	2596.375712
542.315102	2597.540219
542.674821	2598.878645
543.034483	2595.964858
543.394090	2595.957297
543.753640	2595.122986
544.113134	2597.895620
544.472571	2598.949221
544.831953	2596.899992
545.191278	2596.181628
545.550548	2598.825713
545.909761	2598.404777
546.268918	2595.264138
546.628019	2600.340580
546.987064	2594.631473
547.346053	2599.584407
547.704986	2595.349837
548.063863	2597.210023
548.422684	2598.130034
548.781449	2595.100300
549.140158	2598.230857
549.498811	2596.857142
549.857408	2594.747420
550.215949	2595.296905
550.574434	2593.345979
550.932864	2597.699015
551.291237	2595.140630
551.649555	2595.927050
552.007817	2597.545260
552.366022	2597.446957
552.724173	2596.862184
553.082267	2596.204313
553.440305	2596.307657
553.798288	2594.301277
554.156215	2597.020980
554.514086	2598.752616
554.871902	2595.243973
555.229661	2598.074581
555.587365	2596.234560
555.945014	2595.934611
556.302606	2596.499221
556.660143	2597.159612
557.017625	2597.089036
557.375050	2596.292533
557.732421	2598.377050
558.089735	2598.069540
558.446994	2596.680702
558.804197	2602.225971
559.161345	2596.174066
559.518437	2596.284972
559.875474	2598.152719
560.232455	2596.978130
560.589381	2599.307143
560.946251	2598.180445
561.303065	2599.924685
561.659825	2601.149685
562.016528	2596.501741
562.373177	2594.339086
562.729770	2597.827565
563.086307	2597.136927
563.442789	2596.852101
563.799216	2595.765733
564.155587	2598.147678
564.511904	2594.840681
564.868164	2599.712956
565.224370	2597.429313
565.580520	2595.783377
565.936615	2597.764550
566.292654	2595.352358
566.648638	2597.462081
567.004567	2597.756988
567.360441	2598.182966
567.716260	2592.635176
568.072023	2597.245311
568.427732	2590.767429
568.783385	2592.239446
569.138982	2592.778849
569.494525	2594.487800
569.850013	2593.088880
570.205445	2592.977975
570.560823	2597.419231
570.916145	2595.397728
571.271412	2594.886051
571.626625	2592.851946
571.981782	2593.151894
572.336884	2595.125506
572.691931	2594.848243
573.046923	2594.351689
573.401860	2594.344127
573.756743	2595.526278
574.111570	2594.455033
574.466342	2596.814293
574.821059	2592.602409
575.175722	2591.664754
575.530330	2594.407142
575.884882	2592.844384
576.239380	2593.673654
576.593823	2591.367326
576.948211	2593.789600
577.302544	2594.011411
577.656823	2593.182141
578.011047	2593.257759
578.365216	2590.878334
578.719330	2591.405135
579.073389	2591.896647
579.427394	2587.331882
579.781344	2592.269692
580.135239	2591.337079
580.489080	2590.472521
580.842866	2591.692480
581.196597	2596.058120
581.550273	2590.570824
581.903895	2592.163828
582.257463	2591.329517
582.610975	2589.217274
582.964434	2590.958992
583.317837	2589.834815
583.671186	2590.255752
584.024481	2590.157449
584.377721	2588.980340
584.730906	2589.507140
585.084037	2591.107707
585.437113	2588.536718
585.790135	2588.655185
586.143103	2586.608477
586.496016	2586.674012
586.848874	2585.229721
587.201679	2588.186358
587.554428	2584.229052
587.907124	2586.474886
588.259765	2583.616552
588.612352	2587.485637
588.964884	2590.011256
589.317362	2588.035123
589.669786	2588.735844
590.022155	2588.733323
590.374470	2587.783066
590.726731	2589.343303
591.078937	2586.285843
591.431090	2585.275092
591.783188	2587.331882
592.135232	2584.027406
592.487222	2588.766091
592.839157	2589.083683
593.191038	2583.183013
593.542866	2585.799372
593.894639	2585.408682
594.246358	2586.366501
594.598022	2584.627303
594.949633	2584.362643
595.301190	2584.019844
595.652692	2585.769125
596.004141	2584.939855
596.355535	2585.612849
596.706876	2585.716193
597.058162	2583.956830
597.409395	2582.915832
597.760573	2584.319793
598.111698	2583.102354
598.462768	2584.229052
598.813785	2583.724937
599.164748	2585.015472
599.515657	2584.115626
599.866511	2583.384659
600.217312	2581.617734
600.568060	2583.059504
600.918753	2586.174937
601.269392	2582.852817
601.619978	2583.571182
601.970510	2584.294587
602.320988	2583.624114
602.671412	2583.513208
603.021783	2585.393559
603.372100	2583.709813
603.722363	2582.459607
604.072572	2579.825604
604.422728	2584.803744
604.772830	2579.739905
605.122878	2578.444328
605.472872	2580.773341
605.822813	2578.577919
606.172701	2581.794175
606.522534	2584.256778
606.872314	2583.987077
607.222041	2582.757035
607.571714	2584.254258
607.921333	2583.117478
608.270899	2582.308372
608.620411	2582.343661
608.969870	2583.188054
609.319276	2583.145204
609.668627	2586.399269
610.017926	2588.052767
610.367171	2590.626276
610.716362	2587.830957
611.065500	2589.101327
611.414585	2585.975812
611.763616	2587.440267
612.112594	2588.067891
612.461518	2584.773497
612.810389	2587.614187
613.159207	2588.529156
613.507971	2585.005390
613.856682	2584.425657
614.205340	2585.819536
614.553945	2586.802561
614.902496	2585.537232
615.250994	2583.800554
615.599439	2580.564133
615.947830	2585.633013
616.296169	2581.988259
616.644454	2585.199474
616.992686	2583.556058
617.340864	2586.981522
617.688990	2585.774166
618.037063	2583.757704
618.385082	2582.089082
618.733048	2586.066553
619.080961	2585.368353
619.428821	2585.292736
619.776628	2581.504308
620.124382	2583.740060
620.472083	2583.659402
620.819731	2583.810636
621.167326	2581.655543
621.514868	2582.827611
621.862357	2580.715368
622.209793	2584.173599
622.557176	2581.164031
622.904506	2580.861561
623.251783	2576.954667
623.599007	2578.847620
623.946179	2578.436766
624.293297	2578.119174
624.640363	2578.933320
624.987376	2580.669997
625.334336	2577.138669
625.681243	2579.588670
626.028097	2576.485840
626.374899	2580.032292
626.721647	2579.470203
627.068343	2578.280491
627.414987	2580.329720
627.761577	2575.878381
628.108115	2577.133628
628.454600	2577.549523
628.801032	2578.840059
629.147412	2577.178998
629.493739	2577.693196
629.840014	2581.627817
630.186236	2576.690007
630.532405	2576.659760
630.878521	2578.000707
631.224585	2577.080696
631.570597	2572.974676
631.916556	2574.849985
632.262462	2577.058011
632.608316	2574.391240
632.954117	2572.790674
633.299866	2575.344018
633.645562	2577.219328
633.991206	2574.426528
634.336797	2571.898390
634.682336	2573.751014
635.027823	2573.352763
635.373257	2573.103226
635.718639	2571.081723
636.063968	2572.084912
636.409245	2571.958884
636.754470	2573.196487
637.099642	2572.684810
637.444762	2571.331260
637.789829	2570.504511
638.134845	2573.443503
638.479808	2568.939232
638.824719	2569.322360
639.169577	2569.203893
639.514383	2567.837740
639.859137	2568.687175
640.203839	2570.343194
640.548489	2567.401681
640.893086	2566.108625
641.237632	2561.359858
641.582125	2569.433266
641.926566	2563.671227
642.270955	2569.960066
642.615292	2568.815724
642.959576	2567.389078
643.303809	2567.799932
643.647990	2569.468554
643.992118	2568.750189
644.336195	2569.297154
