Dividing Wavelength (nm)	Counts (n)	Blue Motor Position (mm): 0.000000	Red Motor Position (mm): 22.000000	
326.493990	2129.514455
326.888308	2129.514455
327.282561	2129.514455
327.676750	2095.763930
328.070874	2093.787797
328.464933	2096.348703
328.858929	2103.756679
329.252859	2112.193050
329.646726	2125.726028
330.040528	2139.296814
330.434265	2156.293064
330.827938	2174.262257
331.221547	2191.117355
331.615091	2209.646116
332.008571	2227.534650
332.401986	2247.263206
332.795338	2267.463109
333.188625	2286.823660
333.581847	2305.367545
333.975006	2325.451502
334.368100	2342.838441
334.761129	2359.393591
335.154095	2376.518390
335.546996	2392.259393
335.939833	2409.706827
336.332606	2423.524629
336.725315	2436.644232
337.117960	2447.089503
337.510540	2455.014197
337.903056	2465.124231
338.295508	2472.149079
338.687896	2482.309524
339.080220	2491.635659
339.472480	2498.416011
339.864676	2499.562873
340.256807	2505.103101
340.648875	2507.245592
341.040879	2511.102074
341.432818	2515.278670
341.824694	2512.642147
342.216506	2512.868999
342.608253	2513.746160
342.999937	2515.845800
343.391557	2516.357477
343.783113	2512.627023
344.174605	2513.461334
344.566033	2511.550737
344.957397	2508.984790
345.348697	2507.941271
345.739934	2508.374810
346.131106	2505.556805
346.522215	2504.992196
346.913260	2500.498007
347.304241	2498.458861
347.695159	2496.969200
348.086012	2497.102790
348.476802	2496.129848
348.867528	2492.948879
349.258191	2489.621718
349.648789	2492.190186
350.039324	2488.079125
350.429796	2489.465442
350.820203	2485.871099
351.210548	2488.389156
351.600828	2482.881695
351.991045	2485.505616
352.381198	2483.111068
352.771288	2484.346150
353.161314	2482.342292
353.551276	2483.284988
353.941175	2482.798516
354.331010	2483.867241
354.720782	2483.600060
355.110490	2485.127529
355.500135	2484.399083
355.889717	2481.765080
356.279235	2483.416057
356.668689	2484.273054
357.058080	2485.364463
357.447408	2482.730461
357.836672	2482.400265
358.225873	2483.930255
358.615010	2482.107878
359.004084	2488.061481
359.393095	2486.985194
359.782043	2488.638693
360.170927	2488.006028
360.559748	2488.633652
360.948505	2487.396048
361.337199	2486.909577
361.725830	2493.316884
362.114398	2490.634990
362.502903	2491.570124
362.891344	2492.238077
363.279722	2493.624394
363.668037	2495.804693
364.056289	2493.019456
364.444478	2495.416524
364.832603	2494.375526
365.220665	2497.211175
365.608665	2495.718993
365.996601	2496.510455
366.384474	2500.031701
366.772284	2500.918944
367.160031	2498.751247
367.547715	2503.810045
367.935336	2506.597803
368.322893	2510.234996
368.710388	2510.857578
369.097820	2521.691018
369.485189	2519.606501
369.872495	2531.911958
370.259738	2532.625281
370.646918	2540.925541
371.034035	2547.267312
371.421090	2558.940104
371.808081	2570.388564
372.195010	2580.344843
372.581875	2593.240115
372.968678	2604.731425
373.355418	2615.978239
373.742096	2632.729993
374.128710	2648.556696
374.515262	2665.492452
374.901751	2676.265398
375.288177	2689.155628
375.674540	2714.225286
376.060841	2729.530229
376.447079	2751.313055
376.833254	2770.426590
377.219367	2783.911677
377.605417	2820.938952
377.991404	2831.026300
378.377329	2853.088910
378.763191	2870.271683
379.148991	2907.243505
379.534727	2930.573965
379.920402	2961.768625
380.306013	2974.142138
380.691563	3024.982174
381.077049	3040.955070
381.462474	3061.097000
381.847835	3100.150819
382.233134	3121.197636
382.618371	3124.978502
383.003545	3194.160777
383.388657	3199.847198
383.773706	3230.883062
384.158693	3246.956781
384.543618	3272.238167
384.928480	3310.717295
385.313280	3354.719006
385.698017	3354.230014
386.082692	3405.427973
386.467305	3410.824528
386.851856	3443.760906
387.236344	3466.383084
387.620770	3496.645131
388.005133	3523.622866
388.389435	3554.109243
388.773674	3560.100655
389.157851	3603.772171
389.541965	3620.465952
389.926018	3584.204932
390.310008	3659.212260
390.693936	3672.135258
391.077802	3715.557237
391.461606	3703.133313
391.845348	3765.870473
392.229027	3768.575052
392.612645	3779.327833
392.996200	3859.250286
393.379694	3897.046337
393.763125	3957.938434
394.146494	3922.645316
394.529801	3991.850276
394.913047	4037.649159
395.296230	4007.571114
395.679351	4059.573137
396.062410	4081.973504
396.445408	4063.986667
396.828343	4096.365998
397.211217	4117.254019
397.594028	4040.474725
397.976778	4109.220940
398.359466	4132.664826
398.742092	4158.697345
399.124656	4085.308227
399.507158	4165.702028
399.889598	4190.270091
400.271977	4252.258640
400.654294	4222.767890
401.036549	4232.706524
401.418742	4198.517419
401.800874	4300.681443
402.182944	4324.435360
402.564952	4386.522211
402.946898	4374.446127
403.328783	4371.129047
403.710606	4281.096560
404.092367	4475.985047
404.474067	4442.579841
404.855705	4447.956232
405.237282	4378.995768
405.618797	4486.407633
406.000250	4521.103374
406.381642	4601.867700
406.762972	4564.870672
407.144240	4569.909305
407.525447	4571.366199
407.906593	4632.772494
408.287677	4677.979041
408.668700	4600.136064
409.049661	4654.083972
409.430560	4696.338923
409.811399	4623.622799
410.192176	4780.952170
410.572891	4720.849013
410.953545	4825.226103
411.334138	4703.348647
411.714669	4772.926653
412.095139	4666.223070
412.475547	4806.967044
412.855894	4787.384682
413.236180	4798.162669
413.616405	4752.540227
413.996568	4839.114482
414.376670	4778.771871
414.756711	4735.163369
415.136691	4763.328296
415.516609	4843.522971
415.896466	4881.261049
416.276262	4910.293054
416.655997	4892.669180
417.035670	5072.514864
417.415283	5160.959388
417.794834	5108.594402
418.174324	5056.610024
418.553753	4960.518070
418.933121	5136.507271
419.312428	5205.704669
419.691674	5136.819823
420.070859	5264.146766
420.449983	5166.305532
420.829045	5276.447181
421.208047	5181.565104
421.586988	5239.172890
421.965867	5241.295216
422.344686	5361.471282
422.723444	5210.765988
423.102141	5027.532648
423.480777	5300.115399
423.859352	5069.089400
424.237866	5306.313497
424.616319	5283.406494
424.994712	5373.053333
425.373044	5239.964351
425.751314	5360.541189
426.129524	5158.988297
426.507673	5317.746834
426.885762	5375.352099
427.263789	5293.846724
427.641756	5168.788300
428.019662	5254.150158
428.397508	5235.467642
428.775292	5166.565151
429.153016	5224.745108
429.530679	5135.864524
429.908282	5177.902706
430.285824	5043.014032
430.663305	5240.775977
431.040726	4989.028315
431.418086	4956.651505
431.795385	5015.726266
432.172624	4988.993027
432.549802	4945.392088
432.926920	4923.601700
433.303977	4894.494078
433.680974	4886.045104
434.057910	4853.249878
434.434786	4818.554136
434.811601	4753.719857
435.188355	4878.939598
435.565050	4747.786419
435.941683	4690.443294
436.318257	4778.078712
436.694770	4719.908838
437.071222	4693.354560
437.447614	4603.133030
437.823946	4504.714583
438.200218	4541.313360
438.576429	4414.929113
438.952580	4417.356428
439.328670	4391.996904
439.704700	4293.497799
440.080670	4235.811875
440.456580	4310.998164
440.832429	4206.321125
441.208218	4084.123556
441.583947	4103.693315
441.959616	4051.895459
442.335224	3973.122389
442.710773	3974.980055
443.086261	3932.876338
443.461689	3811.152637
443.837057	3813.486691
444.212365	3814.656239
444.587612	3737.246801
444.962800	3736.064650
445.337927	3678.235054
445.712995	3518.304448
446.088002	3638.218375
446.462949	3545.529200
446.837837	3479.739621
447.212664	3482.534941
447.587431	3463.290336
447.962139	3546.320661
448.336786	3702.356975
448.711374	3604.432562
449.085901	3363.115048
449.460369	3300.539205
449.834776	3246.354363
450.209124	3273.306892
450.583412	3257.054212
450.957640	3247.740680
451.331808	3170.389216
451.705917	3071.476736
452.079965	3031.553318
452.453954	3024.072246
452.827883	2981.502222
453.201752	2962.897844
453.575562	2919.748088
453.949311	2910.706778
454.323001	2878.445914
454.696632	2860.872452
455.070202	2852.189064
455.443713	2839.805470
455.817164	2823.734271
456.190556	2804.870274
456.563888	2793.436937
456.937160	2776.939761
457.310373	2744.247878
457.683526	2729.908316
458.056619	2711.061962
458.429653	2698.771629
458.802628	2684.243024
459.175542	2675.930161
459.548398	2675.453772
459.921194	2673.654080
460.293930	2666.954387
460.666607	2672.383709
461.039224	2673.021415
461.411782	2663.629746
461.784280	2653.756646
462.156719	2643.175264
462.529099	2635.880714
462.901419	2619.484362
463.273680	2612.487240
463.645882	2608.887856
464.018024	2602.026846
464.390106	2600.143975
464.762130	2604.260077
465.134094	2604.973400
465.505999	2617.001593
465.877845	2625.448047
466.249631	2627.217492
466.621358	2619.968312
466.993026	2613.417333
467.364634	2608.852568
467.736184	2599.050044
468.107674	2596.055599
468.479105	2594.467636
468.850477	2591.334558
469.221790	2586.346337
469.593043	2582.575554
469.964238	2580.420460
470.335373	2582.162179
470.706449	2582.202508
471.077467	2580.433063
471.448425	2591.503437
471.819324	2594.906216
472.190164	2595.982502
472.560945	2588.040164
472.931667	2580.410378
473.302330	2578.482137
473.672934	2572.077351
474.043479	2580.808629
474.413965	2579.404668
474.784393	2574.852506
475.154761	2576.339646
475.525070	2573.090623
475.895321	2575.533062
476.265513	2574.416446
476.635645	2580.387693
477.005719	2577.867116
477.375734	2582.426840
477.745691	2578.358628
478.115588	2580.324678
478.485427	2583.102354
478.855207	2585.905236
479.224928	2587.147880
479.594591	2592.806575
479.964194	2593.991247
480.333739	2592.793972
480.703226	2593.482090
481.072653	2592.642738
481.442022	2593.923191
481.811333	2596.035434
482.180584	2594.344127
482.549777	2594.560897
482.918912	2589.940679
483.287988	2591.125351
483.657005	2589.774321
484.025964	2591.218612
484.394864	2587.571337
484.763706	2590.061667
485.132489	2587.261306
485.501213	2589.045875
485.869879	2589.471852
486.238487	2585.882551
486.607036	2588.289702
486.975527	2586.787438
487.343959	2585.454052
487.712333	2586.525298
488.080648	2585.874989
488.448905	2588.677870
488.817104	2586.681573
489.185244	2589.804568
489.553326	2589.524784
489.921350	2595.874117
490.289315	2595.390167
490.657222	2598.944180
491.025070	2596.042996
491.392861	2598.001484
491.760593	2595.480907
492.128267	2594.366813
492.495883	2588.708117
492.863440	2591.178283
493.230939	2586.353898
493.598380	2589.542428
493.965763	2583.077148
494.333088	2582.338619
494.700354	2579.336612
495.067563	2583.205698
495.434713	2578.923238
495.801805	2584.725606
496.168839	2583.278795
496.535815	2582.883064
496.902733	2580.848958
497.269593	2584.526480
497.636395	2583.384659
498.003139	2581.481623
498.369825	2580.667477
498.736453	2581.143866
499.103023	2583.341809
499.469535	2582.341140
499.835989	2581.983218
500.202385	2581.335430
500.568723	2579.717219
500.935003	2582.358784
501.301226	2577.539441
501.667390	2579.006417
502.033497	2582.341140
502.399546	2580.317117
502.765537	2580.458269
503.131470	2580.120512
503.497345	2579.903742
503.863163	2581.156469
504.228923	2580.034812
504.594625	2581.088413
504.960269	2577.894842
505.325856	2580.357446
505.691385	2576.954667
506.056856	2579.192939
506.422270	2580.594380
506.787625	2580.060018
507.152924	2583.435070
507.518164	2581.484144
507.883347	2581.688311
508.248472	2581.746284
508.613540	2579.223186
508.978550	2580.357446
509.343503	2580.395255
509.708398	2582.013465
510.073236	2584.410534
510.438016	2582.366346
510.802738	2581.453897
511.167403	2583.815677
511.532010	2579.966757
511.896561	2584.627303
512.261053	2584.231573
512.625488	2579.190419
512.989866	2579.583629
513.354186	2579.538258
513.718449	2576.140521
514.082655	2581.254771
514.446803	2584.639906
514.810894	2584.786100
515.174927	2583.185533
515.538904	2584.718044
515.902822	2584.644947
516.266684	2585.285174
516.630488	2581.915163
516.994235	2585.310380
517.357925	2584.518918
517.721558	2586.366501
518.085133	2585.280133
518.448651	2587.694845
518.812112	2588.168714
519.175516	2586.560586
519.538863	2584.408013
519.902152	2585.877509
520.265385	2585.852304
520.628560	2584.942375
520.991678	2582.751994
521.354739	2585.229721
521.717743	2583.863568
522.080690	2585.731316
522.443580	2587.694845
522.806413	2585.053281
523.169189	2582.855338
523.531908	2586.870617
523.894569	2586.056470
524.257174	2586.588312
524.619722	2584.755853
524.982213	2587.604105
525.344647	2586.071594
525.707025	2586.484968
526.069345	2583.193095
526.431608	2580.551530
526.793815	2586.018662
527.155964	2586.681573
527.518057	2584.559248
527.880093	2587.697366
528.242072	2588.836667
528.603995	2588.062850
528.965860	2584.498754
529.327669	2586.341296
529.689421	2586.242993
530.051117	2586.086717
530.412755	2584.629824
530.774337	2588.093097
531.135862	2586.094279
531.497331	2583.719896
531.858743	2579.134966
532.220098	2582.293249
532.581396	2580.165882
532.942638	2582.230235
533.303824	2582.525142
533.664953	2585.930442
534.026025	2585.874989
534.387040	2586.681573
534.747999	2582.469689
535.108902	2584.534042
535.469748	2582.830132
535.830537	2583.722416
536.191270	2586.754670
536.551947	2585.073445
536.912567	2585.690987
537.273131	2584.483630
537.633638	2585.209557
537.994089	2586.515215
538.354483	2583.215780
538.714821	2584.191243
539.075103	2585.716192
539.435328	2587.989753
539.795497	2588.456060
540.155609	2585.517067
540.515665	2585.234762
540.875665	2582.668815
541.235609	2585.552355
541.595496	2587.934300
541.955328	2585.446491
542.315102	2586.084197
542.674821	2588.156111
543.034483	2587.311718
543.394090	2583.490523
543.753640	2586.074114
544.113134	2584.208887
544.472571	2587.493199
544.831953	2585.015472
545.191278	2585.559917
545.550548	2585.355750
545.909761	2585.902715
546.268918	2587.435226
546.628019	2587.538570
546.987064	2587.919177
547.346053	2584.171079
547.704986	2585.138980
548.063863	2584.496233
548.422684	2587.495720
548.781449	2586.192582
549.140158	2585.481779
549.498811	2586.522777
549.857408	2583.959350
550.215949	2583.850966
550.574434	2580.491037
550.932864	2582.850297
551.291237	2582.631006
551.649555	2586.737026
552.007817	2585.141501
552.366022	2587.699887
552.724173	2584.972622
553.082267	2590.497727
553.440305	2588.501430
553.798288	2586.106882
554.156215	2586.792479
554.514086	2586.747108
554.871902	2590.099476
555.229661	2587.525967
555.587365	2589.187027
555.945014	2584.534042
556.302606	2587.440267
556.660143	2585.582602
557.017625	2585.529670
557.375050	2587.029413
557.732421	2584.473548
558.089735	2585.499423
558.446994	2586.416913
558.804197	2586.419433
559.161345	2588.239290
559.518437	2586.268199
559.875474	2586.800041
560.232455	2585.907756
560.589381	2586.661409
560.946251	2589.063519
561.303065	2588.526636
561.659825	2585.794330
562.016528	2584.186202
562.373177	2583.853486
562.729770	2587.251224
563.086307	2588.493868
563.442789	2587.059660
563.799216	2584.513877
564.155587	2585.587643
564.511904	2586.525298
564.868164	2586.179979
565.224370	2587.687284
565.580520	2584.811305
565.936615	2587.609146
566.292654	2584.869279
566.648638	2584.987746
567.004567	2584.188723
567.360441	2585.948086
567.716260	2583.432550
568.072023	2585.212077
568.427732	2580.173444
568.783385	2582.149576
569.138982	2580.397775
569.494525	2584.856676
569.850013	2580.876685
570.205445	2586.414392
570.560823	2584.433219
570.916145	2584.430698
571.271412	2583.515729
571.626625	2584.529001
571.981782	2582.726788
572.336884	2583.001531
572.691931	2584.284505
573.046923	2580.770821
573.401860	2583.858527
573.756743	2582.484813
574.111570	2582.809967
574.466342	2581.035481
574.821059	2583.659402
575.175722	2583.298959
575.530330	2582.580595
575.884882	2583.233424
576.239380	2581.587487
576.593823	2583.931624
576.948211	2581.559761
577.302544	2582.567992
577.656823	2583.311562
578.011047	2582.731829
578.365216	2580.672518
578.719330	2580.213773
579.073389	2580.511201
579.427394	2580.637230
579.781344	2578.711509
580.135239	2579.896180
580.489080	2582.192426
580.842866	2580.985070
581.196597	2582.315934
581.550273	2581.564802
581.903895	2580.397775
582.257463	2580.052456
582.610975	2580.123032
582.964434	2580.632189
583.317837	2581.748804
583.671186	2579.061869
584.024481	2579.192939
584.377721	2580.733012
584.730906	2578.383834
585.084037	2580.675039
585.437113	2580.082703
585.790135	2577.186560
586.143103	2577.673032
586.496016	2579.732343
586.848874	2575.049111
587.201679	2578.232600
587.554428	2573.509038
587.907124	2575.706982
588.259765	2572.382341
588.612352	2579.487847
588.964884	2576.866447
589.317362	2576.243864
589.669786	2572.594069
590.022155	2575.827969
590.374470	2576.810994
590.726731	2580.327199
591.078937	2576.526169
591.431090	2577.857034
591.783188	2573.874522
592.135232	2574.297979
592.487222	2575.139852
592.839157	2574.240006
593.191038	2575.797722
593.542866	2576.430387
593.894639	2575.860737
594.246358	2575.084399
594.598022	2574.744121
594.949633	2573.141034
595.301190	2575.850654
595.652692	2574.857547
596.004141	2572.342011
596.355535	2575.777558
596.706876	2572.042063
597.058162	2573.025088
597.409395	2574.217321
597.760573	2574.224882
598.111698	2573.677917
598.462768	2572.420149
598.813785	2575.316292
599.164748	2572.170612
599.515657	2572.480643
599.866511	2571.875705
600.217312	2573.388051
600.568060	2572.004254
600.918753	2577.468865
601.269392	2573.120870
601.619978	2573.340160
601.970510	2572.543657
602.320988	2570.567525
602.671412	2571.358986
603.021783	2571.663976
603.372100	2573.592217
603.722363	2571.333781
604.072572	2571.414439
604.422728	2575.502815
604.772830	2567.497462
605.122878	2568.414952
605.472872	2570.398647
605.822813	2565.365054
606.172701	2568.389747
606.522534	2573.148596
606.872314	2573.448545
607.222041	2571.669017
607.571714	2573.067937
607.921333	2571.333781
608.270899	2569.549212
608.620411	2572.619275
608.969870	2572.843606
609.319276	2572.969635
609.668627	2575.530541
610.017926	2576.773186
610.367171	2578.439287
610.716362	2577.231931
611.065500	2577.708320
611.414585	2572.717577
611.763616	2573.798905
612.112594	2572.420149
612.461518	2574.527352
612.810389	2577.466344
613.159207	2572.064748
613.507971	2571.215313
613.856682	2574.275294
614.205340	2574.141703
614.553945	2573.163719
614.902496	2571.545509
615.250994	2573.907290
615.599439	2574.287897
615.947830	2573.067937
616.296169	2570.902762
616.644454	2570.975859
616.992686	2572.039542
617.340864	2573.183884
617.688990	2571.066599
618.037063	2573.498956
618.385082	2571.096846
618.733048	2572.316806
619.080961	2573.332598
619.428821	2571.694223
619.776628	2569.808832
620.124382	2574.229923
620.472083	2572.039542
620.819731	2573.829152
621.167326	2569.748338
621.514868	2571.633729
621.862357	2569.612227
622.209793	2572.190777
622.557176	2571.726991
622.904506	2565.591906
623.251783	2565.544015
623.599007	2563.653583
623.946179	2563.749365
624.293297	2564.233315
624.640363	2568.493090
624.987376	2568.762792
625.334336	2568.225909
625.681243	2568.641804
626.028097	2565.831361
626.374899	2569.017370
626.721647	2565.654921
627.068343	2569.413101
627.414987	2566.917730
627.761577	2565.095353
628.108115	2565.682647
628.454600	2565.854046
628.801032	2564.213151
629.147412	2567.442010
629.493739	2564.840774
629.840014	2565.793552
630.186236	2567.426886
630.532405	2564.150136
630.878521	2563.046124
631.224585	2566.101063
631.570597	2565.294478
631.916556	2564.066957
632.262462	2566.385888
632.608316	2565.400342
632.954117	2564.555949
633.299866	2565.541495
633.645562	2563.368757
633.991206	2566.506876
634.336797	2561.110321
634.682336	2566.373285
635.027823	2561.362378
635.373257	2563.376319
635.718639	2562.322718
636.063968	2565.115517
636.409245	2563.230126
636.754470	2561.969837
637.099642	2563.235167
637.444762	2562.688202
637.789829	2560.356668
638.134845	2560.018911
638.479808	2558.642676
638.824719	2564.460167
639.169577	2558.874569
639.514383	2560.470094
639.859137	2560.510423
640.203839	2559.096380
640.548489	2560.795248
640.893086	2559.265258
641.237632	2555.723848
641.582125	2557.745350
641.926566	2554.750905
642.270955	2558.350289
642.615292	2560.676781
642.959576	2559.361040
643.303809	2560.515464
643.647990	2563.640980
643.992118	2558.279713
644.336195	2558.768705
