Dividing Wavelength (nm)	Counts (n)	Blue Motor Position (mm): 0.000000	Red Motor Position (mm): 29.300000	
326.493990	2127.369444
326.888308	2127.369444
327.282561	2127.369444
327.676750	2094.722931
328.070874	2095.809300
328.464933	2100.064034
328.858929	2102.345156
329.252859	2113.445777
329.646726	2124.465739
330.040528	2139.528707
330.434265	2154.110244
330.827938	2170.544406
331.221547	2189.521829
331.615091	2207.569160
332.008571	2224.724207
332.401986	2248.929307
332.795338	2267.768099
333.188625	2286.412806
333.581847	2304.427370
333.975006	2324.614670
334.368100	2342.641836
334.761129	2360.835361
335.154095	2373.692823
335.546996	2393.975906
335.939833	2409.598442
336.332606	2425.626790
336.725315	2440.470468
337.117960	2447.717127
337.510540	2455.288940
337.903056	2466.845785
338.295508	2475.113277
338.687896	2484.003352
339.080220	2492.182624
339.472480	2497.864004
339.864676	2503.295848
340.256807	2506.680983
340.648875	2511.636437
341.040879	2511.268432
341.432818	2514.207425
341.824694	2513.615090
342.216506	2516.291942
342.608253	2515.039216
342.999937	2515.964267
343.391557	2517.116171
343.783113	2513.718433
344.174605	2513.831859
344.566033	2510.902949
344.957397	2511.875892
345.348697	2508.568895
345.739934	2508.541168
346.131106	2504.858605
346.522215	2504.041938
346.913260	2503.106804
347.304241	2498.899962
347.695159	2499.893069
348.086012	2499.257883
348.476802	2498.940291
348.867528	2494.171359
349.258191	2492.497696
349.648789	2494.113386
350.039324	2488.338744
350.429796	2489.667088
350.820203	2490.216574
351.210548	2489.755308
351.600828	2487.975781
351.991045	2485.296408
352.381198	2487.869917
352.771288	2484.215080
353.161314	2484.923363
353.551276	2485.608959
353.941175	2482.979998
354.331010	2486.385297
354.720782	2483.302632
355.110490	2486.297077
355.500135	2482.138125
355.889717	2487.466625
356.279235	2486.725575
356.668689	2485.820688
357.058080	2487.391007
357.447408	2484.643578
357.836672	2483.660553
358.225873	2486.718013
358.615010	2484.809937
359.004084	2486.571820
359.393095	2491.146667
359.782043	2490.430823
360.170927	2492.732110
360.559748	2487.774135
360.948505	2495.149343
361.337199	2493.324445
361.725830	2492.981647
362.114398	2493.921822
362.502903	2494.927532
362.891344	2494.166318
363.279722	2497.062461
363.668037	2496.409632
364.056289	2495.227481
364.444478	2496.228150
364.832603	2497.614467
365.220665	2497.788387
365.608665	2496.248315
365.996601	2501.854078
366.384474	2500.026659
366.772284	2503.747031
367.160031	2502.378358
367.547715	2505.834069
367.935336	2506.852382
368.322893	2511.633916
368.710388	2512.692558
369.097820	2519.160359
369.485189	2523.803262
369.872495	2530.414735
370.259738	2538.195756
370.646918	2543.662887
371.034035	2551.695966
371.421090	2560.815413
371.808081	2571.099367
372.195010	2578.121694
372.581875	2593.771956
372.968678	2606.037084
373.355418	2618.975205
373.742096	2634.290230
374.128710	2647.734988
374.515262	2666.054541
374.901751	2680.668846
375.288177	2692.755012
375.674540	2717.030688
376.060841	2732.834706
376.447079	2753.528642
376.833254	2772.785850
377.219367	2785.608025
377.605417	2825.720486
377.991404	2833.380519
378.377329	2854.848273
378.763191	2874.249153
379.148991	2914.157448
379.534727	2935.027825
379.920402	2964.248873
380.306013	2975.825883
380.691563	3027.717000
381.077049	3047.158210
381.462474	3066.889286
381.847835	3105.764144
382.233134	3126.299284
382.618371	3125.890951
383.003545	3199.610264
383.388657	3205.271480
383.773706	3238.606109
384.158693	3252.174375
384.543618	3278.060700
384.928480	3314.087306
385.313280	3360.816282
385.698017	3356.387628
386.082692	3413.312337
386.467305	3417.110847
386.851856	3445.452213
387.236344	3473.251656
387.620770	3502.535719
388.005133	3527.406252
388.389435	3557.340623
388.773674	3569.923343
389.157851	3612.720219
389.541965	3623.064666
389.926018	3587.763987
390.310008	3660.588495
390.693936	3678.267822
391.077802	3719.696024
391.461606	3706.765464
391.845348	3773.210393
392.229027	3769.941204
392.612645	3786.400572
392.996200	3863.948641
393.379694	3900.799476
393.763125	3964.494455
394.146494	3931.643776
394.529801	3993.929752
394.913047	4046.261970
395.296230	4010.744521
395.679351	4064.631935
396.062410	4090.903908
396.445408	4068.034713
396.828343	4104.010908
397.211217	4126.131491
397.594028	4047.544944
397.976778	4112.943833
398.359466	4140.183707
398.742092	4170.337369
399.124656	4092.718723
399.507158	4170.123120
399.889598	4193.362839
400.271977	4258.073611
400.654294	4229.210484
401.036549	4236.817585
401.418742	4207.863718
401.800874	4308.643945
402.182944	4329.781503
402.564952	4394.325917
402.946898	4381.549112
403.328783	4378.736148
403.710606	4294.437974
404.092367	4482.563753
404.474067	4446.557312
404.855705	4458.807316
405.237282	4382.842168
405.618797	4494.506247
406.000250	4532.045199
406.381642	4607.937249
406.762972	4574.829471
407.144240	4581.410698
407.525447	4580.775512
407.906593	4642.448988
408.287677	4685.815514
408.668700	4613.240543
409.049661	4666.253317
409.430560	4706.426272
409.811399	4631.237462
410.192176	4790.573212
410.572891	4733.209922
410.953545	4832.707176
411.334138	4715.822983
411.714669	4783.858395
412.095139	4678.057179
412.475547	4816.273014
412.855894	4796.574706
413.236180	4810.735307
413.616405	4762.753604
413.996568	4849.925237
414.376670	4792.826608
414.756711	4747.252056
415.136691	4778.149288
415.516609	4857.628120
415.896466	4891.562647
416.276262	4929.091517
416.655997	4907.434720
417.035670	5088.923820
417.415283	5182.452347
417.794834	5121.280466
418.174324	5081.906534
418.553753	4986.815249
418.933121	5175.757695
419.312428	5235.112240
419.691674	5178.474877
420.070859	5303.440040
420.449983	5217.475764
420.829045	5331.398279
421.208047	5239.787911
421.586988	5310.593437
421.965867	5319.377648
422.344686	5451.503769
422.723444	5307.389784
423.102141	5124.292555
423.480777	5423.611065
423.859352	5192.869892
424.237866	5452.847237
424.616319	5441.547490
424.994712	5556.057300
425.373044	5432.186068
425.751314	5572.378036
426.129524	5379.052306
426.507673	5576.453808
426.885762	5655.736035
427.263789	5582.914047
427.641756	5468.840297
428.019662	5591.017702
428.397508	5594.435604
428.775292	5545.957348
429.153016	5641.303212
429.530679	5565.048198
429.908282	5653.046579
430.285824	5525.787692
430.663305	5794.350122
431.040726	5530.385224
431.418086	5532.512591
431.795385	5639.553931
432.172624	5650.805787
432.549802	5643.105424
432.926920	5658.710316
433.303977	5665.377242
433.680974	5700.640113
434.057910	5723.037959
434.434786	5726.231530
434.811601	5698.762283
435.188355	5930.264671
435.565050	5802.698273
435.941683	5788.600686
436.318257	6005.138408
436.694770	5982.123020
437.071222	6018.555439
437.447614	5946.126661
437.823946	5863.978539
438.200218	6020.700450
438.576429	5882.983689
438.952580	5980.799717
439.328670	6027.727818
439.704700	5931.638385
440.080670	5919.733700
440.456580	6193.508683
440.832429	6075.961578
441.208218	5916.913175
441.583947	6072.909160
441.959616	6077.408390
442.335224	6006.139077
442.710773	6140.687473
443.086261	6167.622358
443.461689	5964.476461
443.837057	6113.384584
444.212365	6268.503408
444.587612	6155.412684
444.962800	6315.340769
445.337927	6293.878056
445.712995	5902.182923
446.088002	6477.968392
446.462949	6309.359440
446.837837	6237.633903
447.212664	6412.088073
447.587431	6557.139713
447.962139	7099.318330
448.336786	8024.793517
448.711374	7765.552181
449.085901	6840.896181
449.460369	6759.211844
449.834776	6692.494694
450.209124	7079.650268
450.583412	7231.900676
450.957640	7382.774849
451.331808	7148.832543
451.705917	6695.355549
452.079965	6620.859898
452.453954	6833.110119
452.827883	6709.163269
453.201752	6804.239431
453.575562	6602.749552
453.949311	6804.400748
454.323001	6687.922367
454.696632	6764.956239
455.070202	6903.560244
455.443713	7060.995478
455.817164	7152.895713
456.190556	7232.750110
456.563888	7306.890360
456.937160	7345.608942
457.310373	7010.140318
457.683526	7028.159923
458.056619	6916.304281
458.429653	6903.875316
458.802628	6832.371590
459.175542	6941.200019
459.548398	7293.256559
459.921194	7445.678367
460.293930	7436.705113
460.666607	7959.946635
461.039224	8256.376563
461.411782	8379.136221
461.784280	8388.434630
462.156719	8280.296838
462.529099	8154.734299
462.901419	7737.558654
463.273680	7623.706715
463.645882	7635.450083
464.018024	7492.276272
464.390106	7649.303173
464.762130	8021.355451
465.134094	8452.890823
465.505999	9417.608873
465.877845	10579.425955
466.249631	11195.308762
466.621358	10814.346245
466.993026	10204.137257
467.364634	9944.530437
467.736184	9578.703985
468.107674	9235.635822
468.479105	9242.920289
468.850477	9009.466975
469.221790	8768.925798
469.593043	8442.841283
469.964238	8283.992004
470.335373	8277.539327
470.706449	8314.087693
471.077467	8267.177236
471.448425	9438.960680
471.819324	10387.211800
472.190164	10388.799764
472.560945	9222.410354
472.931667	8472.712640
473.302330	8325.170669
473.672934	7967.604148
474.043479	8257.866224
474.413965	8167.259046
474.784393	8022.310749
475.154761	8130.569528
475.525070	8169.958584
475.895321	7984.255079
476.265513	8099.581555
476.635645	8202.055610
477.005719	8148.742888
477.375734	8204.084675
477.745691	8356.839198
478.115588	8417.030575
478.485427	8561.371412
478.855207	8934.852857
479.224928	9501.140792
479.594591	9941.745200
479.964194	9729.628569
480.333739	9639.071802
480.703226	9489.223504
481.072653	9494.977981
481.442022	9569.135875
481.811333	9640.780753
482.180584	9422.922249
482.549777	9125.857135
482.918912	8921.738295
483.287988	8857.017441
483.657005	8796.049727
484.025964	8491.264086
484.394864	8500.917895
484.763706	8395.356134
485.132489	8163.826020
485.501213	8056.358702
485.869879	8030.255608
486.238487	7835.397367
486.607036	7836.161102
486.975527	7600.719053
487.343959	7645.464335
487.712333	7585.177176
488.080648	7470.846327
488.448905	7391.385140
488.817104	7280.749457
489.185244	7347.794282
489.553326	7340.666091
489.921350	7536.948457
490.289315	7980.164182
490.657222	8078.464162
491.025070	7919.599760
491.392861	7765.559743
491.760593	7477.583829
492.128267	7213.356792
492.495883	6968.313865
492.863440	6718.186934
493.230939	6475.704914
493.598380	6358.447675
493.965763	6207.112237
494.333088	6098.951761
494.700354	5969.542821
495.067563	5928.739722
495.434713	5774.200630
495.801805	5757.511890
496.168839	5647.556763
496.535815	5542.083222
496.902733	5477.871524
497.269593	5363.260892
497.636395	5335.012786
498.003139	5242.994084
498.369825	5143.390967
498.736453	5113.983396
499.103023	5028.734964
499.469535	4958.925065
499.835989	4891.885281
500.202385	4808.819668
500.568723	4710.149164
500.935003	4707.114389
501.301226	4577.932302
501.667390	4594.172379
502.033497	4551.327612
502.399546	4458.338488
502.765537	4375.414028
503.131470	4331.193027
503.497345	4300.809992
503.863163	4174.317360
504.228923	4168.426772
504.594625	4136.168428
504.960269	4037.402142
505.325856	4020.955378
505.691385	3933.375412
506.056856	3912.172319
506.422270	3863.686501
506.787625	3806.585352
507.152924	3774.095115
507.518164	3731.220102
507.883347	3669.365144
508.248472	3620.864203
508.613540	3608.220989
508.978550	3547.926268
509.343503	3510.455372
509.708398	3484.097699
510.073236	3456.527628
510.438016	3420.521187
510.802738	3380.323026
511.167403	3351.452338
511.532010	3308.582366
511.896561	3303.614309
512.261053	3272.200359
512.625488	3230.136971
512.989866	3196.799821
513.354186	3172.083043
513.718449	3131.148874
514.082655	3124.368522
514.446803	3090.570106
514.810894	3077.936975
515.174927	3047.170813
515.538904	3025.801362
515.902822	3008.374093
516.266684	2982.759990
516.630488	2961.693008
516.994235	2948.870833
517.357925	2929.190169
517.721558	2919.680032
518.085133	2897.995509
518.448651	2887.235166
518.812112	2867.607433
519.175516	2851.914321
519.538863	2842.152127
519.902152	2826.829540
520.265385	2817.319403
520.628560	2804.338432
520.991678	2791.400311
521.354739	2783.992335
521.717743	2771.439862
522.080690	2761.307143
522.443580	2755.224991
522.806413	2747.577560
523.169189	2740.550192
523.531908	2732.915364
523.894569	2721.416492
524.257174	2717.217211
524.619722	2712.412992
524.982213	2708.417877
525.344647	2704.269007
525.707025	2697.728110
526.069345	2693.286854
526.431608	2685.515915
526.793815	2685.702438
527.155964	2679.937878
527.518057	2676.756910
527.880093	2671.579645
528.242072	2669.202741
528.603995	2665.963800
528.965860	2661.310815
529.327669	2660.186638
529.689421	2655.326965
530.051117	2655.344609
530.412755	2653.917963
530.774337	2650.585760
531.135862	2649.879999
531.497331	2644.556540
531.858743	2640.775675
532.220098	2642.761889
532.581396	2634.607823
532.942638	2637.211579
533.303824	2635.658904
533.664953	2636.669655
534.026025	2633.516413
534.387040	2634.012967
534.747999	2633.133286
535.108902	2630.242184
535.469748	2629.029786
535.830537	2631.288223
536.191270	2626.796555
536.551947	2627.701442
536.912567	2627.555249
537.273131	2625.148098
537.633638	2623.023252
537.994089	2623.489558
538.354483	2619.875051
538.714821	2622.995525
539.075103	2621.747840
539.435328	2619.186933
539.795497	2618.466048
540.155609	2620.769856
540.515665	2620.253137
540.875665	2619.252468
541.235609	2614.690224
541.595496	2619.751543
541.955328	2616.424381
542.315102	2616.799947
542.674821	2613.583691
543.034483	2614.672580
543.394090	2615.015379
543.753640	2614.312138
544.113134	2617.001593
544.472571	2614.324741
544.831953	2614.042436
545.191278	2613.001438
545.550548	2610.374997
545.909761	2614.667539
546.268918	2612.456993
546.628019	2615.630399
546.987064	2610.407764
547.346053	2611.068155
547.704986	2608.103957
548.063863	2614.780965
548.422684	2612.661160
548.781449	2608.968515
549.140158	2612.502363
549.498811	2613.734926
549.857408	2609.518000
550.215949	2610.634616
550.574434	2604.857454
550.932864	2609.026488
551.291237	2604.849892
551.649555	2610.453134
552.007817	2609.180243
552.366022	2611.771396
552.724173	2609.611262
553.082267	2610.932044
553.440305	2612.963629
553.798288	2609.215531
554.156215	2609.820470
554.514086	2609.283587
554.871902	2606.765530
555.229661	2610.261571
555.587365	2607.400716
555.945014	2607.609924
556.302606	2611.857096
556.660143	2610.190994
557.017625	2609.109667
557.375050	2605.545571
557.732421	2608.126642
558.089735	2605.674121
558.446994	2606.715119
558.804197	2608.729060
559.161345	2608.910541
559.518437	2608.076230
559.875474	2609.167640
560.232455	2608.444235
560.589381	2606.483226
560.946251	2608.850047
561.303065	2607.352825
561.659825	2609.949019
562.016528	2608.618154
562.373177	2605.812752
562.729770	2607.869543
563.086307	2608.829883
563.442789	2604.363421
563.799216	2607.055397
564.155587	2605.694285
564.511904	2606.369800
564.868164	2606.274018
565.224370	2608.045983
565.580520	2606.909203
565.936615	2607.090685
566.292654	2604.411312
566.648638	2603.566918
567.004567	2603.317381
567.360441	2608.766868
567.716260	2602.379727
568.072023	2606.208483
568.427732	2600.887545
568.783385	2602.727566
569.138982	2602.115066
569.494525	2602.815786
569.850013	2600.862339
570.205445	2606.833586
570.560823	2602.271342
570.916145	2602.530961
571.271412	2601.812597
571.626625	2605.371651
571.981782	2603.992896
572.336884	2602.319233
572.691931	2603.221599
573.046923	2602.906527
573.401860	2602.031887
573.756743	2600.267483
574.111570	2601.638677
574.466342	2602.193204
574.821059	2602.094901
575.175722	2597.701536
575.530330	2599.433172
575.884882	2600.597679
576.239380	2600.217072
576.593823	2600.786722
576.948211	2601.603389
577.302544	2599.186156
577.656823	2600.822010
578.011047	2600.106166
578.365216	2600.111207
578.719330	2600.045672
579.073389	2598.442585
579.427394	2597.792277
579.781344	2599.657503
580.135239	2601.192535
580.489080	2600.401074
580.842866	2596.080805
581.196597	2599.748244
581.550273	2596.582400
581.903895	2597.300764
582.257463	2600.751434
582.610975	2596.589961
582.964434	2598.543408
583.317837	2597.361258
583.671186	2598.452668
584.024481	2595.886720
584.377721	2597.497369
584.730906	2597.245311
585.084037	2594.331524
585.437113	2597.404108
585.790135	2597.162132
586.143103	2597.053747
586.496016	2593.401432
586.848874	2593.144333
587.201679	2593.078798
587.554428	2588.748447
587.907124	2594.452512
588.259765	2587.364650
588.612352	2595.385126
588.964884	2595.460743
589.317362	2593.656010
589.669786	2593.401432
590.022155	2596.789087
590.374470	2595.370002
590.726731	2594.865887
591.078937	2593.827409
591.431090	2596.141299
591.783188	2592.105855
592.135232	2590.648962
592.487222	2589.739033
592.839157	2595.647266
593.191038	2592.980495
593.542866	2594.250866
593.894639	2591.410176
594.246358	2592.781370
594.598022	2591.168200
594.949633	2589.129054
595.301190	2591.112748
595.652692	2591.246338
596.004141	2591.972264
596.355535	2590.051585
596.706876	2589.444126
597.058162	2591.122830
597.409395	2589.648292
597.760573	2592.224322
598.111698	2590.674167
598.462768	2592.582244
598.813785	2590.308684
599.164748	2592.811617
599.515657	2589.471852
599.866511	2589.234918
600.217312	2591.536205
600.568060	2589.371029
600.918753	2591.130392
601.269392	2587.533528
601.619978	2587.939341
601.970510	2590.807758
602.320988	2588.382963
602.671412	2590.409507
603.021783	2588.612335
603.372100	2589.305494
603.722363	2585.562437
604.072572	2590.122161
604.422728	2591.357244
604.772830	2586.467324
605.122878	2585.123857
605.472872	2582.489854
605.822813	2585.149063
606.172701	2586.227870
606.522534	2587.044537
606.872314	2587.644434
607.222041	2588.158632
607.571714	2588.829105
607.921333	2589.600402
608.270899	2586.691656
608.620411	2588.955134
608.969870	2589.227356
609.319276	2590.452357
609.668627	2594.656679
610.017926	2595.692636
610.367171	2595.382605
610.716362	2596.126175
611.065500	2594.888572
611.414585	2593.595516
611.763616	2592.410845
612.112594	2589.388673
612.461518	2591.271544
612.810389	2589.386152
613.159207	2589.267685
613.507971	2590.696852
613.856682	2592.075608
614.205340	2589.628128
614.553945	2589.842377
614.902496	2590.311204
615.250994	2589.867583
615.599439	2587.064701
615.947830	2593.945876
616.296169	2587.664598
616.644454	2589.615525
616.992686	2589.015628
617.340864	2592.509147
617.688990	2589.335741
618.037063	2591.364805
618.385082	2588.947572
618.733048	2590.384301
619.080961	2588.599732
619.428821	2592.544435
619.776628	2591.465628
620.124382	2589.645772
620.472083	2591.637028
620.819731	2591.783221
621.167326	2590.512850
621.514868	2590.611153
621.862357	2586.810123
622.209793	2589.819692
622.557176	2586.762232
622.904506	2585.958168
623.251783	2583.011613
623.599007	2584.937334
623.946179	2580.123032
624.293297	2582.951120
624.640363	2583.470358
624.987376	2583.878692
625.334336	2584.844073
625.681243	2583.682087
626.028097	2584.360122
626.374899	2584.680235
626.721647	2583.079669
627.068343	2585.968250
627.414987	2582.308372
627.761577	2583.175451
628.108115	2583.329206
628.454600	2580.758218
628.801032	2581.831983
629.147412	2583.608990
629.493739	2581.264854
629.840014	2582.207549
630.186236	2581.632858
630.532405	2583.621593
630.878521	2581.577405
631.224585	2582.184864
631.570597	2580.372569
631.916556	2580.244020
632.262462	2579.281160
632.608316	2582.830132
632.954117	2579.752507
633.299866	2579.432394
633.645562	2580.922055
633.991206	2579.918866
634.336797	2577.262177
634.682336	2578.414081
635.027823	2579.394586
635.373257	2576.180850
635.718639	2577.862075
636.063968	2578.633371
636.409245	2574.862588
636.754470	2576.894173
637.099642	2576.314441
637.444762	2574.973494
637.789829	2575.545665
638.134845	2574.938206
638.479808	2576.332085
638.824719	2575.528021
639.169577	2573.718246
639.514383	2574.560119
639.859137	2571.658935
640.203839	2573.698082
640.548489	2574.625654
640.893086	2571.220355
641.237632	2567.568039
641.582125	2570.635581
641.926566	2567.557956
642.270955	2575.744790
642.615292	2573.251940
642.959576	2572.306723
643.303809	2573.718246
643.647990	2574.184553
643.992118	2572.800756
644.336195	2572.722618
