Dividing Wavelength (nm)	Counts (n)	Blue Motor Position (mm): 0.000000	Red Motor Position (mm): 26.800000	
326.493990	2128.604526
326.888308	2128.604526
327.282561	2128.604526
327.676750	2095.005236
328.070874	2093.157653
328.464933	2096.938518
328.858929	2102.876998
329.252859	2113.450818
329.646726	2126.593106
330.040528	2141.338481
330.434265	2156.174597
330.827938	2170.388130
331.221547	2188.042251
331.615091	2207.964891
332.008571	2228.273179
332.401986	2250.267733
332.795338	2266.117121
333.188625	2286.490944
333.581847	2301.886628
333.975006	2323.329176
334.368100	2343.052690
334.761129	2361.369723
335.154095	2375.880684
335.546996	2393.786863
335.939833	2412.403844
336.332606	2426.498910
336.725315	2438.864860
337.117960	2444.697475
337.510540	2457.207099
337.903056	2467.123048
338.295508	2474.372228
338.687896	2483.945379
339.080220	2491.333190
339.472480	2497.954745
339.864676	2501.700323
340.256807	2508.354646
340.648875	2509.221724
341.040879	2513.834380
341.432818	2513.562157
341.824694	2515.583660
342.216506	2518.835204
342.608253	2517.385873
342.999937	2515.213135
343.391557	2516.667508
343.783113	2515.003928
344.174605	2512.768176
344.566033	2512.256499
344.957397	2509.647702
345.348697	2510.560150
345.739934	2508.281549
346.131106	2503.484891
346.522215	2503.721825
346.913260	2503.121928
347.304241	2501.647390
347.695159	2502.093533
348.086012	2497.206134
348.476802	2496.737307
348.867528	2495.408963
349.258191	2495.285454
349.648789	2490.082983
350.039324	2489.518374
350.429796	2490.304794
350.820203	2485.677015
351.210548	2488.280771
351.600828	2484.444453
351.991045	2484.094093
352.381198	2486.521408
352.771288	2484.325986
353.161314	2483.680718
353.551276	2484.751963
353.941175	2486.241624
354.331010	2485.518219
354.720782	2480.840028
355.110490	2483.955461
355.500135	2485.311531
355.889717	2485.190544
356.279235	2485.450163
356.668689	2485.971922
357.058080	2484.351192
357.447408	2485.349340
357.836672	2482.470841
358.225873	2484.935965
358.615010	2483.859679
359.004084	2487.940493
359.393095	2488.545432
359.782043	2492.535505
360.170927	2489.893940
360.559748	2491.645741
360.948505	2488.137098
361.337199	2493.019456
361.725830	2490.667757
362.114398	2492.774960
362.502903	2493.495845
362.891344	2497.007008
363.279722	2493.027017
363.668037	2496.195383
364.056289	2496.187821
364.444478	2496.752430
364.832603	2497.339724
365.220665	2498.199241
365.608665	2497.647235
365.996601	2502.413646
366.384474	2500.117400
366.772284	2500.866012
367.160031	2501.332318
367.547715	2503.714263
367.935336	2506.325581
368.322893	2509.945130
368.710388	2514.056191
369.097820	2519.326717
369.485189	2518.507529
369.872495	2530.376926
370.259738	2536.678368
370.646918	2544.497198
371.034035	2549.707231
371.421090	2558.196534
371.808081	2567.308419
372.195010	2580.382652
372.581875	2593.328335
372.968678	2606.357197
373.355418	2617.619135
373.742096	2632.551032
374.128710	2649.774134
374.515262	2663.702843
374.901751	2677.853361
375.288177	2691.504806
375.674540	2715.288970
376.060841	2733.190107
376.447079	2753.664753
376.833254	2776.488577
377.219367	2785.613066
377.605417	2823.353664
377.991404	2834.265242
378.377329	2855.624611
378.763191	2874.355018
379.148991	2908.541603
379.534727	2933.959100
379.920402	2963.732155
380.306013	2974.190028
380.691563	3025.125847
381.077049	3045.013199
381.462474	3062.868966
381.847835	3103.901437
382.233134	3125.149901
382.618371	3123.491361
383.003545	3193.039120
383.388657	3200.782332
383.773706	3233.910275
384.158693	3249.079107
384.543618	3275.903086
384.928480	3312.338026
385.313280	3357.584902
385.698017	3356.803523
386.082692	3412.220927
386.467305	3413.214035
386.851856	3446.203345
387.236344	3465.339565
387.620770	3499.064885
388.005133	3524.971374
388.389435	3551.571022
388.773674	3565.449319
389.157851	3603.338631
389.541965	3619.359418
389.926018	3590.632403
390.310008	3656.129594
390.693936	3677.005012
391.077802	3718.886919
391.461606	3705.711863
391.845348	3771.146040
392.229027	3770.110083
392.612645	3781.613996
392.996200	3860.734906
393.379694	3897.948703
393.763125	3960.582519
394.146494	3930.275102
394.529801	3992.908918
394.913047	4045.319274
395.296230	4008.866691
395.679351	4063.391811
396.062410	4090.498095
396.445408	4065.821647
396.828343	4096.166872
397.211217	4124.946820
397.594028	4044.127041
397.976778	4108.999130
398.359466	4136.919560
398.742092	4168.252852
399.124656	4089.610852
399.507158	4170.523892
399.889598	4191.585833
400.271977	4255.169906
400.654294	4227.627562
401.036549	4236.109303
401.418742	4201.496741
401.800874	4309.571518
402.182944	4325.428467
402.564952	4393.126122
402.946898	4378.292527
403.328783	4373.957135
403.710606	4288.716264
404.092367	4478.911437
404.474067	4444.871046
404.855705	4452.528558
405.237282	4381.738156
405.618797	4492.618334
406.000250	4522.129249
406.381642	4608.292651
406.762972	4567.018203
407.144240	4580.505811
407.525447	4575.517589
407.906593	4639.262979
408.287677	4677.996685
408.668700	4608.549749
409.049661	4657.932892
409.430560	4699.993760
409.811399	4630.289725
410.192176	4791.031957
410.572891	4725.587698
410.953545	4835.384028
411.334138	4710.892734
411.714669	4781.879742
412.095139	4672.819420
412.475547	4814.687571
412.855894	4794.984222
413.236180	4803.655006
413.616405	4753.303962
413.996568	4844.863918
414.376670	4789.688489
414.756711	4743.655193
415.136691	4776.873876
415.516609	4852.397923
415.896466	4891.454262
416.276262	4925.776958
416.655997	4900.798041
417.035670	5085.115228
417.415283	5177.675854
417.794834	5117.963387
418.174324	5072.174586
418.553753	4980.637315
418.933121	5163.411909
419.312428	5232.400100
419.691674	5174.008415
420.070859	5298.497188
420.449983	5208.315987
420.829045	5321.353780
421.208047	5234.101489
421.586988	5301.078259
421.965867	5315.349766
422.344686	5446.253407
422.723444	5300.800996
423.102141	5120.743583
423.480777	5423.142238
423.859352	5188.121125
424.237866	5448.733655
424.616319	5436.357623
424.994712	5545.107914
425.373044	5424.659625
425.751314	5567.069701
426.129524	5369.516964
426.507673	5564.077776
426.885762	5647.917205
427.263789	5577.378860
427.641756	5457.021312
428.019662	5577.741823
428.397508	5590.707671
428.775292	5533.878744
429.153016	5635.780627
429.530679	5560.382610
429.908282	5646.525847
430.285824	5514.876114
430.663305	5791.690913
431.040726	5523.037742
431.418086	5525.051683
431.795385	5628.914576
432.172624	5644.156505
432.549802	5634.449763
432.926920	5648.706146
433.303977	5656.126724
433.680974	5695.155337
434.057910	5713.860539
434.434786	5715.783739
434.811601	5688.589235
435.188355	5920.631026
435.565050	5793.893897
435.941683	5777.104334
436.318257	5991.766748
436.694770	5971.251772
437.071222	6008.692422
437.447614	5936.795485
437.823946	5851.390778
438.200218	6003.633624
438.576429	5867.068766
438.952580	5965.550227
439.328670	6008.213512
439.704700	5918.523823
440.080670	5904.650568
440.456580	6172.398852
440.832429	6052.641201
441.208218	5902.576133
441.583947	6052.885697
441.959616	6055.716305
442.335224	5975.756043
442.710773	6110.649758
443.086261	6137.481299
443.461689	5930.244506
443.837057	6075.570889
444.212365	6223.453137
444.587612	6118.685357
444.962800	6263.507625
445.337927	6242.251600
445.712995	5853.629050
446.088002	6412.133443
446.462949	6237.785138
446.837837	6165.147152
447.212664	6326.267470
447.587431	6452.750020
447.962139	6971.623382
448.336786	7867.464147
448.711374	7601.071934
449.085901	6694.433018
449.460369	6610.346571
449.834776	6532.581732
450.209124	6890.894345
450.583412	7014.132912
450.957640	7144.668550
451.331808	6902.854482
451.705917	6468.370035
452.079965	6381.765532
452.453954	6562.311937
452.827883	6433.674294
453.201752	6504.880592
453.575562	6293.759589
453.949311	6461.173788
454.323001	6344.783628
454.696632	6386.335338
455.070202	6490.379713
455.443713	6598.653615
455.817164	6665.045611
456.190556	6704.106992
456.563888	6738.873309
456.937160	6754.634477
457.310373	6426.541061
457.683526	6421.462098
458.056619	6288.574762
458.429653	6244.817547
458.802628	6163.526421
459.175542	6220.143620
459.548398	6473.080993
459.921194	6563.186577
460.293930	6518.121182
460.666607	6872.133691
461.039224	7061.146713
461.411782	7111.631348
461.784280	7082.246462
462.156719	6954.100332
462.529099	6816.411297
462.901419	6457.405525
463.273680	6328.117573
463.645882	6295.828983
464.018024	6136.778058
464.390106	6199.260640
464.762130	6411.677219
465.134094	6651.527757
465.505999	7240.866368
465.877845	7960.788508
466.249631	8318.967530
466.621358	7996.414342
466.993026	7508.566761
467.364634	7270.193281
467.736184	6959.428831
468.107674	6683.665113
468.479105	6604.148473
468.850477	6416.673002
469.221790	6203.336413
469.593043	5943.122133
469.964238	5787.342918
470.335373	5722.241457
470.706449	5686.058575
471.077467	5605.979847
471.448425	6161.179764
471.819324	6590.675989
472.190164	6528.657194
472.560945	5873.846597
472.931667	5425.055356
473.302330	5290.385972
473.672934	5070.964709
474.043479	5149.377337
474.413965	5056.007606
474.784393	4930.364408
475.154761	4924.713275
475.525070	4889.916710
475.895321	4764.248307
476.265513	4754.995269
476.635645	4752.222634
477.005719	4672.635418
477.375734	4651.092047
477.745691	4655.092202
478.115588	4625.669508
478.485427	4622.644816
478.855207	4712.581521
479.224928	4863.556517
479.594591	4962.547134
479.964194	4822.239220
480.333739	4718.918251
480.703226	4600.075570
481.072653	4554.783323
481.442022	4540.438720
481.811333	4515.827807
482.180584	4398.736926
482.549777	4255.837859
482.918912	4163.078108
483.287988	4101.749950
483.657005	4043.040673
484.025964	3924.387035
484.394864	3881.519583
484.763706	3816.274449
485.132489	3727.872775
485.501213	3666.814320
485.869879	3629.275368
486.238487	3552.181002
486.607036	3524.618493
486.975527	3453.820529
487.343959	3430.797579
487.712333	3392.855335
488.080648	3346.496884
488.448905	3310.019095
488.817104	3267.320522
489.185244	3253.830394
489.553326	3226.537587
489.921350	3242.283631
490.289315	3286.219808
490.657222	3277.221348
491.025070	3231.576220
491.392861	3188.683563
491.760593	3127.330200
492.128267	3073.387333
492.495883	3020.198119
492.863440	2982.422233
493.230939	2940.772220
493.598380	2917.691297
493.965763	2886.259703
494.333088	2867.728421
494.700354	2844.803774
495.067563	2832.722649
495.434713	2808.141982
495.801805	2803.302475
496.168839	2790.366874
496.535815	2771.094543
496.902733	2762.189345
497.269593	2748.038826
497.636395	2740.865264
498.003139	2728.849674
498.369825	2719.752912
498.736453	2712.770913
499.103023	2703.298585
499.469535	2697.203830
499.835989	2691.948427
500.202385	2683.449042
500.568723	2675.481498
500.935003	2675.698268
501.301226	2666.001609
501.667390	2668.459171
502.033497	2666.883811
502.399546	2658.601195
502.765537	2654.291008
503.131470	2651.243631
503.497345	2650.432005
503.863163	2641.955305
504.228923	2643.404637
504.594625	2644.700213
504.960269	2636.949439
505.325856	2637.952629
505.691385	2634.963224
506.056856	2632.165384
506.422270	2630.267390
506.787625	2627.893006
507.152924	2626.811679
507.518164	2625.246400
507.883347	2620.782459
508.248472	2620.379166
508.613540	2619.938065
508.978550	2619.900257
509.343503	2618.410596
509.708398	2620.709362
510.073236	2620.278343
510.438016	2618.113168
510.802738	2614.007148
511.167403	2613.397168
511.532010	2616.109309
511.896561	2617.190637
512.261053	2617.019237
512.625488	2610.521190
512.989866	2608.156889
513.354186	2609.828031
513.718449	2605.084306
514.082655	2611.393310
514.446803	2608.860130
514.810894	2613.256016
515.174927	2611.907507
515.538904	2608.671087
515.902822	2608.955912
516.266684	2606.710078
516.630488	2606.306785
516.994235	2606.205962
517.357925	2605.800149
517.721558	2607.965325
518.085133	2604.713781
518.448651	2608.978597
518.812112	2606.899121
519.175516	2604.476847
519.538863	2604.590272
519.902152	2606.747886
520.265385	2605.835438
520.628560	2606.556322
520.991678	2606.130345
521.354739	2608.280397
521.717743	2602.341918
522.080690	2604.164295
522.443580	2603.640015
522.806413	2605.379213
523.169189	2604.219748
523.531908	2603.486260
523.894569	2602.208327
524.257174	2603.720673
524.619722	2602.727566
524.982213	2606.904162
525.344647	2604.176898
525.707025	2601.482401
526.069345	2603.448451
526.431608	2604.418873
526.793815	2604.529779
527.155964	2602.178080
527.518057	2603.113214
527.880093	2603.292175
528.242072	2605.366610
528.603995	2601.578183
528.965860	2603.839141
529.327669	2601.754623
529.689421	2603.534151
530.051117	2601.719335
530.412755	2602.462906
530.774337	2599.846547
531.135862	2599.460898
531.497331	2600.128851
531.858743	2593.527460
532.220098	2599.077771
532.581396	2596.383274
532.942638	2597.572986
533.303824	2600.622884
533.664953	2600.161619
534.026025	2601.116917
534.387040	2601.583224
534.747999	2599.135744
535.108902	2597.691453
535.469748	2598.760178
535.830537	2600.033069
536.191270	2599.508789
536.551947	2602.336877
536.912567	2598.979468
537.273131	2599.770929
537.633638	2600.716146
537.994089	2598.722369
538.354483	2596.983171
538.714821	2601.101794
539.075103	2601.104315
539.435328	2598.276227
539.795497	2599.246649
540.155609	2601.689088
540.515665	2600.776640
540.875665	2602.074737
541.235609	2599.216402
541.595496	2601.091712
541.955328	2600.338059
542.315102	2599.347472
542.674821	2598.903851
543.034483	2602.104984
543.394090	2600.887545
543.753640	2597.081474
544.113134	2600.632967
544.472571	2600.537185
544.831953	2599.733121
545.191278	2600.025508
545.550548	2601.253029
545.909761	2601.245467
546.268918	2598.009046
546.628019	2601.999119
546.987064	2600.965683
547.346053	2598.777822
547.704986	2599.597010
548.063863	2599.975096
548.422684	2600.106166
548.781449	2599.133223
549.140158	2599.876794
549.498811	2600.784201
549.857408	2596.534509
550.215949	2594.933942
550.574434	2596.632811
550.932864	2597.658686
551.291237	2596.509303
551.649555	2598.293871
552.007817	2599.344952
552.366022	2599.513831
552.724173	2597.530137
553.082267	2599.796135
553.440305	2599.213882
553.798288	2598.780343
554.156215	2598.079622
554.514086	2602.868718
554.871902	2598.384612
555.229661	2600.794284
555.587365	2599.367637
555.945014	2599.070209
556.302606	2597.179776
556.660143	2600.146495
557.017625	2600.310333
557.375050	2600.108687
557.732421	2598.969386
558.089735	2598.999633
558.446994	2599.866711
558.804197	2600.680858
559.161345	2600.406115
559.518437	2600.370827
559.875474	2602.830910
560.232455	2601.195055
560.589381	2599.866711
560.946251	2602.704881
561.303065	2600.118769
561.659825	2600.247318
562.016528	2598.349324
562.373177	2598.997112
562.729770	2599.271855
563.086307	2600.839654
563.442789	2597.910744
563.799216	2597.525095
564.155587	2597.278079
564.511904	2598.208172
564.868164	2597.177256
565.224370	2601.205138
565.580520	2597.885538
565.936615	2600.206989
566.292654	2598.205651
566.648638	2599.302102
567.004567	2599.808738
567.360441	2601.502566
567.716260	2598.213213
568.072023	2596.045517
568.427732	2595.120465
568.783385	2593.991247
569.138982	2592.138622
569.494525	2596.806731
569.850013	2592.841863
570.205445	2597.336052
570.560823	2595.299426
570.916145	2595.987543
571.271412	2596.262286
571.626625	2595.122986
571.981782	2596.065681
572.336884	2594.611308
572.691931	2593.850094
573.046923	2596.360589
573.401860	2596.416042
573.756743	2594.949066
574.111570	2596.264807
574.466342	2594.908737
574.821059	2600.201948
575.175722	2594.197934
575.530330	2596.259766
575.884882	2596.595002
576.239380	2596.179107
576.593823	2597.935949
576.948211	2593.749271
577.302544	2593.948397
577.656823	2589.716348
578.011047	2597.061309
578.365216	2595.196082
578.719330	2592.277254
579.073389	2594.858325
579.427394	2592.680547
579.781344	2594.180290
580.135239	2595.294385
580.489080	2595.435537
580.842866	2590.868252
581.196597	2594.298757
581.550273	2594.545773
581.903895	2593.557707
582.257463	2592.781370
582.610975	2591.737851
582.964434	2594.954107
583.317837	2592.937645
583.671186	2593.343458
584.024481	2591.400093
584.377721	2592.693149
584.730906	2590.979157
585.084037	2591.896647
585.437113	2590.258272
585.790135	2594.081987
586.143103	2588.876996
586.496016	2588.894640
586.848874	2585.370873
587.201679	2588.269537
587.554428	2588.377922
587.907124	2589.345823
588.259765	2585.640575
588.612352	2591.914291
588.964884	2589.355906
589.317362	2591.195927
589.669786	2589.224836
590.022155	2591.702563
590.374470	2590.593509
590.726731	2589.030751
591.078937	2589.963365
591.431090	2589.003025
591.783188	2587.654516
592.135232	2588.211564
592.487222	2589.277768
592.839157	2589.285329
593.191038	2589.731472
593.542866	2588.786255
593.894639	2587.089907
594.246358	2587.722572
594.598022	2586.298446
594.949633	2585.186871
595.301190	2586.250555
595.652692	2587.888930
596.004141	2589.552511
596.355535	2586.512695
596.706876	2587.856162
597.058162	2583.051943
597.409395	2587.616707
597.760573	2585.060842
598.111698	2584.581933
598.462768	2586.336254
598.813785	2586.530339
599.164748	2584.753332
599.515657	2586.600915
599.866511	2583.891295
600.217312	2586.099320
600.568060	2583.785431
600.918753	2586.966399
601.269392	2585.222159
601.619978	2585.025554
601.970510	2583.785431
602.320988	2585.791810
602.671412	2585.635534
603.021783	2585.713672
603.372100	2585.343147
603.722363	2585.481779
604.072572	2586.676532
604.422728	2585.307859
604.772830	2582.424319
605.122878	2580.647312
605.472872	2582.983887
605.822813	2581.400965
606.172701	2580.601942
606.522534	2580.594380
606.872314	2584.821388
607.222041	2583.956830
607.571714	2584.017324
607.921333	2582.749473
608.270899	2584.763414
608.620411	2588.955134
608.969870	2584.579412
609.319276	2584.599577
609.668627	2590.285998
610.017926	2591.324476
610.367171	2590.835484
610.716362	2593.086359
611.065500	2591.959662
611.414585	2589.300453
611.763616	2586.676532
612.112594	2587.594022
612.461518	2586.709300
612.810389	2587.180648
613.159207	2584.705441
613.507971	2586.711820
613.856682	2588.521595
614.205340	2589.217274
614.553945	2587.621749
614.902496	2584.939855
615.250994	2589.484455
615.599439	2587.790627
615.947830	2588.022520
616.296169	2585.741398
616.644454	2588.995463
616.992686	2586.270719
617.340864	2583.666963
617.688990	2584.881882
618.037063	2587.563775
618.385082	2583.966912
618.733048	2586.681573
619.080961	2585.811974
619.428821	2588.277099
619.776628	2584.438260
620.124382	2589.408838
620.472083	2585.501943
620.819731	2588.778693
621.167326	2584.581933
621.514868	2585.486820
621.862357	2584.125708
622.209793	2583.291397
622.557176	2583.765266
622.904506	2580.339802
623.251783	2577.680593
623.599007	2581.234607
623.946179	2578.013309
624.293297	2579.669328
624.640363	2578.209914
624.987376	2582.005903
625.334336	2579.664287
625.681243	2580.796026
626.028097	2578.719071
626.374899	2579.392065
626.721647	2578.189750
627.068343	2579.508012
627.414987	2580.420460
627.761577	2577.725964
628.108115	2580.150759
628.454600	2578.207394
628.801032	2580.271746
629.147412	2579.588670
629.493739	2578.872826
629.840014	2577.799060
630.186236	2578.472054
630.532405	2578.121694
630.878521	2575.591035
631.224585	2577.289904
631.570597	2576.138000
631.916556	2579.268557
632.262462	2578.484657
632.608316	2577.945254
632.954117	2574.663463
633.299866	2576.977352
633.645562	2578.126735
633.991206	2578.156982
634.336797	2571.795046
634.682336	2574.156827
635.027823	2575.717064
635.373257	2574.305541
635.718639	2572.488205
636.063968	2575.631364
636.409245	2572.435273
636.754470	2573.239337
637.099642	2570.539799
637.444762	2574.544996
637.789829	2571.308575
638.134845	2573.246898
638.479808	2573.685479
638.824719	2571.076682
639.169577	2569.705488
639.514383	2573.854357
639.859137	2573.751014
640.203839	2572.851168
640.548489	2573.042732
640.893086	2564.883624
641.237632	2564.656772
641.582125	2567.847823
641.926566	2564.011505
642.270955	2569.201373
642.615292	2570.600293
642.959576	2572.364697
643.303809	2569.491239
643.647990	2570.842268
643.992118	2573.463668
644.336195	2569.566856
