Dividing Wavelength (nm)	Counts (n)	Blue Motor Position (mm): 0.000000	Red Motor Position (mm): 43.000000	
326.493990	2139.417801
326.888308	2139.417801
327.282561	2139.417801
327.676750	2113.687752
328.070874	2115.006014
328.464933	2120.163114
328.858929	2130.177366
329.252859	2140.368059
329.646726	2156.479587
330.040528	2169.178253
330.434265	2188.553928
330.827938	2205.504808
331.221547	2227.010370
331.615091	2246.635582
332.008571	2268.713315
332.401986	2288.426747
332.795338	2308.856023
333.188625	2326.363951
333.581847	2347.458659
333.975006	2367.056144
334.368100	2386.603218
334.761129	2401.474622
335.154095	2420.071439
335.546996	2438.002823
335.939833	2462.850670
336.332606	2476.209728
336.725315	2487.799341
337.117960	2495.373674
337.510540	2506.930520
337.903056	2514.482168
338.295508	2520.687828
338.687896	2528.005063
339.080220	2534.548481
339.472480	2539.420756
339.864676	2546.851417
340.256807	2545.447456
340.648875	2549.177909
341.040879	2551.171686
341.432818	2553.170503
341.824694	2554.231666
342.216506	2552.825184
342.608253	2552.537838
342.999937	2554.309804
343.391557	2550.455842
343.783113	2550.700338
344.174605	2551.771583
344.566033	2548.414175
344.957397	2547.315203
345.348697	2544.275387
345.739934	2544.913093
346.131106	2542.032074
346.522215	2540.257588
346.913260	2535.208872
347.304241	2535.793646
347.695159	2534.971938
348.086012	2533.124355
348.476802	2530.253418
348.867528	2529.938346
349.258191	2532.048069
349.648789	2528.819210
350.039324	2526.883407
350.429796	2528.569673
350.820203	2522.724455
351.210548	2524.940042
351.600828	2522.989115
351.991045	2523.445340
352.381198	2523.679753
352.771288	2523.568848
353.161314	2522.381656
353.551276	2525.227387
353.941175	2523.152953
354.331010	2520.599608
354.720782	2521.474248
355.110490	2522.225380
355.500135	2522.714372
355.889717	2522.923580
356.279235	2524.183869
356.668689	2522.595905
357.058080	2524.166225
357.447408	2523.442819
357.836672	2524.002387
358.225873	2520.176151
358.615010	2521.403672
359.004084	2524.998015
359.393095	2527.720238
359.782043	2529.043541
360.170927	2529.126720
360.559748	2529.635877
360.948505	2527.246370
361.337199	2531.042358
361.725830	2530.966741
362.114398	2532.181659
362.502903	2530.772657
362.891344	2534.109901
363.279722	2533.247863
363.668037	2532.932791
364.056289	2534.301464
364.444478	2531.543953
364.832603	2535.259284
365.220665	2533.711649
365.608665	2535.712987
365.996601	2535.695343
366.384474	2533.416742
366.772284	2537.870601
367.160031	2536.907741
367.547715	2536.408667
367.935336	2536.993441
368.322893	2537.179963
368.710388	2535.922195
369.097820	2540.701209
369.485189	2539.166178
369.872495	2539.002340
370.259738	2539.824048
370.646918	2539.657690
371.034035	2539.140972
371.421090	2540.814635
371.808081	2540.315561
372.195010	2540.789429
372.581875	2541.976621
372.968678	2544.351005
373.355418	2542.780685
373.742096	2540.912938
374.128710	2546.256561
374.515262	2547.307641
374.901751	2547.695810
375.288177	2547.350491
375.674540	2548.401572
376.060841	2552.711758
376.447079	2553.233518
376.833254	2553.737633
377.219367	2552.293343
377.605417	2558.090669
377.991404	2556.797613
378.377329	2563.462019
378.763191	2563.094015
379.148991	2569.655076
379.534727	2574.575242
379.920402	2578.678742
380.306013	2580.362487
380.691563	2584.992787
381.077049	2589.280288
381.462474	2594.780187
381.847835	2597.933429
382.233134	2604.461723
382.618371	2610.712754
383.003545	2615.557303
383.388657	2619.375977
383.773706	2628.392080
384.158693	2633.075312
384.543618	2641.337763
384.928480	2646.716675
385.313280	2656.403252
385.698017	2662.848367
386.082692	2671.441014
386.467305	2674.896725
386.851856	2687.270237
387.236344	2698.285158
387.620770	2702.358410
388.005133	2711.185471
388.389435	2725.991339
388.773674	2729.426886
389.157851	2737.772516
389.541965	2748.129567
389.926018	2749.233579
390.310008	2765.834099
390.693936	2772.364914
391.077802	2783.682304
391.461606	2790.611370
391.845348	2801.633853
392.229027	2806.511169
392.612645	2824.185455
392.996200	2832.697443
393.379694	2846.593383
393.763125	2862.500744
394.146494	2871.002650
394.529801	2882.725854
394.913047	2898.439130
395.296230	2899.764954
395.679351	2904.153278
396.062410	2922.712286
396.445408	2919.291863
396.828343	2932.948349
397.211217	2941.213321
397.594028	2933.941456
397.976778	2946.738425
398.359466	2961.874490
398.742092	2957.869293
399.124656	2976.274546
399.507158	2989.336175
399.889598	2994.042092
400.271977	3006.932323
400.654294	3014.279804
401.036549	3029.113400
401.418742	3032.818648
401.800874	3051.954868
402.182944	3064.953483
402.564952	3090.260075
402.946898	3081.306986
403.328783	3089.904674
403.710606	3106.880759
404.092367	3129.187865
404.474067	3155.177534
404.855705	3146.060607
405.237282	3144.243271
405.618797	3176.849454
406.000250	3199.791745
406.381642	3228.836353
406.762972	3233.882548
407.144240	3223.845611
407.525447	3243.347315
407.906593	3246.737491
408.287677	3264.729369
408.668700	3287.046557
409.049661	3286.338275
409.430560	3300.952580
409.811399	3304.138589
410.192176	3324.774552
410.572891	3330.647496
410.953545	3370.437324
411.334138	3337.972293
411.714669	3390.158318
412.095139	3337.833661
412.475547	3389.676887
412.855894	3376.378323
413.236180	3406.927716
413.616405	3389.407186
413.996568	3414.459200
414.376670	3416.962133
414.756711	3411.109353
415.136691	3438.855864
415.516609	3459.953093
415.896466	3468.160091
416.276262	3492.244203
416.655997	3520.172196
417.035670	3530.932539
417.415283	3598.957869
417.794834	3618.013430
418.174324	3599.860235
418.553753	3600.288733
418.933121	3647.599962
419.312428	3635.395329
419.691674	3631.934577
420.070859	3668.936646
420.449983	3650.634737
420.829045	3696.055533
421.208047	3681.935261
421.586988	3729.536356
421.965867	3760.788989
422.344686	3765.510030
422.723444	3806.482008
423.102141	3711.952812
423.480777	3812.531393
423.859352	3779.534520
424.237866	3877.474057
424.616319	3858.476469
424.994712	3921.753032
425.373044	3912.258018
425.751314	3974.503666
426.129524	3908.928336
426.507673	4009.980786
426.885762	3988.061849
427.263789	4012.889532
427.641756	4014.482536
428.019662	4043.164181
428.397508	4049.722722
428.775292	4085.104060
429.153016	4089.376438
429.530679	4101.848253
429.908282	4112.399388
430.285824	4090.331737
430.663305	4161.374198
431.040726	4119.623361
431.418086	4110.650108
431.795385	4186.615255
432.172624	4218.193043
432.549802	4186.985780
432.926920	4209.776836
433.303977	4199.949107
433.680974	4242.009974
434.057910	4265.703397
434.434786	4269.348151
434.811601	4263.999487
435.188355	4370.093090
435.565050	4340.567052
435.941683	4334.515147
436.318257	4430.465949
436.694770	4432.986526
437.071222	4484.781861
437.447614	4426.294394
437.823946	4425.699538
438.200218	4440.669244
438.576429	4425.258437
438.952580	4448.420018
439.328670	4455.079382
439.704700	4499.302904
440.080670	4461.627841
440.456580	4523.876009
440.832429	4557.341709
441.208218	4460.067604
441.583947	4512.704812
441.959616	4525.564795
442.335224	4553.160072
442.710773	4574.254780
443.086261	4632.190240
443.461689	4583.112087
443.837057	4590.885546
444.212365	4668.703318
444.587612	4670.568545
444.962800	4637.629645
445.337927	4676.693547
445.712995	4568.296136
446.088002	4759.330661
446.462949	4785.247233
446.837837	4798.278616
447.212664	4787.528355
447.587431	5011.221995
447.962139	5306.348785
448.336786	5648.290251
448.711374	5632.587057
449.085901	5280.805259
449.460369	5216.245722
449.834776	5149.876411
450.209124	5383.541454
450.583412	5394.420264
450.957640	5518.588924
451.331808	5380.141195
451.705917	5231.177620
452.079965	5224.056990
452.453954	5258.558647
452.827883	5228.480603
453.201752	5234.479576
453.575562	5258.412453
453.949311	5399.143825
454.323001	5403.534670
454.696632	5392.151744
455.070202	5546.942894
455.443713	5577.903140
455.817164	5670.239435
456.190556	5742.335496
456.563888	5716.764243
456.937160	5794.551768
457.310373	5639.135515
457.683526	5694.651222
458.056619	5686.320715
458.429653	5670.393190
458.802628	5712.368357
459.175542	5744.140229
459.548398	5884.743051
459.921194	6068.561165
460.293930	6125.937057
460.666607	6379.459205
461.039224	6587.815134
461.411782	6717.939918
461.784280	6636.558051
462.156719	6644.472662
462.529099	6600.639830
462.901419	6465.761238
463.273680	6329.115722
463.645882	6324.480381
464.018024	6320.071892
464.390106	6387.255349
464.762130	6644.011397
465.134094	7025.329315
465.505999	7656.391036
465.877845	8361.769446
466.249631	8719.580464
466.621358	8651.575299
466.993026	8458.141184
467.364634	8244.053463
467.736184	7958.746840
468.107674	7801.614075
468.479105	7718.767753
468.850477	7651.531363
469.221790	7478.909653
469.593043	7262.165243
469.964238	7159.360993
470.335373	7133.273022
470.706449	7288.366640
471.077467	7464.464226
471.448425	8123.000236
471.819324	8705.508083
472.190164	8753.096575
472.560945	8268.465250
472.931667	7801.329250
473.302330	7604.822552
473.672934	7485.301836
474.043479	7563.777478
474.413965	7464.960780
474.784393	7421.107783
475.154761	7573.355670
475.525070	7575.362049
475.895321	7531.264556
476.265513	7631.034032
476.635645	7793.959083
477.005719	7782.545911
477.375734	7866.453396
477.745691	7974.006413
478.115588	8181.906118
478.485427	8415.596367
478.855207	8876.551912
479.224928	9310.590217
479.594591	9700.876348
479.964194	9706.587976
480.333739	9793.416809
480.703226	9790.387076
481.072653	9893.171162
481.442022	10007.643163
481.811333	10164.065125
482.180584	10006.607206
482.549777	9947.214852
482.918912	9875.277586
483.287988	9862.402479
483.657005	9776.067678
484.025964	9691.071304
484.394864	9754.242003
484.763706	9713.907731
485.132489	9624.500347
485.501213	9617.556158
485.869879	9674.561525
486.238487	9620.724523
486.607036	9690.247075
486.975527	9631.963775
487.343959	9687.615593
487.712333	9744.694058
488.080648	9772.412842
488.448905	9878.539213
488.817104	9887.275532
489.185244	10049.081447
489.553326	10261.679508
489.921350	10723.943233
490.289315	11348.035559
490.657222	11643.709314
491.025070	11830.408447
491.392861	11740.910322
491.760593	11584.284193
492.128267	11332.324803
492.495883	11098.017013
492.863440	10862.358194
493.230939	10638.092383
493.598380	10459.950609
493.965763	10433.842473
494.333088	10303.800869
494.700354	10230.323531
495.067563	10198.773470
495.434713	10202.428306
495.801805	10252.761707
496.168839	10209.584224
496.535815	10178.578607
496.902733	10223.119722
497.269593	10181.099184
497.636395	10187.720740
498.003139	10296.816350
498.369825	10223.727181
498.736453	10317.469957
499.103023	10260.726730
499.469535	10271.741651
499.835989	10316.877622
500.202385	10288.669846
500.568723	10306.361775
500.935003	10365.824705
501.301226	10338.660448
501.667390	10506.719914
502.033497	10607.739596
502.399546	10535.091528
502.765537	10438.936559
503.131470	10538.980778
503.497345	10639.889555
503.863163	10405.879193
504.228923	10540.646879
504.594625	10655.053345
504.960269	10564.418440
505.325856	10719.794364
505.691385	10602.758936
506.056856	10663.083903
506.422270	10757.902966
506.787625	10701.981447
507.152924	10755.014385
507.518164	10818.232975
507.883347	10687.828407
508.248472	10754.490105
508.613540	10864.414985
508.978550	10935.535584
509.343503	10914.806359
509.708398	10972.179731
510.073236	11109.029414
510.438016	11109.258786
510.802738	11029.006138
511.167403	11153.515076
511.532010	11210.696884
511.896561	11310.683129
512.261053	11505.105310
512.625488	11420.572722
512.989866	11407.682491
513.354186	11380.893800
513.718449	11402.074208
514.082655	11540.945393
514.446803	11489.034111
514.810894	11597.227355
515.174927	11597.058477
515.538904	11586.398957
515.902822	11744.262689
516.266684	11617.333997
516.630488	11713.317567
516.994235	11705.039992
517.357925	11816.562918
517.721558	11873.384283
518.085133	11943.660489
518.448651	11973.481434
518.812112	11933.134559
519.175516	11941.644027
519.538863	12028.823221
519.902152	12039.240766
520.265385	12142.763380
520.628560	12164.518480
520.991678	12103.278543
521.354739	12157.198724
521.717743	12233.572205
522.080690	12207.058257
522.443580	12333.165241
522.806413	12348.543280
523.169189	12345.241325
523.531908	12399.373235
523.894569	12364.044828
524.257174	12380.489072
524.619722	12479.404073
524.982213	12468.298411
525.344647	12461.835651
525.707025	12466.077782
526.069345	12562.094119
526.431608	12537.432794
526.793815	12629.695992
527.155964	12524.388809
527.518057	12555.134806
527.880093	12504.239317
528.242072	12622.809776
528.603995	12553.307388
528.965860	12564.894480
529.327669	12593.470261
529.689421	12540.409596
530.051117	12550.620453
530.412755	12589.394488
530.774337	12598.914707
531.135862	12562.116804
531.497331	12620.274076
531.858743	12573.509812
532.220098	12655.312615
532.581396	12574.248341
532.942638	12505.320644
533.303824	12568.143504
533.664953	12557.123541
534.026025	12511.796007
534.387040	12613.279475
534.747999	12587.708222
535.108902	12630.794964
535.469748	12503.551199
535.830537	12542.514278
536.191270	12574.797827
536.551947	12497.859737
536.912567	12565.680900
537.273131	12600.293462
537.633638	12478.476500
537.994089	12538.930017
538.354483	12451.274434
538.714821	12577.010893
539.075103	12663.854851
539.435328	12600.240530
539.795497	12575.977457
540.155609	12568.458576
540.515665	12675.562930
540.875665	12539.514791
541.235609	12628.591979
541.595496	12595.030498
541.955328	12759.127617
542.315102	12613.629835
542.674821	12544.477807
543.034483	12562.850292
543.394090	12557.723439
543.753640	12533.089840
544.113134	12782.798355
544.472571	12545.183568
544.831953	12817.766319
545.191278	12635.473154
545.550548	12570.974112
545.909761	12679.926049
546.268918	12727.383471
546.628019	12796.369141
546.987064	12684.021987
547.346053	12532.963812
547.704986	12732.724574
548.063863	12618.751647
548.422684	12661.364521
548.781449	12625.121145
549.140158	12718.183366
549.498811	12671.207373
549.857408	12544.926470
550.215949	12746.461718
550.574434	12705.381355
550.932864	12644.000266
551.291237	12844.169362
551.649555	12733.954615
552.007817	12794.289665
552.366022	12711.947458
552.724173	12758.643666
553.082267	12842.215915
553.440305	12939.497581
553.798288	12766.228082
554.156215	12835.332219
554.514086	12873.735729
554.871902	12831.019512
555.229661	12845.215401
555.587365	12796.238071
555.945014	12810.970843
556.302606	12789.767750
556.660143	12850.904343
557.017625	12889.433882
557.375050	12847.977954
557.732421	12944.316924
558.089735	12945.000001
558.446994	12910.924321
558.804197	13038.168085
559.161345	13029.068803
559.518437	12840.973270
559.875474	12933.556581
560.232455	12971.612252
560.589381	13011.971729
560.946251	12951.309005
561.303065	13130.746355
561.659825	13074.678642
562.016528	12982.092811
562.373177	12924.747165
562.729770	13058.652814
563.086307	12929.800922
563.442789	13039.524156
563.799216	13082.999067
564.155587	13023.221064
564.511904	13043.733519
564.868164	13057.619378
565.224370	13120.207823
565.580520	13059.275397
565.936615	13127.842651
566.292654	13065.297055
566.648638	13140.710196
567.004567	13138.948312
567.360441	13137.458652
567.716260	13104.381121
568.072023	13192.808000
568.427732	13165.172395
568.783385	13066.900142
569.138982	13183.323069
569.494525	13181.069673
569.850013	13130.554791
570.205445	13125.458185
570.560823	13139.712047
570.916145	13090.822937
571.271412	13105.260802
571.626625	13059.852609
571.981782	13053.959500
572.336884	12999.255419
572.691931	13089.681116
573.046923	12992.011281
573.401860	12957.292854
573.756743	12952.120630
574.111570	12982.601967
574.466342	12952.070219
574.821059	13014.283098
575.175722	12881.960372
575.530330	12903.329823
575.884882	12838.785410
576.239380	12835.803567
576.593823	12823.369561
576.948211	12814.539980
577.302544	12691.994571
577.656823	12712.328065
578.011047	12763.760437
578.365216	12701.539996
578.719330	12651.614929
579.073389	12616.125206
579.427394	12626.978810
579.781344	12612.465328
580.135239	12550.900237
580.489080	12568.463617
580.842866	12443.868979
581.196597	12546.040565
581.550273	12535.502033
581.903895	12497.461486
582.257463	12605.480810
582.610975	12449.225205
582.964434	12526.763192
583.317837	12442.160028
583.671186	12399.201835
584.024481	12447.480966
584.377721	12343.242507
584.730906	12410.219277
585.084037	12421.710587
585.437113	12339.958195
585.790135	12370.749563
586.143103	12274.919749
586.496016	12292.941874
586.848874	12307.160448
587.201679	12298.240127
587.554428	12177.441478
587.907124	12219.870349
588.259765	12166.635764
588.612352	12229.698078
588.964884	12088.505442
589.317362	12153.145637
589.669786	12144.063998
590.022155	12093.672624
590.374470	12196.116432
590.726731	12071.126064
591.078937	11963.522635
591.431090	11998.354487
591.783188	11917.131417
592.135232	11843.676764
592.487222	11906.663461
592.839157	11910.628328
593.191038	11850.323525
593.542866	11794.311265
593.894639	11657.302786
594.246358	11712.730272
594.598022	11720.279400
594.949633	11630.955195
595.301190	11611.866866
595.652692	11573.478479
596.004141	11660.692962
596.355535	11446.988368
596.706876	11430.486151
597.058162	11389.322609
597.409395	11480.950621
597.760573	11512.846002
598.111698	11404.098231
598.462768	11402.840463
598.813785	11415.150961
599.164748	11284.922833
599.515657	11353.759789
599.866511	11236.310987
600.217312	11365.026768
600.568060	11125.085489
600.918753	11290.760489
601.269392	11292.093875
601.619978	11191.827845
601.970510	11236.343754
602.320988	11279.715321
602.671412	11350.140241
603.021783	11270.668971
603.372100	11192.946981
603.722363	11209.706297
604.072572	11214.901206
604.422728	11225.449821
604.772830	11166.700214
605.122878	11168.152066
605.472872	11151.196145
605.822813	11207.468025
606.172701	11164.479586
606.522534	11207.072294
606.872314	11251.152144
607.222041	11181.274190
607.571714	11256.498287
607.921333	11123.805036
608.270899	11182.899962
608.620411	11239.262582
608.969870	11179.295537
609.319276	11170.201295
609.668627	11183.580517
610.017926	11268.644948
610.367171	11290.763010
610.716362	11283.609613
611.065500	11254.557443
611.414585	11271.215936
611.763616	11331.286325
612.112594	11287.710591
612.461518	11326.293062
612.810389	11365.515760
613.159207	11307.587861
613.507971	11302.902108
613.856682	11408.189127
614.205340	11358.662311
614.553945	11494.902014
614.902496	11368.641275
615.250994	11432.260637
615.599439	11420.761765
615.947830	11447.671444
616.296169	11415.123234
616.644454	11431.353229
616.992686	11439.598036
617.340864	11532.014989
617.688990	11415.541650
618.037063	11545.086701
618.385082	11518.938236
618.733048	11559.438866
619.080961	11547.098121
619.428821	11523.011488
619.776628	11534.742253
620.124382	11466.540483
620.472083	11492.958650
620.819731	11511.167297
621.167326	11439.582913
621.514868	11420.240005
621.862357	11315.068933
622.209793	11304.593416
622.557176	11231.882333
622.904506	11170.226501
623.251783	11084.131155
623.599007	11026.541013
623.946179	10979.781791
624.293297	10944.995309
624.640363	10811.205606
624.987376	10802.368464
625.334336	10729.256609
625.681243	10651.743828
626.028097	10624.020002
626.374899	10575.335059
626.721647	10554.129445
627.068343	10509.268217
627.414987	10447.256984
627.761577	10375.183607
628.108115	10418.489639
628.454600	10296.024889
628.801032	10311.102980
629.147412	10297.398603
629.493739	10261.664384
629.840014	10181.580614
630.186236	10231.409900
630.532405	10120.736408
630.878521	10154.398713
631.224585	10097.920146
631.570597	10026.340802
631.916556	10027.938848
632.262462	10006.798769
632.608316	9987.488630
632.954117	9966.116658
633.299866	9940.484911
633.645562	9919.904401
633.991206	9821.528804
634.336797	9720.688083
634.682336	9707.543274
635.027823	9652.269543
635.373257	9607.829251
635.718639	9538.374754
636.063968	9506.358386
636.409245	9397.015759
636.754470	9378.912976
637.099642	9327.077311
637.444762	9228.094255
637.789829	9228.250531
638.134845	9153.598604
638.479808	9129.348134
