Dividing Wavelength (nm)	Counts (n)	Blue Motor Position (mm): 0.000000	Red Motor Position (mm): 50.000000	
326.493990	2133.315485
326.888308	2133.315485
327.282561	2133.315485
327.676750	2109.543924
328.070874	2111.285642
328.464933	2117.708072
328.858929	2123.560852
329.252859	2137.809673
329.646726	2150.480613
330.040528	2165.621719
330.434265	2186.272806
330.827938	2203.584128
331.221547	2223.494165
331.615091	2242.217011
332.008571	2260.329876
332.401986	2283.924997
332.795338	2301.206072
333.188625	2322.641058
333.581847	2342.417505
333.975006	2360.401821
334.368100	2381.362939
334.761129	2396.806514
335.154095	2414.175809
335.546996	2439.492484
335.939833	2471.241671
336.332606	2486.097951
336.725315	2496.611278
337.117960	2505.972700
337.510540	2512.190964
337.903056	2519.919052
338.295508	2527.695032
338.687896	2533.797349
339.080220	2539.433359
339.472480	2547.642878
339.864676	2551.650595
340.256807	2554.551779
340.648875	2556.522871
341.040879	2562.269786
341.432818	2559.275341
341.824694	2557.969682
342.216506	2559.035886
342.608253	2559.925649
342.999937	2559.376164
343.391557	2557.911708
343.783113	2557.866338
344.174605	2554.811399
344.566033	2555.479352
344.957397	2553.253682
345.348697	2552.832746
345.739934	2550.377704
346.131106	2550.702858
346.522215	2547.509288
346.913260	2545.903680
347.304241	2544.270346
347.695159	2541.139790
348.086012	2538.175591
348.476802	2539.241795
348.867528	2537.343801
349.258191	2533.837678
349.648789	2534.845909
350.039324	2535.604603
350.429796	2535.367668
350.820203	2532.567307
351.210548	2531.158305
351.600828	2532.952956
351.991045	2528.834333
352.381198	2529.724097
352.771288	2528.882224
353.161314	2529.799714
353.551276	2529.459436
353.941175	2529.739220
354.331010	2530.376926
354.720782	2529.479601
355.110490	2529.010773
355.500135	2529.083870
355.889717	2528.536905
356.279235	2527.465660
356.668689	2529.923222
357.058080	2532.315250
357.447408	2526.394415
357.836672	2529.587986
358.225873	2527.679909
358.615010	2530.628984
359.004084	2533.021011
359.393095	2531.929602
359.782043	2534.556043
360.170927	2532.751310
360.559748	2532.562266
360.948505	2536.978317
361.337199	2534.130065
361.725830	2535.254243
362.114398	2538.465457
362.502903	2536.880015
362.891344	2538.717515
363.279722	2538.745242
363.668037	2536.398584
364.056289	2539.841692
364.444478	2538.669624
364.832603	2540.915458
365.220665	2540.184491
365.608665	2541.177598
365.996601	2540.663401
366.384474	2542.735315
366.772284	2543.788916
367.160031	2542.929399
367.547715	2542.798329
367.935336	2544.295552
368.322893	2542.505942
368.710388	2545.477703
369.097820	2545.770089
369.485189	2544.590459
369.872495	2543.849410
370.259738	2546.649771
370.646918	2544.260264
371.034035	2545.558361
371.421090	2547.526932
371.808081	2548.104144
372.195010	2547.484082
372.581875	2548.953578
372.968678	2549.109854
373.355418	2550.420554
373.742096	2552.673950
374.128710	2553.140256
374.515262	2552.442057
374.901751	2554.655123
375.288177	2554.801317
375.674540	2556.931204
376.060841	2557.127809
376.447079	2558.675443
376.833254	2561.324570
377.219367	2559.633262
377.605417	2564.497976
377.991404	2565.012174
378.377329	2566.093501
378.763191	2569.080385
379.148991	2577.660429
379.534727	2580.632189
379.920402	2584.014803
380.306013	2586.608477
380.691563	2593.683736
381.077049	2594.147522
381.462474	2600.542226
381.847835	2606.626899
382.233134	2610.727877
382.618371	2614.102930
383.003545	2618.496295
383.388657	2627.096504
383.773706	2634.474232
384.158693	2641.274749
384.543618	2648.322282
384.928480	2651.225987
385.313280	2660.511792
385.698017	2668.373472
386.082692	2676.419153
386.467305	2680.706654
386.851856	2692.886082
387.236344	2701.125848
387.620770	2709.085830
388.005133	2718.487582
388.389435	2729.636094
388.773674	2733.308574
389.157851	2745.356932
389.541965	2755.953437
389.926018	2756.326483
390.310008	2767.817793
390.693936	2780.282046
391.077802	2789.053653
391.461606	2798.437761
391.845348	2806.435552
392.229027	2814.340081
392.612645	2832.833554
392.996200	2839.482836
393.379694	2853.403982
393.763125	2870.120448
394.146494	2876.691593
394.529801	2884.747356
394.913047	2903.543298
395.296230	2906.802404
395.679351	2912.052766
396.062410	2928.534819
396.445408	2927.571958
396.828343	2939.963114
397.211217	2946.196501
397.594028	2940.131993
397.976778	2957.067749
398.359466	2966.345993
398.742092	2964.861373
399.124656	2980.768734
399.507158	2994.158039
399.889598	2997.560818
400.271977	3013.798374
400.654294	3020.699714
401.036549	3030.308153
401.418742	3032.226312
401.800874	3060.040878
402.182944	3068.628484
402.564952	3097.229470
402.946898	3085.536514
403.328783	3097.254676
403.710606	3108.556943
404.092367	3132.605767
404.474067	3160.538801
404.855705	3148.689569
405.237282	3152.442708
405.618797	3184.469158
406.000250	3205.072354
406.381642	3235.185687
406.762972	3237.227354
407.144240	3228.473390
407.525447	3252.464241
407.906593	3253.258223
408.287677	3271.923095
408.668700	3296.153401
409.049661	3290.603091
409.430560	3303.765543
409.811399	3308.920123
410.192176	3329.510716
410.572891	3338.425997
410.953545	3379.345043
411.334138	3343.991431
411.714669	3397.498238
412.095139	3341.831296
412.475547	3392.217629
412.855894	3384.476937
413.236180	3414.978438
413.616405	3391.874830
413.996568	3419.696958
414.376670	3420.944644
414.756711	3414.849889
415.136691	3444.018005
415.516609	3462.183803
415.896466	3468.860811
416.276262	3498.757374
416.655997	3529.296684
417.035670	3534.829351
417.415283	3604.147737
417.794834	3623.588946
418.174324	3607.401801
418.553753	3605.065227
418.933121	3648.910662
419.312428	3639.889517
419.691674	3638.278869
420.070859	3675.142306
420.449983	3656.542969
420.829045	3702.251111
421.208047	3690.563196
421.586988	3735.263107
421.965867	3764.743775
422.344686	3768.643107
422.723444	3806.860094
423.102141	3713.886094
423.480777	3816.508863
423.859352	3785.914100
424.237866	3879.349366
424.616319	3869.244373
424.994712	3928.621604
425.373044	3915.746497
425.751314	3983.287876
426.129524	3914.851692
426.507673	4014.331302
426.885762	3990.078310
427.263789	4014.013709
427.641756	4018.059235
428.019662	4044.595869
428.397508	4051.683731
428.775292	4085.398968
429.153016	4093.094289
429.530679	4103.842029
429.908282	4112.848051
430.285824	4095.743416
430.663305	4164.499713
431.040726	4123.212663
431.418086	4114.718319
431.795385	4191.472407
432.172624	4223.735791
432.549802	4187.739432
432.926920	4206.086712
433.303977	4201.960527
433.680974	4243.976024
434.057910	4263.795320
434.434786	4269.864869
434.811601	4264.785907
435.188355	4372.414542
435.565050	4342.286086
435.941683	4335.041948
436.318257	4428.630969
436.694770	4434.019962
437.071222	4488.839990
437.447614	4425.197943
437.823946	4428.388993
438.200218	4443.716622
438.576429	4425.737346
438.952580	4453.282211
439.328670	4456.596770
439.704700	4504.321373
440.080670	4463.011638
440.456580	4525.113612
440.832429	4558.594435
441.208218	4461.748829
441.583947	4515.827807
441.959616	4533.527298
442.335224	4556.404054
442.710773	4578.380964
443.086261	4630.632524
443.461689	4583.706943
443.837057	4592.833952
444.212365	4670.187938
444.587612	4676.454092
444.962800	4642.237260
445.337927	4681.545657
445.712995	4570.683122
446.088002	4764.596146
446.462949	4780.344711
446.837837	4800.600067
447.212664	4791.142862
447.587431	5014.002192
447.962139	5307.631759
448.336786	5647.639942
448.711374	5638.008817
449.085901	5283.557729
449.460369	5219.809818
449.834776	5151.469416
450.209124	5384.766454
450.583412	5393.648967
450.957640	5516.980796
451.331808	5384.690837
451.705917	5229.960181
452.079965	5222.519438
452.453954	5262.624338
452.827883	5228.563782
453.201752	5234.240121
453.575562	5263.967805
453.949311	5395.483947
454.323001	5403.320421
454.696632	5395.841869
455.070202	5545.027255
455.443713	5576.050516
455.817164	5670.153735
456.190556	5739.693932
456.563888	5716.764243
456.937160	5792.464730
457.310373	5634.802644
457.683526	5696.219021
458.056619	5680.777967
458.429653	5669.047202
458.802628	5719.375561
459.175542	5746.363378
459.548398	5880.193410
459.921194	6066.784158
460.293930	6129.491071
460.666607	6377.770418
461.039224	6591.243119
461.411782	6722.413942
461.784280	6634.745756
462.156719	6644.520553
462.529099	6605.615448
462.901419	6459.273273
463.273680	6336.702658
463.645882	6325.009702
464.018024	6320.530637
464.390106	6386.297530
464.762130	6641.679863
465.134094	7021.825713
465.505999	7656.479256
465.877845	8360.423458
466.249631	8716.119712
466.621358	8643.320409
466.993026	8448.421840
467.364634	8235.743121
467.736184	7956.269113
468.107674	7805.704971
468.479105	7717.754481
468.850477	7650.273595
469.221790	7480.550548
469.593043	7259.082577
469.964238	7159.000550
470.335373	7134.767724
470.706449	7285.772967
471.077467	7469.054197
471.448425	8119.156356
471.819324	8706.607055
472.190164	8750.248323
472.560945	8271.106815
472.931667	7801.256153
473.302330	7607.917821
473.672934	7482.511557
474.043479	7562.877632
474.413965	7463.395502
474.784393	7412.663850
475.154761	7565.909886
475.525070	7573.794250
475.895321	7533.381841
476.265513	7631.298692
476.635645	7790.271479
477.005719	7782.903833
477.375734	7866.161009
477.745691	7973.393913
478.115588	8179.864451
478.485427	8414.804905
478.855207	8884.527018
479.224928	9315.419643
479.594591	9700.548673
479.964194	9708.561587
480.333739	9788.710892
480.703226	9788.589905
481.072653	9896.354650
481.442022	10002.254169
481.811333	10160.765690
482.180584	10002.170990
482.549777	9938.738151
482.918912	9876.671465
483.287988	9868.071257
483.657005	9768.901678
484.025964	9687.678607
484.394864	9752.449873
484.763706	9714.530313
485.132489	9624.122260
485.501213	9616.288307
485.869879	9671.683026
486.238487	9612.265467
486.607036	9679.484212
486.975527	9628.845822
487.343959	9681.475468
487.712333	9734.425227
488.080648	9772.924519
488.448905	9879.635664
488.817104	9881.742866
489.185244	10046.702023
489.553326	10255.062993
489.921350	10715.307737
490.289315	11351.632422
490.657222	11628.800102
491.025070	11813.218112
491.392861	11735.599467
491.760593	11574.539642
492.128267	11331.067035
492.495883	11095.037691
492.863440	10858.910045
493.230939	10630.218101
493.598380	10451.909969
493.965763	10428.118243
494.333088	10296.218973
494.700354	10226.303211
495.067563	10205.122803
495.434713	10200.996618
495.801805	10243.092774
496.168839	10209.256549
496.535815	10176.025263
496.902733	10221.040246
497.269593	10176.216827
497.636395	10192.403972
498.003139	10294.298294
498.369825	10222.156862
498.736453	10320.882819
499.103023	10261.346792
499.469535	10268.369119
499.835989	10313.300923
500.202385	10278.751375
500.568723	10297.007914
500.935003	10362.129539
501.301226	10336.086939
501.667390	10499.566517
502.033497	10600.840777
502.399546	10527.373521
502.765537	10436.252145
503.131470	10541.793742
503.497345	10627.503440
503.863163	10398.682946
504.228923	10535.209995
504.594625	10650.115535
504.960269	10565.303163
505.325856	10715.426204
505.691385	10595.981105
506.056856	10662.257154
506.422270	10760.756259
506.787625	10694.928872
507.152924	10753.086144
507.518164	10814.994033
507.883347	10676.110245
508.248472	10748.876780
508.613540	10856.442400
508.978550	10935.649010
509.343503	10914.206462
509.708398	10966.904163
510.073236	11097.054153
510.438016	11105.067067
510.802738	11013.658345
511.167403	11147.498459
511.532010	11210.001205
511.896561	11301.251131
512.261053	11495.494350
512.625488	11416.144068
512.989866	11397.600183
513.354186	11380.576207
513.718449	11393.952909
514.082655	11526.605831
514.446803	11488.104018
514.810894	11592.944895
515.174927	11592.488671
515.538904	11578.829664
515.902822	11744.930642
516.266684	11613.815272
516.630488	11717.032897
516.994235	11700.553365
517.357925	11813.182824
517.721558	11876.857638
518.085133	11935.161103
518.448651	11964.707306
518.812112	11926.036615
519.175516	11927.700196
519.538863	12024.727284
519.902152	12037.201619
520.265385	12133.981690
520.628560	12159.817604
520.991678	12105.995725
521.354739	12166.406392
521.717743	12233.141187
522.080690	12201.107174
522.443580	12331.090806
522.806413	12348.949093
523.169189	12338.087927
523.531908	12398.022205
523.894569	12365.199253
524.257174	12380.189124
524.619722	12477.037251
524.982213	12460.824900
525.344647	12449.699073
525.707025	12461.611320
526.069345	12562.381465
526.431608	12536.666539
526.793815	12621.030249
527.155964	12518.833457
527.518057	12545.057540
527.880093	12506.953978
528.242072	12628.269346
528.603995	12556.357286
528.965860	12565.738873
529.327669	12599.391096
529.689421	12539.915563
530.051117	12559.838203
530.412755	12594.228954
530.774337	12596.873039
531.135862	12555.802759
531.497331	12606.504164
531.858743	12579.279413
532.220098	12660.598265
532.581396	12588.991195
532.942638	12507.173268
533.303824	12577.141963
533.664953	12565.363307
534.026025	12515.246676
534.387040	12620.198458
534.747999	12593.999582
535.108902	12645.963796
535.469748	12513.315914
535.830537	12544.462683
536.191270	12583.655134
536.551947	12509.656037
536.912567	12576.221953
537.273131	12601.788164
537.633638	12480.860966
537.994089	12536.913556
538.354483	12451.584465
538.714821	12580.015421
539.075103	12663.713698
539.435328	12596.779778
539.795497	12574.926376
540.155609	12574.482755
540.515665	12682.615505
540.875665	12544.112323
541.235609	12638.959112
541.595496	12605.274122
541.955328	12763.160540
542.315102	12610.532046
542.674821	12554.517265
543.034483	12567.924213
543.394090	12562.792319
543.753640	12545.871686
544.113134	12782.127882
544.472571	12549.292109
544.831953	12823.687154
545.191278	12647.952531
545.550548	12583.294692
545.909761	12699.546220
546.268918	12734.063000
546.628019	12800.986838
546.987064	12687.807893
547.346053	12543.676263
547.704986	12728.119480
548.063863	12616.790638
548.422684	12674.317765
548.781449	12625.663069
549.140158	12721.230743
549.498811	12670.158813
549.857408	12536.845500
550.215949	12744.994742
550.574434	12711.075339
550.932864	12649.573262
551.291237	12849.437368
551.649555	12738.451325
552.007817	12799.217393
552.366022	12723.776526
552.724173	12766.805294
553.082267	12852.759488
553.440305	12944.473200
553.798288	12769.209925
554.156215	12844.146677
554.514086	12891.611661
554.871902	12830.611179
555.229661	12854.269314
555.587365	12802.521869
555.945014	12816.838746
556.302606	12798.148668
556.660143	12857.578831
557.017625	12891.962021
557.375050	12847.456194
557.732421	12964.927682
558.089735	12952.831433
558.446994	12916.910691
558.804197	13043.131101
559.161345	13038.273950
559.518437	12846.778159
559.875474	12948.518726
560.232455	12972.416316
560.589381	13024.796425
560.946251	12961.920633
561.303065	13135.790030
561.659825	13092.773864
562.016528	12997.039832
562.373177	12929.208586
562.729770	13064.417373
563.086307	12942.451697
563.442789	13059.424111
563.799216	13093.429214
564.155587	13036.844782
564.511904	13051.806927
564.868164	13074.318200
565.224370	13128.429945
565.580520	13070.060945
565.936615	13142.850166
566.292654	13078.015886
566.648638	13150.984067
567.004567	13141.602480
567.360441	13149.683450
567.716260	13114.108027
568.072023	13203.407026
568.427732	13186.277185
568.783385	13082.789859
569.138982	13197.821428
569.494525	13200.057179
569.850013	13143.107264
570.205445	13143.634065
570.560823	13145.469045
570.916145	13101.013630
571.271412	13113.767749
571.626625	13067.190008
571.981782	13064.651787
572.336884	13005.687931
572.691931	13086.588368
573.046923	12988.726969
573.401860	12973.031337
573.756743	12966.379534
574.111570	12997.100326
574.466342	12970.785502
574.821059	13025.124100
575.175722	12900.113567
575.530330	12909.815267
575.884882	12851.020290
576.239380	12851.665558
576.593823	12831.332064
576.948211	12824.624808
577.302544	12706.724823
577.656823	12722.445661
578.011047	12780.353395
578.365216	12724.933471
578.719330	12663.035663
579.073389	12634.843010
579.427394	12639.765697
579.781344	12628.634829
580.135239	12559.019015
580.489080	12571.150552
580.842866	12460.003192
581.196597	12552.271431
581.550273	12543.472097
581.903895	12511.503620
582.257463	12619.240639
582.610975	12467.368318
582.964434	12531.113708
583.317837	12453.885752
583.671186	12409.120306
584.024481	12465.530817
584.377721	12359.041483
584.730906	12423.333839
585.084037	12444.312601
585.437113	12357.045186
585.790135	12387.027449
586.143103	12295.212914
586.496016	12306.011065
586.848874	12311.352168
587.201679	12313.227477
587.554428	12195.619878
587.907124	12239.165365
588.259765	12183.556397
588.612352	12241.585119
588.964884	12111.641817
589.317362	12157.758293
589.669786	12160.059579
590.022155	12107.462701
590.374470	12205.528266
590.726731	12090.078282
591.078937	11976.738020
591.431090	12005.394459
591.783188	11937.863162
592.135232	11861.275432
592.487222	11924.045359
592.839157	11931.523911
593.191038	11871.151052
593.542866	11817.825727
593.894639	11673.338696
594.246358	11737.890671
594.598022	11742.468039
594.949633	11650.063689
595.301190	11642.116310
595.652692	11591.964391
596.004141	11682.100221
596.355535	11466.195164
596.706876	11437.765577
597.058162	11412.816906
597.409395	11503.272850
597.760573	11525.348063
598.111698	11430.418095
598.462768	11419.604820
598.813785	11428.288207
599.164748	11306.385546
599.515657	11376.046730
599.866511	11254.925447
600.217312	11388.878987
600.568060	11156.096147
600.918753	11316.019191
601.269392	11314.549694
601.619978	11212.904909
601.970510	11261.652867
602.320988	11301.780452
602.671412	11367.847293
603.021783	11288.159254
603.372100	11218.367000
603.722363	11240.699311
604.072572	11247.393963
604.422728	11253.377813
604.772830	11193.670387
605.122878	11199.140039
605.472872	11176.079281
605.822813	11231.804195
606.172701	11193.020078
606.522534	11234.344937
606.872314	11282.308995
607.222041	11214.225692
607.571714	11290.725201
607.921333	11153.003399
608.270899	11211.611853
608.620411	11273.512182
608.969870	11214.472708
609.319276	11201.378311
609.668627	11219.881866
610.017926	11296.938423
610.367171	11329.461428
610.716362	11327.936478
611.065500	11294.143104
611.414585	11310.998202
611.763616	11371.605474
612.112594	11339.092552
612.461518	11366.082890
612.810389	11412.365723
613.159207	11357.339008
613.507971	11351.924809
613.856682	11454.983638
614.205340	11413.126937
614.553945	11554.206148
614.902496	11423.342836
615.250994	11478.626649
615.599439	11469.245062
615.947830	11508.739982
616.296169	11472.786473
616.644454	11487.209214
616.992686	11500.898467
617.340864	11595.654515
617.688990	11484.880201
618.037063	11616.136723
618.385082	11595.936820
618.733048	11624.802467
619.080961	11620.940943
619.428821	11605.026020
619.776628	11612.159253
620.124382	11551.930067
620.472083	11572.727348
620.819731	11592.579411
621.167326	11527.987107
621.514868	11508.576144
621.862357	11408.355485
622.209793	11391.545758
622.557176	11315.991464
622.904506	11251.033677
623.251783	11174.335041
623.599007	11119.545261
623.946179	11069.947869
624.293297	11042.352592
624.640363	10905.671788
624.987376	10893.394058
625.334336	10824.189098
625.681243	10743.739844
626.028097	10721.808305
626.374899	10688.244302
626.721647	10652.860443
627.068343	10617.698395
627.414987	10550.081399
627.761577	10484.427932
628.108115	10526.902173
628.454600	10409.171067
628.801032	10425.380897
629.147412	10400.588502
629.493739	10382.589062
629.840014	10296.816350
630.186236	10350.595379
630.532405	10241.807279
630.878521	10276.016549
631.224585	10233.801927
631.570597	10165.852214
631.916556	10165.854735
632.262462	10152.830914
632.608316	10126.112799
632.954117	10102.086659
633.299866	10094.920659
633.645562	10069.094828
633.991206	9967.354261
634.336797	9869.830619
634.682336	9858.903918
635.027823	9808.043717
635.373257	9760.644268
635.718639	9694.542138
636.063968	9676.893059
636.409245	9555.562568
636.754470	9543.799036
637.099642	9489.568823
637.444762	9394.719513
637.789829	9402.533302
638.134845	9325.819543
638.479808	9298.791397
