Dividing Wavelength (nm)	Counts (n)	Blue Motor Position (mm): 0.000000	Red Motor Position (mm): 2.000000	
326.493990	2150.440284
326.888308	2150.440284
327.282561	2150.440284
327.676750	2123.530605
328.070874	2125.229474
328.464933	2129.547222
328.858929	2140.703296
329.252859	2152.242497
329.646726	2168.500218
330.040528	2180.994718
330.434265	2199.180680
330.827938	2218.916798
331.221547	2239.088975
331.615091	2258.300812
332.008571	2278.483071
332.401986	2301.412760
332.795338	2318.746767
333.188625	2338.397185
333.581847	2358.463498
333.975006	2377.138452
334.368100	2396.309960
334.761129	2410.984759
335.154095	2430.241967
335.546996	2447.213011
335.939833	2459.367233
336.332606	2471.133286
336.725315	2481.790285
337.117960	2489.931749
337.510540	2501.443224
337.903056	2509.015037
338.295508	2518.096675
338.687896	2522.979033
339.080220	2530.724766
339.472480	2536.254912
339.864676	2540.912938
340.256807	2543.390665
340.648875	2547.486602
341.040879	2545.313865
341.432818	2547.862168
341.824694	2548.948537
342.216506	2548.288146
342.608253	2550.677653
342.999937	2548.751932
343.391557	2548.129349
343.783113	2549.251006
344.174605	2545.331509
344.566033	2544.872764
344.957397	2540.461754
345.348697	2541.780016
345.739934	2541.119625
346.131106	2537.472350
346.522215	2534.911444
346.913260	2532.101001
347.304241	2530.623943
347.695159	2532.753830
348.086012	2528.632687
348.476802	2527.637059
348.867528	2528.110927
349.258191	2524.448529
349.648789	2523.067253
350.039324	2522.043899
350.429796	2521.605318
350.820203	2520.536594
351.210548	2517.438805
351.600828	2517.179185
351.991045	2519.445184
352.381198	2518.343692
352.771288	2518.678929
353.161314	2517.451408
353.551276	2520.796213
353.941175	2519.112468
354.331010	2517.988291
354.720782	2518.338651
355.110490	2516.833866
355.500135	2515.888650
355.889717	2522.041378
356.279235	2517.360667
356.668689	2520.188754
357.058080	2520.529032
357.447408	2517.305214
357.836672	2518.676408
358.225873	2516.138187
358.615010	2517.312776
359.004084	2522.658920
359.393095	2523.677233
359.782043	2524.340144
360.170927	2524.231760
360.559748	2524.385515
360.948505	2525.141688
361.337199	2524.501461
361.725830	2521.083559
362.114398	2526.502799
362.502903	2524.267048
362.891344	2527.143026
363.279722	2528.247039
363.668037	2526.369209
364.056289	2525.262676
364.444478	2525.741585
364.832603	2528.247039
365.220665	2527.972296
365.608665	2530.185362
365.996601	2530.160157
366.384474	2530.094622
366.772284	2530.634025
367.160031	2529.043541
367.547715	2528.597399
367.935336	2527.243849
368.322893	2532.574869
368.710388	2532.121165
369.097820	2535.844057
369.485189	2534.278779
369.872495	2532.022863
370.259738	2532.998326
370.646918	2531.153264
371.034035	2532.577390
371.421090	2535.806249
371.808081	2533.073943
372.195010	2534.863553
372.581875	2532.675692
372.968678	2537.691640
373.355418	2535.465971
373.742096	2537.598379
374.128710	2534.669469
374.515262	2535.360107
374.901751	2537.152237
375.288177	2537.616023
375.674540	2536.065868
376.060841	2538.452855
376.447079	2538.525951
376.833254	2540.058462
377.219367	2533.472195
377.605417	2537.610982
377.991404	2533.845240
378.377329	2535.929757
378.763191	2534.992102
379.148991	2541.124666
379.534727	2540.197094
379.920402	2541.346477
380.306013	2542.516025
380.691563	2543.945192
381.077049	2541.538041
381.462474	2544.315717
381.847835	2542.911755
382.233134	2545.361756
382.618371	2546.072559
383.003545	2546.700182
383.388657	2546.793444
383.773706	2543.849410
384.158693	2548.792261
384.543618	2547.587425
384.928480	2547.988197
385.313280	2547.970553
385.698017	2548.061294
386.082692	2547.715975
386.467305	2545.760007
386.851856	2549.974412
387.236344	2549.213197
387.620770	2548.026006
388.005133	2551.859803
388.389435	2552.928528
388.773674	2551.534649
389.157851	2548.381407
389.541965	2549.921480
389.926018	2549.750080
390.310008	2547.032898
390.693936	2550.907025
391.077802	2550.347457
391.461606	2553.735112
391.845348	2550.002138
392.229027	2549.765204
392.612645	2550.697817
392.996200	2551.305276
393.379694	2549.966850
393.763125	2552.956254
394.146494	2549.825698
394.529801	2551.852242
394.913047	2553.185627
395.296230	2548.083979
395.679351	2551.237221
396.062410	2547.509287
396.445408	2549.669422
396.828343	2549.603887
397.211217	2545.061807
397.594028	2545.833104
397.976778	2547.796633
398.359466	2544.109029
398.742092	2542.705068
399.124656	2550.236552
399.507158	2548.567930
399.889598	2548.593136
400.271977	2547.287477
400.654294	2548.215049
401.036549	2550.060111
401.418742	2549.288815
401.800874	2548.308310
402.182944	2551.872406
402.564952	2547.408464
402.946898	2550.415513
403.328783	2547.892415
403.710606	2550.165976
404.092367	2549.548434
404.474067	2551.212015
404.855705	2552.237890
405.237282	2550.102961
405.618797	2549.082127
406.000250	2549.427447
406.381642	2551.133877
406.762972	2554.851728
407.144240	2551.012889
407.525447	2552.926007
407.906593	2550.649926
408.287677	2552.789896
408.668700	2553.309135
409.049661	2552.043805
409.430560	2551.237221
409.811399	2552.719320
410.192176	2552.167314
410.572891	2554.067829
410.953545	2554.362736
411.334138	2553.409958
411.714669	2551.602704
412.095139	2554.992880
412.475547	2553.586398
412.855894	2553.044474
413.236180	2554.266954
413.616405	2554.594629
413.996568	2554.032541
414.376670	2553.099927
414.756711	2555.902809
415.136691	2554.667726
415.516609	2555.025648
415.896466	2553.871224
416.276262	2556.522871
416.655997	2552.005997
417.035670	2549.795451
417.415283	2555.156718
417.794834	2550.576830
418.174324	2552.976419
418.553753	2557.153015
418.933121	2555.055895
419.312428	2554.156049
419.691674	2557.137891
420.070859	2556.777449
420.449983	2556.969013
420.829045	2555.955741
421.208047	2555.053374
421.586988	2557.523540
421.965867	2555.633107
422.344686	2557.130330
422.723444	2556.578323
423.102141	2556.895916
423.480777	2558.748540
423.859352	2558.627552
424.237866	2559.030845
424.616319	2556.454815
424.994712	2557.896585
425.373044	2559.013201
425.751314	2559.277861
426.129524	2557.016904
426.507673	2560.003787
426.885762	2559.096380
427.263789	2559.416493
427.641756	2558.405742
428.019662	2559.161915
428.397508	2556.870710
428.775292	2559.514795
429.153016	2559.391287
429.530679	2563.396484
429.908282	2556.742161
430.285824	2559.696277
430.663305	2557.357182
431.040726	2559.431616
431.418086	2559.098900
431.795385	2562.393294
432.172624	2560.787687
432.549802	2559.466904
432.926920	2558.370453
433.303977	2561.657286
433.680974	2562.053016
434.057910	2562.811710
434.434786	2560.424724
434.811601	2561.881617
435.188355	2562.494117
435.565050	2560.477656
435.941683	2561.954714
436.318257	2559.550083
436.694770	2559.545042
437.071222	2560.684343
437.447614	2559.078736
437.823946	2561.866494
438.200218	2561.032183
438.576429	2563.010836
438.952580	2561.208623
439.328670	2564.266083
439.704700	2562.557132
440.080670	2563.446895
440.456580	2562.579817
440.832429	2562.478994
441.208218	2559.051009
441.583947	2563.651062
441.959616	2564.450085
442.335224	2562.635270
442.710773	2562.103428
443.086261	2564.797925
443.461689	2563.577965
443.837057	2564.603840
444.212365	2562.763819
444.587612	2562.433623
444.962800	2564.162739
445.337927	2565.604509
445.712995	2562.945301
446.088002	2563.943449
446.462949	2564.409756
446.837837	2565.513768
447.212664	2564.447564
447.587431	2566.272462
447.962139	2562.529405
448.336786	2564.833213
448.711374	2565.092832
449.085901	2563.923284
449.460369	2564.676937
449.834776	2565.072668
450.209124	2563.134344
450.583412	2567.131979
450.957640	2568.704819
451.331808	2566.219530
451.705917	2565.367575
452.079965	2566.143913
452.453954	2567.734397
452.827883	2566.476629
453.201752	2565.274314
453.575562	2566.862277
453.949311	2564.886145
454.323001	2563.489745
454.696632	2564.918912
455.070202	2564.714746
455.443713	2567.096691
455.817164	2564.170301
456.190556	2562.443706
456.563888	2561.483366
456.937160	2561.823644
457.310373	2565.818758
457.683526	2564.460167
458.056619	2567.061403
458.429653	2568.152812
458.802628	2565.856567
459.175542	2568.384706
459.548398	2567.237843
459.921194	2567.489901
460.293930	2567.358831
460.666607	2564.760116
461.039224	2569.138358
461.411782	2565.728018
461.784280	2569.491239
462.156719	2567.331104
462.529099	2566.854715
462.901419	2567.663821
463.273680	2570.428893
463.645882	2568.142730
464.018024	2567.184911
464.390106	2567.290775
464.762130	2569.145920
465.134094	2568.697257
465.505999	2570.184398
465.877845	2567.830179
466.249631	2569.254305
466.621358	2568.609037
466.993026	2572.309244
467.364634	2575.033987
467.736184	2568.858574
468.107674	2569.697926
468.479105	2565.042421
468.850477	2567.830179
469.221790	2569.244222
469.593043	2566.887483
469.964238	2569.796229
470.335373	2566.837071
470.706449	2567.749520
471.077467	2567.194993
471.448425	2570.779254
471.819324	2569.604665
472.190164	2570.953173
472.560945	2570.496949
472.931667	2568.936712
473.302330	2569.173646
473.672934	2572.178174
474.043479	2570.121383
474.413965	2570.764130
474.784393	2564.659293
475.154761	2565.818758
475.525070	2565.309602
475.895321	2567.421845
476.265513	2564.142575
476.635645	2569.944943
477.005719	2570.040725
477.375734	2570.741445
477.745691	2570.292782
478.115588	2571.235478
478.485427	2568.908986
478.855207	2571.351425
479.224928	2571.134655
479.594591	2572.067268
479.964194	2569.617268
480.333739	2570.421332
480.703226	2567.121897
481.072653	2570.819583
481.442022	2570.731363
481.811333	2571.469892
482.180584	2572.541137
482.549777	2568.208265
482.918912	2572.079871
483.287988	2572.770509
483.657005	2570.524675
484.025964	2571.149778
484.394864	2571.515262
484.763706	2572.563822
485.132489	2567.411763
485.501213	2568.256156
485.869879	2572.994841
486.238487	2569.380333
486.607036	2569.418142
486.975527	2571.744635
487.343959	2573.851837
487.712333	2570.537278
488.080648	2571.981569
488.448905	2572.851168
488.817104	2568.785477
489.185244	2571.913513
489.553326	2571.873184
489.921350	2573.052814
490.289315	2571.364027
490.657222	2570.985941
491.025070	2571.674058
491.392861	2571.177505
491.760593	2572.704974
492.128267	2572.694892
492.495883	2572.324367
492.863440	2575.916189
493.230939	2574.731518
493.598380	2571.212793
493.965763	2569.584500
494.333088	2570.270097
494.700354	2571.469892
495.067563	2569.566856
495.434713	2565.745662
495.801805	2574.290417
496.168839	2571.275807
496.535815	2573.889646
496.902733	2573.753534
497.269593	2573.199007
497.636395	2573.110787
498.003139	2571.560633
498.369825	2574.103895
498.736453	2569.571897
499.103023	2574.318144
499.469535	2573.776220
499.835989	2570.761610
500.202385	2574.176991
500.568723	2573.002402
500.935003	2572.268915
501.301226	2573.635067
501.667390	2573.400654
502.033497	2572.455437
502.399546	2573.932495
502.765537	2570.620457
503.131470	2574.035839
503.497345	2569.816393
503.863163	2573.239337
504.228923	2573.448545
504.594625	2572.518452
504.960269	2573.501477
505.325856	2574.534913
505.691385	2573.783781
506.056856	2571.764799
506.422270	2573.693041
506.787625	2571.497618
507.152924	2576.261508
507.518164	2574.653380
507.883347	2571.351425
508.248472	2573.655232
508.613540	2572.064748
508.978550	2574.698751
509.343503	2573.078020
509.708398	2575.273442
510.073236	2577.733525
510.438016	2574.895356
510.802738	2572.236147
511.167403	2574.262691
511.532010	2570.990982
511.896561	2574.131621
512.261053	2576.556416
512.625488	2569.632391
512.989866	2569.007288
513.354186	2571.187587
513.718449	2569.329922
514.082655	2569.463513
514.446803	2572.374779
514.810894	2574.005592
515.174927	2577.269739
515.538904	2571.832855
515.902822	2574.129100
516.266684	2575.308730
516.630488	2573.582135
516.994235	2574.940726
517.357925	2573.370407
517.721558	2573.002402
518.085133	2570.635581
518.448651	2573.657753
518.812112	2573.909810
519.175516	2576.626992
519.538863	2573.975345
519.902152	2574.209759
520.265385	2574.078689
520.628560	2576.667321
520.991678	2575.916189
521.354739	2579.210583
521.717743	2575.933833
522.080690	2572.785633
522.443580	2574.393761
522.806413	2575.311251
523.169189	2574.650860
523.531908	2575.296127
523.894569	2575.588514
524.257174	2572.702454
524.619722	2572.888977
524.982213	2574.608010
525.344647	2575.558267
525.707025	2577.975501
526.069345	2572.188256
526.431608	2575.943916
526.793815	2574.965932
527.155964	2575.306210
527.518057	2574.043401
527.880093	2575.281004
528.242072	2574.328226
528.603995	2574.789492
528.965860	2573.919893
529.327669	2573.045252
529.689421	2574.938206
530.051117	2576.533731
530.412755	2575.522979
530.774337	2576.758062
531.135862	2573.473750
531.497331	2571.159861
531.858743	2571.447207
532.220098	2570.910324
532.581396	2569.206414
532.942638	2571.762279
533.303824	2574.076168
533.664953	2575.354101
534.026025	2575.555747
534.387040	2574.696230
534.747999	2574.900397
535.108902	2575.956519
535.469748	2576.745459
535.830537	2577.816704
536.191270	2574.814697
536.551947	2577.244533
536.912567	2577.189081
537.273131	2575.054152
537.633638	2574.479461
537.994089	2573.723287
538.354483	2578.698906
538.714821	2575.807805
539.075103	2573.584656
539.435328	2575.039029
539.795497	2573.123390
540.155609	2578.275449
540.515665	2573.990469
540.875665	2577.957857
541.235609	2575.807805
541.595496	2576.732856
541.955328	2574.524831
542.315102	2574.734039
542.674821	2575.349060
543.034483	2578.320820
543.394090	2575.704461
543.753640	2577.569688
544.113134	2576.465675
544.472571	2577.839390
544.831953	2575.578432
545.191278	2573.990469
545.550548	2574.171950
545.909761	2577.494071
546.268918	2572.077351
546.628019	2576.929461
546.987064	2576.052301
547.346053	2576.503484
547.704986	2576.294276
548.063863	2575.033988
548.422684	2576.039698
548.781449	2573.872002
549.140158	2577.035326
549.498811	2576.427867
549.857408	2574.179512
550.215949	2573.700602
550.574434	2571.742114
550.932864	2575.107084
551.291237	2571.868143
551.649555	2576.218659
552.007817	2574.970973
552.366022	2577.206725
552.724173	2575.636405
553.082267	2575.238154
553.440305	2575.724626
553.798288	2576.558937
554.156215	2576.722774
554.514086	2577.098340
554.871902	2575.989286
555.229661	2578.882908
555.587365	2576.684965
555.945014	2574.446693
556.302606	2575.873340
556.660143	2574.469378
557.017625	2575.112125
557.375050	2576.316961
557.732421	2576.256467
558.089735	2577.403330
558.446994	2574.106415
558.804197	2576.750500
559.161345	2574.398802
559.518437	2575.928792
559.875474	2577.345357
560.232455	2577.234451
560.589381	2575.336457
560.946251	2578.782085
561.303065	2577.814184
561.659825	2575.827969
562.016528	2575.281004
562.373177	2576.490881
562.729770	2577.012640
563.086307	2577.610017
563.442789	2575.414595
563.799216	2579.291242
564.155587	2575.893504
564.511904	2575.195304
564.868164	2572.702454
565.224370	2578.288052
565.580520	2576.712692
565.936615	2576.223700
566.292654	2576.500963
566.648638	2575.827969
567.004567	2576.422825
567.360441	2574.131621
567.716260	2576.069945
568.072023	2577.846951
568.427732	2572.745304
568.783385	2571.679100
569.138982	2572.006775
569.494525	2574.691189
569.850013	2573.889646
570.205445	2578.093968
570.560823	2575.767475
570.916145	2578.005748
571.271412	2573.798905
571.626625	2574.416446
571.981782	2575.165058
572.336884	2576.722774
572.691931	2576.231262
573.046923	2575.409553
573.401860	2575.253278
573.756743	2577.262177
574.111570	2576.374934
574.466342	2572.377299
574.821059	2573.970304
575.175722	2577.547003
575.530330	2575.041549
575.884882	2575.754872
576.239380	2578.227558
576.593823	2576.503484
576.948211	2575.830490
577.302544	2573.403174
577.656823	2575.114646
578.011047	2578.890470
578.365216	2576.989955
578.719330	2578.068762
579.073389	2575.459965
579.427394	2573.251940
579.781344	2575.956519
580.135239	2578.338464
580.489080	2577.980542
580.842866	2575.210428
581.196597	2576.208576
581.550273	2576.198494
581.903895	2575.442321
582.257463	2576.561457
582.610975	2574.391240
582.964434	2578.406519
583.317837	2574.902917
583.671186	2577.058011
584.024481	2575.470047
584.377721	2575.485171
584.730906	2573.882084
585.084037	2577.395768
585.437113	2577.942733
585.790135	2576.770665
586.143103	2576.112794
586.496016	2576.543813
586.848874	2573.123390
587.201679	2572.992320
587.554428	2572.727660
587.907124	2575.994327
588.259765	2574.436611
588.612352	2576.377455
588.964884	2574.378638
589.317362	2577.302507
589.669786	2576.206056
590.022155	2575.459965
590.374470	2576.001889
590.726731	2577.219328
591.078937	2576.513566
591.431090	2579.200501
591.783188	2576.450552
592.135232	2577.110943
592.487222	2577.042887
592.839157	2577.582291
593.191038	2576.319482
593.542866	2580.541448
593.894639	2575.361663
594.246358	2576.727815
594.598022	2577.610017
594.949633	2577.315110
595.301190	2576.100192
595.652692	2576.410223
596.004141	2574.827300
596.355535	2576.059862
596.706876	2574.529872
597.058162	2575.538103
597.409395	2576.387537
597.760573	2577.983062
598.111698	2575.601117
598.462768	2578.257805
598.813785	2576.291755
599.164748	2577.736046
599.515657	2576.924420
599.866511	2576.954667
600.217312	2577.758731
600.568060	2578.159503
600.918753	2576.286714
601.269392	2576.216138
601.619978	2577.368042
601.970510	2577.804102
602.320988	2577.105902
602.671412	2578.582960
603.021783	2575.099522
603.372100	2578.136818
603.722363	2578.537589
604.072572	2575.797722
604.422728	2577.809143
604.772830	2571.442165
605.122878	2574.325705
605.472872	2573.549368
605.822813	2573.607341
606.172701	2571.689182
606.522534	2576.581622
606.872314	2576.712692
607.222041	2576.959708
607.571714	2574.837382
607.921333	2577.141190
608.270899	2573.347722
608.620411	2576.289235
608.969870	2578.030953
609.319276	2574.905438
609.668627	2576.074986
610.017926	2576.747980
610.367171	2576.069945
610.716362	2580.901891
611.065500	2576.264029
611.414585	2576.942064
611.763616	2575.366704
612.112594	2574.224882
612.461518	2576.359811
612.810389	2574.280335
613.159207	2577.123546
613.507971	2579.283680
613.856682	2576.785788
614.205340	2576.541292
614.553945	2574.396282
614.902496	2576.253947
615.250994	2573.730849
615.599439	2578.232600
615.947830	2577.080696
616.296169	2577.123546
616.644454	2578.547672
616.992686	2575.853175
617.340864	2576.042218
617.688990	2576.944585
618.037063	2575.424677
618.385082	2574.459296
618.733048	2577.264698
619.080961	2574.401323
619.428821	2579.210583
619.776628	2572.125242
620.124382	2577.509194
620.472083	2576.405181
620.819731	2576.654718
621.167326	2575.026426
621.514868	2576.276632
621.862357	2574.827300
622.209793	2576.374934
622.557176	2578.381314
622.904506	2572.997361
623.251783	2574.189594
623.599007	2571.704305
623.946179	2577.678073
624.293297	2568.425035
624.640363	2575.961560
624.987376	2576.213617
625.334336	2575.238154
625.681243	2575.686817
626.028097	2573.549368
626.374899	2578.456931
626.721647	2575.853175
627.068343	2576.546334
627.414987	2577.594894
627.761577	2576.450552
628.108115	2574.923082
628.454600	2576.823597
628.801032	2573.980386
629.147412	2576.374934
629.493739	2576.924420
629.840014	2575.170099
630.186236	2576.677404
630.532405	2575.691858
630.878521	2577.352918
631.224585	2578.512384
631.570597	2575.603638
631.916556	2577.544482
632.262462	2576.667321
632.608316	2575.704461
632.954117	2577.413412
633.299866	2576.269070
633.645562	2577.267219
633.991206	2577.741087
634.336797	2575.873340
634.682336	2576.294276
635.027823	2575.928792
635.373257	2575.714543
635.718639	2575.898545
636.063968	2574.265212
636.409245	2573.594738
636.754470	2574.406364
637.099642	2575.535582
637.444762	2578.651015
637.789829	2575.449883
638.134845	2575.689338
638.479808	2576.488360
638.824719	2576.755542
639.169577	2574.086251
639.514383	2575.475088
639.859137	2575.565829
640.203839	2577.395768
640.548489	2575.601117
640.893086	2575.333936
641.237632	2573.801425
641.582125	2573.745973
641.926566	2568.752710
642.270955	2574.870150
642.615292	2575.936354
642.959576	2574.948288
643.303809	2575.860737
643.647990	2575.475088
643.992118	2577.136149
644.336195	2576.488360
