Dividing Wavelength (nm)	Counts (n)	Blue Motor Position (mm): 0.000000	Red Motor Position (mm): 35.000000	
326.493990	2139.684983
326.888308	2139.684983
327.282561	2139.684983
327.676750	2116.548607
328.070874	2117.395521
328.464933	2125.103445
328.858929	2132.148458
329.252859	2144.106074
329.646726	2158.720379
330.040528	2172.117246
330.434265	2189.751202
330.827938	2210.944213
331.221547	2230.796277
331.615091	2248.556262
332.008571	2270.392019
332.401986	2289.150153
332.795338	2309.208904
333.188625	2330.076760
333.581847	2350.329596
333.975006	2368.404653
334.368100	2386.726727
334.761129	2402.329098
335.154095	2423.272572
335.546996	2437.450817
335.939833	2458.384208
336.332606	2473.631178
336.725315	2480.298104
337.117960	2491.663385
337.510540	2498.322749
337.903056	2506.575118
338.295508	2515.629031
338.687896	2520.498785
339.080220	2529.562780
339.472480	2538.697351
339.864676	2540.005530
340.256807	2540.403781
340.648875	2544.010727
341.040879	2547.549617
341.432818	2547.156407
341.824694	2548.527601
342.216506	2547.491643
342.608253	2547.045501
342.999937	2547.337888
343.391557	2547.083310
343.783113	2544.073741
344.174605	2547.461397
344.566033	2541.142310
344.957397	2541.671631
345.348697	2538.561239
345.739934	2537.477391
346.131106	2537.842875
346.522215	2535.037473
346.913260	2533.860363
347.304241	2533.532688
347.695159	2527.695032
348.086012	2525.945752
348.476802	2526.512882
348.867528	2525.812161
349.258191	2524.110772
349.648789	2525.963396
350.039324	2520.403003
350.429796	2518.948630
350.820203	2520.307221
351.210548	2518.530215
351.600828	2519.971985
351.991045	2518.086593
352.381198	2520.418127
352.771288	2518.633558
353.161314	2514.832528
353.551276	2516.818743
353.941175	2516.430574
354.331010	2516.831346
354.720782	2516.990142
355.110490	2518.202540
355.500135	2517.857221
355.889717	2517.038033
356.279235	2519.535925
356.668689	2517.930317
357.058080	2518.275636
357.447408	2516.768331
357.836672	2517.022910
358.225873	2519.654392
358.615010	2517.703465
359.004084	2521.408713
359.393095	2521.549866
359.782043	2524.259486
360.170927	2521.544825
360.559748	2523.755371
360.948505	2522.555576
361.337199	2525.247552
361.725830	2525.938190
362.114398	2526.031452
362.502903	2528.869621
362.891344	2527.359796
363.279722	2528.471370
363.668037	2526.457429
364.056289	2528.761236
364.444478	2528.589837
364.832603	2528.655372
365.220665	2528.337779
365.608665	2528.166380
365.996601	2530.407173
366.384474	2530.230733
366.772284	2528.680578
367.160031	2530.954138
367.547715	2533.446989
367.935336	2531.536392
368.322893	2529.104035
368.710388	2530.412214
369.097820	2533.000847
369.485189	2530.049251
369.872495	2537.164840
370.259738	2532.524458
370.646918	2533.348686
371.034035	2533.943543
371.421090	2533.260466
371.808081	2534.803059
372.195010	2537.134593
372.581875	2534.031763
372.968678	2537.336239
373.355418	2538.231044
373.742096	2538.407484
374.128710	2540.423946
374.515262	2540.663401
374.901751	2543.688093
375.288177	2543.156251
375.674540	2543.007537
376.060841	2543.100798
376.447079	2545.694472
376.833254	2549.366953
377.219367	2546.553989
377.605417	2549.399720
377.991404	2555.363405
378.377329	2556.417006
378.763191	2558.579661
379.148991	2563.111659
379.534727	2568.316650
379.920402	2572.258832
380.306013	2574.933164
380.691563	2580.662436
381.077049	2581.519432
381.462474	2590.545618
381.847835	2593.872779
382.233134	2598.548450
382.618371	2603.390478
383.003545	2609.666714
383.388657	2615.544700
383.773706	2624.016359
384.158693	2628.392080
384.543618	2635.457257
384.928480	2641.466313
385.313280	2652.163641
385.698017	2660.257214
386.082692	2666.825837
386.467305	2670.805828
386.851856	2677.802950
387.236344	2689.193437
387.620770	2695.515044
388.005133	2707.429811
388.389435	2717.864999
388.773674	2723.962275
389.157851	2732.275138
389.541965	2743.703433
389.926018	2747.272570
390.310008	2757.090217
390.693936	2768.067330
391.077802	2776.687703
391.461606	2784.204063
391.845348	2793.704118
392.229027	2804.023360
392.612645	2819.918118
392.996200	2828.319201
393.379694	2838.519976
393.763125	2858.251052
394.146494	2863.529140
394.529801	2875.078423
394.913047	2893.652555
395.296230	2895.500138
395.679351	2897.498955
396.062410	2922.193047
396.445408	2913.766758
396.828343	2926.856114
397.211217	2934.238884
397.594028	2930.536157
397.976778	2941.339349
398.359466	2957.927266
398.742092	2950.514249
399.124656	2968.972434
399.507158	2981.812253
399.889598	2986.850886
400.271977	3001.949142
400.654294	3006.143382
401.036549	3020.727440
401.418742	3029.201620
401.800874	3046.863302
402.182944	3054.374622
402.564952	3083.872933
402.946898	3076.999320
403.328783	3082.290011
403.710606	3100.455809
404.092367	3122.861217
404.474067	3147.588077
404.855705	3138.342601
405.237282	3140.016264
405.618797	3173.111439
406.000250	3192.217412
406.381642	3224.538770
406.762972	3226.837536
407.144240	3215.883108
407.525447	3241.862695
407.906593	3241.063672
408.287677	3258.480858
408.668700	3281.788633
409.049661	3278.365690
409.430560	3295.482928
409.811399	3297.887558
410.192176	3319.314983
410.572891	3327.527022
410.953545	3366.734596
411.334138	3334.198989
411.714669	3387.400806
412.095139	3333.062209
412.475547	3383.156155
412.855894	3375.763303
413.236180	3405.221285
413.616405	3383.808984
413.996568	3409.624733
414.376670	3410.098602
414.756711	3403.744227
415.136691	3433.683640
415.516609	3453.868420
415.896466	3460.109368
416.276262	3489.784120
416.655997	3515.010054
417.035670	3525.167979
417.415283	3590.070314
417.794834	3610.071092
418.174324	3596.240687
418.553753	3596.192796
418.933121	3639.539157
419.312428	3632.267293
419.691674	3626.104482
420.070859	3662.736027
420.449983	3643.067965
420.829045	3690.943803
421.208047	3680.034746
421.586988	3719.035633
421.965867	3754.916045
422.344686	3762.071963
422.723444	3799.757109
423.102141	3704.444013
423.480777	3804.349600
423.859352	3772.776853
424.237866	3874.484653
424.616319	3856.228114
424.994712	3917.755397
425.373044	3908.293151
425.751314	3973.243377
426.129524	3907.055548
426.507673	4007.245960
426.885762	3982.196466
427.263789	4004.927029
427.641756	4010.658821
428.019662	4037.714694
428.397508	4042.750806
428.775292	4081.643308
429.153016	4085.310748
429.530679	4098.072429
429.908282	4106.707925
430.285824	4086.918876
430.663305	4155.617200
431.040726	4118.403402
431.418086	4106.528964
431.795385	4180.696940
432.172624	4214.757496
432.549802	4182.678114
432.926920	4199.628993
433.303977	4194.618087
433.680974	4236.527719
434.057910	4256.795678
434.434786	4264.208695
434.811601	4258.817181
435.188355	4364.323490
435.565050	4334.522709
435.941683	4328.571627
436.318257	4421.999331
436.694770	4425.311369
437.071222	4479.629802
437.447614	4418.110081
437.823946	4420.063528
438.200218	4436.452319
438.576429	4416.514555
438.952580	4444.992033
439.328670	4451.646357
439.704700	4489.843179
440.080670	4455.633909
440.456580	4518.297972
440.832429	4553.142427
441.208218	4453.529227
441.583947	4507.850181
441.959616	4522.434239
442.335224	4546.858629
442.710773	4571.421651
443.086261	4625.089775
443.461689	4577.271910
443.837057	4585.292386
444.212365	4661.746525
444.587612	4664.176362
444.962800	4635.111589
445.337927	4674.520809
445.712995	4563.113830
446.088002	4755.491822
446.462949	4776.780615
446.837837	4792.168737
447.212664	4779.916213
447.587431	5002.936859
447.962139	5304.957427
448.336786	5637.648375
448.711374	5626.414164
449.085901	5276.169918
449.460369	5210.241708
449.834776	5142.952386
450.209124	5380.204210
450.583412	5388.910283
450.957640	5510.749930
451.331808	5373.247417
451.705917	5227.716868
452.079965	5215.429055
452.453954	5253.550261
452.827883	5220.981886
453.201752	5226.433894
453.575562	5258.609058
453.949311	5391.572012
454.323001	5393.432198
454.696632	5390.173092
455.070202	5542.456267
455.443713	5567.541048
455.817164	5663.937992
456.190556	5736.356688
456.563888	5709.494900
456.937160	5787.423576
457.310373	5634.389269
457.683526	5685.501528
458.056619	5677.302091
458.429653	5661.049411
458.802628	5710.533377
459.175542	5740.986988
459.548398	5880.203492
459.921194	6061.102778
460.293930	6118.579493
460.666607	6372.078955
461.039224	6588.767912
461.411782	6711.802313
461.784280	6634.039994
462.156719	6632.840200
462.529099	6597.161433
462.901419	6455.172294
463.273680	6324.845864
463.645882	6315.736499
464.018024	6315.290357
464.390106	6378.846704
464.762130	6639.123998
465.134094	7023.942997
465.505999	7651.942217
465.877845	8356.047737
466.249631	8717.115340
466.621358	8638.901838
466.993026	8449.540976
467.364634	8229.038386
467.736184	7953.972868
468.107674	7794.432951
468.479105	7708.267029
468.850477	7643.604149
469.221790	7474.349929
469.593043	7251.810713
469.964238	7152.925960
470.335373	7129.388812
470.706449	7286.241794
471.077467	7461.610933
471.448425	8116.000593
471.819324	8698.972227
472.190164	8742.197601
472.560945	8263.116586
472.931667	7791.720811
473.302330	7603.025381
473.672934	7480.162379
474.043479	7554.625263
474.413965	7456.264790
474.784393	7407.806698
475.154761	7558.186838
475.525070	7573.070845
475.895321	7526.288937
476.265513	7619.779656
476.635645	7787.256869
477.005719	7771.629292
477.375734	7862.365020
477.745691	7961.519475
478.115588	8170.155189
478.485427	8405.478771
478.855207	8874.230461
479.224928	9304.044279
479.594591	9690.511736
479.964194	9705.241987
480.333739	9784.962794
480.703226	9786.069328
481.072653	9882.113391
481.442022	10002.387760
481.811333	10153.697993
482.180584	9994.899126
482.549777	9927.965206
482.918912	9864.645793
483.287988	9854.339154
483.657005	9763.986553
484.025964	9683.295324
484.394864	9737.044107
484.763706	9697.004742
485.132489	9606.405125
485.501213	9599.854146
485.869879	9658.961675
486.238487	9602.306667
486.607036	9674.347276
486.975527	9619.721333
487.343959	9676.285600
487.712333	9715.783040
488.080648	9757.054967
488.448905	9861.114464
488.817104	9862.112613
489.185244	10030.613180
489.553326	10238.205375
489.921350	10706.657117
490.289315	11328.969915
490.657222	11625.656942
491.025070	11802.866103
491.392861	11718.688916
491.760593	11563.948178
492.128267	11317.435755
492.495883	11069.726058
492.863440	10840.900523
493.230939	10614.106573
493.598380	10436.201733
493.965763	10413.035111
494.333088	10275.711560
494.700354	10205.004336
495.067563	10180.746303
495.434713	10185.832828
495.801805	10231.810671
496.168839	10190.412716
496.535815	10159.381893
496.902733	10194.760711
497.269593	10153.670266
497.636395	10166.547894
498.003139	10271.537484
498.369825	10200.444612
498.736453	10294.187388
499.103023	10234.111958
499.469535	10235.949459
499.835989	10289.927613
500.202385	10263.852245
500.568723	10281.730697
500.935003	10335.091311
501.301226	10307.019646
501.667390	10478.877621
502.033497	10572.093597
502.399546	10503.226394
502.765537	10414.897817
503.131470	10514.019505
503.497345	10608.190779
503.863163	10374.606395
504.228923	10508.111273
504.594625	10624.710640
504.960269	10531.749243
505.325856	10680.735504
505.691385	10560.075486
506.056856	10617.128745
506.422270	10721.417615
506.787625	10660.439818
507.152924	10712.956038
507.518164	10771.730851
507.883347	10642.001798
508.248472	10709.429751
508.613540	10823.511063
508.978550	10894.074614
509.343503	10869.887158
509.708398	10916.585886
510.073236	11051.124200
510.438016	11063.230531
510.802738	10974.912036
511.167403	11099.456263
511.532010	11163.612507
511.896561	11252.019222
512.261053	11451.837958
512.625488	11356.746673
512.989866	11345.136895
513.354186	11330.235245
513.718449	11336.740854
514.082655	11472.862090
514.446803	11425.644122
514.810894	11532.551872
515.174927	11530.742098
515.538904	11509.163439
515.902822	11665.156903
516.266684	11533.134125
516.630488	11636.508026
516.994235	11616.749223
517.357925	11730.187788
517.721558	11789.504525
518.085133	11847.394615
518.448651	11874.246321
518.812112	11831.003303
519.175516	11833.959940
519.538863	11921.514700
519.902152	11933.631113
520.265385	12036.097606
520.628560	12045.083463
520.991678	11998.553613
521.354739	12045.766539
521.717743	12107.170314
522.080690	12080.563104
522.443580	12202.869058
522.806413	12217.848846
523.169189	12206.707896
523.531908	12269.530756
523.894569	12219.910678
524.257174	12228.384858
524.619722	12314.283599
524.982213	12291.026236
525.344647	12281.213630
525.707025	12289.549177
526.069345	12385.860422
526.431608	12355.265659
526.793815	12435.170468
527.155964	12323.120742
527.518057	12338.655057
527.880093	12301.897484
528.242072	12391.204045
528.603995	12318.629073
528.965860	12322.568735
529.327669	12344.616222
529.689421	12284.510544
530.051117	12291.633695
530.412755	12314.046665
530.774337	12312.836788
531.135862	12255.675144
531.497331	12304.541569
531.858743	12268.590580
532.220098	12335.708503
532.581396	12251.508631
532.942638	12171.719768
533.303824	12217.289278
533.664953	12194.084847
534.026025	12138.871610
534.387040	12211.648227
534.747999	12176.839060
535.108902	12207.453987
535.469748	12086.730955
535.830537	12089.392685
536.191270	12114.424534
536.551947	12039.003831
536.912567	12074.639748
537.273131	12094.007861
537.633638	11965.087913
537.994089	12003.962771
538.354483	11911.465160
538.714821	12004.555107
539.075103	12064.948130
539.435328	11983.717497
539.795497	11943.824326
540.155609	11930.475351
540.515665	11994.185453
540.875665	11848.193638
541.235609	11919.835996
541.595496	11860.504135
541.955328	11981.885038
542.315102	11834.511946
542.674821	11757.160482
543.034483	11747.549522
543.394090	11727.304248
543.753640	11677.064109
544.113134	11860.090761
544.472571	11634.763787
544.831953	11848.428051
545.191278	11670.850887
545.550548	11587.099677
545.909761	11657.547282
546.268918	11656.712971
546.628019	11689.336798
546.987064	11564.142263
547.346053	11417.590879
547.704986	11542.588809
548.063863	11421.374265
548.422684	11428.797364
548.781449	11361.838238
549.140158	11415.307236
549.498811	11349.941115
549.857408	11209.101359
550.215949	11334.094248
550.574434	11272.332552
550.932864	11188.384737
551.291237	11314.222019
551.649555	11189.549244
552.007817	11202.278157
552.366022	11101.765111
552.724173	11097.172620
553.082267	11126.255037
553.440305	11157.011116
553.798288	10983.653397
554.156215	10998.550007
554.514086	10995.338792
554.871902	10914.443396
555.229661	10880.463498
555.587365	10799.835284
555.945014	10776.618250
556.302606	10717.109949
556.660143	10729.793492
557.017625	10704.408762
557.375050	10635.859152
557.732421	10659.781948
558.089735	10606.139030
558.446994	10543.089318
558.804197	10581.117262
559.161345	10532.296208
559.518437	10345.312250
559.875474	10363.972081
560.232455	10345.770995
560.589381	10324.804836
560.946251	10237.950797
561.303065	10305.408997
561.659825	10229.965609
562.016528	10114.755079
562.373177	10025.854331
562.729770	10055.796264
563.086307	9926.972098
563.442789	9951.003279
563.799216	9925.719372
564.155587	9835.371812
564.511904	9800.618098
564.868164	9752.349050
565.224370	9746.171116
565.580520	9650.668977
565.936615	9645.181681
566.292654	9533.278148
566.648638	9532.108600
567.004567	9481.074479
567.360441	9420.628524
567.716260	9346.750414
568.072023	9348.635806
568.427732	9272.572356
568.783385	9156.865272
569.138982	9165.596551
569.494525	9113.685269
569.850013	9021.694293
570.205445	8964.000808
570.560823	8922.577647
570.916145	8838.292075
571.271412	8787.063870
571.626625	8702.705202
571.981782	8648.918611
572.336884	8560.466525
572.691931	8552.468735
573.046923	8438.218544
573.401860	8371.002320
573.756743	8311.171385
574.111570	8271.469778
574.466342	8202.413532
574.821059	8178.190788
575.175722	8055.955410
575.530330	8006.158892
575.884882	7923.289885
576.239380	7863.300154
576.593823	7800.273128
576.948211	7739.260043
577.302544	7628.394988
577.656823	7579.584016
578.011047	7549.561424
578.365216	7464.958259
578.719330	7386.127216
579.073389	7313.285064
579.427394	7269.870647
579.781344	7207.929989
580.135239	7132.448793
580.489080	7085.472801
580.842866	6988.314643
581.196597	6975.235369
581.550273	6917.352841
581.903895	6853.990578
582.257463	6846.605288
582.610975	6735.394913
582.964434	6713.239042
583.317837	6629.608820
583.671186	6566.354942
584.024481	6535.137597
584.377721	6441.057063
584.730906	6416.594864
585.084037	6377.157918
585.437113	6294.417460
585.790135	6261.965032
586.143103	6177.064439
586.496016	6140.712679
586.848874	6096.572336
587.201679	6047.050561
587.554428	5959.705009
587.907124	5927.116470
588.259765	5862.662798
588.612352	5841.888203
588.964884	5754.270428
589.317362	5727.201952
589.669786	5680.223440
590.022155	5627.939113
590.374470	5610.242142
590.726731	5533.878744
591.078937	5453.747083
591.431090	5421.342546
591.783188	5360.926838
592.135232	5296.989883
592.487222	5267.741109
592.839157	5230.544955
593.191038	5173.053116
593.542866	5122.833141
593.894639	5040.513620
594.246358	5025.128018
594.598022	4984.705526
594.949633	4920.844189
595.301190	4880.391450
595.652692	4835.431919
596.004141	4819.209486
596.355535	4733.835025
596.706876	4691.917831
597.058162	4653.468951
597.409395	4638.088390
597.760573	4608.834575
598.111698	4549.268301
598.462768	4519.429711
598.813785	4484.151717
599.164748	4425.278601
599.515657	4408.872166
599.866511	4352.242364
600.217312	4345.799770
600.568060	4271.508286
600.918753	4274.439717
601.269392	4242.050303
601.619978	4192.692366
601.970510	4171.542205
602.320988	4153.416736
602.671412	4133.864621
603.021783	4097.601081
603.372100	4058.345616
603.722363	4028.592726
604.072572	4006.668748
604.422728	3981.757886
604.772830	3941.584931
605.122878	3916.043925
605.472872	3886.447311
605.822813	3869.241853
606.172701	3841.026515
606.522534	3827.425482
606.872314	3808.261535
607.222041	3776.908079
607.571714	3764.806789
607.921333	3720.608473
608.270899	3706.833520
608.620411	3693.746684
608.969870	3665.919515
609.319276	3645.039056
609.668627	3621.960654
610.017926	3613.529324
610.367171	3598.065584
610.716362	3573.989034
611.065500	3555.702248
611.414585	3539.724311
611.763616	3526.967671
612.112594	3504.279958
612.461518	3489.756394
612.810389	3478.018067
613.159207	3453.707103
613.507971	3436.688168
613.856682	3432.193979
614.205340	3411.404260
614.553945	3407.731780
614.902496	3380.643140
615.250994	3372.630226
615.599439	3357.688246
615.947830	3341.667459
616.296169	3326.914522
616.644454	3316.839776
616.992686	3303.205975
617.340864	3299.878814
617.688990	3276.324022
618.037063	3276.876029
618.385082	3264.565531
618.733048	3256.696290
619.080961	3244.143817
619.428821	3229.970613
619.776628	3217.372769
620.124382	3203.517158
620.472083	3189.885878
620.819731	3178.800381
621.167326	3157.335148
621.514868	3144.107160
621.862357	3122.064715
622.209793	3109.615585
622.557176	3090.514653
622.904506	3074.138465
623.251783	3056.204560
623.599007	3039.198228
623.946179	3029.428472
624.293297	3013.173271
624.640363	3000.855212
624.987376	2988.819457
625.334336	2978.636326
625.681243	2963.412042
626.028097	2953.581792
626.374899	2945.977211
626.721647	2936.572938
627.068343	2927.405600
627.414987	2918.931421
627.761577	2906.764596
628.108115	2903.535737
628.454600	2892.016700
628.801032	2885.647202
629.147412	2879.774258
629.493739	2876.958774
629.840014	2865.240612
630.186236	2862.200796
630.532405	2854.271061
630.878521	2849.819722
631.224585	2844.312261
631.570597	2835.376816
631.916556	2834.418997
632.262462	2829.221567
632.608316	2825.907009
632.954117	2818.080617
633.299866	2815.063487
633.645562	2810.609627
633.991206	2803.095787
634.336797	2796.343162
634.682336	2788.254631
635.027823	2780.685338
635.373257	2774.605707
635.718639	2769.811569
636.063968	2762.562390
636.409245	2758.836977
636.754470	2753.692480
637.099642	2745.326685
637.444762	2743.577405
637.789829	2739.121025
638.134845	2738.034656
638.479808	2729.290775
638.824719	2729.066443
639.169577	2723.463201
639.514383	2719.813405
639.859137	2716.196377
640.203839	2714.386603
640.548489	2713.330482
640.893086	2705.529296
641.237632	2702.383616
