Dividing Wavelength (nm)	Counts (n)	Blue Motor Position (mm): 0.000000	Red Motor Position (mm): 21.500000	
326.493990	2141.272946
326.888308	2141.272946
327.282561	2141.272946
327.676750	2119.860645
328.070874	2120.437857
328.464933	2129.065792
328.858929	2133.007974
329.252859	2147.551703
329.646726	2162.168529
330.040528	2172.971721
330.434265	2193.615246
330.827938	2214.561241
331.221547	2233.331977
331.615091	2253.005080
332.008571	2273.116763
332.401986	2292.666358
332.795338	2311.018678
333.188625	2333.845023
333.581847	2352.401510
333.975006	2369.319623
334.368100	2386.273023
334.761129	2407.234141
335.154095	2424.467325
335.546996	2440.558688
335.939833	2454.696604
336.332606	2470.339304
336.725315	2482.269195
337.117960	2488.066522
337.510540	2495.708911
337.903056	2504.130159
338.295508	2510.058556
338.687896	2521.501975
339.080220	2528.247039
339.472480	2531.334745
339.864676	2534.291382
340.256807	2542.909235
340.648875	2540.844882
341.040879	2540.711292
341.432818	2544.966025
341.824694	2544.605583
342.216506	2545.981818
342.608253	2543.983000
342.999937	2543.483926
343.391557	2544.713968
343.783113	2541.061652
344.174605	2543.753628
344.566033	2537.928575
344.957397	2536.091074
345.348697	2534.147709
345.739934	2534.911444
346.131106	2531.014632
346.522215	2532.668131
346.913260	2528.584796
347.304241	2527.485824
347.695159	2525.073632
348.086012	2526.119672
348.476802	2520.773528
348.867528	2524.214116
349.258191	2521.234794
349.648789	2519.591378
350.039324	2516.841428
350.429796	2520.027437
350.820203	2514.499812
351.210548	2514.905625
351.600828	2511.434791
351.991045	2516.627179
352.381198	2514.867816
352.771288	2516.773373
353.161314	2514.547703
353.551276	2513.811695
353.941175	2513.496623
354.331010	2514.716582
354.720782	2513.957888
355.110490	2513.083248
355.500135	2514.724143
355.889717	2515.500481
356.279235	2511.555778
356.668689	2515.974350
357.058080	2520.670184
357.447408	2513.683145
357.836672	2512.672394
358.225873	2513.854544
358.615010	2514.661129
359.004084	2518.815040
359.393095	2517.723630
359.782043	2516.322189
360.170927	2518.809999
360.559748	2519.442663
360.948505	2518.905781
361.337199	2521.781759
361.725830	2519.853517
362.114398	2517.942920
362.502903	2522.648837
362.891344	2522.464835
363.279722	2524.902233
363.668037	2525.003056
364.056289	2525.514733
364.444478	2524.377953
364.832603	2521.857376
365.220665	2527.095135
365.608665	2525.282840
365.996601	2525.139167
366.384474	2525.708818
366.772284	2526.853160
367.160031	2526.404497
367.547715	2528.988088
367.935336	2523.710000
368.322893	2527.490866
368.710388	2528.420958
369.097820	2531.153264
369.485189	2525.918026
369.872495	2527.576565
370.259738	2526.054137
370.646918	2531.727955
371.034035	2530.276103
371.421090	2530.523120
371.808081	2533.419262
372.195010	2532.237112
372.581875	2533.799870
372.968678	2531.480939
373.355418	2532.509334
373.742096	2536.877494
374.128710	2534.261135
374.515262	2537.873122
374.901751	2539.985365
375.288177	2539.675334
375.674540	2540.681045
376.060841	2543.486447
376.447079	2540.204656
376.833254	2545.946530
377.219367	2541.964018
377.605417	2545.921324
377.991404	2548.943496
378.377329	2550.155893
378.763191	2550.241593
379.148991	2557.536142
379.534727	2562.163922
379.920402	2567.683985
380.306013	2571.429562
380.691563	2573.322516
381.077049	2579.669328
381.462474	2581.476582
381.847835	2590.769949
382.233134	2594.321442
382.618371	2597.668768
383.003545	2607.360387
383.388657	2612.852724
383.773706	2617.195678
384.158693	2625.901750
384.543618	2629.770836
384.928480	2635.066568
385.313280	2643.502939
385.698017	2650.694145
386.082692	2660.479025
386.467305	2669.162412
386.851856	2677.820594
387.236344	2686.985412
387.620770	2693.591844
388.005133	2702.436548
388.389435	2712.478527
388.773674	2722.419682
389.157851	2727.735579
389.541965	2737.933833
389.926018	2742.735532
390.310008	2755.761873
390.693936	2763.442071
391.077802	2771.530603
391.461606	2783.760442
391.845348	2790.041720
392.229027	2797.263172
392.612645	2816.780000
392.996200	2825.198727
393.379694	2836.944615
393.763125	2854.414734
394.146494	2862.314222
394.529801	2869.641539
394.913047	2888.455125
395.296230	2891.378994
395.679351	2898.179511
396.062410	2915.042170
396.445408	2909.017992
396.828343	2920.259765
397.211217	2930.188317
397.594028	2924.048192
397.976778	2938.178546
398.359466	2951.862758
398.742092	2949.657253
399.124656	2966.643421
399.507158	2977.880153
399.889598	2984.257213
400.271977	2999.121055
400.654294	3003.980727
401.036549	3014.095802
401.418742	3022.892616
401.800874	3044.501522
402.182944	3052.905125
402.564952	3083.157089
402.946898	3072.013619
403.328783	3079.230031
403.710606	3094.948348
404.092367	3117.121863
404.474067	3143.643374
404.855705	3135.239770
405.237282	3136.495018
405.618797	3167.782939
406.000250	3191.995601
406.381642	3217.665156
406.762972	3223.200343
407.144240	3214.320351
407.525447	3238.485122
407.906593	3234.868094
408.287677	3260.575458
408.668700	3277.468364
409.049661	3272.442334
409.430560	3289.993111
409.811399	3293.484110
410.192176	3315.254333
410.572891	3321.049139
410.953545	3360.314687
411.334138	3327.930314
411.714669	3380.794374
412.095139	3327.443843
412.475547	3377.194990
412.855894	3369.691233
413.236180	3398.647621
413.616405	3378.742625
413.996568	3402.418404
414.376670	3405.251532
414.756711	3400.926222
415.136691	3426.079059
415.516609	3449.659056
415.896466	3457.485448
416.276262	3482.512256
416.655997	3510.611647
417.035670	3516.819828
417.415283	3585.553441
417.794834	3607.850464
418.174324	3590.813885
418.553753	3589.273812
418.933121	3635.617139
419.312428	3625.214718
419.691674	3618.905714
420.070859	3654.793689
420.449983	3637.835247
420.829045	3686.442052
421.208047	3669.907068
421.586988	3714.869119
421.965867	3747.639140
422.344686	3753.527207
422.723444	3791.850059
423.102141	3698.752550
423.480777	3798.481697
423.859352	3764.274947
424.237866	3861.274309
424.616319	3846.085313
424.994712	3904.630753
425.373044	3895.314700
425.751314	3955.974905
426.129524	3889.925707
426.507673	3988.475223
426.885762	3963.697952
427.263789	3986.897342
427.641756	3987.749297
428.019662	4017.744163
428.397508	4015.964635
428.775292	4053.811098
429.153016	4056.485430
429.530679	4066.824837
429.908282	4072.828851
430.285824	4045.498235
430.663305	4116.840644
431.040726	4075.861105
431.418086	4059.966347
431.795385	4129.937562
432.172624	4156.209535
432.549802	4117.609420
432.926920	4135.843274
433.303977	4121.566726
433.680974	4155.733146
434.057910	4170.881814
434.434786	4169.321577
434.811601	4157.671470
435.188355	4245.795880
435.565050	4212.625088
435.941683	4196.770659
436.318257	4270.805045
436.694770	4267.074591
437.071222	4305.762926
437.447614	4239.197010
437.823946	4232.446905
438.200218	4233.276175
438.576429	4203.185528
438.952580	4210.222978
439.328670	4203.170404
439.704700	4229.800299
440.080670	4183.673742
440.456580	4218.984504
440.832429	4235.383377
441.208218	4136.400321
441.583947	4164.729085
441.959616	4162.926873
442.335224	4161.560720
442.710773	4161.255730
443.086261	4185.279349
443.461689	4128.536121
443.837057	4118.123618
444.212365	4158.372190
444.587612	4141.736383
444.962800	4093.553034
445.337927	4102.720373
445.712995	3998.814630
446.088002	4112.694295
446.462949	4105.581227
446.837837	4092.980863
447.212664	4058.902663
447.587431	4182.564688
447.962139	4341.580324
448.336786	4528.622255
448.711374	4490.901822
449.085901	4245.551384
449.460369	4170.740661
449.834776	4100.472018
450.209124	4201.842060
450.583412	4172.820137
450.957640	4211.823545
451.331808	4104.431844
451.705917	3990.053105
452.079965	3949.774285
452.453954	3936.306843
452.827883	3886.414543
453.201752	3857.243907
453.575562	3839.395701
453.949311	3867.099362
454.323001	3835.340093
454.696632	3797.846511
455.070202	3829.550328
455.443713	3808.977379
455.817164	3803.767347
456.190556	3797.566727
456.563888	3752.765993
456.937160	3742.063623
457.310373	3653.500633
457.683526	3637.252994
458.056619	3603.036162
458.429653	3561.895306
458.802628	3540.949311
459.175542	3516.862678
459.548398	3521.956764
459.921194	3540.760268
460.293930	3526.589585
460.666607	3557.408679
461.039224	3580.562698
461.411782	3573.492480
461.784280	3513.553161
462.156719	3477.385403
462.529099	3425.766508
462.901419	3359.944162
463.273680	3298.636169
463.645882	3260.424223
464.018024	3227.444995
464.390106	3212.286245
464.762130	3226.986250
465.134094	3264.585696
465.505999	3338.599917
465.877845	3414.953233
466.249631	3430.497631
466.621358	3368.430944
466.993026	3299.634318
467.364634	3233.743917
467.736184	3161.365550
468.107674	3111.589197
468.479105	3076.270873
468.850477	3040.428269
469.221790	2999.771364
469.593043	2957.166052
469.964238	2925.676484
470.335373	2903.361817
470.706449	2892.553583
471.077467	2887.346071
471.448425	2912.274577
471.819324	2931.645211
472.190164	2912.720719
472.560945	2866.384953
472.931667	2825.823830
473.302330	2801.230561
473.672934	2782.038888
474.043479	2770.958432
474.413965	2758.264806
474.784393	2743.559761
475.154761	2737.097001
475.525070	2727.685167
475.895321	2715.089844
476.265513	2710.406612
476.635645	2711.251006
477.005719	2698.701053
477.375734	2699.174922
477.745691	2692.855835
478.115588	2692.031607
478.485427	2689.115299
478.855207	2693.730475
479.224928	2695.850281
479.594591	2698.857329
479.964194	2691.272913
480.333739	2687.053467
480.703226	2678.904442
481.072653	2679.360666
481.442022	2676.721622
481.811333	2675.000068
482.180584	2666.944304
482.549777	2664.385919
482.918912	2656.834270
483.287988	2655.654640
483.657005	2651.848569
484.025964	2646.320944
484.394864	2645.388331
484.763706	2643.868423
485.132489	2638.701240
485.501213	2638.696199
485.869879	2637.138482
486.238487	2634.345683
486.607036	2634.509521
486.975527	2629.417955
487.343959	2628.883593
487.712333	2631.389046
488.080648	2628.676906
488.448905	2629.838892
488.817104	2627.146915
489.185244	2625.558952
489.553326	2626.846967
489.921350	2629.927112
490.289315	2634.174284
490.657222	2635.706795
491.025070	2635.023718
491.392861	2635.447175
491.760593	2633.392905
492.128267	2630.194293
492.495883	2626.418469
492.863440	2625.861421
493.230939	2624.230608
493.598380	2623.812192
493.965763	2616.898250
494.333088	2616.933538
494.700354	2615.983280
495.067563	2616.215173
495.434713	2613.377004
495.801805	2617.906480
496.168839	2615.214504
496.535815	2616.053856
496.902733	2615.358177
497.269593	2615.126284
497.636395	2615.398506
498.003139	2614.097889
498.369825	2613.177878
498.736453	2614.874226
499.103023	2615.012858
499.469535	2612.867847
499.835989	2610.743001
500.202385	2613.515635
500.568723	2611.342898
500.935003	2610.984976
501.301226	2610.440532
501.667390	2611.479009
502.033497	2610.052363
502.399546	2611.295007
502.765537	2610.213680
503.131470	2611.345419
503.497345	2606.621858
503.863163	2607.872064
504.228923	2609.742332
504.594625	2609.608741
504.960269	2608.547578
505.325856	2610.806015
505.691385	2606.503390
506.056856	2606.105139
506.422270	2607.398195
506.787625	2606.276538
507.152924	2606.082454
507.518164	2608.628237
507.883347	2606.823504
508.248472	2607.496498
508.613540	2606.389964
508.978550	2608.721498
509.343503	2607.728391
509.708398	2609.235696
510.073236	2609.260902
510.438016	2610.654781
510.802738	2607.567074
511.167403	2605.689244
511.532010	2607.788885
511.896561	2609.112187
512.261053	2610.793412
512.625488	2606.349635
512.989866	2605.631271
513.354186	2602.788060
513.718449	2603.246805
514.082655	2605.754779
514.446803	2607.466251
514.810894	2607.607403
515.174927	2608.668566
515.538904	2606.357197
515.902822	2607.544389
516.266684	2607.206631
516.630488	2605.999275
516.994235	2608.759307
517.357925	2605.933740
517.721558	2608.265274
518.085133	2606.770572
518.448651	2608.613113
518.812112	2608.484564
519.175516	2607.105808
519.538863	2606.329471
519.902152	2609.308792
520.265385	2609.046652
520.628560	2609.419698
520.991678	2608.098916
521.354739	2611.040429
521.717743	2608.345932
522.080690	2607.912393
522.443580	2606.503390
522.806413	2605.106991
523.169189	2607.919955
523.531908	2606.740325
523.894569	2607.675459
524.257174	2605.636312
524.619722	2604.859974
524.982213	2607.385592
525.344647	2607.625047
525.707025	2608.552619
526.069345	2608.043463
526.431608	2607.221755
526.793815	2607.398195
527.155964	2605.840479
527.518057	2608.615634
527.880093	2606.137907
528.242072	2607.935078
528.603995	2606.256374
528.965860	2602.586414
529.327669	2606.773092
529.689421	2606.266456
530.051117	2604.713781
530.412755	2605.908534
530.774337	2606.107660
531.135862	2607.791405
531.497331	2605.142279
531.858743	2601.464757
532.220098	2603.070365
532.581396	2602.243615
532.942638	2600.990889
533.303824	2603.854264
533.664953	2607.907352
534.026025	2604.529779
534.387040	2606.175715
534.747999	2604.754110
535.108902	2604.960797
535.469748	2601.590786
535.830537	2605.832917
536.191270	2605.593462
536.551947	2602.843513
536.912567	2602.891404
537.273131	2607.408278
537.633638	2604.507093
537.994089	2606.145468
538.354483	2605.759820
538.714821	2605.492639
539.075103	2604.786877
539.435328	2600.751434
539.795497	2603.312340
540.155609	2601.989037
540.515665	2603.095570
540.875665	2604.633122
541.235609	2602.402412
541.595496	2605.427104
541.955328	2604.996085
542.315102	2601.863008
542.674821	2603.208996
543.034483	2604.519696
543.394090	2600.733790
543.753640	2605.590942
544.113134	2602.664552
544.472571	2602.215889
544.831953	2603.002309
545.191278	2603.594645
545.550548	2602.929212
545.909761	2602.160436
546.268918	2602.757813
546.628019	2603.939964
546.987064	2605.527927
547.346053	2601.086671
547.704986	2603.491301
548.063863	2604.214707
548.422684	2603.337546
548.781449	2602.611620
549.140158	2600.161619
549.498811	2604.050869
549.857408	2604.098760
550.215949	2598.210692
550.574434	2600.675817
550.932864	2601.258070
551.291237	2601.578183
551.649555	2603.965169
552.007817	2603.100612
552.366022	2603.987855
552.724173	2604.620519
553.082267	2603.884511
553.440305	2602.457864
553.798288	2604.229830
554.156215	2604.325612
554.514086	2602.866198
554.871902	2604.255036
555.229661	2603.456013
555.587365	2604.108842
555.945014	2601.505086
556.302606	2602.543564
556.660143	2603.728235
557.017625	2602.314192
557.375050	2604.186980
557.732421	2604.295365
558.089735	2603.816455
558.446994	2602.528441
558.804197	2602.967021
559.161345	2604.759151
559.518437	2605.774944
559.875474	2602.805704
560.232455	2604.028184
560.589381	2603.826538
560.946251	2606.596652
561.303065	2603.692947
561.659825	2605.250664
562.016528	2604.716301
562.373177	2602.430138
562.729770	2602.868718
563.086307	2603.319902
563.442789	2605.976590
563.799216	2605.301075
564.155587	2604.718822
564.511904	2602.805704
564.868164	2604.968359
565.224370	2606.715119
565.580520	2603.728235
565.936615	2602.132710
566.292654	2603.524068
566.648638	2603.143461
567.004567	2601.295878
567.360441	2603.614809
567.716260	2604.542382
568.072023	2604.325612
568.427732	2599.539036
568.783385	2600.338059
569.138982	2600.486773
569.494525	2599.433172
569.850013	2600.312853
570.205445	2604.292844
570.560823	2601.585745
570.916145	2604.123966
571.271412	2602.840992
571.626625	2604.897783
571.981782	2604.433997
572.336884	2604.628081
572.691931	2604.991044
573.046923	2606.004316
573.401860	2603.987855
573.756743	2602.236054
574.111570	2601.734459
574.466342	2600.741352
574.821059	2602.798142
575.175722	2603.670262
575.530330	2602.362082
575.884882	2601.905858
576.239380	2602.261259
576.593823	2603.196393
576.948211	2601.121959
577.302544	2600.363265
577.656823	2601.013574
578.011047	2604.517176
578.365216	2600.983327
578.719330	2602.243615
579.073389	2600.413677
579.427394	2601.305961
579.781344	2600.985848
580.135239	2600.758996
580.489080	2600.653131
580.842866	2604.731425
581.196597	2606.402567
581.550273	2600.638008
581.903895	2600.252360
582.257463	2601.724377
582.610975	2601.389140
582.964434	2599.229005
583.317837	2603.546754
583.671186	2600.045672
584.024481	2599.266814
584.377721	2601.212699
584.730906	2603.551795
585.084037	2604.423914
585.437113	2602.087340
585.790135	2602.004161
586.143103	2601.391660
586.496016	2599.561722
586.848874	2595.095259
587.201679	2597.162132
587.554428	2597.764550
587.907124	2596.912595
588.259765	2596.010229
588.612352	2600.524582
588.964884	2598.777822
589.317362	2600.529623
589.669786	2601.177411
590.022155	2600.005343
590.374470	2600.176742
590.726731	2599.077771
591.078937	2598.364447
591.431090	2600.653131
591.783188	2599.927205
592.135232	2599.077771
592.487222	2599.765888
592.839157	2600.887545
593.191038	2600.940477
593.542866	2598.009046
593.894639	2601.323605
594.246358	2599.536516
594.598022	2598.147678
594.949633	2599.042483
595.301190	2598.687081
595.652692	2599.211361
596.004141	2598.893769
596.355535	2597.472163
596.706876	2598.593820
597.058162	2597.487287
597.409395	2598.853439
597.760573	2598.767740
598.111698	2596.874787
598.462768	2597.830085
598.813785	2597.003336
599.164748	2597.300764
599.515657	2597.124324
599.866511	2595.773294
600.217312	2595.599375
600.568060	2595.001998
600.918753	2596.221957
601.269392	2597.023501
601.619978	2598.253542
601.970510	2594.654158
602.320988	2595.899323
602.671412	2596.998295
603.021783	2595.763212
603.372100	2595.468305
603.722363	2595.309508
604.072572	2597.293202
604.422728	2597.699015
604.772830	2594.182810
605.122878	2592.967892
605.472872	2595.092739
605.822813	2592.395721
606.172701	2593.708942
606.522534	2596.970568
606.872314	2596.337904
607.222041	2594.954107
607.571714	2594.691967
607.921333	2597.981320
608.270899	2597.424272
608.620411	2595.574169
608.969870	2599.241608
609.319276	2594.369333
609.668627	2596.960486
610.017926	2595.997626
610.367171	2595.826227
610.716362	2594.752461
611.065500	2596.458891
611.414585	2596.441247
611.763616	2596.620208
612.112594	2596.368151
612.461518	2595.289344
612.810389	2595.962338
613.159207	2596.098449
613.507971	2596.070722
613.856682	2595.644745
614.205340	2595.349837
614.553945	2596.108531
614.902496	2598.603902
615.250994	2598.412338
615.599439	2595.841350
615.947830	2597.313367
616.296169	2597.172215
616.644454	2597.802359
616.992686	2600.065837
617.340864	2596.158943
617.688990	2596.811772
618.037063	2597.772112
618.385082	2601.109356
618.733048	2600.466609
619.080961	2597.293202
619.428821	2598.273707
619.776628	2597.540219
620.124382	2599.740683
620.472083	2594.608788
620.819731	2597.043665
621.167326	2596.143819
621.514868	2597.736824
621.862357	2594.865887
622.209793	2595.077615
622.557176	2596.849581
622.904506	2590.863211
623.251783	2591.127871
623.599007	2591.808427
623.946179	2593.814806
624.293297	2592.725917
624.640363	2596.078284
624.987376	2597.394025
625.334336	2593.151894
625.681243	2594.581062
626.028097	2596.441247
626.374899	2592.206678
626.721647	2592.317583
627.068343	2595.138109
627.414987	2595.274220
627.761577	2594.916298
628.108115	2593.345979
628.454600	2594.825557
628.801032	2595.037286
629.147412	2594.654158
629.493739	2594.354210
629.840014	2591.306832
630.186236	2593.769436
630.532405	2594.051740
630.878521	2592.103334
631.224585	2593.900506
631.570597	2595.228850
631.916556	2591.833633
632.262462	2591.712645
632.608316	2593.522419
632.954117	2593.172059
633.299866	2590.885896
633.645562	2591.465628
633.991206	2594.482759
634.336797	2589.353385
634.682336	2592.128540
635.027823	2591.347161
635.373257	2592.799014
635.718639	2590.394383
636.063968	2591.647110
636.409245	2590.906060
636.754470	2591.669795
637.099642	2592.088211
637.444762	2591.521081
637.789829	2590.868252
638.134845	2588.375401
638.479808	2588.209043
638.824719	2590.280957
639.169577	2590.817840
639.514383	2589.441605
639.859137	2589.272727
640.203839	2588.670309
640.548489	2586.568147
640.893086	2584.982705
641.237632	2584.166038
641.582125	2585.340627
641.926566	2581.463979
642.270955	2588.997984
642.615292	2588.995463
642.959576	2588.942531
643.303809	2586.923549
643.647990	2588.962696
643.992118	2588.418251
644.336195	2592.005032
