Dividing Wavelength (nm)	Counts (n)	Blue Motor Position (mm): 0.000000	Red Motor Position (mm): 49.000000	
326.493990	2134.394292
326.888308	2134.394292
327.282561	2134.394292
327.676750	2111.714140
328.070874	2112.611466
328.464933	2117.713113
328.858929	2127.064454
329.252859	2140.249592
329.646726	2154.097641
330.040528	2166.282110
330.434265	2186.187106
330.827938	2204.090764
331.221547	2224.625904
331.615091	2245.425705
332.008571	2263.629312
332.401986	2286.183434
332.795338	2305.969963
333.188625	2325.360761
333.581847	2343.788699
333.975006	2363.106400
334.368100	2381.688093
334.761129	2399.493449
335.154095	2417.102199
335.546996	2437.244129
335.939833	2472.196970
336.332606	2485.954278
336.725315	2496.702018
337.117960	2506.126456
337.510540	2513.846983
337.903056	2518.658764
338.295508	2529.340969
338.687896	2535.042514
339.080220	2546.465769
339.472480	2550.218908
339.864676	2552.298384
340.256807	2554.614794
340.648875	2557.667212
341.040879	2559.630742
341.432818	2562.121072
341.824694	2561.609395
342.216506	2562.569735
342.608253	2561.279199
342.999937	2564.286247
343.391557	2556.535473
343.783113	2558.360371
344.174605	2556.981616
344.566033	2556.500185
344.957397	2553.924156
345.348697	2553.165462
345.739934	2550.523897
346.131106	2549.039278
346.522215	2547.201777
346.913260	2543.327650
347.304241	2545.392003
347.695159	2540.605427
348.086012	2540.854964
348.476802	2537.434542
348.867528	2540.623071
349.258191	2535.864222
349.648789	2535.289531
350.039324	2536.043183
350.429796	2532.877338
350.820203	2532.786598
351.210548	2532.408511
351.600828	2530.346679
351.991045	2529.923222
352.381198	2527.911802
352.771288	2530.084539
353.161314	2529.242667
353.551276	2531.390198
353.941175	2530.412214
354.331010	2531.090249
354.720782	2531.002029
355.110490	2531.848943
355.500135	2531.801052
355.889717	2529.391381
356.279235	2529.779549
356.668689	2531.639735
357.058080	2534.467822
357.447408	2528.080681
357.836672	2531.007070
358.225873	2531.856505
358.615010	2531.044879
359.004084	2531.801052
359.393095	2534.936650
359.782043	2534.828265
360.170927	2536.738862
360.559748	2538.841023
360.948505	2537.046373
361.337199	2536.300282
361.725830	2538.543595
362.114398	2539.345139
362.502903	2540.474357
362.891344	2538.934285
363.279722	2541.235572
363.668037	2540.383617
364.056289	2541.906045
364.444478	2540.446631
364.832603	2542.130376
365.220665	2538.911600
365.608665	2540.454193
365.996601	2541.911086
366.384474	2541.631302
366.772284	2546.135573
367.160031	2542.989893
367.547715	2543.078113
367.935336	2543.579708
368.322893	2545.487785
368.710388	2543.068031
369.097820	2549.056922
369.485189	2548.943496
369.872495	2542.773123
370.259738	2547.577343
370.646918	2546.024668
371.034035	2546.962322
371.421090	2548.336037
371.808081	2548.459545
372.195010	2548.641027
372.581875	2550.866696
372.968678	2550.745708
373.355418	2548.507436
373.742096	2554.166131
374.128710	2551.728733
374.515262	2555.887685
374.901751	2556.245607
375.288177	2556.202757
375.674540	2554.917263
376.060841	2556.429609
376.447079	2561.848850
376.833254	2564.901268
377.219367	2560.991853
377.605417	2564.543346
377.991404	2568.112483
378.377329	2566.695919
378.763191	2568.787998
379.148991	2576.357290
379.534727	2580.077662
379.920402	2585.756522
380.306013	2585.385997
380.691563	2593.230032
381.077049	2595.543922
381.462474	2603.047679
381.847835	2606.198401
382.233134	2611.058073
382.618371	2614.241562
383.003545	2622.493930
383.388657	2630.153964
383.773706	2636.621764
384.158693	2639.076806
384.543618	2649.164155
384.928480	2652.514002
385.313280	2663.511279
385.698017	2671.055365
386.082692	2679.562312
386.467305	2685.841070
386.851856	2694.474046
387.236344	2702.698688
387.620770	2710.913248
388.005133	2714.668908
388.389435	2730.616598
388.773674	2737.855695
389.157851	2743.295100
389.541965	2757.286822
389.926018	2754.680546
390.310008	2770.378699
390.693936	2778.101747
391.077802	2788.415947
391.461606	2795.660086
391.845348	2809.682055
392.229027	2818.178920
392.612645	2832.273986
392.996200	2839.324040
393.379694	2854.888602
393.763125	2871.910058
394.146494	2876.232848
394.529801	2889.506206
394.913047	2904.599420
395.296230	2907.992117
395.679351	2914.016296
396.062410	2934.886673
396.445408	2930.165632
396.828343	2938.523865
397.211217	2946.047787
397.594028	2940.593259
397.976778	2952.939044
398.359466	2971.429997
398.742092	2967.961683
399.124656	2982.623879
399.507158	2995.377998
399.889598	2999.864625
400.271977	3015.111595
400.654294	3020.785413
401.036549	3033.952907
401.418742	3038.046324
401.800874	3060.711352
402.182944	3067.060685
402.564952	3095.235694
402.946898	3086.839652
403.328783	3098.769543
403.710606	3115.538941
404.092367	3138.254380
404.474067	3160.374963
404.855705	3150.648057
405.237282	3153.919766
405.618797	3181.290711
406.000250	3205.289124
406.381642	3236.564442
406.762972	3238.679206
407.144240	3230.361302
407.525447	3252.922986
407.906593	3253.210332
408.287677	3273.042231
408.668700	3293.272382
409.049661	3288.571506
409.430560	3307.314516
409.811399	3308.915082
410.192176	3329.142712
410.572891	3335.824761
410.953545	3376.214486
411.334138	3343.646112
411.714669	3397.888927
412.095139	3342.358097
412.475547	3392.368863
412.855894	3385.691855
413.236180	3415.580856
413.616405	3392.784759
413.996568	3419.575971
414.376670	3420.644695
414.756711	3416.828542
415.136691	3442.019188
415.516609	3465.705049
415.896466	3471.661172
416.276262	3498.654031
416.655997	3526.032537
417.035670	3536.434958
417.415283	3603.015997
417.794834	3621.396044
418.174324	3607.167388
418.553753	3608.745269
418.933121	3650.791012
419.312428	3640.938077
419.691674	3636.592603
420.070859	3674.297913
420.449983	3653.581291
420.829045	3704.043241
421.208047	3689.350798
421.586988	3732.808065
421.965867	3763.042385
422.344686	3773.895989
422.723444	3814.260508
423.102141	3716.341136
423.480777	3820.120850
423.859352	3788.066673
424.237866	3882.847927
424.616319	3870.509703
424.994712	3929.100513
425.373044	3917.102567
425.751314	3980.212772
426.129524	3911.834562
426.507673	4014.905993
426.885762	3992.742560
427.263789	4013.524717
427.641756	4020.027805
428.019662	4049.286662
428.397508	4050.506622
428.775292	4085.088937
429.153016	4092.393569
429.530679	4104.315898
429.908282	4114.604893
430.285824	4092.955657
430.663305	4163.534332
431.040726	4128.732726
431.418086	4118.436170
431.795385	4187.613403
432.172624	4225.853076
432.549802	4190.950647
432.926920	4208.952608
433.303977	4204.113100
433.680974	4241.450406
434.057910	4266.401597
434.434786	4271.087349
434.811601	4270.381588
435.188355	4374.957804
435.565050	4347.203731
435.941683	4338.689222
436.318257	4430.410496
436.694770	4434.380405
437.071222	4493.130012
437.447614	4424.318262
437.823946	4431.738840
438.200218	4445.985141
438.576429	4426.816153
438.952580	4450.456644
439.328670	4459.780258
439.704700	4503.058564
440.080670	4468.667813
440.456580	4528.390362
440.832429	4563.280188
441.208218	4467.006752
441.583947	4521.035319
441.959616	4532.312380
442.335224	4557.450093
442.710773	4579.411880
443.086261	4631.076145
443.461689	4585.559567
443.837057	4595.198253
444.212365	4673.205068
444.587612	4673.976365
444.962800	4644.757837
445.337927	4681.845606
445.712995	4568.976692
446.088002	4767.842649
446.462949	4784.594403
446.837837	4801.983864
447.212664	4785.385865
447.587431	5014.579404
447.962139	5309.181914
448.336786	5647.682792
448.711374	5634.190143
449.085901	5284.394560
449.460369	5221.422987
449.834776	5158.915200
450.209124	5385.323502
450.583412	5400.638527
450.957640	5521.061610
451.331808	5382.588676
451.705917	5231.739708
452.079965	5225.939861
452.453954	5265.434781
452.827883	5228.089913
453.201752	5235.727261
453.575562	5268.010810
453.949311	5401.477879
454.323001	5404.278240
454.696632	5392.804574
455.070202	5552.785591
455.443713	5579.080250
455.817164	5671.058622
456.190556	5739.855249
456.563888	5718.652156
456.937160	5798.211646
457.310373	5639.266585
457.683526	5696.806315
458.056619	5687.167629
458.429653	5669.427809
458.802628	5714.982196
459.175542	5747.197689
459.548398	5885.635336
459.921194	6065.566719
460.293930	6130.837059
460.666607	6375.358226
461.039224	6590.612975
461.411782	6718.670885
461.784280	6644.124823
462.156719	6643.265306
462.529099	6604.637465
462.901419	6460.389888
463.273680	6338.215004
463.645882	6324.334187
464.018024	6322.335370
464.390106	6389.549074
464.762130	6650.958107
465.134094	7025.674634
465.505999	7654.893813
465.877845	8364.779015
466.249631	8720.976864
466.621358	8650.398189
466.993026	8456.003735
467.364634	8246.505984
467.736184	7961.985782
468.107674	7805.876371
468.479105	7718.014100
468.850477	7652.123699
469.221790	7484.807803
469.593043	7260.027794
469.964238	7163.683782
470.335373	7132.660521
470.706449	7295.494832
471.077467	7466.145451
471.448425	8119.605018
471.819324	8711.723826
472.190164	8755.044981
472.560945	8273.894573
472.931667	7810.670508
473.302330	7606.488654
473.672934	7487.993812
474.043479	7565.486429
474.413965	7464.282745
474.784393	7414.985301
475.154761	7569.857109
475.525070	7583.813544
475.895321	7535.448714
476.265513	7633.673076
476.635645	7794.301881
477.005719	7782.445087
477.375734	7867.247377
477.745691	7979.135787
478.115588	8179.098196
478.485427	8418.966378
478.855207	8887.284529
479.224928	9317.128594
479.594591	9696.752684
479.964194	9709.037976
480.333739	9791.012179
480.703226	9792.335482
481.072653	9894.275174
481.442022	10004.915898
481.811333	10159.855762
482.180584	9997.603705
482.549777	9945.611765
482.918912	9879.968380
483.287988	9870.962358
483.657005	9775.553481
484.025964	9688.018885
484.394864	9755.247713
484.763706	9710.391526
485.132489	9617.886353
485.501213	9621.473134
485.869879	9678.133183
486.238487	9610.521227
486.607036	9689.082569
486.975527	9633.266913
487.343959	9691.885450
487.712333	9739.151309
488.080648	9781.391137
488.448905	9883.978618
488.817104	9887.257888
489.185244	10056.597808
489.553326	10269.352144
489.921350	10716.126924
490.289315	11348.968172
490.657222	11636.888633
491.025070	11818.125676
491.392861	11735.662481
491.760593	11585.937691
492.128267	11336.987870
492.495883	11101.064391
492.863440	10862.572443
493.230939	10637.555500
493.598380	10452.003230
493.965763	10433.051012
494.333088	10299.833481
494.700354	10229.315300
495.067563	10195.713489
495.434713	10205.216064
495.801805	10253.343960
496.168839	10211.305778
496.535815	10182.601448
496.902733	10221.511594
497.269593	10179.889307
497.636395	10190.049753
498.003139	10298.147215
498.369825	10223.218025
498.736453	10319.380555
499.103023	10260.746894
499.469535	10269.947000
499.835989	10318.863837
500.202385	10289.912490
500.568723	10304.191558
500.935003	10365.857473
501.301226	10337.039717
501.667390	10495.049643
502.033497	10607.404359
502.399546	10526.246823
502.765537	10442.659452
503.131470	10541.501355
503.497345	10637.530295
503.863163	10407.459595
504.228923	10538.501868
504.594625	10656.505198
504.960269	10564.642772
505.325856	10720.850485
505.691385	10599.184758
506.056856	10670.297795
506.422270	10761.840107
506.787625	10705.419513
507.152924	10759.465724
507.518164	10821.297996
507.883347	10683.472850
508.248472	10752.118242
508.613540	10867.638803
508.978550	10931.469893
509.343503	10916.323746
509.708398	10974.032355
510.073236	11093.895870
510.438016	11114.804056
510.802738	11025.918431
511.167403	11149.691361
511.532010	11211.289220
511.896561	11301.064608
512.261053	11503.333344
512.625488	11422.236302
512.989866	11411.715414
513.354186	11388.531148
513.718449	11398.419371
514.082655	11541.991433
514.446803	11494.662560
514.810894	11606.321597
515.174927	11596.730802
515.538904	11577.975189
515.902822	11748.225036
516.266684	11619.473967
516.630488	11715.613812
516.994235	11707.764736
517.357925	11825.074906
517.721558	11883.340562
518.085133	11942.750560
518.448651	11973.925056
518.812112	11930.336719
519.175516	11935.713110
519.538863	12024.848271
519.902152	12038.260261
520.265385	12142.712969
520.628560	12166.406392
520.991678	12103.969181
521.354739	12165.715754
521.717743	12234.509860
522.080690	12211.214688
522.443580	12349.168383
522.806413	12356.225999
523.169189	12348.187879
523.531908	12406.629976
523.894569	12366.993903
524.257174	12378.480172
524.619722	12483.847850
524.982213	12473.342085
525.344647	12454.087398
525.707025	12472.351498
526.069345	12569.615521
526.431608	12549.186245
526.793815	12629.222124
527.155964	12521.152388
527.518057	12549.748333
527.880093	12511.617046
528.242072	12629.774130
528.603995	12559.860888
528.965860	12569.050911
529.327669	12600.374121
529.689421	12551.653889
530.051117	12562.313409
530.412755	12597.052000
530.774337	12609.606994
531.135862	12563.598903
531.497331	12623.631484
531.858743	12576.519381
532.220098	12668.202846
532.581396	12587.541864
532.942638	12508.756191
533.303824	12580.103641
533.664953	12566.792474
534.026025	12524.446782
534.387040	12630.890746
534.747999	12600.464862
535.108902	12649.003611
535.469748	12518.261286
535.830537	12545.914536
536.191270	12586.369795
536.551947	12515.455884
536.912567	12579.115575
537.273131	12608.273609
537.633638	12495.886125
537.994089	12542.282384
538.354483	12467.978297
538.714821	12589.036566
539.075103	12676.243486
539.435328	12612.460287
539.795497	12578.850914
540.155609	12577.572982
540.515665	12686.945856
540.875665	12549.397973
541.235609	12640.642858
541.595496	12604.245727
541.955328	12776.368363
542.315102	12618.116462
542.674821	12554.330742
543.034483	12573.736664
543.394090	12570.711972
543.753640	12552.392418
544.113134	12791.184314
544.472571	12559.760065
544.831953	12829.484481
545.191278	12644.050678
545.550548	12592.010847
545.909761	12698.013709
546.268918	12734.272208
546.628019	12813.498982
546.987064	12688.601875
547.346053	12545.337324
547.704986	12744.725041
548.063863	12623.235753
548.422684	12679.255576
548.781449	12629.232206
549.140158	12733.279101
549.498811	12682.716328
549.857408	12552.717573
550.215949	12757.252308
550.574434	12724.716701
550.932864	12657.487873
551.291237	12855.358203
551.649555	12751.989343
552.007817	12814.388746
552.366022	12732.711971
552.724173	12777.681584
553.082267	12856.794932
553.440305	12953.847226
553.798288	12773.625976
554.156215	12852.825023
554.514086	12894.767423
554.871902	12840.494361
555.229661	12860.248122
555.587365	12811.480000
555.945014	12819.470229
556.302606	12806.653095
556.660143	12868.114843
557.017625	12896.249522
557.375050	12862.138555
557.732421	12965.207466
558.089735	12958.480046
558.446994	12924.699274
558.804197	13048.835167
559.161345	13033.444524
559.518437	12852.608253
559.875474	12950.426803
560.232455	12981.752533
560.589381	13032.015357
560.946251	12969.018578
561.303065	13146.578099
561.659825	13097.716715
562.016528	13001.062673
562.373177	12939.621089
562.729770	13072.405082
563.086307	12953.222122
563.442789	13069.879464
563.799216	13103.115791
564.155587	13042.944579
564.511904	13059.560222
564.868164	13077.990680
565.224370	13139.971667
565.580520	13090.696908
565.936615	13143.707162
566.292654	13087.798245
566.648638	13156.877176
567.004567	13156.602433
567.360441	13153.597906
567.716260	13124.744862
568.072023	13216.967730
568.427732	13189.798431
568.783385	13091.745468
569.138982	13205.650340
569.494525	13200.528527
569.850013	13142.456956
570.205445	13145.390907
570.560823	13154.785097
570.916145	13106.541255
571.271412	13124.870890
571.626625	13076.596801
571.981782	13073.632603
572.336884	13013.647913
572.691931	13098.041870
573.046923	12994.854492
573.401860	12972.696100
573.756743	12971.720637
574.111570	13003.754649
574.466342	12984.096669
574.821059	13029.653577
575.175722	12902.866037
575.530330	12930.272270
575.884882	12849.379394
576.239380	12859.570087
576.593823	12848.136750
576.948211	12831.672342
577.302544	12707.450749
577.656823	12729.994789
578.011047	12794.526599
578.365216	12721.356772
578.719330	12660.709171
579.073389	12638.265954
579.427394	12638.429791
579.781344	12634.522897
580.135239	12563.840879
580.489080	12581.192530
580.842866	12466.077782
581.196597	12557.199159
581.550273	12539.603011
581.903895	12515.705421
582.257463	12625.279941
582.610975	12468.003503
582.964434	12545.375132
583.317837	12467.146507
583.671186	12415.068867
584.024481	12464.547792
584.377721	12360.727749
584.730906	12426.693768
585.084037	12450.835854
585.437113	12366.426774
585.790135	12390.508366
586.143103	12301.431177
586.496016	12317.787201
586.848874	12319.733086
587.201679	12319.259218
587.554428	12197.457379
587.907124	12250.021490
588.259765	12181.323166
588.612352	12248.980492
588.964884	12109.958072
589.317362	12168.155672
589.669786	12157.612099
590.022155	12113.943104
590.374470	12211.257538
590.726731	12088.427304
591.078937	11983.742703
591.431090	12011.514419
591.783188	11944.361209
592.135232	11868.015455
592.487222	11933.560537
592.839157	11935.088007
593.191038	11875.806558
593.542866	11822.458547
593.894639	11683.761282
594.246358	11741.606001
594.598022	11748.230078
594.949633	11658.815132
595.301190	11639.295784
595.652692	11596.335071
596.004141	11685.934019
596.355535	11470.679270
596.706876	11451.797628
597.058162	11423.557085
597.409395	11509.450784
597.760573	11536.985567
598.111698	11430.902046
598.462768	11430.891963
598.813785	11435.733992
599.164748	11310.622636
599.515657	11385.420756
599.866511	11265.232086
600.217312	11390.560212
600.568060	11158.944399
600.918753	11318.945581
601.269392	11319.779892
601.619978	11230.430481
601.970510	11262.668660
602.320988	11305.823457
602.671412	11373.037161
603.021783	11299.272478
603.372100	11226.805891
603.722363	11245.869014
604.072572	11258.010633
604.422728	11251.263049
604.772830	11198.646006
605.122878	11209.020700
605.472872	11185.269304
605.822813	11235.995915
606.172701	11196.158196
606.522534	11243.945814
606.872314	11286.258739
607.222041	11219.571835
607.571714	11294.871550
607.921333	11161.659060
608.270899	11217.583100
608.620411	11273.376070
608.969870	11221.419418
609.319276	11199.964267
609.668627	11223.763555
610.017926	11309.009466
610.367171	11336.211533
610.716362	11326.409009
611.065500	11297.656788
611.414585	11324.553864
611.763616	11380.969417
612.112594	11335.606594
612.461518	11374.302491
612.810389	11410.500496
613.159207	11359.226920
613.507971	11360.502332
613.856682	11456.891714
614.205340	11415.508882
614.553945	11552.784543
614.902496	11426.382651
615.250994	11487.872125
615.599439	11469.514764
615.947830	11512.888851
616.296169	11480.083543
616.644454	11487.360448
616.992686	11505.692604
617.340864	11599.072418
617.688990	11493.689617
618.037063	11632.931327
618.385082	11603.548962
618.733048	11639.368881
619.080961	11629.112653
619.428821	11610.074736
619.776628	11617.681837
620.124382	11568.780124
620.472083	11580.891496
620.819731	11598.689290
621.167326	11532.246882
621.514868	11509.990188
621.862357	11412.746330
622.209793	11400.168651
622.557176	11315.429376
622.904506	11256.984759
623.251783	11172.855463
623.599007	11119.832607
623.946179	11075.742675
624.293297	11050.128572
624.640363	10911.620350
624.987376	10900.812116
625.334336	10829.212608
625.681243	10748.849054
626.028097	10722.004910
626.374899	10679.830617
626.721647	10665.037351
627.068343	10626.230548
627.414987	10551.084588
627.761577	10490.510084
628.108115	10530.441063
628.454600	10406.577393
628.801032	10430.601012
629.147412	10407.237784
629.493739	10386.334640
629.840014	10307.576693
630.186236	10356.564106
630.532405	10248.494370
630.878521	10289.541965
631.224585	10236.350230
631.570597	10163.356843
631.916556	10165.819447
632.262462	10156.163117
632.608316	10139.260128
632.954117	10107.394994
633.299866	10097.040464
633.645562	10074.723276
633.991206	9974.449685
634.336797	9876.726918
634.682336	9860.938024
635.027823	9813.538575
635.373257	9768.291699
635.718639	9701.254435
636.063968	9674.264097
636.409245	9560.830574
636.754470	9543.904900
637.099642	9491.623093
637.444762	9402.281244
637.789829	9405.043797
638.134845	9327.984719
638.479808	9302.731059
