Dividing Wavelength (nm)	Counts (n)	Blue Motor Position (mm): 0.000000	Red Motor Position (mm): 23.000000	
326.493990	2144.501805
326.888308	2144.501805
327.282561	2144.501805
327.676750	2121.262086
328.070874	2121.025152
328.464933	2126.325925
328.858929	2133.771709
329.252859	2148.355767
329.646726	2159.254742
330.040528	2177.342402
330.434265	2196.062727
330.827938	2210.810622
331.221547	2232.885835
331.615091	2252.042219
332.008571	2272.796650
332.401986	2290.067643
332.795338	2314.144194
333.188625	2334.752431
333.581847	2354.112982
333.975006	2372.193080
334.368100	2390.966337
334.761129	2409.008627
335.154095	2422.516398
335.546996	2441.894594
335.939833	2453.544700
336.332606	2470.946763
336.725315	2481.737353
337.117960	2487.290184
337.510540	2495.449292
337.903056	2507.427073
338.295508	2511.538134
338.687896	2518.424350
339.080220	2530.460105
339.472480	2534.440096
339.864676	2538.412525
340.256807	2539.115766
340.648875	2540.912938
341.040879	2543.670449
341.432818	2545.802857
341.824694	2544.759338
342.216506	2543.844369
342.608253	2543.680531
342.999937	2547.259750
343.391557	2543.098278
343.783113	2544.635830
344.174605	2540.466796
344.566033	2538.651980
344.957397	2539.934954
345.348697	2534.840868
345.739934	2535.685261
346.131106	2532.562266
346.522215	2529.681247
346.913260	2528.909950
347.304241	2527.818541
347.695159	2524.791328
348.086012	2524.317459
348.476802	2522.079187
348.867528	2521.791841
349.258191	2518.691532
349.648789	2520.042561
350.039324	2517.373270
350.429796	2519.437622
350.820203	2515.467714
351.210548	2516.049967
351.600828	2515.339164
351.991045	2514.643485
352.381198	2512.286746
352.771288	2514.368742
353.161314	2514.068793
353.551276	2517.101047
353.941175	2510.832373
354.331010	2515.392096
354.720782	2515.941582
355.110490	2515.618948
355.500135	2514.693897
355.889717	2515.021572
356.279235	2514.714061
356.668689	2513.509225
357.058080	2515.250944
357.447408	2514.073835
357.836672	2511.775068
358.225873	2514.784637
358.615010	2513.184071
359.004084	2517.501819
359.393095	2517.272447
359.782043	2519.172962
360.170927	2518.983918
360.559748	2521.451563
360.948505	2520.670184
361.337199	2522.787469
361.725830	2522.875689
362.114398	2519.029289
362.502903	2522.036337
362.891344	2523.437778
363.279722	2523.999867
363.668037	2524.476256
364.056289	2524.672861
364.444478	2526.427182
364.832603	2522.626152
365.220665	2529.111597
365.608665	2524.698066
365.996601	2524.589682
366.384474	2528.093283
366.772284	2528.549508
367.160031	2529.875331
367.547715	2527.059847
367.935336	2529.093952
368.322893	2529.479601
368.710388	2526.893489
369.097820	2532.589993
369.485189	2527.473222
369.872495	2531.206196
370.259738	2530.434899
370.646918	2530.676875
371.034035	2531.319622
371.421090	2532.874818
371.808081	2529.943387
372.195010	2531.491021
372.581875	2531.627132
372.968678	2534.225847
373.355418	2534.460261
373.742096	2537.517721
374.128710	2536.753986
374.515262	2537.744572
374.901751	2537.157278
375.288177	2538.170550
375.674540	2543.592311
376.060841	2541.059131
376.447079	2542.485778
376.833254	2544.716488
377.219367	2543.821683
377.605417	2548.119267
377.991404	2545.510470
378.377329	2552.021120
378.763191	2554.395504
379.148991	2560.626370
379.534727	2560.228119
379.920402	2568.432597
380.306013	2570.829665
380.691563	2576.407702
381.077049	2578.507342
381.462474	2586.835329
381.847835	2587.699887
382.233134	2594.679364
382.618371	2599.846547
383.003545	2606.309306
383.388657	2610.271653
383.773706	2619.761625
384.158693	2621.828498
384.543618	2631.850312
384.928480	2638.247536
385.313280	2647.240955
385.698017	2652.866882
386.082692	2663.440702
386.467305	2665.084119
386.851856	2677.061900
387.236344	2688.507840
387.620770	2693.445650
388.005133	2702.865046
388.389435	2714.678990
388.773674	2719.117726
389.157851	2727.639797
389.541965	2739.390726
389.926018	2740.053638
390.310008	2755.661050
390.693936	2764.951897
391.077802	2773.783998
391.461606	2781.877571
391.845348	2791.851494
392.229027	2802.369861
392.612645	2816.520380
392.996200	2822.927687
393.379694	2834.953359
393.763125	2855.395238
394.146494	2863.047710
394.529801	2873.102291
394.913047	2888.845814
395.296230	2895.232956
395.679351	2898.393760
396.062410	2915.596697
396.445408	2908.279463
396.828343	2922.636669
397.211217	2930.168153
397.594028	2923.775969
397.976778	2937.253494
398.359466	2951.081379
398.742092	2947.973508
399.124656	2964.952114
399.507158	2977.270173
399.889598	2984.083293
400.271977	2998.891682
400.654294	3005.850995
401.036549	3016.172758
401.418742	3022.083511
401.800874	3049.512429
402.182944	3054.331772
402.564952	3081.695155
402.946898	3070.292065
403.328783	3082.678180
403.710606	3099.707197
404.092367	3118.906432
404.474067	3147.951040
404.855705	3135.189359
405.237282	3136.731952
405.618797	3169.365861
406.000250	3193.868390
406.381642	3222.247565
406.762972	3224.974829
407.144240	3215.358828
407.525447	3237.880183
407.906593	3239.823548
408.287677	3259.015221
408.668700	3276.192953
409.049661	3276.046759
409.430560	3290.696352
409.811399	3292.168369
410.192176	3313.368942
410.572891	3324.799758
410.953545	3359.470293
411.334138	3329.213288
411.714669	3382.347050
412.095139	3326.324707
412.475547	3377.378993
412.855894	3368.262066
413.236180	3396.797517
413.616405	3379.024929
413.996568	3402.501583
414.376670	3407.094074
414.756711	3401.465626
415.136691	3427.672064
415.516609	3450.221145
415.896466	3456.603246
416.276262	3484.165754
416.655997	3510.604086
417.035670	3516.406454
417.415283	3585.765169
417.794834	3606.368365
418.174324	3589.866148
418.553753	3587.998400
418.933121	3633.814927
419.312428	3621.774131
419.691674	3621.675828
420.070859	3657.344512
420.449983	3641.527892
420.829045	3684.944830
421.208047	3671.013601
421.586988	3718.040005
421.965867	3746.633429
422.344686	3755.331940
422.723444	3795.648568
423.102141	3696.529401
423.480777	3801.584527
423.859352	3767.249228
424.237866	3862.469062
424.616319	3852.941282
424.994712	3913.150303
425.373044	3896.312849
425.751314	3962.679639
426.129524	3896.688415
426.507673	3992.976974
426.885762	3974.884273
427.263789	3996.165504
427.641756	4000.183303
428.019662	4029.482489
428.397508	4027.551727
428.775292	4065.945155
429.153016	4073.769026
429.530679	4089.386521
429.908282	4094.573868
430.285824	4072.546546
430.663305	4144.176301
431.040726	4104.512503
431.418086	4094.248713
431.795385	4166.337213
432.172624	4198.240156
432.549802	4165.177748
432.926920	4184.124925
433.303977	4176.530427
433.680974	4215.435531
434.057910	4236.346238
434.434786	4239.159201
434.811601	4233.808017
435.188355	4333.794262
435.565050	4303.139005
435.941683	4298.115496
436.318257	4386.744021
436.694770	4386.837283
437.071222	4442.158905
437.447614	4372.076784
437.823946	4373.498390
438.200218	4386.902818
438.576429	4364.184858
438.952580	4387.979104
439.328670	4387.827869
439.704700	4424.368673
440.080670	4384.079772
440.456580	4436.192699
440.832429	4467.405003
441.208218	4362.173438
441.583947	4404.735899
441.959616	4416.159154
442.335224	4431.340589
442.710773	4441.768216
443.086261	4485.061645
443.461689	4433.389818
443.837057	4431.398562
444.212365	4492.542717
444.587612	4484.638188
444.962800	4445.899441
445.337927	4476.844564
445.712995	4354.621789
446.088002	4516.238661
446.462949	4527.424981
446.837837	4525.279970
447.212664	4500.507740
447.587431	4677.840409
447.962139	4912.536367
448.336786	5181.865053
448.711374	5148.555629
449.085901	4831.653575
449.460369	4759.799488
449.834776	4689.704765
450.209124	4856.589642
450.583412	4837.271941
450.957640	4914.454527
451.331808	4782.956028
451.705917	4640.571159
452.079965	4609.878093
452.453954	4614.480667
452.827883	4559.592584
453.201752	4544.053227
453.575562	4541.141961
453.949311	4610.316674
454.323001	4583.769958
454.696632	4547.582035
455.070202	4627.728819
455.443713	4615.834217
455.817164	4640.677023
456.190556	4658.217718
456.563888	4607.977578
456.937160	4621.692038
457.310373	4490.395186
457.683526	4498.750898
458.056619	4453.062921
458.429653	4408.582300
458.802628	4399.959406
459.175542	4377.259090
459.548398	4419.350204
459.921194	4479.034945
460.293930	4475.748113
460.666607	4559.784148
461.039224	4628.180003
461.411782	4644.941839
461.784280	4564.784972
462.156719	4525.499260
462.529099	4455.132314
462.901419	4342.316333
463.273680	4243.436620
463.645882	4192.916697
464.018024	4149.862723
464.390106	4135.046772
464.762130	4192.205894
465.134094	4298.753202
465.505999	4492.421729
465.877845	4699.091393
466.249631	4766.181589
466.621358	4680.620605
466.993026	4552.908014
467.364634	4415.713012
467.736184	4267.518212
468.107674	4163.594826
468.479105	4088.748815
468.850477	4014.792567
469.221790	3919.454266
469.593043	3809.743634
469.964238	3737.985330
470.335373	3686.084131
470.706449	3681.907535
471.077467	3683.724871
471.448425	3782.458389
471.819324	3866.696070
472.190164	3832.781707
472.560945	3687.518339
472.931667	3550.182185
473.302330	3476.435145
473.672934	3413.050197
474.043479	3391.927763
474.413965	3338.592355
474.784393	3294.946045
475.154761	3284.679735
475.525070	3256.245107
475.895321	3217.763459
476.265513	3195.416024
476.635645	3192.431661
477.005719	3161.426044
477.375734	3140.843013
477.745691	3125.124695
478.115588	3119.453397
478.485427	3114.112295
478.855207	3133.946714
479.224928	3150.305259
479.594591	3150.436329
479.964194	3120.827112
480.333739	3092.027000
480.703226	3064.855180
481.072653	3046.495298
481.442022	3030.562731
481.811333	3015.076307
482.180584	2983.392655
482.549777	2955.792338
482.918912	2932.852567
483.287988	2917.429157
483.657005	2892.235990
484.025964	2871.610109
484.394864	2854.321472
484.763706	2838.484687
485.132489	2817.009372
485.501213	2809.175419
485.869879	2792.186731
486.238487	2778.850358
486.607036	2771.210489
486.975527	2757.349837
487.343959	2750.377921
487.712333	2743.171592
488.080648	2735.579614
488.448905	2726.979406
488.817104	2723.833726
489.185244	2716.229145
489.553326	2718.152345
489.921350	2722.371791
490.289315	2724.206771
490.657222	2724.163921
491.025070	2717.985987
491.392861	2711.233362
491.760593	2702.650797
492.128267	2694.413552
492.495883	2686.841739
492.863440	2680.152127
493.230939	2673.490243
493.598380	2665.925991
493.965763	2658.694456
494.333088	2658.676812
494.700354	2652.690442
495.067563	2650.938641
495.434713	2647.261119
495.801805	2646.525111
496.168839	2645.831952
496.535815	2643.432363
496.902733	2642.219965
497.269593	2639.107053
497.636395	2641.075623
498.003139	2638.454223
498.369825	2635.442134
498.736453	2635.825262
499.103023	2636.367186
499.469535	2634.610344
499.835989	2634.418780
500.202385	2632.586320
500.568723	2629.629684
500.935003	2630.776546
501.301226	2629.009622
501.667390	2630.035497
502.033497	2626.242028
502.399546	2629.428037
502.765537	2623.146760
503.131470	2623.010649
503.497345	2623.550052
503.863163	2625.064919
504.228923	2625.629528
504.594625	2622.244393
504.960269	2622.428395
505.325856	2625.211112
505.691385	2618.266923
506.056856	2620.195164
506.422270	2619.827160
506.787625	2617.031840
507.152924	2617.266254
507.518164	2615.915225
507.883347	2617.210801
508.248472	2617.291460
508.613540	2617.427571
508.978550	2614.975049
509.343503	2614.581839
509.708398	2616.220214
510.073236	2616.442025
510.438016	2614.508743
510.802738	2614.299535
511.167403	2617.815740
511.532010	2615.577467
511.896561	2614.239041
512.261053	2616.119391
512.625488	2611.599997
512.989866	2612.245265
513.354186	2613.757611
513.718449	2608.666045
514.082655	2611.504215
514.446803	2612.593104
514.810894	2616.857920
515.174927	2615.542179
515.538904	2613.339195
515.902822	2611.244596
516.266684	2616.101747
516.630488	2615.582508
516.994235	2614.526387
517.357925	2611.783999
517.721558	2616.754577
518.085133	2614.130656
518.448651	2614.113012
518.812112	2612.593104
519.175516	2615.196860
519.538863	2613.445059
519.902152	2616.071500
520.265385	2615.287601
520.628560	2615.285080
520.991678	2613.896242
521.354739	2614.889350
521.717743	2613.288783
522.080690	2615.401027
522.443580	2616.106788
522.806413	2616.560492
523.169189	2615.426233
523.531908	2613.218207
523.894569	2614.949844
524.257174	2613.308948
524.619722	2612.497322
524.982213	2613.722323
525.344647	2614.022271
525.707025	2612.162086
526.069345	2611.017744
526.431608	2614.917076
526.793815	2613.624020
527.155964	2612.252826
527.518057	2611.935234
527.880093	2615.950513
528.242072	2613.555965
528.603995	2613.616458
528.965860	2613.175357
529.327669	2613.182919
529.689421	2611.650408
530.051117	2612.232662
530.412755	2612.318361
530.774337	2611.569750
531.135862	2612.109153
531.497331	2611.514297
531.858743	2608.078751
532.220098	2609.956581
532.581396	2606.982300
532.942638	2607.448607
533.303824	2606.531117
533.664953	2609.162599
534.026025	2611.844493
534.387040	2612.187291
534.747999	2610.687548
535.108902	2611.574791
535.469748	2611.234513
535.830537	2610.090171
536.191270	2610.942126
536.551947	2609.545727
536.912567	2608.839965
537.273131	2606.659666
537.633638	2608.787033
537.994089	2607.370469
538.354483	2610.080089
538.714821	2609.276025
539.075103	2609.253340
539.435328	2607.337701
539.795497	2608.083792
540.155609	2610.284256
540.515665	2608.661004
540.875665	2609.023967
541.235609	2606.909203
541.595496	2609.782661
541.955328	2609.996910
542.315102	2609.674276
542.674821	2606.904162
543.034483	2607.771241
543.394090	2606.004316
543.753640	2609.066817
544.113134	2608.275356
544.472571	2606.180757
544.831953	2607.541868
545.191278	2609.797784
545.550548	2606.243771
545.909761	2607.877105
546.268918	2604.721343
546.628019	2610.692589
546.987064	2607.478854
547.346053	2606.498349
547.704986	2608.406426
548.063863	2608.235027
548.422684	2608.608072
548.781449	2607.211672
549.140158	2606.097577
549.498811	2608.471961
549.857408	2609.684358
550.215949	2603.798811
550.574434	2601.825200
550.932864	2603.758482
551.291237	2603.009871
551.649555	2606.447938
552.007817	2605.928699
552.366022	2606.221086
552.724173	2607.564553
553.082267	2608.237547
553.440305	2607.277207
553.798288	2606.314347
554.156215	2608.822321
554.514086	2610.291817
554.871902	2608.923144
555.229661	2606.223606
555.587365	2609.076899
555.945014	2610.057404
556.302606	2606.188318
556.660143	2607.975407
557.017625	2607.405757
557.375050	2607.864502
557.732421	2609.863319
558.089735	2607.546909
558.446994	2607.685541
558.804197	2607.347784
559.161345	2607.680500
559.518437	2609.442383
559.875474	2608.991200
560.232455	2607.819132
560.589381	2608.320726
560.946251	2611.312651
561.303065	2611.617641
561.659825	2609.886005
562.016528	2605.888370
562.373177	2605.691765
562.729770	2606.203442
563.086307	2610.639657
563.442789	2605.621188
563.799216	2607.884667
564.155587	2606.059769
564.511904	2608.789554
564.868164	2608.817280
565.224370	2611.637806
565.580520	2610.241406
565.936615	2609.447424
566.292654	2606.798298
566.648638	2607.057917
567.004567	2610.513628
567.360441	2607.529265
567.716260	2608.630757
568.072023	2609.011364
568.427732	2603.672782
568.783385	2607.035232
569.138982	2604.025663
569.494525	2603.355190
569.850013	2603.513986
570.205445	2609.354163
570.560823	2608.537496
570.916145	2607.534306
571.271412	2607.098247
571.626625	2609.500356
571.981782	2607.695623
572.336884	2609.384410
572.691931	2607.773761
573.046923	2607.756117
573.401860	2605.449789
573.756743	2606.846189
574.111570	2608.822321
574.466342	2609.888525
574.821059	2609.081941
575.175722	2605.676641
575.530330	2606.659666
575.884882	2608.287959
576.239380	2603.211517
576.593823	2608.441714
576.948211	2607.355345
577.302544	2606.820983
577.656823	2609.717126
578.011047	2605.681682
578.365216	2607.385592
578.719330	2606.027001
579.073389	2606.707557
579.427394	2603.211517
579.781344	2605.903493
580.135239	2605.482557
580.489080	2604.721342
580.842866	2603.423245
581.196597	2604.333174
581.550273	2611.126128
581.903895	2603.491301
582.257463	2606.672269
582.610975	2605.593462
582.964434	2606.367279
583.317837	2605.361569
583.671186	2606.551281
584.024481	2603.624892
584.377721	2604.449120
584.730906	2604.295365
585.084037	2605.172526
585.437113	2606.513473
585.790135	2607.436004
586.143103	2604.895262
586.496016	2604.678493
586.848874	2604.156733
587.201679	2602.656990
587.554428	2604.040787
587.907124	2598.997112
588.259765	2602.170519
588.612352	2605.686723
588.964884	2605.001127
589.317362	2605.916096
589.669786	2605.190170
590.022155	2605.858123
590.374470	2603.692947
590.726731	2605.502721
591.078937	2604.643205
591.431090	2605.540530
591.783188	2604.940633
592.135232	2602.757813
592.487222	2603.945005
592.839157	2604.411312
593.191038	2602.609099
593.542866	2601.013574
593.894639	2602.430138
594.246358	2605.273349
594.598022	2603.980293
594.949633	2601.779829
595.301190	2602.593976
595.652692	2602.785539
596.004141	2601.474839
596.355535	2602.362083
596.706876	2602.944336
597.058162	2602.606578
597.409395	2600.965683
597.760573	2603.211517
598.111698	2602.223451
598.462768	2603.196393
598.813785	2603.166147
599.164748	2602.972062
599.515657	2602.246136
599.866511	2603.211517
600.217312	2601.051383
600.568060	2599.289499
600.918753	2603.108173
601.269392	2603.521548
601.619978	2601.744541
601.970510	2601.580704
602.320988	2601.368975
602.671412	2603.115735
603.021783	2600.138934
603.372100	2599.496187
603.722363	2603.183791
604.072572	2600.882504
604.422728	2601.656321
604.772830	2594.886051
605.122878	2597.167173
605.472872	2596.627770
605.822813	2595.659868
606.172701	2599.211361
606.522534	2598.629108
606.872314	2601.404263
607.222041	2599.670106
607.571714	2601.865529
607.921333	2599.793615
608.270899	2602.291506
608.620411	2602.503235
608.969870	2600.514500
609.319276	2597.429313
609.668627	2602.374685
610.017926	2599.007195
610.367171	2600.690940
610.716362	2602.107504
611.065500	2603.985334
611.414585	2601.928543
611.763616	2602.926692
612.112594	2600.370827
612.461518	2600.726228
612.810389	2600.776640
613.159207	2597.693974
613.507971	2601.570621
613.856682	2600.436362
614.205340	2601.426948
614.553945	2602.790581
614.902496	2601.174891
615.250994	2601.552977
615.599439	2603.350149
615.947830	2600.428800
616.296169	2600.905189
616.644454	2602.974583
616.992686	2597.734303
617.340864	2602.427617
617.688990	2600.862339
618.037063	2604.688575
618.385082	2603.216558
618.733048	2602.089860
619.080961	2599.634818
619.428821	2600.204469
619.776628	2601.386619
620.124382	2602.472988
620.472083	2600.985847
620.819731	2602.863677
621.167326	2600.542226
621.514868	2602.009202
621.862357	2601.883173
622.209793	2602.717484
622.557176	2600.582555
622.904506	2595.347317
623.251783	2598.523244
623.599007	2596.118613
623.946179	2594.906216
624.293297	2597.053747
624.640363	2599.584407
624.987376	2600.343100
625.334336	2599.748244
625.681243	2597.487287
626.028097	2597.436875
626.374899	2598.737493
626.721647	2599.004674
627.068343	2598.435024
627.414987	2600.164139
627.761577	2597.394025
628.108115	2597.777153
628.454600	2600.600199
628.801032	2596.844540
629.147412	2596.844540
629.493739	2596.993254
629.840014	2599.362596
630.186236	2597.111721
630.532405	2597.567945
630.878521	2595.443099
631.224585	2596.554673
631.570597	2598.132554
631.916556	2598.470312
632.262462	2597.129365
632.608316	2596.670620
632.954117	2596.620208
633.299866	2596.411000
633.645562	2598.858481
633.991206	2595.697677
634.336797	2595.009560
634.682336	2595.070053
635.027823	2592.831781
635.373257	2595.440578
635.718639	2596.267327
636.063968	2597.134406
636.409245	2595.564087
636.754470	2592.640217
637.099642	2595.415372
637.444762	2594.084508
637.789829	2594.293716
638.134845	2594.596185
638.479808	2593.172059
638.824719	2593.736668
639.169577	2591.032089
639.514383	2594.271031
639.859137	2593.396390
640.203839	2594.298757
640.548489	2592.741040
640.893086	2591.135433
641.237632	2589.746595
641.582125	2588.965216
641.926566	2589.136615
642.270955	2592.380598
642.615292	2592.289857
642.959576	2593.645927
643.303809	2591.745412
643.647990	2588.806420
643.992118	2593.550146
644.336195	2592.481421
