Dividing Wavelength (nm)	Counts (n)	Blue Motor Position (mm): 0.000000	Red Motor Position (mm): 18.000000	
326.493990	2145.966260
326.888308	2145.966260
327.282561	2145.966260
327.676750	2121.244442
328.070874	2121.425923
328.464933	2125.312653
328.858929	2136.625002
329.252859	2147.418113
329.646726	2162.962510
330.040528	2175.199911
330.434265	2195.243539
330.827938	2212.549820
331.221547	2231.260063
331.615091	2252.115316
332.008571	2272.635333
332.401986	2293.931687
332.795338	2316.488330
333.188625	2332.972903
333.581847	2353.170286
333.975006	2373.445807
334.368100	2392.491286
334.761129	2408.587690
335.154095	2425.339445
335.546996	2440.478030
335.939833	2455.246090
336.332606	2466.989458
336.725315	2479.431025
337.117960	2488.966368
337.510540	2496.823006
337.903056	2503.931033
338.295508	2514.151973
338.687896	2516.014679
339.080220	2527.881555
339.472480	2531.458254
339.864676	2535.728111
340.256807	2538.838503
340.648875	2540.126518
341.040879	2544.567774
341.432818	2541.308668
341.824694	2543.836807
342.216506	2546.861499
342.608253	2543.189019
342.999937	2541.686755
343.391557	2543.378062
343.783113	2541.114584
344.174605	2541.064172
344.566033	2540.305479
344.957397	2537.928575
345.348697	2534.440096
345.739934	2532.826927
346.131106	2532.332894
346.522215	2528.552028
346.913260	2526.127233
347.304241	2524.040196
347.695159	2522.200175
348.086012	2523.823426
348.476802	2521.668333
348.867528	2519.440143
349.258191	2521.421316
349.648789	2517.746315
350.039324	2515.127436
350.429796	2516.528877
350.820203	2515.566016
351.210548	2515.077024
351.600828	2513.436129
351.991045	2514.986283
352.381198	2512.730367
352.771288	2513.385717
353.161314	2515.744977
353.551276	2512.516118
353.941175	2513.615090
354.331010	2513.683145
354.720782	2514.300687
355.110490	2513.428567
355.500135	2514.845131
355.889717	2516.468383
356.279235	2512.319513
356.668689	2514.809843
357.058080	2516.349916
357.447408	2512.276663
357.836672	2513.173989
358.225873	2514.482168
358.615010	2514.036026
359.004084	2516.440656
359.393095	2517.625328
359.782043	2519.135153
360.170927	2518.638599
360.559748	2518.444515
360.948505	2519.561131
361.337199	2522.744619
361.725830	2521.083559
362.114398	2519.359484
362.502903	2520.609691
362.891344	2521.570030
363.279722	2523.641945
363.668037	2522.200175
364.056289	2524.380474
364.444478	2523.289064
364.832603	2523.788138
365.220665	2524.256965
365.608665	2523.447860
365.996601	2526.270906
366.384474	2525.857532
366.772284	2525.867614
367.160031	2526.908612
367.547715	2524.912315
367.935336	2525.842408
368.322893	2523.427696
368.710388	2527.836185
369.097820	2529.905578
369.485189	2527.647141
369.872495	2527.233767
370.259738	2528.317615
370.646918	2527.982378
371.034035	2526.008766
371.421090	2528.267203
371.808081	2530.208048
372.195010	2530.339118
372.581875	2531.327184
372.968678	2532.998326
373.355418	2533.426824
373.742096	2536.640560
374.128710	2533.111752
374.515262	2535.032432
374.901751	2536.539737
375.288177	2539.929913
375.674540	2538.122659
376.060841	2540.381096
376.447079	2540.721374
376.833254	2544.272867
377.219367	2543.080634
377.605417	2547.355532
377.991404	2548.530121
378.377329	2547.176571
378.763191	2553.929197
379.148991	2558.947666
379.534727	2564.324056
379.920402	2561.314487
380.306013	2568.006619
380.691563	2574.723957
381.077049	2576.821077
381.462474	2582.721747
381.847835	2589.824733
382.233134	2589.892788
382.618371	2598.339242
383.003545	2604.076075
383.388657	2607.834255
383.773706	2618.932355
384.158693	2622.589712
384.543618	2628.598768
384.928480	2635.893317
385.313280	2645.305152
385.698017	2648.922179
386.082692	2660.100938
386.467305	2666.551094
386.851856	2676.819925
387.236344	2686.249403
387.620770	2692.669312
388.005133	2699.691640
388.389435	2712.372662
388.773674	2718.028837
389.157851	2728.312791
389.541965	2740.295613
389.926018	2741.702095
390.310008	2753.077459
390.693936	2764.442740
391.077802	2770.860129
391.461606	2782.918569
391.845348	2787.062398
392.229027	2800.441620
392.612645	2816.429639
392.996200	2824.860969
393.379694	2833.393122
393.763125	2852.930114
394.146494	2861.870600
394.529801	2870.927033
394.913047	2885.856410
395.296230	2888.344220
395.679351	2894.852349
396.062410	2915.823549
396.445408	2910.006058
396.828343	2923.123140
397.211217	2929.578338
397.594028	2922.102306
397.976778	2939.617795
398.359466	2950.214301
398.742092	2944.989145
399.124656	2964.127885
399.507158	2975.762868
399.889598	2980.625061
400.271977	2996.718945
400.654294	3002.980058
401.036549	3013.130421
401.418742	3018.158972
401.800874	3046.281049
402.182944	3052.521997
402.564952	3077.631985
402.946898	3070.745769
403.328783	3078.030236
403.710606	3092.820981
404.092367	3116.975670
404.474067	3145.909372
404.855705	3133.792959
405.237282	3134.387815
405.618797	3166.129441
406.000250	3190.100127
406.381642	3218.191957
406.762972	3219.117009
407.144240	3212.742470
407.525447	3235.049575
407.906593	3235.568814
408.287677	3251.932400
408.668700	3270.120883
409.049661	3269.344545
409.430560	3286.081176
409.811399	3288.581588
410.192176	3309.409115
410.572891	3313.989003
410.953545	3353.957792
411.334138	3325.034172
411.714669	3374.059393
412.095139	3318.999910
412.475547	3366.928681
412.855894	3358.809902
413.236180	3385.480127
413.616405	3365.998588
413.996568	3389.404665
414.376670	3389.870972
414.756711	3384.464334
415.136691	3409.171029
415.516609	3426.752053
415.896466	3431.699946
416.276262	3453.732309
416.655997	3482.545023
417.035670	3482.187102
417.415283	3539.499980
417.794834	3558.409348
418.174324	3538.108621
418.553753	3532.878424
418.933121	3568.431162
419.312428	3554.681414
419.691674	3540.218344
420.070859	3570.089701
420.449983	3545.456103
420.829045	3583.295004
421.208047	3557.617887
421.586988	3589.596446
421.965867	3607.749641
422.344686	3609.259467
422.723444	3630.976757
423.102141	3538.582490
423.480777	3614.940847
423.859352	3573.179928
424.237866	3644.270280
424.616319	3619.838328
424.994712	3650.997700
425.373044	3628.158752
425.751314	3666.327849
426.129524	3600.402159
426.507673	3657.105058
426.885762	3626.512816
427.263789	3625.708752
427.641756	3612.377420
428.019662	3618.530148
428.397508	3603.205041
428.775292	3605.655042
429.153016	3591.978391
429.530679	3582.808532
429.908282	3567.448137
430.285824	3534.136192
430.663305	3556.145870
431.040726	3513.253212
431.418086	3483.948985
431.795385	3507.765916
432.172624	3502.417252
432.549802	3460.036272
432.926920	3451.161320
433.303977	3427.175510
433.680974	3423.306425
434.057910	3410.431318
434.434786	3389.205539
434.811601	3362.363916
435.188355	3389.666805
435.565050	3351.424612
435.941683	3326.417968
436.318257	3337.609330
436.694770	3311.740649
437.071222	3311.612099
437.447614	3259.347937
437.823946	3235.790625
438.200218	3221.383007
438.576429	3189.860672
438.952580	3175.725277
439.328670	3156.062256
439.704700	3143.237561
440.080670	3109.534927
440.456580	3105.091150
440.832429	3090.315528
441.208218	3042.207797
441.583947	3035.573638
441.959616	3018.758870
442.335224	3005.866119
442.710773	2984.907522
443.086261	2976.483753
443.461689	2948.500308
443.837057	2933.465067
444.212365	2925.116916
444.587612	2906.545306
444.962800	2885.022099
445.337927	2873.150182
445.712995	2840.541478
446.088002	2850.228055
446.462949	2834.587876
446.837837	2821.916935
447.212664	2806.622075
447.587431	2815.184474
447.962139	2830.812051
448.336786	2846.815194
448.711374	2828.238542
449.085901	2785.484517
449.460369	2759.827564
449.834776	2744.782240
450.209124	2750.118302
450.583412	2739.594893
450.957640	2734.707494
451.331808	2714.701675
451.705917	2699.898327
452.079965	2690.360464
452.453954	2682.092972
452.827883	2668.552433
453.201752	2663.687719
453.575562	2657.960968
453.949311	2655.604229
454.323001	2648.415543
454.696632	2642.393885
455.070202	2645.479071
455.443713	2639.487660
455.817164	2629.838892
456.190556	2629.599437
456.563888	2625.468211
456.937160	2620.545524
457.310373	2617.737602
457.683526	2612.726695
458.056619	2610.480861
458.429653	2608.623196
458.802628	2604.832248
459.175542	2605.331322
459.548398	2602.614140
459.921194	2605.785026
460.293930	2604.280242
460.666607	2605.417022
461.039224	2605.495160
461.411782	2606.342073
461.784280	2601.164808
462.156719	2600.466609
462.529099	2596.282451
462.901419	2594.666761
463.273680	2593.600557
463.645882	2594.419745
464.018024	2593.877821
464.390106	2591.011925
464.762130	2593.345979
465.134094	2594.578541
465.505999	2598.866042
465.877845	2606.021960
466.249631	2606.062289
466.621358	2602.656990
466.993026	2605.908534
467.364634	2603.914758
467.736184	2597.157091
468.107674	2597.086515
468.479105	2597.769591
468.850477	2596.007708
469.221790	2595.521237
469.593043	2593.184662
469.964238	2593.167018
470.335373	2593.439240
470.706449	2593.948397
471.077467	2591.808427
471.448425	2595.518716
471.819324	2599.377719
472.190164	2600.864860
472.560945	2597.099118
472.931667	2597.278079
473.302330	2591.647110
473.672934	2596.209354
474.043479	2592.209199
474.413965	2592.327666
474.784393	2587.649475
475.154761	2588.967737
475.525070	2589.353385
475.895321	2587.553693
476.265513	2587.755339
476.635645	2592.075608
477.005719	2594.283633
477.375734	2594.215578
477.745691	2593.414034
478.115588	2596.438727
478.485427	2594.223140
478.855207	2599.781012
479.224928	2600.063316
479.594591	2603.607247
479.964194	2599.667586
480.333739	2604.519696
480.703226	2603.093050
481.072653	2604.015581
481.442022	2605.482557
481.811333	2604.867536
482.180584	2604.781836
482.549777	2603.070365
482.918912	2604.234871
483.287988	2601.920982
483.657005	2603.216558
484.025964	2600.968203
484.394864	2600.219592
484.763706	2603.992896
485.132489	2600.615323
485.501213	2600.012905
485.869879	2600.849736
486.238487	2598.586258
486.607036	2600.365786
486.975527	2600.443923
487.343959	2597.893100
487.712333	2599.458378
488.080648	2598.989551
488.448905	2600.302771
488.817104	2599.717997
489.185244	2601.752103
489.553326	2602.954418
489.921350	2601.865529
490.289315	2607.420880
490.657222	2608.527414
491.025070	2605.442228
491.392861	2607.332660
491.760593	2603.831579
492.128267	2600.973245
492.495883	2602.286465
492.863440	2600.262442
493.230939	2599.430652
493.598380	2598.150198
493.965763	2592.839343
494.333088	2594.669282
494.700354	2592.599888
495.067563	2596.090887
495.434713	2591.740371
495.801805	2595.937132
496.168839	2599.130703
496.535815	2596.436206
496.902733	2595.808582
497.269593	2595.695157
497.636395	2595.478387
498.003139	2595.493510
498.369825	2597.083994
498.736453	2595.919488
499.103023	2594.810434
499.469535	2594.311360
499.835989	2595.455702
500.202385	2594.311360
500.568723	2594.455033
500.935003	2594.535691
501.301226	2593.744230
501.667390	2594.286154
502.033497	2595.561566
502.399546	2596.090887
502.765537	2596.194231
503.131470	2596.587441
503.497345	2594.505444
503.863163	2594.359251
504.228923	2593.880341
504.594625	2597.225147
504.960269	2594.820516
505.325856	2595.586772
505.691385	2594.712132
506.056856	2595.102821
506.422270	2593.842532
506.787625	2596.726073
507.152924	2596.221957
507.518164	2594.898654
507.883347	2595.765733
508.248472	2594.828078
508.613540	2594.891092
508.978550	2594.684405
509.343503	2594.129878
509.708398	2593.812286
510.073236	2595.748089
510.438016	2595.526278
510.802738	2594.870928
511.167403	2595.314549
511.532010	2595.112903
511.896561	2595.397728
512.261053	2596.592482
512.625488	2590.938828
512.989866	2594.114755
513.354186	2592.299939
513.718449	2591.427820
514.082655	2592.786411
514.446803	2593.865218
514.810894	2594.840681
515.174927	2594.974272
515.538904	2595.405290
515.902822	2597.552822
516.266684	2593.237594
516.630488	2595.087697
516.994235	2596.534509
517.357925	2595.657348
517.721558	2596.088367
518.085133	2594.898654
518.448651	2593.517378
518.812112	2593.638366
519.175516	2597.469643
519.538863	2596.743717
519.902152	2594.971751
520.265385	2596.564756
520.628560	2595.826227
520.991678	2595.707759
521.354739	2595.400249
521.717743	2593.013263
522.080690	2594.044179
522.443580	2597.588110
522.806413	2595.357399
523.169189	2595.856473
523.531908	2595.198603
523.894569	2595.528798
524.257174	2595.057451
524.619722	2594.056782
524.982213	2596.965527
525.344647	2594.369333
525.707025	2593.202306
526.069345	2592.052923
526.431608	2595.390167
526.793815	2592.569641
527.155964	2596.461412
527.518057	2594.051740
527.880093	2595.359920
528.242072	2595.233891
528.603995	2596.723552
528.965860	2595.155753
529.327669	2595.453181
529.689421	2596.708428
530.051117	2598.830754
530.412755	2591.465628
530.774337	2595.291864
531.135862	2596.161463
531.497331	2593.129209
531.858743	2590.769949
532.220098	2592.657861
532.581396	2591.100145
532.942638	2589.292891
533.303824	2591.362285
533.664953	2594.432347
534.026025	2594.815475
534.387040	2593.333376
534.747999	2595.243973
535.108902	2594.170207
535.469748	2592.960331
535.830537	2596.383274
536.191270	2595.254056
536.551947	2596.385795
536.912567	2593.913109
537.273131	2596.640373
537.633638	2595.009560
537.994089	2595.569128
538.354483	2593.456884
538.714821	2594.460074
539.075103	2596.655496
539.435328	2594.913778
539.795497	2591.566452
540.155609	2595.125506
540.515665	2592.834302
540.875665	2593.235073
541.235609	2595.201123
541.595496	2595.180959
541.955328	2592.521750
542.315102	2593.149374
542.674821	2592.564600
543.034483	2594.092070
543.394090	2593.290526
543.753640	2595.180959
544.113134	2590.548138
544.472571	2595.692636
544.831953	2592.715835
545.191278	2593.572831
545.550548	2594.384457
545.909761	2594.830599
546.268918	2593.640886
546.628019	2595.281782
546.987064	2593.373705
547.346053	2595.180959
547.704986	2593.618201
548.063863	2591.226174
548.422684	2593.963520
548.781449	2593.582913
549.140158	2593.865218
549.498811	2593.797162
549.857408	2592.955289
550.215949	2588.440936
550.574434	2590.890937
550.932864	2589.118971
551.291237	2588.657706
551.649555	2594.969230
552.007817	2592.035279
552.366022	2593.529981
552.724173	2591.833633
553.082267	2592.841863
553.440305	2593.923191
553.798288	2593.328335
554.156215	2589.648293
554.514086	2594.898654
554.871902	2593.739189
555.229661	2595.279261
555.587365	2595.201123
555.945014	2591.818509
556.302606	2593.706421
556.660143	2594.187852
557.017625	2594.497882
557.375050	2595.382605
557.732421	2594.316401
558.089735	2591.510999
558.446994	2593.348499
558.804197	2595.347317
559.161345	2591.773139
559.518437	2594.636514
559.875474	2593.328335
560.232455	2593.303129
560.589381	2593.925712
560.946251	2595.261617
561.303065	2591.752974
561.659825	2591.306832
562.016528	2595.803541
562.373177	2592.133581
562.729770	2592.143664
563.086307	2595.246494
563.442789	2592.862028
563.799216	2593.043510
564.155587	2591.914291
564.511904	2593.456884
564.868164	2595.243973
565.224370	2591.085021
565.580520	2591.296750
565.936615	2594.457553
566.292654	2593.822368
566.648638	2592.758684
567.004567	2595.317070
567.360441	2595.833788
567.716260	2590.202819
568.072023	2592.199116
568.427732	2591.163159
568.783385	2589.688622
569.138982	2591.538725
569.494525	2590.969075
569.850013	2588.579568
570.205445	2592.385639
570.560823	2593.159456
570.916145	2591.962182
571.271412	2593.227512
571.626625	2593.797162
571.981782	2591.667275
572.336884	2594.122317
572.691931	2590.848087
573.046923	2591.115268
573.401860	2592.642738
573.756743	2592.060485
574.111570	2591.702563
574.466342	2593.955958
574.821059	2594.013932
575.175722	2594.384457
575.530330	2592.509147
575.884882	2592.899837
576.239380	2589.507140
576.593823	2594.702049
576.948211	2590.875813
577.302544	2592.773808
577.656823	2590.800196
578.011047	2592.448653
578.365216	2592.390680
578.719330	2593.305650
579.073389	2591.924373
579.427394	2589.129054
579.781344	2589.960844
580.135239	2589.849939
580.489080	2590.265834
580.842866	2590.671647
581.196597	2593.968561
581.550273	2589.466811
581.903895	2591.755495
582.257463	2590.243149
582.610975	2589.098807
582.964434	2591.687439
583.317837	2592.574682
583.671186	2589.393714
584.024481	2592.269692
584.377721	2590.366657
584.730906	2589.996132
585.084037	2589.343303
585.437113	2591.969744
585.790135	2592.569641
586.143103	2589.297932
586.496016	2590.296081
586.848874	2585.754001
587.201679	2587.578899
587.554428	2588.014959
587.907124	2587.112592
588.259765	2583.240986
588.612352	2590.170052
588.964884	2589.106368
589.317362	2590.228025
589.669786	2588.864393
590.022155	2592.811617
590.374470	2589.454208
590.726731	2590.127202
591.078937	2588.897161
591.431090	2591.659713
591.783188	2589.234918
592.135232	2590.911102
592.487222	2589.547469
592.839157	2587.667119
593.191038	2589.630648
593.542866	2590.686770
593.894639	2590.754826
594.246358	2591.122830
594.598022	2588.133426
594.949633	2590.084352
595.301190	2589.426482
595.652692	2589.008066
596.004141	2587.581419
596.355535	2589.839856
596.706876	2589.643251
597.058162	2588.193920
597.409395	2592.045361
597.760573	2589.005545
598.111698	2586.638724
598.462768	2586.966399
598.813785	2588.982860
599.164748	2587.374732
599.515657	2587.790627
599.866511	2587.868765
600.217312	2585.194433
600.568060	2587.770463
600.918753	2587.639393
601.269392	2586.963878
601.619978	2586.522777
601.970510	2590.780032
602.320988	2587.193251
602.671412	2589.595360
603.021783	2586.734506
603.372100	2588.251893
603.722363	2588.246852
604.072572	2588.249372
604.422728	2587.553693
604.772830	2583.951789
605.122878	2586.810123
605.472872	2583.488002
605.822813	2583.125039
606.172701	2586.517736
606.522534	2587.762901
606.872314	2588.395566
607.222041	2588.403127
607.571714	2590.008735
607.921333	2588.660226
608.270899	2587.478076
608.620411	2587.223497
608.969870	2589.333220
609.319276	2589.290371
609.668627	2588.178796
610.017926	2585.912798
610.367171	2588.211564
610.716362	2587.576378
611.065500	2588.864393
611.414585	2586.442119
611.763616	2588.191399
612.112594	2589.693663
612.461518	2587.412541
612.810389	2587.364650
613.159207	2585.832139
613.507971	2590.175093
613.856682	2588.415730
614.205340	2587.009248
614.553945	2588.569486
614.902496	2586.570668
615.250994	2588.040164
615.599439	2586.235431
615.947830	2588.866914
616.296169	2586.966399
616.644454	2591.483272
616.992686	2586.598394
617.340864	2588.342634
617.688990	2585.968250
618.037063	2588.798858
618.385082	2587.888930
618.733048	2591.866400
619.080961	2586.610997
619.428821	2588.657706
619.776628	2590.263313
620.124382	2588.110741
620.472083	2589.691142
620.819731	2588.874475
621.167326	2587.316759
621.514868	2588.629979
621.862357	2589.391194
622.209793	2588.982860
622.557176	2589.187027
622.904506	2583.694690
623.251783	2584.912128
623.599007	2584.339957
623.946179	2584.518918
624.293297	2582.245358
624.640363	2587.180648
624.987376	2587.105030
625.334336	2586.142170
625.681243	2588.635021
626.028097	2586.258117
626.374899	2583.354412
626.721647	2587.634352
627.068343	2586.870617
627.414987	2585.622931
627.761577	2584.808785
628.108115	2585.360791
628.454600	2584.324834
628.801032	2585.832139
629.147412	2586.905905
629.493739	2584.324834
629.840014	2584.173599
630.186236	2583.871130
630.532405	2583.838363
630.878521	2586.679053
631.224585	2586.739547
631.570597	2584.224011
631.916556	2586.898343
632.262462	2588.297263
632.608316	2586.737026
632.954117	2583.808116
633.299866	2586.885740
633.645562	2587.372212
633.991206	2587.977150
634.336797	2584.183682
634.682336	2585.322982
635.027823	2584.801223
635.373257	2583.543455
635.718639	2581.874833
636.063968	2583.755184
636.409245	2583.586305
636.754470	2583.356932
637.099642	2581.433732
637.444762	2584.372725
637.789829	2580.980028
638.134845	2585.736357
638.479808	2581.675708
638.824719	2584.992787
639.169577	2582.459607
639.514383	2584.657550
639.859137	2582.951120
640.203839	2584.980184
640.548489	2582.220152
640.893086	2579.613876
641.237632	2580.133115
641.582125	2581.166551
641.926566	2577.678073
642.270955	2585.948086
642.615292	2582.920873
642.959576	2582.567992
643.303809	2584.498754
643.647990	2584.002200
643.992118	2579.692014
644.336195	2584.246696
