Dividing Wavelength (nm)	Counts (n)	Blue Motor Position (mm): 0.000000	Red Motor Position (mm): 5.500000	
326.493990	2149.018679
326.888308	2149.018679
327.282561	2149.018679
327.676750	2124.238887
328.070874	2125.244597
328.464933	2131.485546
328.858929	2139.523666
329.252859	2153.283495
329.646726	2167.393685
330.040528	2179.396672
330.434265	2199.679754
330.827938	2218.049719
331.221547	2237.458161
331.615091	2259.482963
332.008571	2278.588936
332.401986	2295.935546
332.795338	2317.362970
333.188625	2339.612103
333.581847	2358.140864
333.975006	2373.294572
334.368100	2398.016391
334.761129	2410.271436
335.154095	2428.510330
335.546996	2444.011878
335.939833	2456.347582
336.332606	2472.738894
336.725315	2482.029740
337.117960	2492.480052
337.510540	2500.684530
337.903056	2509.985459
338.295508	2518.021058
338.687896	2522.353930
339.080220	2531.629653
339.472480	2538.117618
339.864676	2541.192722
340.256807	2544.250182
340.648875	2546.140614
341.040879	2548.585574
341.432818	2547.312682
341.824694	2551.156562
342.216506	2550.014741
342.608253	2550.365101
342.999937	2548.719164
343.391557	2547.179092
343.783113	2547.768907
344.174605	2544.124153
344.566033	2542.389996
344.957397	2541.661549
345.348697	2539.493853
345.739934	2539.191384
346.131106	2536.141486
346.522215	2535.672658
346.913260	2534.246012
347.304241	2530.434899
347.695159	2530.444982
348.086012	2526.901051
348.476802	2526.928777
348.867528	2525.111441
349.258191	2523.014321
349.648789	2525.066071
350.039324	2520.886954
350.429796	2521.191944
350.820203	2518.124402
351.210548	2519.828312
351.600828	2520.150946
351.991045	2516.702796
352.381198	2516.488547
352.771288	2517.746315
353.161314	2517.612725
353.551276	2515.245903
353.941175	2516.032323
354.331010	2516.233969
354.720782	2518.434433
355.110490	2520.259330
355.500135	2518.716737
355.889717	2514.895543
356.279235	2517.411078
356.668689	2520.879392
357.058080	2521.355781
357.447408	2516.029802
357.836672	2516.831346
358.225873	2518.174813
358.615010	2515.520646
359.004084	2521.431399
359.393095	2521.776718
359.782043	2522.981553
360.170927	2521.552386
360.559748	2524.292253
360.948505	2524.224198
361.337199	2523.601615
361.725830	2524.239321
362.114398	2525.413910
362.502903	2524.942562
362.891344	2526.850639
363.279722	2526.901051
363.668037	2527.148067
364.056289	2526.654034
364.444478	2526.767460
364.832603	2525.703777
365.220665	2527.634538
365.608665	2527.899199
365.996601	2527.019518
366.384474	2529.983716
366.772284	2531.879190
367.160031	2526.928777
367.547715	2532.058151
367.935336	2530.828109
368.322893	2530.452543
368.710388	2529.076308
369.097820	2533.149561
369.485189	2530.016484
369.872495	2533.510003
370.259738	2532.814324
370.646918	2531.526309
371.034035	2532.559746
371.421090	2532.700898
371.808081	2532.564787
372.195010	2536.464119
372.581875	2535.670138
372.968678	2534.382123
373.355418	2536.706095
373.742096	2535.178625
374.128710	2538.031918
374.515262	2539.627443
374.901751	2539.642567
375.288177	2540.860006
375.674540	2541.719522
376.060841	2541.011240
376.447079	2545.901159
376.833254	2547.249668
377.219367	2544.943340
377.605417	2547.620193
377.991404	2551.895091
378.377329	2554.123281
378.763191	2552.232849
379.148991	2558.030176
379.534727	2561.075032
379.920402	2563.182235
380.306013	2566.884962
380.691563	2571.298493
381.077049	2570.857392
381.462474	2575.976683
381.847835	2578.585480
382.233134	2583.891295
382.618371	2582.507498
383.003545	2590.283478
383.388657	2594.709611
383.773706	2594.833119
384.158693	2598.740013
384.543618	2602.241095
384.928480	2603.201435
385.313280	2609.815428
385.698017	2613.858434
386.082692	2617.230966
386.467305	2614.254164
386.851856	2621.420165
387.236344	2626.148767
387.620770	2627.141874
388.005133	2629.516258
388.389435	2634.411218
388.773674	2632.724952
389.157851	2633.282000
389.541965	2638.597896
389.926018	2634.534726
390.310008	2638.139151
390.693936	2638.774337
391.077802	2638.366003
391.461606	2639.646456
391.845348	2639.215438
392.229027	2638.812145
392.612645	2639.933802
392.996200	2639.759882
393.379694	2638.907927
393.763125	2640.621920
394.146494	2638.466826
394.529801	2635.691671
394.913047	2634.716208
395.296230	2633.786115
395.679351	2628.578603
396.062410	2628.187914
396.445408	2622.635083
396.828343	2621.087448
397.211217	2613.119905
397.594028	2605.490118
397.976778	2604.237392
398.359466	2603.932402
398.742092	2595.939652
399.124656	2597.988882
399.507158	2594.238263
399.889598	2593.633325
400.271977	2590.843046
400.654294	2585.575040
401.036549	2581.821901
401.418742	2580.622107
401.800874	2578.711509
402.182944	2574.802094
402.564952	2573.758576
402.946898	2572.662125
403.328783	2567.825137
403.710606	2566.751372
404.092367	2562.927657
404.474067	2565.231464
404.855705	2561.511092
405.237282	2561.435475
405.618797	2561.405228
406.000250	2560.765002
406.381642	2559.224929
406.762972	2555.610422
407.144240	2558.509085
407.525447	2556.981616
407.906593	2556.056564
408.287677	2559.164435
408.668700	2554.783673
409.049661	2555.711245
409.430560	2554.529094
409.811399	2556.558159
410.192176	2552.338713
410.572891	2555.035730
410.953545	2552.510112
411.334138	2555.018086
411.714669	2554.680329
412.095139	2554.700493
412.475547	2550.062632
412.855894	2555.842315
413.236180	2554.455997
413.616405	2555.880123
413.996568	2556.696790
414.376670	2556.853066
414.756711	2554.889537
415.136691	2557.667213
415.516609	2555.222253
415.896466	2556.933725
416.276262	2557.712583
416.655997	2549.689587
417.035670	2550.289484
417.415283	2551.471634
417.794834	2554.032541
418.174324	2553.999773
418.553753	2557.281564
418.933121	2556.462377
419.312428	2557.251317
419.691674	2557.415155
420.070859	2555.807027
420.449983	2555.121430
420.829045	2554.871893
421.208047	2557.400031
421.586988	2558.846842
421.965867	2560.200392
422.344686	2558.690567
422.723444	2558.650237
423.102141	2557.702501
423.480777	2557.354661
423.859352	2559.461863
424.237866	2561.155691
424.616319	2558.370453
424.994712	2557.606719
425.373044	2559.514795
425.751314	2561.001936
426.129524	2556.603529
426.507673	2560.064281
426.885762	2556.361554
427.263789	2561.354817
427.641756	2558.834240
428.019662	2559.502192
428.397508	2557.977243
428.775292	2560.727193
429.153016	2559.174518
429.530679	2562.731052
429.908282	2560.442368
430.285824	2562.252142
430.663305	2560.386915
431.040726	2561.102759
431.418086	2563.494786
431.795385	2560.588561
432.172624	2561.697615
432.549802	2564.162739
432.926920	2562.088304
433.303977	2563.109138
433.680974	2563.157029
434.057910	2562.937739
434.434786	2561.420352
434.811601	2563.215002
435.188355	2563.509910
435.565050	2564.376988
435.941683	2564.132492
436.318257	2560.694425
436.694770	2560.160063
437.071222	2559.134188
437.447614	2561.652245
437.823946	2561.964796
438.200218	2562.622667
438.576429	2564.785322
438.952580	2562.857080
439.328670	2565.458316
439.704700	2563.973696
440.080670	2564.192986
440.456580	2565.160888
440.832429	2564.124931
441.208218	2565.400342
441.583947	2564.737431
441.959616	2563.802297
442.335224	2564.472770
442.710773	2561.616957
443.086261	2565.334808
443.461689	2565.360013
443.837057	2565.506207
444.212365	2564.147616
444.587612	2567.346228
444.962800	2566.050651
445.337927	2566.585014
445.712995	2563.749365
446.088002	2565.654921
446.462949	2563.905640
446.837837	2567.462174
447.212664	2566.501835
447.587431	2563.701474
447.962139	2564.777760
448.336786	2567.273131
448.711374	2567.641135
449.085901	2567.817576
449.460369	2565.254149
449.834776	2565.851526
450.209124	2566.380847
450.583412	2567.535271
450.957640	2570.791857
451.331808	2569.108111
451.705917	2564.379509
452.079965	2569.125755
452.453954	2565.118038
452.827883	2568.074675
453.201752	2565.745662
453.575562	2566.363203
453.949311	2567.346228
454.323001	2567.845302
454.696632	2567.184911
455.070202	2568.903944
455.443713	2570.413770
455.817164	2563.484704
456.190556	2566.549726
456.563888	2563.225085
456.937160	2564.140054
457.310373	2567.686506
457.683526	2567.663821
458.056619	2569.340004
458.429653	2570.217165
458.802628	2571.716908
459.175542	2569.158523
459.548398	2568.714901
459.921194	2567.661300
460.293930	2568.041907
460.666607	2569.387895
461.039224	2570.660787
461.411782	2572.518452
461.784280	2571.033832
462.156719	2569.060220
462.529099	2568.823286
462.901419	2568.427555
463.273680	2571.517783
463.645882	2569.549212
464.018024	2572.223544
464.390106	2570.403688
464.762130	2572.188256
465.134094	2571.270766
465.505999	2573.249419
465.877845	2571.863102
466.249631	2571.666497
466.621358	2571.321178
466.993026	2573.040211
467.364634	2574.345870
467.736184	2570.449058
468.107674	2572.231106
468.479105	2569.952504
468.850477	2571.752196
469.221790	2572.374779
469.593043	2569.859243
469.964238	2573.476271
470.335373	2572.321847
470.706449	2574.522310
471.077467	2573.710685
471.448425	2570.824624
471.819324	2571.351425
472.190164	2572.349573
472.560945	2569.884449
472.931667	2572.710016
473.302330	2573.156158
473.672934	2569.574418
474.043479	2572.941909
474.413965	2573.602300
474.784393	2567.285734
475.154761	2568.611557
475.525070	2565.879252
475.895321	2569.254305
476.265513	2566.645508
476.635645	2571.545509
477.005719	2573.693041
477.375734	2574.580284
477.745691	2570.617937
478.115588	2572.566343
478.485427	2571.711867
478.855207	2571.815211
479.224928	2573.335119
479.594591	2573.347722
479.964194	2573.589697
480.333739	2573.635067
480.703226	2574.756724
481.072653	2572.730180
481.442022	2574.870150
481.811333	2574.968452
482.180584	2573.710685
482.549777	2573.496436
482.918912	2574.401323
483.287988	2573.231775
483.657005	2574.986097
484.025964	2571.681620
484.394864	2574.275294
484.763706	2574.582804
485.132489	2575.054152
485.501213	2573.549368
485.869879	2573.478792
486.238487	2572.674727
486.607036	2574.492063
486.975527	2575.583473
487.343959	2574.494584
487.712333	2574.958370
488.080648	2570.706157
488.448905	2573.244378
488.817104	2573.561971
489.185244	2573.289748
489.553326	2574.839903
489.921350	2578.983732
490.289315	2573.667835
490.657222	2574.378637
491.025070	2575.321333
491.392861	2576.962229
491.760593	2575.245716
492.128267	2573.042732
492.495883	2573.806467
492.863440	2575.480130
493.230939	2573.206569
493.598380	2576.266550
493.965763	2569.970148
494.333088	2571.386713
494.700354	2570.796898
495.067563	2571.994172
495.434713	2568.820765
495.801805	2575.215469
496.168839	2574.514749
496.535815	2577.027764
496.902733	2572.556260
497.269593	2577.529359
497.636395	2574.484502
498.003139	2573.219172
498.369825	2572.314285
498.736453	2574.439131
499.103023	2575.699420
499.469535	2575.286045
499.835989	2576.816035
500.202385	2577.778896
500.568723	2574.628175
500.935003	2575.210428
501.301226	2575.628844
501.667390	2574.240006
502.033497	2577.355439
502.399546	2575.192784
502.765537	2574.103895
503.131470	2574.862588
503.497345	2577.088258
503.863163	2577.065573
504.228923	2574.759245
504.594625	2576.543813
504.960269	2572.916703
505.325856	2575.283525
505.691385	2575.845613
506.056856	2573.188925
506.422270	2574.000551
506.787625	2575.248237
507.152924	2575.278483
507.518164	2573.672876
507.883347	2575.543144
508.248472	2575.512897
508.613540	2576.243864
508.978550	2574.035839
509.343503	2575.376786
509.708398	2577.758731
510.073236	2575.931313
510.438016	2575.437280
510.802738	2572.415108
511.167403	2578.416602
511.532010	2576.528690
511.896561	2574.262691
512.261053	2577.584811
512.625488	2572.278997
512.989866	2573.720767
513.354186	2573.166240
513.718449	2574.751683
514.082655	2571.774882
514.446803	2576.032136
514.810894	2575.931313
515.174927	2579.092116
515.538904	2576.327043
515.902822	2576.284194
516.266684	2571.626167
516.630488	2577.693196
516.994235	2576.468196
517.357925	2575.011302
517.721558	2576.490881
518.085133	2576.150603
518.448651	2578.177147
518.812112	2576.871488
519.175516	2575.465006
519.538863	2576.495922
519.902152	2575.583473
520.265385	2578.711509
520.628560	2577.068093
520.991678	2580.135635
521.354739	2577.166396
521.717743	2579.737384
522.080690	2578.414081
522.443580	2576.662280
522.806413	2576.322002
523.169189	2575.548185
523.531908	2576.274111
523.894569	2576.483319
524.257174	2577.632702
524.619722	2575.565829
524.982213	2577.998186
525.344647	2580.352405
525.707025	2576.586663
526.069345	2575.510377
526.431608	2575.863257
526.793815	2577.453741
527.155964	2579.215625
527.518057	2574.121539
527.880093	2576.924420
528.242072	2577.229410
528.603995	2578.043556
528.965860	2578.247723
529.327669	2575.497774
529.689421	2576.672363
530.051117	2576.632033
530.412755	2575.338977
530.774337	2576.470716
531.135862	2578.376273
531.497331	2571.301013
531.858743	2573.095664
532.220098	2574.106415
532.581396	2572.407546
532.942638	2571.323698
533.303824	2576.455593
533.664953	2576.843762
534.026025	2575.568350
534.387040	2579.460121
534.747999	2576.286714
535.108902	2577.299986
535.469748	2576.485840
535.830537	2580.722930
536.191270	2578.046077
536.551947	2579.119843
536.912567	2576.344687
537.273131	2578.537589
537.633638	2580.274267
537.994089	2577.342836
538.354483	2578.502301
538.714821	2580.894329
539.075103	2576.160685
539.435328	2577.909966
539.795497	2577.539441
540.155609	2578.852662
540.515665	2578.467013
540.875665	2578.214956
541.235609	2578.454410
541.595496	2580.082703
541.955328	2576.629513
542.315102	2578.464493
542.674821	2575.084399
543.034483	2577.978021
543.394090	2576.997517
543.753640	2577.562126
544.113134	2578.237641
544.472571	2574.827300
544.831953	2577.242013
545.191278	2576.571539
545.550548	2577.133628
545.909761	2578.822415
546.268918	2576.130438
546.628019	2580.032292
546.987064	2578.567836
547.346053	2579.928948
547.704986	2579.243351
548.063863	2576.609348
548.422684	2576.939544
548.781449	2579.291242
549.140158	2574.976014
549.498811	2580.191088
549.857408	2578.648495
550.215949	2573.816549
550.574434	2574.353432
550.932864	2574.625654
551.291237	2574.396282
551.649555	2579.838207
552.007817	2578.265367
552.366022	2581.779051
552.724173	2573.531724
553.082267	2577.504153
553.440305	2576.747980
553.798288	2577.363001
554.156215	2578.683783
554.514086	2578.635892
554.871902	2579.293762
555.229661	2577.030284
555.587365	2577.816704
555.945014	2575.301169
556.302606	2575.686817
556.660143	2577.363001
557.017625	2578.862744
557.375050	2575.848134
557.732421	2579.197981
558.089735	2578.277970
558.446994	2580.687642
558.804197	2577.869637
559.161345	2579.361818
559.518437	2579.608835
559.875474	2578.620768
560.232455	2577.373083
560.589381	2577.506673
560.946251	2581.821901
561.303065	2579.765110
561.659825	2578.555233
562.016528	2577.698237
562.373177	2578.477096
562.729770	2575.666652
563.086307	2577.315110
563.442789	2577.030284
563.799216	2579.886098
564.155587	2577.403330
564.511904	2576.730336
564.868164	2577.312589
565.224370	2577.098340
565.580520	2576.730336
565.936615	2579.195460
566.292654	2580.007086
566.648638	2578.401478
567.004567	2580.531366
567.360441	2581.025399
567.716260	2577.557085
568.072023	2576.737898
568.427732	2575.979204
568.783385	2577.874678
569.138982	2573.309913
569.494525	2575.701940
569.850013	2573.826631
570.205445	2578.915676
570.560823	2577.536920
570.916145	2575.102043
571.271412	2574.683627
571.626625	2582.280646
571.981782	2577.252095
572.336884	2579.510532
572.691931	2579.656726
573.046923	2580.584298
573.401860	2577.042887
573.756743	2577.589852
574.111570	2577.345357
574.466342	2577.862075
574.821059	2580.173444
575.175722	2574.945767
575.530330	2577.403330
575.884882	2577.040367
576.239380	2577.657908
576.593823	2580.657395
576.948211	2577.194122
577.302544	2577.395768
577.656823	2577.703278
578.011047	2578.993814
578.365216	2579.250913
578.719330	2578.015830
579.073389	2576.455593
579.427394	2574.577763
579.781344	2578.351067
580.135239	2580.095306
580.489080	2579.571026
580.842866	2579.064390
581.196597	2581.688311
581.550273	2580.773341
581.903895	2579.127404
582.257463	2577.705799
582.610975	2578.567836
582.964434	2578.071283
583.317837	2579.296283
583.671186	2578.945923
584.024481	2578.227558
584.377721	2577.932651
584.730906	2575.921231
585.084037	2578.726633
585.437113	2579.054308
585.790135	2580.158320
586.143103	2576.977352
586.496016	2579.210583
586.848874	2574.081209
587.201679	2574.648339
587.554428	2578.028433
587.907124	2578.262847
588.259765	2574.076168
588.612352	2578.335943
588.964884	2575.923751
589.317362	2578.265367
589.669786	2580.155800
590.022155	2575.530541
590.374470	2578.663618
590.726731	2581.259812
591.078937	2578.270408
591.431090	2579.533217
591.783188	2576.432908
592.135232	2579.893660
592.487222	2577.652867
592.839157	2579.145048
593.191038	2576.576581
593.542866	2579.752507
593.894639	2577.098340
594.246358	2579.533217
594.598022	2578.371231
594.949633	2578.993814
595.301190	2576.768144
595.652692	2576.339646
596.004141	2581.617734
596.355535	2579.215625
596.706876	2578.792168
597.058162	2576.846282
597.409395	2576.856365
597.760573	2577.874678
598.111698	2578.388875
598.462768	2576.599266
598.813785	2578.356108
599.164748	2579.066911
599.515657	2579.172775
599.866511	2579.064390
600.217312	2578.499781
600.568060	2580.269226
600.918753	2581.348033
601.269392	2577.231931
601.619978	2580.460790
601.970510	2580.428022
602.320988	2581.433732
602.671412	2578.691345
603.021783	2577.927610
603.372100	2577.128587
603.722363	2577.695717
604.072572	2578.290573
604.422728	2577.932651
604.772830	2575.553226
605.122878	2574.154306
605.472872	2577.536920
605.822813	2574.315623
606.172701	2572.964594
606.522534	2575.764955
606.872314	2579.041705
607.222041	2575.457444
607.571714	2575.447362
607.921333	2579.429874
608.270899	2577.862075
608.620411	2580.107909
608.969870	2581.441294
609.319276	2578.288052
609.668627	2578.371231
610.017926	2579.329051
610.367171	2577.335274
610.716362	2580.995152
611.065500	2578.993814
611.414585	2576.369893
611.763616	2578.056159
612.112594	2578.245202
612.461518	2579.870975
612.810389	2578.557754
613.159207	2578.436766
613.507971	2578.487178
613.856682	2577.209245
614.205340	2578.446849
614.553945	2578.023392
614.902496	2576.868968
615.250994	2581.106057
615.599439	2576.160685
615.947830	2577.173957
616.296169	2579.455079
616.644454	2577.698237
616.992686	2576.198494
617.340864	2579.394586
617.688990	2576.432908
618.037063	2576.861406
618.385082	2577.403330
618.733048	2579.384503
619.080961	2576.939544
619.428821	2577.562126
619.776628	2578.895511
620.124382	2580.433063
620.472083	2577.211766
620.819731	2578.862744
621.167326	2577.186560
621.514868	2577.236972
621.862357	2578.000707
622.209793	2578.575398
622.557176	2577.725964
622.904506	2575.492732
623.251783	2573.234296
623.599007	2574.207238
623.946179	2576.127918
624.293297	2574.930644
624.640363	2576.334605
624.987376	2577.249575
625.334336	2577.652867
625.681243	2579.172775
626.028097	2580.531366
626.374899	2577.932651
626.721647	2577.539441
627.068343	2578.860223
627.414987	2576.377455
627.761577	2580.864082
628.108115	2580.029771
628.454600	2579.419791
628.801032	2578.177147
629.147412	2577.773855
629.493739	2577.622620
629.840014	2578.280491
630.186236	2576.589183
630.532405	2578.517425
630.878521	2578.472054
631.224585	2577.264698
631.570597	2576.201015
631.916556	2578.194791
632.262462	2577.461303
632.608316	2579.127404
632.954117	2576.589183
633.299866	2575.016343
633.645562	2577.753690
633.991206	2580.417940
634.336797	2578.570357
634.682336	2579.838207
635.027823	2580.044894
635.373257	2577.635223
635.718639	2578.111612
636.063968	2578.749318
636.409245	2576.891653
636.754470	2577.962898
637.099642	2576.904256
637.444762	2579.571026
637.789829	2577.481468
638.134845	2577.085737
638.479808	2575.787640
638.824719	2577.713361
639.169577	2576.359811
639.514383	2574.920562
639.859137	2576.044739
640.203839	2575.018864
640.548489	2577.262177
640.893086	2574.870150
641.237632	2574.514749
641.582125	2574.403843
641.926566	2574.713874
642.270955	2574.721436
642.615292	2576.634554
642.959576	2579.011458
643.303809	2575.714543
643.647990	2574.955850
643.992118	2575.170099
644.336195	2577.872157
