Dividing Wavelength (nm)	Counts (n)	Blue Motor Position (mm): 0.000000	Red Motor Position (mm): 3.000000	
326.493990	2149.454739
326.888308	2149.454739
327.282561	2149.454739
327.676750	2124.929525
328.070874	2124.097735
328.464933	2128.178549
328.858929	2140.731022
329.252859	2153.432209
329.646726	2167.630619
330.040528	2179.144614
330.434265	2201.000537
330.827938	2218.493341
331.221547	2238.789026
331.615091	2258.462129
332.008571	2277.923503
332.401986	2297.407563
332.795338	2316.458083
333.188625	2338.563543
333.581847	2359.733868
333.975006	2377.529142
334.368100	2395.662172
334.761129	2415.113464
335.154095	2429.561411
335.546996	2448.695110
335.939833	2456.387911
336.332606	2472.418780
336.725315	2483.753815
337.117960	2491.940649
337.510540	2500.273676
337.903056	2510.333298
338.295508	2518.212622
338.687896	2520.027437
339.080220	2530.689478
339.472480	2535.723070
339.864676	2539.776158
340.256807	2544.590459
340.648875	2545.137425
341.040879	2546.715306
341.432818	2548.265461
341.824694	2550.430636
342.216506	2550.791079
342.608253	2548.572971
342.999937	2548.951057
343.391557	2548.769576
343.783113	2546.591798
344.174605	2545.192877
344.566033	2542.024512
344.957397	2541.969059
345.348697	2536.741383
345.739934	2535.965045
346.131106	2534.931609
346.522215	2532.859694
346.913260	2533.051258
347.304241	2530.208048
347.695159	2533.840199
348.086012	2528.841895
348.476802	2527.016997
348.867528	2528.468849
349.258191	2523.246214
349.648789	2524.244362
350.039324	2519.291429
350.429796	2520.219001
350.820203	2519.873682
351.210548	2518.081552
351.600828	2517.852179
351.991045	2516.675070
352.381198	2515.903773
352.771288	2516.294463
353.161314	2518.782272
353.551276	2517.335461
353.941175	2515.054339
354.331010	2518.389062
354.720782	2518.474762
355.110490	2517.501819
355.500135	2519.639268
355.889717	2516.614576
356.279235	2520.004752
356.668689	2521.040709
357.058080	2520.687828
357.447408	2519.500637
357.836672	2516.730523
358.225873	2516.009638
358.615010	2516.511233
359.004084	2521.960720
359.393095	2521.070956
359.782043	2520.768487
360.170927	2521.617921
360.559748	2523.336955
360.948505	2521.227232
361.337199	2523.692356
361.725830	2523.601615
362.114398	2524.579599
362.502903	2525.355937
362.891344	2524.957686
363.279722	2525.875176
363.668037	2526.054137
364.056289	2525.834847
364.444478	2527.165711
364.832603	2526.139836
365.220665	2528.431041
365.608665	2527.911802
365.996601	2530.502955
366.384474	2528.965403
366.772284	2529.575383
367.160031	2530.215609
367.547715	2528.388191
367.935336	2530.971782
368.322893	2530.283665
368.710388	2530.271062
369.097820	2533.278110
369.485189	2531.732997
369.872495	2530.757533
370.259738	2532.622760
370.646918	2530.044210
371.034035	2532.368182
371.421090	2533.139478
371.808081	2533.154602
372.195010	2535.077802
372.581875	2532.761392
372.968678	2534.218285
373.355418	2536.275076
373.742096	2536.330529
374.128710	2536.350693
374.515262	2533.540250
374.901751	2537.510159
375.288177	2539.708102
375.674540	2540.524769
376.060841	2540.285314
376.447079	2539.708102
376.833254	2541.621220
377.219367	2536.978317
377.605417	2539.972763
377.991404	2540.098791
378.377329	2542.453010
378.763191	2542.223638
379.148991	2545.036602
379.534727	2547.756304
379.920402	2548.860317
380.306013	2548.363763
380.691563	2552.883158
381.077049	2552.910884
381.462474	2553.268806
381.847835	2554.571944
382.233134	2556.480021
382.618371	2556.026317
383.003545	2558.196534
383.388657	2558.814075
383.773706	2561.470763
384.158693	2561.629559
384.543618	2564.729869
384.928480	2562.902451
385.313280	2563.903120
385.698017	2564.873542
386.082692	2564.750034
386.467305	2567.449572
386.851856	2567.187432
387.236344	2568.939233
387.620770	2568.606516
388.005133	2567.394119
388.389435	2571.192628
388.773674	2570.938050
389.157851	2566.970662
389.541965	2569.604665
389.926018	2567.772205
390.310008	2567.419325
390.693936	2568.518296
391.077802	2568.709860
391.461606	2567.585683
391.845348	2568.382185
392.229027	2567.560477
392.612645	2563.320867
392.996200	2566.211968
393.379694	2565.518810
393.763125	2566.365723
394.146494	2566.242215
394.529801	2562.516802
394.913047	2562.718449
395.296230	2561.778273
395.679351	2557.483210
396.062410	2559.794579
396.445408	2556.686708
396.828343	2557.997408
397.211217	2552.066491
397.594028	2550.642365
397.976778	2548.610780
398.359466	2552.981460
398.742092	2549.729916
399.124656	2550.070194
399.507158	2552.240410
399.889598	2553.903991
400.271977	2549.124977
400.654294	2553.238559
401.036549	2551.776624
401.418742	2550.322251
401.800874	2549.220759
402.182944	2547.778989
402.564952	2552.069011
402.946898	2549.495502
403.328783	2550.937272
403.710606	2549.858465
404.092367	2550.483568
404.474067	2551.045657
404.855705	2552.159752
405.237282	2552.542880
405.618797	2549.830739
406.000250	2552.260575
406.381642	2551.156562
406.762972	2552.399207
407.144240	2549.855945
407.525447	2554.077911
407.906593	2551.212015
408.287677	2550.138249
408.668700	2554.178734
409.049661	2549.593805
409.430560	2552.341233
409.811399	2554.319886
410.192176	2549.901315
410.572891	2552.124464
410.953545	2554.042623
411.334138	2551.965668
411.714669	2551.229659
412.095139	2553.049516
412.475547	2553.465411
412.855894	2555.781821
413.236180	2552.565565
413.616405	2556.406924
413.996568	2552.825184
414.376670	2555.113868
414.756711	2553.349464
415.136691	2554.798796
415.516609	2553.909032
415.896466	2555.423899
416.276262	2555.267623
416.655997	2552.069011
417.035670	2551.025492
417.415283	2552.704197
417.794834	2552.371480
418.174324	2554.801317
418.553753	2553.808209
418.933121	2553.319217
419.312428	2555.749053
419.691674	2556.341389
420.070859	2554.713096
420.449983	2554.947510
420.829045	2554.889537
421.208047	2554.982798
421.586988	2556.308622
421.965867	2556.180072
422.344686	2556.618652
422.723444	2559.063612
423.102141	2556.618653
423.480777	2553.215874
423.859352	2556.263251
424.237866	2558.776266
424.616319	2557.523540
424.994712	2557.826009
425.373044	2559.850032
425.751314	2559.068653
426.129524	2556.772408
426.507673	2559.817265
426.885762	2559.182079
427.263789	2558.930022
427.641756	2558.188972
428.019662	2559.134188
428.397508	2557.445402
428.775292	2559.469425
429.153016	2556.419527
429.530679	2562.098387
429.908282	2559.973540
430.285824	2560.215516
430.663305	2558.221739
431.040726	2560.011349
431.418086	2563.325908
431.795385	2561.647203
432.172624	2560.701987
432.549802	2559.010680
432.926920	2559.476987
433.303977	2561.006977
433.680974	2559.197203
434.057910	2561.513613
434.434786	2560.770043
434.811601	2559.890361
435.188355	2561.145609
435.565050	2561.828685
435.941683	2562.942780
436.318257	2559.250135
436.694770	2557.521019
437.071222	2559.232491
437.447614	2557.712583
437.823946	2560.528067
438.200218	2562.292471
438.576429	2564.762637
438.952580	2560.971689
439.328670	2562.748696
439.704700	2563.744323
440.080670	2561.932029
440.456580	2559.761812
440.832429	2563.799776
441.208218	2563.061247
441.583947	2564.573593
441.959616	2561.687533
442.335224	2561.924467
442.710773	2560.457491
443.086261	2563.867832
443.461689	2561.621998
443.837057	2563.209961
444.212365	2563.146947
444.587612	2563.361196
444.962800	2562.123592
445.337927	2564.893707
445.712995	2562.095866
446.088002	2564.790363
446.462949	2564.505538
446.837837	2566.579972
447.212664	2564.480332
447.587431	2562.673078
447.962139	2565.004612
448.336786	2565.365054
448.711374	2562.108469
449.085901	2566.769016
449.460369	2564.949159
449.834776	2563.535116
450.209124	2564.167780
450.583412	2563.031000
450.957640	2564.175342
451.331808	2564.245918
451.705917	2564.374468
452.079965	2568.856053
452.453954	2563.109138
452.827883	2564.399673
453.201752	2565.475960
453.575562	2565.244067
453.949311	2563.668706
454.323001	2565.443192
454.696632	2566.532082
455.070202	2564.513099
455.443713	2566.625343
455.817164	2562.037893
456.190556	2563.399004
456.563888	2563.434293
456.937160	2562.408418
457.310373	2567.096691
457.683526	2564.301371
458.056619	2566.900086
458.429653	2569.471074
458.802628	2566.842112
459.175542	2564.172822
459.548398	2565.743141
459.921194	2566.559808
460.293930	2568.843451
460.666607	2566.902606
461.039224	2567.923440
461.411782	2568.223389
461.784280	2570.184397
462.156719	2565.871690
462.529099	2569.952504
462.901419	2568.369582
463.273680	2568.364541
463.645882	2566.312791
464.018024	2568.137689
464.390106	2568.407391
464.762130	2568.815724
465.134094	2568.026784
465.505999	2568.031825
465.877845	2568.447720
466.249631	2567.429407
466.621358	2567.424366
466.993026	2572.107598
467.364634	2572.692372
467.736184	2567.361351
468.107674	2568.654407
468.479105	2568.697257
468.850477	2570.902762
469.221790	2570.592731
469.593043	2567.177349
469.964238	2571.805128
470.335373	2568.281362
470.706449	2568.115004
471.077467	2567.560477
471.448425	2569.755899
471.819324	2569.380333
472.190164	2568.830848
472.560945	2571.747155
472.931667	2568.142730
473.302330	2566.426217
473.672934	2571.106929
474.043479	2570.166753
474.413965	2571.086764
474.784393	2566.574931
475.154761	2566.108625
475.525070	2567.812535
475.895321	2564.230795
476.265513	2564.107287
476.635645	2573.526682
477.005719	2568.525858
477.375734	2570.965776
477.745691	2569.725652
478.115588	2570.998544
478.485427	2571.343863
478.855207	2572.394943
479.224928	2570.227247
479.594591	2569.287072
479.964194	2574.426528
480.333739	2572.636919
480.703226	2567.963769
481.072653	2569.675241
481.442022	2569.027453
481.811333	2573.085582
482.180584	2570.360838
482.549777	2570.910324
482.918912	2571.134655
483.287988	2575.454924
483.657005	2569.715570
484.025964	2569.516445
484.394864	2572.490725
484.763706	2571.338822
485.132489	2568.462843
485.501213	2571.832855
485.869879	2574.053483
486.238487	2569.624829
486.607036	2572.611713
486.975527	2571.787484
487.343959	2571.306054
487.712333	2570.186918
488.080648	2571.507700
488.448905	2571.966445
488.817104	2569.488718
489.185244	2571.026270
489.553326	2568.609037
489.921350	2571.588359
490.289315	2574.381158
490.657222	2573.103226
491.025070	2573.544327
491.392861	2574.166909
491.760593	2572.198338
492.128267	2573.836713
492.495883	2573.478792
492.863440	2572.712536
493.230939	2572.147927
493.598380	2573.713205
493.965763	2568.924109
494.333088	2567.865467
494.700354	2567.542833
495.067563	2572.281517
495.434713	2564.825651
495.801805	2571.432083
496.168839	2572.377299
496.535815	2574.688668
496.902733	2573.834193
497.269593	2576.324523
497.636395	2571.719429
498.003139	2573.083061
498.369825	2571.832855
498.736453	2571.580797
499.103023	2573.216652
499.469535	2572.069789
499.835989	2574.781930
500.202385	2572.480643
500.568723	2571.999213
500.935003	2571.759758
501.301226	2571.769840
501.667390	2570.128945
502.033497	2573.511559
502.399546	2572.931826
502.765537	2574.829821
503.131470	2574.078689
503.497345	2572.939388
503.863163	2576.763103
504.228923	2572.399985
504.594625	2576.374934
504.960269	2572.629357
505.325856	2573.105746
505.691385	2571.074161
506.056856	2574.229923
506.422270	2572.042063
506.787625	2573.657752
507.152924	2572.634398
507.518164	2573.302351
507.883347	2572.712536
508.248472	2572.752865
508.613540	2574.073648
508.978550	2572.760427
509.343503	2574.028277
509.708398	2575.858216
510.073236	2575.860737
510.438016	2573.108267
510.802738	2574.297979
511.167403	2573.541806
511.532010	2574.454255
511.896561	2576.017012
512.261053	2573.922413
512.625488	2571.535427
512.989866	2568.745148
513.354186	2571.805128
513.718449	2570.123904
514.082655	2574.434090
514.446803	2574.587845
514.810894	2572.226065
515.174927	2572.674728
515.538904	2575.268401
515.902822	2571.600962
516.266684	2572.079871
516.630488	2574.179512
516.994235	2572.669686
517.357925	2573.882084
517.721558	2573.357804
518.085133	2575.001220
518.448651	2574.303020
518.812112	2574.474419
519.175516	2575.102043
519.538863	2575.470047
519.902152	2575.490212
520.265385	2574.665983
520.628560	2575.888463
520.991678	2574.973494
521.354739	2573.025088
521.717743	2572.021898
522.080690	2575.528021
522.443580	2573.090623
522.806413	2577.824266
523.169189	2575.137331
523.531908	2576.553895
523.894569	2572.999882
524.257174	2572.939388
524.619722	2573.478792
524.982213	2576.730336
525.344647	2575.311251
525.707025	2575.636405
526.069345	2575.185222
526.431608	2575.417115
526.793815	2575.291086
527.155964	2575.454924
527.518057	2572.462999
527.880093	2575.245716
528.242072	2574.030798
528.603995	2576.064903
528.965860	2574.726477
529.327669	2574.439131
529.689421	2574.396282
530.051117	2575.984245
530.412755	2574.950808
530.774337	2576.760583
531.135862	2573.758576
531.497331	2574.487022
531.858743	2572.440314
532.220098	2571.830334
532.581396	2571.704305
532.942638	2571.578277
533.303824	2573.309913
533.664953	2576.750500
534.026025	2574.595407
534.387040	2575.207907
534.747999	2576.455593
535.108902	2575.790161
535.469748	2572.672207
535.830537	2573.549368
536.191270	2577.630182
536.551947	2574.484502
536.912567	2576.533731
537.273131	2577.597414
537.633638	2571.527865
537.994089	2574.711354
538.354483	2574.862588
538.714821	2575.681776
539.075103	2574.973494
539.435328	2575.550706
539.795497	2572.435273
540.155609	2575.800243
540.515665	2576.226220
540.875665	2575.172619
541.235609	2572.417629
541.595496	2578.131777
541.955328	2577.655387
542.315102	2575.452403
542.674821	2576.561457
543.034483	2575.026426
543.394090	2574.391240
543.753640	2575.961560
544.113134	2574.219841
544.472571	2575.543144
544.831953	2574.855027
545.191278	2576.637074
545.550548	2579.087075
545.909761	2577.388206
546.268918	2577.287383
546.628019	2574.391240
546.987064	2577.607497
547.346053	2575.099522
547.704986	2578.383834
548.063863	2577.844431
548.422684	2574.567681
548.781449	2577.158834
549.140158	2577.279822
549.498811	2575.515418
549.857408	2575.341498
550.215949	2573.418298
550.574434	2572.921744
550.932864	2572.911662
551.291237	2574.106415
551.649555	2575.989286
552.007817	2574.265212
552.366022	2576.258988
552.724173	2576.874009
553.082267	2578.068762
553.440305	2575.868298
553.798288	2577.549523
554.156215	2573.418298
554.514086	2574.867629
554.871902	2573.935016
555.229661	2576.594225
555.587365	2574.088771
555.945014	2575.953998
556.302606	2576.521128
556.660143	2575.102043
557.017625	2576.090109
557.375050	2575.943916
557.732421	2575.916189
558.089735	2575.822928
558.446994	2576.475757
558.804197	2577.400809
559.161345	2574.887794
559.518437	2577.766293
559.875474	2574.151786
560.232455	2576.236303
560.589381	2578.315779
560.946251	2577.499112
561.303065	2576.062383
561.659825	2577.536920
562.016528	2576.692527
562.373177	2576.228741
562.729770	2575.535582
563.086307	2573.453586
563.442789	2575.885942
563.799216	2577.020202
564.155587	2576.052301
564.511904	2579.094637
564.868164	2576.387537
565.224370	2576.440469
565.580520	2575.654049
565.936615	2575.273442
566.292654	2577.161354
566.648638	2576.062383
567.004567	2574.953329
567.360441	2580.667477
567.716260	2574.539954
568.072023	2577.257136
568.427732	2570.887638
568.783385	2573.120870
569.138982	2572.221024
569.494525	2572.573904
569.850013	2573.408215
570.205445	2575.480130
570.560823	2578.560275
570.916145	2576.274111
571.271412	2574.880232
571.626625	2577.216807
571.981782	2575.240675
572.336884	2576.697568
572.691931	2574.197156
573.046923	2575.575912
573.401860	2574.030798
573.756743	2577.526838
574.111570	2576.281673
574.466342	2579.644123
574.821059	2573.859399
575.175722	2577.342836
575.530330	2579.094637
575.884882	2576.780747
576.239380	2575.475088
576.593823	2575.296128
576.948211	2577.541962
577.302544	2576.112794
577.656823	2576.614389
578.011047	2577.060531
578.365216	2575.386868
578.719330	2575.528021
579.073389	2577.657908
579.427394	2575.633885
579.781344	2577.058011
580.135239	2575.482650
580.489080	2573.725808
580.842866	2575.457444
581.196597	2575.666652
581.550273	2575.563309
581.903895	2578.817373
582.257463	2576.238823
582.610975	2575.412074
582.964434	2576.511046
583.317837	2578.671180
583.671186	2577.201684
584.024481	2578.618248
584.377721	2577.206725
584.730906	2575.480130
585.084037	2578.547672
585.437113	2573.128431
585.790135	2575.230593
586.143103	2574.043401
586.496016	2575.996848
586.848874	2572.256312
587.201679	2575.520459
587.554428	2574.277814
587.907124	2573.572053
588.259765	2573.617423
588.612352	2578.078844
588.964884	2577.075655
589.317362	2575.643967
589.669786	2576.652198
590.022155	2580.675039
590.374470	2573.312433
590.726731	2577.448700
591.078937	2576.465675
591.431090	2577.088258
591.783188	2575.001220
592.135232	2576.707651
592.487222	2576.435428
592.839157	2576.715212
593.191038	2573.453586
593.542866	2577.887281
593.894639	2575.951477
594.246358	2576.508525
594.598022	2577.365521
594.949633	2574.542475
595.301190	2576.432908
595.652692	2573.519121
596.004141	2575.775037
596.355535	2577.839390
596.706876	2577.723443
597.058162	2574.965932
597.409395	2578.076324
597.760573	2576.700089
598.111698	2576.324523
598.462768	2575.883422
598.813785	2574.376117
599.164748	2578.933320
599.515657	2577.665470
599.866511	2576.826118
600.217312	2576.112794
600.568060	2576.543813
600.918753	2577.957857
601.269392	2574.643298
601.619978	2580.922055
601.970510	2576.195973
602.320988	2576.455593
602.671412	2579.444997
603.021783	2575.732187
603.372100	2579.492888
603.722363	2573.783781
604.072572	2577.904925
604.422728	2577.698237
604.772830	2573.168761
605.122878	2575.656570
605.472872	2574.033318
605.822813	2570.426373
606.172701	2573.201528
606.522534	2577.133628
606.872314	2577.201684
607.222041	2575.946436
607.571714	2573.791343
607.921333	2576.218659
608.270899	2574.237485
608.620411	2578.517425
608.969870	2577.741087
609.319276	2574.822259
609.668627	2576.687486
610.017926	2575.361662
610.367171	2576.896694
610.716362	2574.718915
611.065500	2579.041705
611.414585	2577.496591
611.763616	2576.448031
612.112594	2575.883422
612.461518	2577.410892
612.810389	2576.236303
613.159207	2573.216652
613.507971	2576.281673
613.856682	2576.790830
614.205340	2575.928792
614.553945	2575.384348
614.902496	2575.306210
615.250994	2577.138669
615.599439	2576.095150
615.947830	2578.000707
616.296169	2576.500963
616.644454	2576.493402
616.992686	2576.629513
617.340864	2575.389389
617.688990	2573.856878
618.037063	2578.467013
618.385082	2573.718246
618.733048	2578.923238
619.080961	2575.943916
619.428821	2575.308730
619.776628	2575.220510
620.124382	2579.260995
620.472083	2574.497105
620.819731	2577.824266
621.167326	2575.419636
621.514868	2580.612024
621.862357	2579.442477
622.209793	2576.563978
622.557176	2575.780078
622.904506	2572.087433
623.251783	2571.810170
623.599007	2575.275963
623.946179	2572.044583
624.293297	2574.093812
624.640363	2575.409553
624.987376	2575.543144
625.334336	2577.426015
625.681243	2577.040367
626.028097	2575.870819
626.374899	2574.250088
626.721647	2575.275963
627.068343	2576.425346
627.414987	2576.586663
627.761577	2579.185378
628.108115	2576.725295
628.454600	2575.810325
628.801032	2577.073134
629.147412	2575.545665
629.493739	2577.481468
629.840014	2573.771178
630.186236	2573.667835
630.532405	2575.243195
630.878521	2574.653380
631.224585	2577.995665
631.570597	2577.897363
631.916556	2577.426015
632.262462	2575.129769
632.608316	2575.827969
632.954117	2576.664801
633.299866	2576.783268
633.645562	2576.246385
633.991206	2573.337639
634.336797	2576.639595
634.682336	2578.751838
635.027823	2574.978535
635.373257	2578.169585
635.718639	2575.286045
636.063968	2574.855027
636.409245	2577.794019
636.754470	2576.896694
637.099642	2576.329564
637.444762	2576.695048
637.789829	2576.727815
638.134845	2575.591035
638.479808	2575.228072
638.824719	2575.699420
639.169577	2575.477609
639.514383	2575.187743
639.859137	2577.912486
640.203839	2575.785119
640.548489	2575.727146
640.893086	2573.357804
641.237632	2572.289079
641.582125	2574.038360
641.926566	2573.511559
642.270955	2575.127249
642.615292	2577.221848
642.959576	2575.628844
643.303809	2576.138000
643.647990	2575.593556
643.992118	2575.447362
644.336195	2575.013823
