Dividing Wavelength (nm)	Counts (n)	Blue Motor Position (mm): 0.000000	Red Motor Position (mm): 34.000000	
326.493990	2141.104067
326.888308	2141.104067
327.282561	2141.104067
327.676750	2114.413678
328.070874	2118.121447
328.464933	2123.938938
328.858929	2131.001595
329.252859	2142.840745
329.646726	2158.004536
330.040528	2173.622030
330.434265	2192.425534
330.827938	2212.287680
331.221547	2229.266286
331.615091	2249.932497
332.008571	2270.442431
332.401986	2290.234001
332.795338	2308.069603
333.188625	2330.016267
333.581847	2349.994359
333.975006	2369.281814
334.368100	2384.990049
334.761129	2404.451424
335.154095	2421.286357
335.546996	2440.510797
335.939833	2456.450926
336.332606	2470.888790
336.725315	2484.565441
337.117960	2489.815802
337.510540	2497.420383
337.903056	2508.465551
338.295508	2517.035513
338.687896	2518.411748
339.080220	2530.946577
339.472480	2534.697195
339.864676	2541.301107
340.256807	2542.231199
340.648875	2545.288659
341.040879	2547.395862
341.432818	2545.749925
341.824694	2549.031716
342.216506	2548.361243
342.608253	2549.389638
342.999937	2546.080120
343.391557	2547.242106
343.783113	2544.713968
344.174605	2541.278421
344.566033	2543.554502
344.957397	2539.025026
345.348697	2540.353370
345.739934	2535.536547
346.131106	2533.794828
346.522215	2532.771474
346.913260	2531.090249
347.304241	2530.568490
347.695159	2528.368026
348.086012	2526.512882
348.476802	2524.814013
348.867528	2523.367202
349.258191	2523.213447
349.648789	2523.405010
350.039324	2521.696059
350.429796	2524.753519
350.820203	2518.305883
351.210548	2516.337313
351.600828	2517.882426
351.991045	2513.373114
352.381198	2517.343023
352.771288	2515.588701
353.161314	2516.546521
353.551276	2517.237159
353.941175	2516.884278
354.331010	2513.637775
354.720782	2518.623476
355.110490	2516.130625
355.500135	2518.726820
355.889717	2517.481655
356.279235	2513.909997
356.668689	2518.857890
357.058080	2518.522653
357.447408	2515.984432
357.836672	2515.876047
358.225873	2518.099196
358.615010	2513.859586
359.004084	2519.122550
359.393095	2522.782428
359.782043	2521.111285
360.170927	2520.178672
360.559748	2521.416275
360.948505	2522.318642
361.337199	2526.863242
361.725830	2523.573889
362.114398	2524.478776
362.502903	2523.662109
362.891344	2525.895340
363.279722	2526.394415
363.668037	2525.867614
364.056289	2526.956503
364.444478	2526.094466
364.832603	2528.110927
365.220665	2530.926412
365.608665	2526.069260
365.996601	2530.354241
366.384474	2527.788294
366.772284	2529.126720
367.160031	2528.776360
367.547715	2530.024045
367.935336	2529.837523
368.322893	2531.846423
368.710388	2532.799201
369.097820	2535.932278
369.485189	2529.129241
369.872495	2534.097298
370.259738	2532.912627
370.646918	2531.276772
371.034035	2529.661082
371.421090	2535.990251
371.808081	2533.502442
372.195010	2535.097967
372.581875	2537.724408
372.968678	2534.180477
373.355418	2537.822710
373.742096	2539.090561
374.128710	2538.160468
374.515262	2540.318082
374.901751	2537.532844
375.288177	2541.732125
375.674540	2541.850592
376.060841	2543.884698
376.447079	2547.773948
376.833254	2547.652960
377.219367	2545.598690
377.605417	2550.344937
377.991404	2549.271171
378.377329	2553.417520
378.763191	2556.333827
379.148991	2562.514282
379.534727	2567.172308
379.920402	2571.197669
380.306013	2574.681107
380.691563	2581.688311
381.077049	2580.894329
381.462474	2585.938003
381.847835	2591.619384
382.233134	2597.227667
382.618371	2598.808069
383.003545	2607.859461
383.388657	2612.542693
383.773706	2620.364043
384.158693	2628.860908
384.543618	2635.207720
384.928480	2641.834317
385.313280	2649.181799
385.698017	2656.027686
386.082692	2667.042607
386.467305	2669.598472
386.851856	2679.191788
387.236344	2690.408355
387.620770	2695.565455
388.005133	2708.120449
388.389435	2716.766028
388.773674	2721.787017
389.157851	2730.684654
389.541965	2744.804926
389.926018	2746.128228
390.310008	2760.238418
390.693936	2764.740168
391.077802	2775.049328
391.461606	2784.987963
391.845348	2798.904068
392.229027	2802.563946
392.612645	2817.027016
392.996200	2825.450784
393.379694	2838.552743
393.763125	2856.342975
394.146494	2864.166846
394.529801	2876.328629
394.913047	2891.101731
395.296230	2896.455436
395.679351	2900.921898
396.062410	2919.367480
396.445408	2913.275246
396.828343	2925.258069
397.211217	2933.384409
397.594028	2928.849891
397.976778	2941.931685
398.359466	2953.962399
398.742092	2950.287398
399.124656	2969.383288
399.507158	2979.841162
399.889598	2982.752428
400.271977	2998.427896
400.654294	3008.116994
401.036549	3020.349354
401.418742	3027.177597
401.800874	3049.595608
402.182944	3057.767318
402.564952	3082.242120
402.946898	3073.901531
403.328783	3083.260433
403.710606	3098.091508
404.092367	3123.662761
404.474067	3146.048004
404.855705	3140.742190
405.237282	3136.724390
405.618797	3171.226047
406.000250	3194.349820
406.381642	3224.309397
406.762972	3225.819223
407.144240	3215.971329
407.525447	3241.509814
407.906593	3241.338415
408.287677	3256.106475
408.668700	3283.416926
409.049661	3278.201852
409.430560	3295.109882
409.811399	3298.845377
410.192176	3319.383038
410.572891	3325.026610
410.953545	3365.963300
411.334138	3335.814679
411.714669	3385.104561
412.095139	3332.984071
412.475547	3382.039539
412.855894	3371.669886
413.236180	3406.037952
413.616405	3383.083058
413.996568	3409.057603
414.376670	3410.224630
414.756711	3407.290679
415.136691	3430.341355
415.516609	3456.678863
415.896466	3459.925366
416.276262	3487.578616
416.655997	3517.760004
417.035670	3523.035571
417.415283	3590.740788
417.794834	3613.337760
418.174324	3599.744289
418.553753	3598.395780
418.933121	3640.749034
419.312428	3629.383753
419.691674	3624.022486
420.070859	3662.491531
420.449983	3643.670383
420.829045	3696.015204
421.208047	3675.923685
421.586988	3723.464286
421.965867	3752.282042
422.344686	3761.817385
422.723444	3802.181904
423.102141	3704.380998
423.480777	3806.141730
423.859352	3774.967235
424.237866	3873.587327
424.616319	3857.052343
424.994712	3917.921755
425.373044	3904.827358
425.751314	3973.452585
426.129524	3903.468767
426.507673	4004.967358
426.885762	3978.007267
427.263789	4002.698839
427.641756	4011.016743
428.019662	4036.293088
428.397508	4041.624108
428.775292	4078.459820
429.153016	4085.981221
429.530679	4096.393724
429.908282	4104.162143
430.285824	4086.059359
430.663305	4156.000328
431.040726	4112.427114
431.418086	4107.753965
431.795385	4185.062579
432.172624	4215.203638
432.549802	4182.947815
432.926920	4202.215105
433.303977	4192.654557
433.680974	4235.501844
434.057910	4259.497737
434.434786	4264.306997
434.811601	4255.956326
435.188355	4362.874158
435.565050	4331.102286
435.941683	4332.034899
436.318257	4418.904062
436.694770	4423.463786
437.071222	4479.506293
437.447614	4418.538579
437.823946	4419.960184
438.200218	4438.612453
438.576429	4418.059669
438.952580	4443.691416
439.328670	4446.179225
439.704700	4491.201770
440.080670	4452.825987
440.456580	4512.475439
440.832429	4550.755441
441.208218	4455.696924
441.583947	4508.828165
441.959616	4519.228065
442.335224	4547.549267
442.710773	4569.067433
443.086261	4623.068272
443.461689	4578.312909
443.837057	4587.303807
444.212365	4662.081762
444.587612	4668.539480
444.962800	4636.820540
445.337927	4672.516951
445.712995	4565.810847
446.088002	4754.791102
446.462949	4775.122075
446.837837	4792.776196
447.212664	4783.054331
447.587431	5007.408362
447.962139	5299.109688
448.336786	5639.856400
448.711374	5630.449607
449.085901	5271.784114
449.460369	5210.917223
449.834776	5145.321729
450.209124	5377.413931
450.583412	5389.182505
450.957640	5510.507954
451.331808	5373.877562
451.705917	5226.035643
452.079965	5216.124734
452.453954	5256.930354
452.827883	5219.131783
453.201752	5223.802412
453.575562	5256.370786
453.949311	5389.542947
454.323001	5397.969236
454.696632	5388.320467
455.070202	5543.401483
455.443713	5573.708900
455.817164	5663.479247
456.190556	5736.737295
456.563888	5710.742585
456.937160	5790.546571
457.310373	5632.629906
457.683526	5691.077044
458.056619	5679.482390
458.429653	5661.903887
458.802628	5710.558583
459.175542	5737.740485
459.548398	5879.742227
459.921194	6061.327109
460.293930	6121.281552
460.666607	6373.961826
461.039224	6583.618374
461.411782	6716.072170
461.784280	6632.414222
462.156719	6635.806919
462.529099	6597.297545
462.901419	6455.184897
463.273680	6327.532799
463.645882	6314.151057
464.018024	6316.321273
464.390106	6377.863679
464.762130	6631.915148
465.134094	7023.164139
465.505999	7653.411714
465.877845	8360.395732
466.249631	8708.827683
466.621358	8637.326477
466.993026	8446.042415
467.364634	8237.928461
467.736184	7950.383566
468.107674	7798.922099
468.479105	7707.863737
468.850477	7640.130794
469.221790	7477.601473
469.593043	7245.347954
469.964238	7151.897564
470.335373	7126.767412
470.706449	7280.605784
471.077467	7458.011549
471.448425	8116.159390
471.819324	8692.577523
472.190164	8740.075275
472.560945	8264.089529
472.931667	7793.885986
473.302330	7599.743590
473.672934	7478.924776
474.043479	7555.126858
474.413965	7456.594985
474.784393	7407.267295
475.154761	7561.335039
475.525070	7569.806698
475.895321	7520.857094
476.265513	7622.156560
476.635645	7783.836446
477.005719	7772.183819
477.375734	7858.188424
477.745691	7961.655586
478.115588	8171.803646
478.485427	8401.803770
478.855207	8864.984985
479.224928	9300.031521
479.594591	9686.108288
479.964194	9706.046052
480.333739	9788.027816
480.703226	9786.293659
481.072653	9880.570798
481.442022	9991.907201
481.811333	10145.453185
482.180584	9987.705399
482.549777	9927.887068
482.918912	9868.030928
483.287988	9852.383186
483.657005	9762.222149
484.025964	9672.126648
484.394864	9740.199869
484.763706	9699.938694
485.132489	9609.225651
485.501213	9602.853632
485.869879	9661.141974
486.238487	9598.732489
486.607036	9671.309981
486.975527	9615.184295
487.343959	9676.426752
487.712333	9717.282783
488.080648	9757.823743
488.448905	9858.266213
488.817104	9867.536894
489.185244	10028.886585
489.553326	10236.829140
489.921350	10702.800634
490.289315	11323.575880
490.657222	11622.070161
491.025070	11792.204063
491.392861	11710.723893
491.760593	11557.140100
492.128267	11304.994187
492.495883	11068.496016
492.863440	10831.831487
493.230939	10614.802252
493.598380	10426.527759
493.965763	10405.657382
494.333088	10273.944635
494.700354	10205.768071
495.067563	10180.758906
495.434713	10177.131796
495.801805	10224.253982
496.168839	10181.003402
496.535815	10152.248661
496.902733	10193.044198
497.269593	10148.694647
497.636395	10155.482561
498.003139	10259.252192
498.369825	10196.353716
498.736453	10285.524166
499.103023	10229.438808
499.469535	10230.409231
499.835989	10279.053845
500.202385	10247.886911
500.568723	10266.884499
500.935003	10330.309776
501.301226	10299.634355
501.667390	10466.945210
502.033497	10562.906094
502.399546	10494.175003
502.765537	10398.017514
503.131470	10497.156845
503.497345	10593.326937
503.863163	10362.474858
504.228923	10499.057360
504.594625	10609.879566
504.960269	10516.159475
505.325856	10659.751701
505.691385	10536.200582
506.056856	10598.226939
506.422270	10696.668070
506.787625	10636.567434
507.152924	10681.398415
507.518164	10750.278221
507.883347	10616.299475
508.248472	10684.718015
508.613540	10797.957454
508.978550	10862.388441
509.343503	10836.625625
509.708398	10885.476926
510.073236	11010.679023
510.438016	11021.492298
510.802738	10935.744792
511.167403	11057.607124
511.532010	11109.762902
511.896561	11204.955010
512.261053	11396.682693
512.625488	11303.126440
512.989866	11290.727722
513.354186	11256.158009
513.718449	11262.817374
514.082655	11401.025648
514.446803	11347.768378
514.810894	11449.123296
515.174927	11444.334200
515.538904	11425.399626
515.902822	11570.136194
516.266684	11442.035434
516.630488	11535.863910
516.994235	11523.734894
517.357925	11621.702157
517.721558	11668.854590
518.085133	11731.153169
518.448651	11751.985737
518.812112	11705.899509
519.175516	11705.710465
519.538863	11782.295675
519.902152	11780.911878
520.265385	11877.944007
520.628560	11891.512273
520.991678	11826.715802
521.354739	11868.078469
521.717743	11923.286665
522.080690	11887.078578
522.443580	12002.198367
522.806413	12001.999242
523.169189	11983.644400
523.531908	12032.828418
523.894569	11977.685757
524.257174	11971.964047
524.619722	12061.986452
524.982213	12020.422138
525.344647	12010.236487
525.707025	12002.825991
526.069345	12071.612535
526.431608	12051.911706
526.793815	12101.428439
527.155964	11982.742034
527.518057	11995.251657
527.880093	11934.931731
528.242072	12013.969461
528.603995	11929.472161
528.965860	11920.962693
529.327669	11931.266812
529.689421	11862.208045
530.051117	11853.996006
530.412755	11861.572860
530.774337	11848.758247
531.135862	11783.170315
531.497331	11808.862555
531.858743	11751.494225
532.220098	11807.365333
532.581396	11712.702546
532.942638	11620.542692
533.303824	11653.221972
533.664953	11608.136412
534.026025	11547.400591
534.387040	11599.947058
534.747999	11536.799044
535.108902	11556.341077
535.469748	11419.012484
535.830537	11412.348079
536.191270	11414.969479
536.551947	11316.606485
536.912567	11347.738131
537.273131	11342.886020
537.633638	11203.919053
537.994089	11213.603109
538.354483	11112.724580
538.714821	11182.741165
539.075103	11212.214271
539.435328	11122.217072
539.795497	11064.122815
540.155609	11025.298369
540.515665	11066.401417
540.875665	10915.804507
541.235609	10951.584097
541.595496	10876.206244
541.955328	10966.279060
542.315102	10816.526544
542.674821	10725.468182
543.034483	10687.737666
543.394090	10646.611933
543.753640	10587.184291
544.113134	10719.940557
544.472571	10498.928811
544.831953	10652.817594
545.191278	10478.623043
545.550548	10384.335822
545.909761	10413.602241
546.268918	10397.730168
546.628019	10397.465507
546.987064	10271.862639
547.346053	10114.308937
547.704986	10204.066681
548.063863	10074.070447
548.422684	10062.264065
548.781449	9983.609462
549.140158	9990.374690
549.498811	9908.158512
549.857408	9770.368654
550.215949	9842.323563
550.574434	9769.587275
550.932864	9675.554633
551.291237	9754.161344
551.649555	9631.598292
552.007817	9621.490778
552.366022	9511.192852
552.724173	9474.825969
553.082267	9472.456626
553.440305	9467.395308
553.798288	9311.941247
554.156215	9296.515316
554.514086	9269.605637
554.871902	9173.526286
555.229661	9130.565573
555.587365	9037.992344
555.945014	8997.958021
556.302606	8924.712576
556.660143	8898.364985
557.017625	8863.530612
557.375050	8776.313609
557.732421	8768.653576
558.089735	8708.162251
558.446994	8640.164647
558.804197	8644.731932
559.161345	8578.937313
559.518437	8412.654853
559.875474	8403.086743
560.232455	8358.626287
560.589381	8322.513981
560.946251	8229.892862
561.303065	8264.578521
561.659825	8173.358842
562.016528	8064.227943
562.373177	7972.599931
562.729770	7977.822567
563.086307	7856.754216
563.442789	7850.152825
563.799216	7806.135990
564.155587	7718.553504
564.511904	7665.152561
564.868164	7613.770600
565.224370	7577.290291
565.580520	7490.290058
565.936615	7460.121272
566.292654	7368.808332
566.648638	7345.142635
567.004567	7281.901360
567.360441	7218.768470
567.716260	7146.957234
568.072023	7120.108048
568.427732	7053.118675
568.783385	6952.028417
569.138982	6946.997346
569.494525	6882.987295
569.850013	6805.106509
570.205445	6746.233394
570.560823	6697.344284
570.916145	6619.972655
571.271412	6571.817033
571.626625	6496.464385
571.981782	6441.291477
572.336884	6362.646957
572.691931	6336.377504
573.046923	6246.468525
573.401860	6187.189597
573.756743	6131.242872
574.111570	6083.437610
574.466342	6028.350401
574.821059	5992.167519
575.175722	5899.440535
575.530330	5850.634604
575.884882	5781.243122
576.239380	5726.985183
576.593823	5672.520557
576.948211	5619.704388
577.302544	5540.553231
577.656823	5490.605479
578.011047	5459.161282
578.365216	5400.489813
578.719330	5340.661399
579.073389	5283.212410
579.427394	5241.080967
579.781344	5194.336868
580.135239	5134.090038
580.489080	5091.827525
580.842866	5021.173233
581.196597	5007.393239
581.550273	4962.300118
581.903895	4915.780350
582.257463	4895.925766
582.610975	4821.883818
582.964434	4798.321465
583.317837	4738.508175
583.671186	4699.129202
584.024481	4669.678781
584.377721	4608.612764
584.730906	4579.061520
585.084037	4550.694947
585.437113	4495.398531
585.790135	4464.634889
586.143103	4410.273607
586.496016	4382.819483
586.848874	4349.701623
587.201679	4314.474040
587.554428	4260.284157
587.907124	4234.690218
588.259765	4195.676729
588.612352	4175.522196
588.964884	4121.584370
589.317362	4106.765898
589.669786	4070.583017
590.022155	4033.974157
590.374470	4018.071838
590.726731	3975.363182
591.078937	3927.555400
591.431090	3902.228643
591.783188	3867.938714
592.135232	3829.048733
592.487222	3810.530054
592.839157	3785.611631
593.191038	3751.036877
593.542866	3720.394224
593.894639	3675.898479
594.246358	3658.970285
594.598022	3635.261738
594.949633	3603.439454
595.301190	3581.069334
595.652692	3550.245199
596.004141	3540.147768
596.355535	3496.710666
596.706876	3472.152685
597.058162	3448.673511
597.409395	3435.700101
597.760573	3421.103440
598.111698	3390.705283
598.462768	3367.483208
598.813785	3351.898480
599.164748	3325.601301
599.515657	3313.850372
599.866511	3284.223511
600.217312	3281.644960
600.568060	3244.158940
600.918753	3243.342273
601.269392	3225.380642
601.619978	3202.471119
601.970510	3192.315714
602.320988	3179.105371
602.671412	3172.536747
603.021783	3149.854075
603.372100	3130.574182
603.722363	3121.265692
604.072572	3110.533075
604.422728	3095.172680
604.772830	3075.423959
605.122878	3063.461301
605.472872	3053.298335
605.822813	3042.225441
606.172701	3030.449305
606.522534	3022.887575
606.872314	3014.743591
607.222041	3002.788494
607.571714	2994.518481
607.921333	2981.144300
608.270899	2973.310347
608.620411	2967.507979
608.969870	2954.600105
609.319276	2945.891511
609.668627	2939.214503
610.017926	2930.364758
610.367171	2925.547935
610.716362	2915.203487
611.065500	2910.298445
611.414585	2901.826786
611.763616	2896.127761
612.112594	2890.947976
612.461518	2883.482027
612.810389	2880.986656
613.159207	2867.002495
613.507971	2865.540560
613.856682	2861.583254
614.205340	2852.196626
614.553945	2852.569671
614.902496	2841.002744
615.250994	2837.965449
615.599439	2832.362206
615.947830	2827.525219
616.296169	2823.378870
616.644454	2818.773776
616.992686	2816.729588
617.340864	2815.910401
617.688990	2809.009061
618.037063	2805.772640
618.385082	2801.686785
618.733048	2801.412042
619.080961	2797.182514
619.428821	2793.978861
619.776628	2786.429733
620.124382	2782.303548
620.472083	2778.893208
620.819731	2775.644184
621.167326	2769.388112
621.514868	2762.128851
621.862357	2757.264137
622.209793	2755.000659
622.557176	2748.026223
622.904506	2741.500449
623.251783	2736.471898
623.599007	2729.394118
623.946179	2728.098542
624.293297	2721.308107
624.640363	2722.805330
624.987376	2718.268292
625.334336	2712.972560
625.681243	2710.646067
626.028097	2706.068699
626.374899	2703.132227
626.721647	2701.851774
627.068343	2700.344469
627.414987	2697.919674
627.761577	2695.537729
628.108115	2694.342976
628.454600	2691.358612
628.801032	2689.405165
629.147412	2686.761080
629.493739	2686.985412
629.840014	2685.442818
630.186236	2681.876202
630.532405	2682.236645
630.878521	2678.675069
631.224585	2677.543330
631.570597	2677.460151
631.916556	2674.392609
632.262462	2674.609379
632.608316	2675.068124
632.954117	2674.783299
633.299866	2670.621826
633.645562	2670.107628
633.991206	2666.548574
634.336797	2666.046979
634.682336	2666.157884
635.027823	2660.166473
635.373257	2659.589261
635.718639	2656.655309
636.063968	2657.557676
636.409245	2652.768580
636.754470	2653.164310
637.099642	2652.425781
637.444762	2650.805050
637.789829	2648.970070
638.134845	2651.475524
638.479808	2648.130718
638.824719	2645.610141
639.169577	2646.709113
639.514383	2645.020326
639.859137	2640.979842
640.203839	2642.383803
640.548489	2642.777013
640.893086	2639.119656
641.237632	2633.992802
641.582125	2632.896351
641.926566	2636.778040
