Dividing Wavelength (nm)	Counts (n)	Blue Motor Position (mm): 0.000000	Red Motor Position (mm): 35.500000	
326.493990	2144.128760
326.888308	2144.128760
327.282561	2144.128760
327.676750	2117.851745
328.070874	2117.324945
328.464933	2123.674278
328.858929	2133.111318
329.252859	2144.748822
329.646726	2159.862201
330.040528	2173.042298
330.434265	2190.948476
330.827938	2210.160313
331.221547	2230.574466
331.615091	2247.613566
332.008571	2270.707092
332.401986	2292.555452
332.795338	2309.108081
333.188625	2329.141626
333.581847	2349.850686
333.975006	2367.648480
334.368100	2386.381408
334.761129	2403.120559
335.154095	2421.939186
335.546996	2438.368307
335.939833	2458.807665
336.332606	2472.012968
336.725315	2484.636017
337.117960	2492.598519
337.510540	2501.385250
337.903056	2509.380520
338.295508	2518.164731
338.687896	2521.852335
339.080220	2531.362472
339.472480	2537.043852
339.864676	2540.663401
340.256807	2545.921324
340.648875	2546.632127
341.040879	2546.674977
341.432818	2546.077600
341.824694	2545.528114
342.216506	2548.189843
342.608253	2547.418547
342.999937	2548.356201
343.391557	2547.022816
343.783113	2544.167003
344.174605	2544.338402
344.566033	2545.437373
344.957397	2541.003678
345.348697	2541.064172
345.739934	2538.110056
346.131106	2538.621733
346.522215	2534.729963
346.913260	2533.565456
347.304241	2531.763243
347.695159	2529.794673
348.086012	2527.286699
348.476802	2525.166894
348.867528	2524.998015
349.258191	2527.271575
349.648789	2523.498272
350.039324	2522.200175
350.429796	2522.825278
350.820203	2519.742612
351.210548	2519.760256
351.600828	2515.828156
351.991045	2518.880575
352.381198	2518.066428
352.771288	2517.355626
353.161314	2517.736233
353.551276	2514.625841
353.941175	2517.186747
354.331010	2517.816891
354.720782	2518.678929
355.110490	2521.103724
355.500135	2516.869154
355.889717	2519.515760
356.279235	2518.091634
356.668689	2519.430061
357.058080	2521.098683
357.447408	2518.557941
357.836672	2515.510563
358.225873	2516.493588
358.615010	2515.319000
359.004084	2521.892664
359.393095	2523.011800
359.782043	2523.152953
360.170927	2522.961389
360.559748	2524.897192
360.948505	2527.321987
361.337199	2522.351409
361.725830	2526.510361
362.114398	2525.212264
362.502903	2524.708149
362.891344	2524.937521
363.279722	2525.239990
363.668037	2526.207892
364.056289	2525.698735
364.444478	2530.820548
364.832603	2531.246525
365.220665	2529.882893
365.608665	2531.334745
365.996601	2532.426155
366.384474	2533.484798
366.772284	2533.731814
367.160031	2530.097142
367.547715	2533.547812
367.935336	2530.412214
368.322893	2534.414890
368.710388	2531.662420
369.097820	2536.627957
369.485189	2533.386495
369.872495	2532.514375
370.259738	2531.138140
370.646918	2535.188707
371.034035	2535.597041
371.421090	2538.190715
371.808081	2534.891279
372.195010	2538.636857
372.581875	2535.715508
372.968678	2539.239275
373.355418	2539.151054
373.742096	2537.863040
374.128710	2538.452855
374.515262	2541.628782
374.901751	2541.333874
375.288177	2543.315048
375.674540	2543.967877
376.060841	2544.146838
376.447079	2546.254040
376.833254	2551.698486
377.219367	2546.523742
377.605417	2554.660164
377.991404	2555.839794
378.377329	2555.416337
378.763191	2557.644527
379.148991	2566.993347
379.534727	2568.213306
379.920402	2570.489387
380.306013	2577.163875
380.691563	2582.341140
381.077049	2582.850297
381.462474	2588.967737
381.847835	2593.708942
382.233134	2597.862853
382.618371	2606.054728
383.003545	2608.905500
383.388657	2616.981429
383.773706	2621.316821
384.158693	2629.390229
384.543618	2634.577576
384.928480	2640.344656
385.313280	2649.658188
385.698017	2658.908705
386.082692	2667.917247
386.467305	2671.360355
386.851856	2680.426870
387.236344	2691.038499
387.620770	2698.814479
388.005133	2704.747917
388.389435	2717.076059
388.773674	2723.818602
389.157851	2735.196486
389.541965	2743.869792
389.926018	2746.720564
390.310008	2760.722369
390.693936	2769.357865
391.077802	2776.619647
391.461606	2786.258334
391.845348	2795.665127
392.229027	2804.895479
392.612645	2819.524908
392.996200	2827.353820
393.379694	2839.407219
393.763125	2857.172245
394.146494	2867.592310
394.529801	2876.515152
394.913047	2895.926115
395.296230	2897.899727
395.679351	2899.376785
396.062410	2917.169537
396.445408	2916.214239
396.828343	2929.555652
397.211217	2934.904317
397.594028	2929.117072
397.976778	2940.847837
398.359466	2956.863583
398.742092	2954.582461
399.124656	2969.582414
399.507158	2982.265957
399.889598	2989.668891
400.271977	3001.046776
400.654294	3008.611027
401.036549	3021.128212
401.418742	3024.949407
401.800874	3051.995197
402.182944	3057.353943
402.564952	3084.556010
402.946898	3073.767940
403.328783	3084.099785
403.710606	3102.719287
404.092367	3123.972792
404.474067	3150.942965
404.855705	3139.060965
405.237282	3141.468116
405.618797	3173.043383
406.000250	3194.430478
406.381642	3227.024058
406.762972	3227.850808
407.144240	3218.007955
407.525447	3242.303796
407.906593	3241.280442
408.287677	3262.337341
408.668700	3281.420629
409.049661	3281.443314
409.430560	3296.246663
409.811399	3301.998619
410.192176	3319.917400
410.572891	3329.908967
410.953545	3365.247456
411.334138	3335.817200
411.714669	3385.369221
412.095139	3332.343845
412.475547	3387.388203
412.855894	3374.233313
413.236180	3405.047365
413.616405	3387.874675
413.996568	3406.630288
414.376670	3410.222110
414.756711	3406.889907
415.136691	3432.047785
415.516609	3451.239458
415.896466	3460.721868
416.276262	3488.211280
416.655997	3519.473996
417.035670	3524.636138
417.415283	3594.015017
417.794834	3610.900362
418.174324	3596.596088
418.553753	3598.118517
418.933121	3642.573932
419.312428	3632.738641
419.691674	3624.811426
420.070859	3668.888755
420.449983	3645.545692
420.829045	3694.525543
421.208047	3675.722039
421.586988	3722.140983
421.965867	3753.161724
422.344686	3764.484155
422.723444	3801.602171
423.102141	3704.078529
423.480777	3809.131134
423.859352	3774.732821
424.237866	3874.517420
424.616319	3858.332796
424.994712	3917.130294
425.373044	3905.298706
425.751314	3972.192297
426.129524	3906.793408
426.507673	4004.780836
426.885762	3984.931292
427.263789	4004.813603
427.641756	4010.074047
428.019662	4039.844581
428.397508	4040.817524
428.775292	4077.040735
429.153016	4086.908793
429.530679	4099.579734
429.908282	4107.804376
430.285824	4087.652364
430.663305	4158.082324
431.040726	4118.519349
431.418086	4108.094242
431.795385	4182.864636
432.172624	4216.163978
432.549802	4185.707847
432.926920	4200.773335
433.303977	4195.192778
433.680974	4236.187441
434.057910	4258.665946
434.434786	4263.931431
434.811601	4257.067900
435.188355	4365.825753
435.565050	4333.380887
435.941683	4330.451977
436.318257	4416.196963
436.694770	4425.074435
437.071222	4484.066017
437.447614	4415.909617
437.823946	4420.857509
438.200218	4437.901651
438.576429	4417.580759
438.952580	4449.186273
439.328670	4451.512766
439.704700	4494.365094
440.080670	4458.719095
440.456580	4516.573898
440.832429	4554.188467
441.208218	4455.495278
441.583947	4504.901106
441.959616	4523.203015
442.335224	4552.182088
442.710773	4571.567845
443.086261	4622.642295
443.461689	4579.701747
443.837057	4588.072583
444.212365	4660.783665
444.587612	4668.199202
444.962800	4636.702073
445.337927	4678.871325
445.712995	4566.962751
446.088002	4753.659363
446.462949	4775.094349
446.837837	4791.296617
447.212664	4780.246408
447.587431	5008.789638
447.962139	5301.234535
448.336786	5637.008148
448.711374	5632.093023
449.085901	5276.676554
449.460369	5207.282551
449.834776	5146.329959
450.209124	5380.718408
450.583412	5386.304006
450.957640	5511.143140
451.331808	5375.223550
451.705917	5224.646805
452.079965	5217.190938
452.453954	5254.283748
452.827883	5220.316454
453.201752	5227.900870
453.575562	5257.978914
453.949311	5392.093771
454.323001	5397.938989
454.696632	5387.967587
455.070202	5545.473397
455.443713	5571.926852
455.817164	5664.878167
456.190556	5739.217543
456.563888	5709.517585
456.937160	5791.010357
457.310373	5633.532273
457.683526	5686.555129
458.056619	5681.009860
458.429653	5661.414895
458.802628	5707.634714
459.175542	5735.986163
459.548398	5876.074787
459.921194	6060.255864
460.293930	6124.495287
460.666607	6373.009048
461.039224	6582.007725
461.411782	6714.159053
461.784280	6634.365149
462.156719	6637.425129
462.529099	6600.634788
462.901419	6456.394774
463.273680	6325.143292
463.645882	6314.123330
464.018024	6318.748589
464.390106	6381.326952
464.762130	6639.348329
465.134094	7018.463263
465.505999	7649.121692
465.877845	8356.196451
466.249631	8711.554947
466.621358	8644.298393
466.993026	8451.370915
467.364634	8236.552226
467.736184	7952.911705
468.107674	7791.987992
468.479105	7709.771814
468.850477	7650.997001
469.221790	7477.349416
469.593043	7258.253308
469.964238	7150.601988
470.335373	7132.375696
470.706449	7280.820033
471.077467	7459.972558
471.448425	8118.553938
471.819324	8700.096404
472.190164	8743.793126
472.560945	8266.479036
472.931667	7793.336500
473.302330	7600.192252
473.672934	7480.442163
474.043479	7560.483084
474.413965	7460.464071
474.784393	7410.523880
475.154761	7569.597490
475.525070	7574.308448
475.895321	7529.500152
476.265513	7619.139429
476.635645	7784.781662
477.005719	7774.532997
477.375734	7858.417797
477.745691	7967.556257
478.115588	8174.331785
478.485427	8404.417608
478.855207	8878.134835
479.224928	9307.996544
479.594591	9695.920894
479.964194	9700.581441
480.333739	9784.995562
480.703226	9790.069483
481.072653	9876.953770
481.442022	10003.131330
481.811333	10150.403598
482.180584	9995.219239
482.549777	9929.653992
482.918912	9872.149550
483.287988	9861.651347
483.657005	9766.464280
484.025964	9683.774234
484.394864	9742.576773
484.763706	9704.321977
485.132489	9610.075085
485.501213	9606.942008
485.869879	9666.304115
486.238487	9602.994785
486.607036	9681.573770
486.975527	9625.654771
487.343959	9675.617647
487.712333	9722.323937
488.080648	9762.312890
488.448905	9863.365340
488.817104	9872.177277
489.185244	10028.974805
489.553326	10240.448688
489.921350	10705.875738
490.289315	11332.065183
490.657222	11624.999072
491.025070	11805.331227
491.392861	11717.726056
491.760593	11569.979919
492.128267	11313.460805
492.495883	11075.150339
492.863440	10848.633653
493.230939	10610.915523
493.598380	10439.662486
493.965763	10408.447661
494.333088	10282.141551
494.700354	10212.533299
495.067563	10185.391727
495.434713	10191.620072
495.801805	10234.880734
496.168839	10193.568478
496.535815	10163.011524
496.902733	10200.941166
497.269593	10159.124795
497.636395	10172.050313
498.003139	10273.571590
498.369825	10203.161794
498.736453	10294.719230
499.103023	10229.756401
499.469535	10244.030428
499.835989	10287.754876
500.202385	10263.774107
500.568723	10281.473598
500.935003	10340.629018
501.301226	10308.650459
501.667390	10482.353497
502.033497	10588.361401
502.399546	10507.453402
502.765537	10418.461913
503.131470	10518.090237
503.497345	10611.626326
503.863163	10381.177539
504.228923	10514.334577
504.594625	10630.402103
504.960269	10538.998422
505.325856	10684.153406
505.691385	10562.896012
506.056856	10630.520570
506.422270	10730.824408
506.787625	10667.104224
507.152924	10718.589528
507.518164	10780.028590
507.883347	10648.396502
508.248472	10715.713550
508.613540	10830.246044
508.978550	10902.853783
509.343503	10882.338808
509.708398	10933.113309
510.073236	11053.546475
510.438016	11077.446585
510.802738	10985.833696
511.167403	11111.386153
511.532010	11170.539052
511.896561	11271.102510
512.261053	11465.136522
512.625488	11376.727286
512.989866	11368.701769
513.354186	11340.486431
513.718449	11345.288130
514.082655	11482.704943
514.446803	11435.917994
514.810894	11551.438555
515.174927	11545.547967
515.538904	11526.147086
515.902822	11684.804800
516.266684	11553.591128
516.630488	11657.005357
516.994235	11642.242338
517.357925	11750.859039
517.721558	11806.626804
518.085133	11871.698018
518.448651	11903.510219
518.812112	11861.426667
519.175516	11869.797503
519.538863	11955.406377
519.902152	11958.766306
520.265385	12064.950650
520.628560	12085.173239
520.991678	12027.958663
521.354739	12086.461254
521.717743	12156.840803
522.080690	12115.004267
522.443580	12247.752971
522.806413	12260.139086
523.169189	12257.505083
523.531908	12309.839822
523.894569	12270.871702
524.257174	12275.701128
524.619722	12374.328782
524.982213	12351.890607
525.344647	12340.686642
525.707025	12353.957480
526.069345	12451.612191
526.431608	12431.863471
526.793815	12500.788647
527.155964	12399.040518
527.518057	12419.575659
527.880093	12375.039585
528.242072	12477.904329
528.603995	12400.686455
528.965860	12407.300449
529.327669	12436.667691
529.689421	12379.982436
530.051117	12391.816545
530.412755	12420.450299
530.774337	12414.920153
531.135862	12368.332330
531.497331	12427.870877
531.858743	12385.676420
532.220098	12462.763224
532.581396	12381.857746
532.942638	12295.381792
533.303824	12355.575690
533.664953	12333.439983
534.026025	12281.669854
534.387040	12368.977597
534.747999	12339.048267
535.108902	12375.158052
535.469748	12249.356058
535.830537	12263.380548
536.191270	12290.247377
536.551947	12218.627705
536.912567	12266.576639
537.273131	12285.130606
537.633638	12174.568020
537.994089	12212.404400
538.354483	12123.138168
538.714821	12228.132800
539.075103	12288.666976
539.435328	12210.985315
539.795497	12180.440964
540.155609	12169.955364
540.515665	12247.369843
540.875665	12105.738626
541.235609	12182.676716
541.595496	12129.275773
541.955328	12268.656115
542.315102	12125.827624
542.674821	12046.989019
543.034483	12049.103783
543.394090	12033.420753
543.753640	11991.432983
544.113134	12195.803881
544.472571	11971.356588
544.831953	12194.596524
545.191278	12023.519927
545.550548	11946.728031
545.909761	12028.067048
546.268918	12043.855942
546.628019	12087.529978
546.987064	11962.910135
547.346053	11810.596712
547.704986	11960.397119
548.063863	11846.804800
548.422684	11869.369004
548.781449	11812.449336
549.140158	11866.903880
549.498811	11806.583954
549.857408	11671.695280
550.215949	11813.076960
550.574434	11757.226017
550.932864	11687.597600
551.291237	11827.310658
551.649555	11710.532329
552.007817	11739.831515
552.366022	11640.389714
552.724173	11643.391722
553.082267	11687.065758
553.440305	11729.608055
553.798288	11563.232334
554.156215	11590.797363
554.514086	11601.804723
554.871902	11523.795388
555.229661	11507.638490
555.587365	11434.148549
555.945014	11409.293140
556.302606	11367.507016
556.660143	11386.469316
557.017625	11377.385157
557.375050	11313.203706
557.732421	11357.104595
558.089735	11313.022225
558.446994	11251.633574
558.804197	11309.301853
559.161345	11272.496389
559.518437	11086.664335
559.875474	11121.831424
560.232455	11106.624783
560.589381	11100.194792
560.946251	11021.227637
561.303065	11113.022008
561.659825	11035.226922
562.016528	10923.693913
562.373177	10847.383447
562.729770	10899.120809
563.086307	10752.493808
563.442789	10803.351489
563.799216	10785.616709
564.155587	10693.731598
564.511904	10673.740903
564.868164	10634.563576
565.224370	10639.370316
565.580520	10551.734897
565.936615	10555.397296
566.292654	10462.745929
566.648638	10460.805085
567.004567	10412.614175
567.360441	10366.641372
567.716260	10290.356112
568.072023	10300.057812
568.427732	10241.043545
568.783385	10120.345719
569.138982	10155.354012
569.494525	10094.812274
569.850013	10016.029122
570.205445	9960.084917
570.560823	9920.496736
570.916145	9836.851391
571.271412	9791.642323
571.626625	9708.947236
571.981782	9657.537549
572.336884	9572.967152
572.691931	9579.941588
573.046923	9455.336868
573.401860	9395.309328
573.756743	9332.642745
574.111570	9302.035379
574.466342	9235.013239
574.821059	9219.264674
575.175722	9091.731044
575.530330	9048.233448
575.884882	8957.613666
576.239380	8900.809945
576.593823	8840.023712
576.948211	8779.544989
577.302544	8666.860077
577.656823	8612.176161
578.011047	8597.360210
578.365216	8509.646653
578.719330	8431.284437
579.073389	8363.367492
579.427394	8311.458731
579.781344	8253.588805
580.135239	8166.240733
580.489080	8121.487889
580.842866	8014.950665
581.196597	8010.012854
581.550273	7954.008156
581.903895	7883.951241
582.257463	7890.189669
582.610975	7753.619770
582.964434	7737.614106
583.317837	7650.076990
583.671186	7573.884991
584.024481	7546.781228
584.377721	7438.459434
584.730906	7423.391425
585.084037	7385.421455
585.437113	7295.525079
585.790135	7256.294819
586.143103	7163.081364
586.496016	7120.786083
586.848874	7081.759991
587.201679	7029.647063
587.554428	6926.379027
587.907124	6895.317957
588.259765	6825.581155
588.612352	6811.012221
588.964884	6704.716971
589.317362	6676.814185
589.669786	6627.529344
590.022155	6556.333128
590.374470	6555.529064
590.726731	6467.071938
591.078937	6370.927052
591.431090	6336.465724
591.783188	6266.063490
592.135232	6191.575401
592.487222	6170.705024
592.839157	6127.656091
593.191038	6059.000616
593.542866	5992.064176
593.894639	5900.826853
594.246358	5877.675354
594.598022	5839.944838
594.949633	5766.681749
595.301190	5714.964552
595.652692	5668.182644
596.004141	5646.687164
596.355535	5542.315115
596.706876	5494.983721
597.058162	5445.497234
597.409395	5434.726809
597.760573	5402.062653
598.111698	5329.326365
598.462768	5290.678359
598.813785	5253.197380
599.164748	5177.259959
599.515657	5162.219676
599.866511	5092.238379
600.217312	5093.745684
600.568060	4988.163758
600.918753	5000.479296
601.269392	4959.610662
601.619978	4901.405500
601.970510	4874.609247
602.320988	4850.061348
602.671412	4837.067774
603.021783	4784.087767
603.372100	4735.120520
603.722363	4701.743040
604.072572	4669.625849
604.422728	4640.649297
604.772830	4590.184826
605.122878	4561.992173
605.472872	4525.542110
605.822813	4506.158874
606.172701	4466.308552
606.522534	4447.638639
606.872314	4428.013427
607.222041	4379.562898
607.571714	4369.878841
607.921333	4314.312723
608.270899	4294.599291
608.620411	4273.991054
608.969870	4240.674068
609.319276	4209.741548
609.668627	4185.778423
610.017926	4172.961290
610.367171	4151.841376
610.716362	4123.862972
611.065500	4094.563786
611.414585	4071.765167
611.763616	4055.267991
612.112594	4025.436963
612.461518	4005.113552
612.810389	3991.424298
613.159207	3958.649237
613.507971	3936.400104
613.856682	3924.918876
614.205340	3897.081625
614.553945	3896.945514
614.902496	3858.007641
615.250994	3843.728573
615.599439	3819.412568
615.947830	3807.568377
616.296169	3782.130714
616.644454	3764.015328
616.992686	3746.222575
617.340864	3739.490114
617.688990	3711.231927
618.037063	3708.265207
618.385082	3685.779141
618.733048	3676.092564
619.080961	3654.723112
619.428821	3637.873056
619.776628	3618.734315
620.124382	3597.727827
620.472083	3577.175043
620.819731	3557.207032
621.167326	3530.544370
621.514868	3512.376051
621.862357	3480.311792
622.209793	3461.198258
622.557176	3432.859411
622.904506	3406.239598
623.251783	3378.742625
623.599007	3357.264789
623.946179	3338.020184
624.293297	3315.214004
624.640363	3291.782721
624.987376	3275.759413
625.334336	3254.606732
625.681243	3234.467322
626.028097	3216.097357
626.374899	3204.583362
626.721647	3185.106864
627.068343	3173.769309
627.414987	3156.573933
627.761577	3142.398209
628.108115	3134.702887
628.454600	3117.777213
628.801032	3104.473608
629.147412	3091.538008
629.493739	3086.423757
629.840014	3069.039338
630.186236	3066.349882
630.532405	3053.036195
630.878521	3041.219731
631.224585	3035.281251
631.570597	3021.690301
631.916556	3016.172758
632.262462	3007.035666
632.608316	2999.852022
632.954117	2991.135867
633.299866	2982.661688
633.645562	2972.299596
633.991206	2957.377780
634.336797	2946.325051
634.682336	2937.402208
635.027823	2927.869386
635.373257	2913.217273
635.718639	2905.063206
636.063968	2894.272617
636.409245	2880.268291
636.754470	2874.564226
637.099642	2864.865046
637.444762	2855.692666
637.789829	2848.526666
638.134845	2842.252950
638.479808	2835.727176
638.824719	2827.316011
639.169577	2821.811071
639.514383	2815.391162
639.859137	2809.883701
640.203839	2806.173412
640.548489	2800.096301
640.893086	2793.550363
641.237632	2784.650206
