Dividing Wavelength (nm)	Counts (n)	Blue Motor Position (mm): 0.000000	Red Motor Position (mm): 31.000000	
326.493990	2145.003400
326.888308	2145.003400
327.282561	2145.003400
327.676750	2118.902826
328.070874	2122.272837
328.464933	2125.869700
328.858929	2133.945629
329.252859	2146.523308
329.646726	2160.300781
330.040528	2176.356856
330.434265	2194.409228
330.827938	2213.820191
331.221547	2233.470609
331.615091	2250.834863
332.008571	2273.746907
332.401986	2292.089146
332.795338	2311.444656
333.188625	2333.315702
333.581847	2353.422344
333.975006	2369.254088
334.368100	2389.716131
334.761129	2407.589542
335.154095	2422.523960
335.546996	2443.033895
335.939833	2460.907306
336.332606	2471.730663
336.725315	2484.368836
337.117960	2491.605412
337.510540	2500.266114
337.903056	2509.231806
338.295508	2514.603156
338.687896	2520.420647
339.080220	2533.094108
339.472480	2536.398584
339.864676	2537.941177
340.256807	2543.403268
340.648875	2544.358566
341.040879	2549.311500
341.432818	2548.101623
341.824694	2550.453321
342.216506	2547.111036
342.608253	2547.700851
342.999937	2548.877961
343.391557	2545.545758
343.783113	2545.334030
344.174605	2544.368649
344.566033	2542.543751
344.957397	2542.430325
345.348697	2543.355377
345.739934	2538.299099
346.131106	2538.495704
346.522215	2533.719211
346.913260	2533.189890
347.304241	2535.045035
347.695159	2527.778211
348.086012	2529.371216
348.476802	2528.867101
348.867528	2526.540608
349.258191	2521.635565
349.648789	2524.864424
350.039324	2519.084742
350.429796	2522.779907
350.820203	2518.557941
351.210548	2517.958044
351.600828	2518.315966
351.991045	2518.245389
352.381198	2516.798578
352.771288	2519.934176
353.161314	2518.552900
353.551276	2515.858403
353.941175	2516.206243
354.331010	2519.356964
354.720782	2516.385204
355.110490	2515.679442
355.500135	2516.087776
355.889717	2518.809999
356.279235	2518.487365
356.668689	2520.115657
357.058080	2519.546007
357.447408	2515.578619
357.836672	2516.924607
358.225873	2518.867972
358.615010	2515.702127
359.004084	2523.087418
359.393095	2522.764784
359.782043	2524.829136
360.170927	2521.355781
360.559748	2524.937521
360.948505	2521.887623
361.337199	2525.260155
361.725830	2525.945752
362.114398	2529.028417
362.502903	2528.983047
362.891344	2526.820392
363.279722	2526.931298
363.668037	2527.460619
364.056289	2528.851977
364.444478	2527.095135
364.832603	2527.453057
365.220665	2527.654703
365.608665	2527.997502
365.996601	2529.988757
366.384474	2530.583613
366.772284	2529.063706
367.160031	2531.528830
367.547715	2532.133768
367.935336	2528.491535
368.322893	2532.617719
368.710388	2528.771319
369.097820	2533.129396
369.485189	2532.637884
369.872495	2533.610826
370.259738	2532.670651
370.646918	2532.562266
371.034035	2535.067720
371.421090	2535.123173
371.808081	2535.791125
372.195010	2536.416228
372.581875	2536.577545
372.968678	2538.162988
373.355418	2538.616692
373.742096	2538.747762
374.128710	2539.062834
374.515262	2540.726415
374.901751	2542.299255
375.288177	2543.380582
375.674540	2544.101467
376.060841	2545.830583
376.447079	2546.702703
376.833254	2550.521377
377.219367	2547.652960
377.605417	2551.993394
377.991404	2550.400389
378.377329	2558.985474
378.763191	2555.875082
379.148991	2566.058213
379.534727	2566.920250
379.920402	2570.708678
380.306013	2575.074317
380.691563	2581.516911
381.077049	2582.484813
381.462474	2588.917325
381.847835	2593.252718
382.233134	2599.760847
382.618371	2602.175560
383.003545	2609.046652
383.388657	2616.280708
383.773706	2621.800772
384.158693	2626.373098
384.543618	2635.573204
384.928480	2642.487147
385.313280	2649.643064
385.698017	2657.391318
386.082692	2666.742658
386.467305	2670.621826
386.851856	2680.573064
387.236344	2689.642100
387.620770	2696.548480
388.005133	2706.872763
388.389435	2716.957592
388.773674	2723.838767
389.157851	2733.084243
389.541965	2740.986252
389.926018	2743.703433
390.310008	2758.232039
390.693936	2769.897269
391.077802	2776.899432
391.461606	2785.111471
391.845348	2795.103038
392.229027	2803.814152
392.612645	2818.635144
392.996200	2828.788028
393.379694	2841.504339
393.763125	2857.804910
394.146494	2865.744727
394.529801	2875.517004
394.913047	2895.464849
395.296230	2894.708676
395.679351	2899.074316
396.062410	2917.577871
396.445408	2915.606780
396.828343	2925.777307
397.211217	2934.730397
397.594028	2927.677823
397.976778	2942.539144
398.359466	2954.093469
398.742092	2953.599436
399.124656	2968.180973
399.507158	2980.985504
399.889598	2987.458345
400.271977	3000.222547
400.654294	3006.045080
401.036549	3022.862369
401.418742	3025.982843
401.800874	3049.542676
402.182944	3056.854869
402.564952	3084.772779
402.946898	3074.917323
403.328783	3084.573654
403.710606	3099.591251
404.092367	3123.458594
404.474067	3147.759476
404.855705	3140.631284
405.237282	3141.057262
405.618797	3172.370389
406.000250	3194.390149
406.381642	3226.570355
406.762972	3227.568503
407.144240	3216.588870
407.525447	3237.779360
407.906593	3237.905389
408.287677	3264.109307
408.668700	3284.951957
409.049661	3279.794857
409.430560	3292.962351
409.811399	3299.631797
410.192176	3321.114674
410.572891	3327.181703
410.953545	3367.818444
411.334138	3333.964576
411.714669	3385.389386
412.095139	3332.064061
412.475547	3382.825959
412.855894	3374.961759
413.236180	3403.414032
413.616405	3383.652708
413.996568	3408.702202
414.376670	3413.314858
414.756711	3406.978127
415.136691	3433.587858
415.516609	3453.046712
415.896466	3461.379739
416.276262	3490.492403
416.655997	3520.038605
417.035670	3527.217208
417.415283	3591.164245
417.794834	3612.488326
418.174324	3593.692383
418.553753	3596.008794
418.933121	3639.405567
419.312428	3633.043630
419.691674	3625.360912
420.070859	3662.541942
420.449983	3641.565701
420.829045	3693.913043
421.208047	3678.482071
421.586988	3726.347826
421.965867	3754.157352
422.344686	3764.012807
422.723444	3800.626708
423.102141	3707.264538
423.480777	3807.278510
423.859352	3775.831793
424.237866	3874.235116
424.616319	3861.554093
424.994712	3917.228596
425.373044	3908.346083
425.751314	3970.589210
426.129524	3907.176535
426.507673	4005.416021
426.885762	3982.022547
427.263789	4005.839478
427.641756	4011.498173
428.019662	4037.719735
428.397508	4042.503790
428.775292	4078.250612
429.153016	4084.350408
429.530679	4097.969085
429.908282	4104.880507
430.285824	4091.367694
430.663305	4157.890760
431.040726	4115.519862
431.418086	4105.122482
431.795385	4182.047969
432.172624	4215.571643
432.549802	4183.424204
432.926920	4198.698901
433.303977	4198.275444
433.680974	4233.190475
434.057910	4258.983539
434.434786	4263.041668
434.811601	4258.169393
435.188355	4363.285012
435.565050	4333.776618
435.941683	4333.423737
436.318257	4420.575205
436.694770	4424.454373
437.071222	4483.382941
437.447614	4418.042025
437.823946	4418.407509
438.200218	4436.192699
438.576429	4419.831635
438.952580	4444.666879
439.328670	4450.272642
439.704700	4491.302593
440.080670	4458.356132
440.456580	4518.789485
440.832429	4549.361562
441.208218	4455.689362
441.583947	4504.996888
441.959616	4522.192263
442.335224	4549.487591
442.710773	4569.632042
443.086261	4624.472234
443.461689	4578.164195
443.837057	4587.729784
444.212365	4663.349612
444.587612	4664.219211
444.962800	4635.192247
445.337927	4675.584493
445.712995	4562.140887
446.088002	4753.155247
446.462949	4774.466725
446.837837	4792.382986
447.212664	4778.555101
447.587431	5004.832333
447.962139	5300.569103
448.336786	5640.176514
448.711374	5627.941633
449.085901	5276.343838
449.460369	5210.234146
449.834776	5147.547398
450.209124	5376.735896
450.583412	5387.019850
450.957640	5516.063306
451.331808	5375.825968
451.705917	5225.203852
452.079965	5213.258838
452.453954	5257.016054
452.827883	5218.559612
453.201752	5223.164706
453.575562	5255.962453
453.949311	5390.541096
454.323001	5394.458072
454.696632	5391.549327
455.070202	5540.906112
455.443713	5571.294187
455.817164	5660.454555
456.190556	5735.151852
456.563888	5706.901226
456.937160	5785.810407
457.310373	5630.265605
457.683526	5682.497000
458.056619	5677.425599
458.429653	5656.217465
458.802628	5704.622624
459.175542	5737.349795
459.548398	5872.608994
459.921194	6057.006840
460.293930	6119.439010
460.666607	6373.132557
461.039224	6582.350523
461.411782	6712.639145
461.784280	6626.274097
462.156719	6633.838348
462.529099	6591.348983
462.901419	6447.686181
463.273680	6318.872097
463.645882	6310.448329
464.018024	6309.235932
464.390106	6376.530294
464.762130	6633.740046
465.134094	7014.652151
465.505999	7641.562482
465.877845	8346.013320
466.249631	8705.780305
466.621358	8633.469995
466.993026	8438.841127
467.364634	8220.700318
467.736184	7947.500026
468.107674	7789.724514
468.479105	7700.181018
468.850477	7634.744321
469.221790	7466.997406
469.593043	7243.762511
469.964238	7150.241545
470.335373	7122.058975
470.706449	7271.451048
471.077467	7451.238759
471.448425	8109.275694
471.819324	8692.791772
472.190164	8734.530006
472.560945	8252.825071
472.931667	7782.419882
473.302330	7587.745644
473.672934	7468.192160
474.043479	7538.959877
474.413965	7444.970084
474.784393	7395.236581
475.154761	7554.658030
475.525070	7563.822848
475.895321	7509.519539
476.265513	7605.122501
476.635645	7768.806246
477.005719	7754.320490
477.375734	7844.426074
477.745691	7955.291129
478.115588	8154.194896
478.485427	8386.768528
478.855207	8852.445115
479.224928	9283.672977
479.594591	9659.997632
479.964194	9673.003809
480.333739	9761.942365
480.703226	9755.361139
481.072653	9850.394451
481.442022	9961.463673
481.811333	10112.693247
482.180584	9955.313465
482.549777	9889.786027
482.918912	9827.023662
483.287988	9814.148555
483.657005	9721.691273
484.025964	9630.534608
484.394864	9690.884781
484.763706	9643.878542
485.132489	9559.073732
485.501213	9543.393223
485.869879	9597.119320
486.238487	9534.540957
486.607036	9611.962997
486.975527	9553.576353
487.343959	9595.501109
487.712333	9645.123707
488.080648	9672.013222
488.448905	9770.063664
488.817104	9764.941852
489.185244	9930.445453
489.553326	10126.248910
489.921350	10577.560728
490.289315	11176.507779
490.657222	11459.387086
491.025070	11618.909358
491.392861	11539.677543
491.760593	11370.198992
492.128267	11117.347318
492.495883	10877.814372
492.863440	10638.450305
493.230939	10406.723586
493.598380	10215.890708
493.965763	10186.072283
494.333088	10045.832424
494.700354	9959.449732
495.067563	9927.864383
495.434713	9920.020347
495.801805	9952.840779
496.168839	9894.418847
496.535815	9850.865799
496.902733	9875.993430
497.269593	9817.972270
497.636395	9809.840889
498.003139	9902.469570
498.369825	9807.993306
498.736453	9879.592814
499.103023	9809.472884
499.469535	9794.563672
499.835989	9816.170057
500.202385	9766.471842
500.568723	9764.483107
500.935003	9804.509868
501.301226	9751.595397
501.667390	9879.784378
502.033497	9943.660838
502.399546	9850.641467
502.765537	9757.624617
503.131470	9819.335902
503.497345	9880.207835
503.863163	9642.860229
504.228923	9740.293130
504.594625	9806.284355
504.960269	9699.507675
505.325856	9799.632552
505.691385	9662.813116
506.056856	9688.018885
506.422270	9735.882121
506.787625	9652.143514
507.152924	9659.523763
507.518164	9676.746865
507.883347	9528.310090
508.248472	9552.376559
508.613540	9607.788922
508.978550	9632.858580
509.343503	9575.515455
509.708398	9573.529240
510.073236	9638.615578
510.438016	9605.573335
510.802738	9493.301797
511.167403	9555.088700
511.532010	9554.448473
511.896561	9593.141849
512.261053	9697.665133
512.625488	9578.756917
512.989866	9518.414305
513.354186	9449.068193
513.718449	9406.546060
514.082655	9460.259555
514.446803	9372.064568
514.810894	9406.503211
515.174927	9341.280762
515.538904	9273.588148
515.902822	9338.861008
516.266684	9197.784318
516.630488	9202.394453
516.994235	9134.132189
517.357925	9154.967278
517.721558	9132.892065
518.085133	9119.492678
518.448651	9081.580681
518.812112	8982.532090
519.175516	8920.125126
519.538863	8928.611908
519.902152	8864.707722
520.265385	8869.065799
520.628560	8814.094537
520.991678	8718.320176
521.354739	8682.699383
521.717743	8654.562182
522.080690	8573.500428
522.443580	8585.861338
522.806413	8524.901185
523.169189	8452.237993
523.531908	8413.305162
523.894569	8317.354360
524.257174	8253.452694
524.619722	8238.568687
524.982213	8151.472672
525.344647	8081.587157
525.707025	8018.308073
526.069345	7996.111873
526.431608	7913.368894
526.793815	7880.535859
527.155964	7756.757888
527.518057	7689.735748
527.880093	7599.884742
528.242072	7579.689880
528.603995	7470.095195
528.965860	7400.713795
529.327669	7340.761873
529.689421	7252.516475
530.051117	7185.879982
530.412755	7125.890252
530.774337	7058.580766
531.135862	6965.047197
531.497331	6923.457678
531.858743	6831.678431
532.220098	6797.242309
532.581396	6697.485436
532.942638	6595.374344
533.303824	6556.673406
533.664953	6478.525439
534.026025	6396.047121
534.387040	6361.018664
534.747999	6285.096366
535.108902	6232.973356
535.469748	6124.520493
535.830537	6070.643161
536.191270	6015.253483
536.551947	5929.079999
536.912567	5879.815323
537.273131	5830.177602
537.633638	5725.992076
537.994089	5683.331311
538.354483	5599.716213
538.714821	5574.943983
539.075103	5536.028796
539.435328	5453.540395
539.795497	5392.093771
540.155609	5333.399617
540.515665	5297.075583
540.875665	5204.361202
541.235609	5170.892982
541.595496	5107.134988
541.955328	5089.412812
542.315102	5002.097507
542.674821	4931.604532
543.034483	4885.228437
543.394090	4828.061752
543.753640	4774.343217
544.113134	4770.663175
544.472571	4676.451571
544.831953	4674.193134
545.191278	4594.936113
545.550548	4536.559552
545.909761	4506.554604
546.268918	4464.455928
546.628019	4430.604580
546.987064	4366.274416
547.346053	4295.912511
547.704986	4284.499339
548.063863	4221.265626
548.422684	4189.937375
548.781449	4140.339983
549.140158	4113.354687
549.498811	4064.964651
549.857408	4010.111856
550.215949	3993.927231
550.574434	3953.603042
550.932864	3903.549425
551.291237	3893.968712
551.649555	3848.888194
552.007817	3822.585974
552.366022	3777.152575
552.724173	3748.871702
553.082267	3725.596694
553.440305	3704.365875
553.798288	3655.320489
554.156215	3629.817292
554.514086	3607.011112
554.871902	3570.573652
555.229661	3543.142213
555.587365	3512.053418
555.945014	3488.785972
556.302606	3456.578040
556.660143	3435.316974
557.017625	3415.170002
557.375050	3388.000704
557.732421	3368.025132
558.089735	3344.021678
558.446994	3321.492761
558.804197	3303.732776
559.161345	3281.702934
559.518437	3249.396699
559.875474	3233.091087
560.232455	3216.435115
560.589381	3195.703370
560.946251	3173.761747
561.303065	3163.618946
561.659825	3143.963487
562.016528	3124.212246
562.373177	3100.924636
562.729770	3089.491299
563.086307	3069.450192
563.442789	3059.680436
563.799216	3043.727705
564.155587	3025.773635
564.511904	3014.226872
564.868164	3001.200531
565.224370	2991.569406
565.580520	2974.232878
565.936615	2965.728452
566.292654	2949.871502
566.648638	2942.549226
567.004567	2928.073553
567.360441	2918.860844
567.716260	2907.687127
568.072023	2901.173956
568.427732	2885.072511
568.783385	2873.755120
569.138982	2868.769419
569.494525	2856.920187
569.850013	2848.241841
570.205445	2843.354442
570.560823	2836.196004
570.916145	2828.268789
571.271412	2820.886019
571.626625	2813.447797
571.981782	2806.596869
572.336884	2800.696198
572.691931	2791.755712
573.046923	2787.627007
573.401860	2783.183230
573.756743	2771.311312
574.111570	2771.205448
574.466342	2765.208996
574.821059	2760.155239
575.175722	2754.105854
575.530330	2748.459762
575.884882	2742.599421
576.239380	2738.916858
576.593823	2733.485015
576.948211	2730.460322
577.302544	2726.576113
577.656823	2723.901781
578.011047	2723.168293
578.365216	2718.144783
578.719330	2712.876778
579.073389	2711.838300
579.427394	2704.344625
579.781344	2702.739017
580.135239	2700.258770
580.489080	2698.953111
580.842866	2696.276258
581.196597	2696.296423
581.550273	2694.968079
581.903895	2689.528674
582.257463	2689.750484
582.610975	2688.381811
582.964434	2685.180678
583.317837	2685.147911
583.671186	2682.813857
584.024481	2679.655574
584.377721	2677.626509
584.730906	2676.646005
585.084037	2675.617610
585.437113	2672.048473
585.790135	2673.044101
586.143103	2670.089984
586.496016	2669.729542
586.848874	2664.181752
587.201679	2661.484735
587.554428	2660.111020
587.907124	2661.794766
588.259765	2658.339055
588.612352	2661.109169
588.964884	2659.344765
589.317362	2663.002122
589.669786	2658.717141
590.022155	2660.471463
590.374470	2658.525577
590.726731	2659.211174
591.078937	2655.473159
591.431090	2653.101296
591.783188	2650.184988
592.135232	2651.803199
592.487222	2651.341933
592.839157	2652.811430
593.191038	2651.725061
593.542866	2650.021151
593.894639	2646.371356
594.246358	2647.457724
594.598022	2647.533342
594.949633	2645.864720
595.301190	2645.461427
595.652692	2642.696354
596.004141	2645.118629
596.355535	2642.713998
596.706876	2641.509163
597.058162	2641.181488
597.409395	2645.418577
597.760573	2640.619399
598.111698	2640.788278
598.462768	2641.887249
598.813785	2638.250057
599.164748	2642.577887
599.515657	2638.718884
599.866511	2638.726446
600.217312	2638.933133
600.568060	2638.691158
600.918753	2636.228554
601.269392	2637.269552
601.619978	2636.087402
601.970510	2636.833492
602.320988	2634.882566
602.671412	2636.420118
603.021783	2637.198976
603.372100	2633.723101
603.722363	2636.074799
604.072572	2633.009777
604.422728	2633.990282
604.772830	2628.956690
605.122878	2630.254787
605.472872	2629.367544
605.822813	2631.850312
606.172701	2629.917029
606.522534	2631.900723
606.872314	2632.687143
607.222041	2633.541619
607.571714	2635.991620
607.921333	2632.006588
608.270899	2633.768471
608.620411	2630.839561
608.969870	2631.215127
609.319276	2632.074643
609.668627	2632.576238
610.017926	2630.159005
610.367171	2631.245373
610.716362	2632.089767
611.065500	2633.196300
611.414585	2632.175466
611.763616	2633.468522
612.112594	2630.514406
612.461518	2631.255456
612.810389	2631.242853
613.159207	2630.615229
613.507971	2629.183542
613.856682	2629.087760
614.205340	2628.586165
614.553945	2630.872328
614.902496	2632.767802
615.250994	2631.943573
615.599439	2628.981895
615.947830	2630.937863
616.296169	2631.023563
616.644454	2632.072123
616.992686	2631.053810
617.340864	2631.051289
617.688990	2628.303860
618.037063	2632.019191
618.385082	2630.002729
618.733048	2631.943573
619.080961	2631.157153
619.428821	2629.866618
619.776628	2631.522637
620.124382	2631.550363
620.472083	2630.713532
620.819731	2629.380147
621.167326	2630.317801
621.514868	2629.337297
621.862357	2630.007770
622.209793	2629.944756
622.557176	2628.916360
622.904506	2626.179014
623.251783	2625.306894
623.599007	2625.841257
623.946179	2622.335134
624.293297	2622.967799
624.640363	2622.045268
624.987376	2625.889147
625.334336	2625.848818
625.681243	2625.218674
626.028097	2621.888992
626.374899	2622.367902
626.721647	2624.218005
627.068343	2622.801441
627.414987	2622.375463
627.761577	2622.786317
628.108115	2622.262037
628.454600	2621.087448
628.801032	2619.829681
629.147412	2621.939403
629.493739	2621.185751
629.840014	2622.136008
630.186236	2622.914867
630.532405	2620.858076
630.878521	2618.178703
631.224585	2620.054012
631.570597	2617.072169
631.916556	2621.152983
632.262462	2618.894547
632.608316	2620.008642
632.954117	2620.091821
633.299866	2619.421347
633.645562	2617.651902
633.991206	2620.490072
634.336797	2617.505709
634.682336	2617.699793
635.027823	2618.791203
635.373257	2617.644340
635.718639	2615.537138
636.063968	2618.181223
636.409245	2615.469082
636.754470	2615.653085
637.099642	2616.512601
637.444762	2614.692745
637.789829	2616.643671
638.134845	2616.792385
638.479808	2615.562344
638.824719	2615.907663
639.169577	2611.186622
639.514383	2614.816253
639.859137	2612.346088
640.203839	2611.536982
640.548489	2614.213835
640.893086	2610.387599
641.237632	2606.843668
641.582125	2609.356683
641.926566	2606.679831
642.270955	2612.837600
642.615292	2611.282404
642.959576	2611.708382
643.303809	2611.347939
643.647990	2613.021602
643.992118	2610.422887
644.336195	2613.545882
