Dividing Wavelength (nm)	Counts (n)	Blue Motor Position (mm): 0.000000	Red Motor Position (mm): 14.500000	
326.493990	2145.835190
326.888308	2145.835190
327.282561	2145.835190
327.676750	2118.428957
328.070874	2121.229318
328.464933	2126.005812
328.858929	2136.254477
329.252859	2147.670170
329.646726	2162.851605
330.040528	2176.934068
330.434265	2195.561132
330.827938	2213.341281
331.221547	2232.169991
331.615091	2252.536253
332.008571	2273.777154
332.401986	2294.924795
332.795338	2314.575212
333.188625	2334.139930
333.581847	2354.322190
333.975006	2372.919006
334.368100	2387.666902
334.761129	2408.582649
335.154095	2426.871955
335.546996	2444.105140
335.939833	2454.547890
336.332606	2470.097329
336.725315	2480.275419
337.117960	2488.908395
337.510540	2497.458192
337.903056	2508.760458
338.295508	2510.247599
338.687896	2518.124402
339.080220	2525.970958
339.472480	2532.653007
339.864676	2538.215920
340.256807	2540.746580
340.648875	2538.228523
341.040879	2541.117104
341.432818	2546.788403
341.824694	2545.888557
342.216506	2545.482744
342.608253	2546.203629
342.999937	2544.446787
343.391557	2543.410829
343.783113	2541.475026
344.174605	2540.708771
344.566033	2539.214069
344.957397	2538.142824
345.348697	2533.482277
345.739934	2535.594520
346.131106	2532.920188
346.522215	2532.461443
346.913260	2526.646472
347.304241	2526.769981
347.695159	2525.582789
348.086012	2523.402490
348.476802	2520.826460
348.867528	2520.425688
349.258191	2521.867458
349.648789	2520.987777
350.039324	2519.268744
350.429796	2517.579957
350.820203	2516.392765
351.210548	2515.510563
351.600828	2514.265398
351.991045	2513.993176
352.381198	2513.176509
352.771288	2514.635923
353.161314	2512.316993
353.551276	2513.645337
353.941175	2513.194153
354.331010	2512.813546
354.720782	2513.252127
355.110490	2515.286232
355.500135	2515.223218
355.889717	2512.969822
356.279235	2514.600635
356.668689	2514.782117
357.058080	2515.500481
357.447408	2512.309431
357.836672	2512.100223
358.225873	2512.803464
358.615010	2512.246416
359.004084	2518.835204
359.393095	2519.914011
359.782043	2518.855369
360.170927	2518.265554
360.559748	2521.272602
360.948505	2522.366533
361.337199	2520.730678
361.725830	2521.653209
362.114398	2522.699249
362.502903	2521.176820
362.891344	2522.207736
363.279722	2522.537932
363.668037	2522.674043
364.056289	2522.936183
364.444478	2524.912315
364.832603	2524.655217
365.220665	2524.420803
365.608665	2524.302336
365.996601	2527.591689
366.384474	2527.095135
366.772284	2525.567665
367.160031	2527.727800
367.547715	2528.814168
367.935336	2525.484486
368.322893	2526.107069
368.710388	2528.829292
369.097820	2529.804755
369.485189	2528.519261
369.872495	2528.607481
370.259738	2530.439941
370.646918	2527.931967
371.034035	2532.093439
371.421090	2530.760054
371.808081	2530.558408
372.195010	2531.879190
372.581875	2533.459592
372.968678	2533.623429
373.355418	2532.353058
373.742096	2536.322967
374.128710	2538.664583
374.515262	2537.921013
374.901751	2536.524613
375.288177	2540.040818
375.674540	2538.231044
376.060841	2541.936292
376.447079	2544.615665
376.833254	2545.215563
377.219367	2541.946374
377.605417	2545.707075
377.991404	2546.077600
378.377329	2553.919115
378.763191	2552.799978
379.148991	2557.611760
379.534727	2562.047975
379.920402	2565.208779
380.306013	2571.558112
380.691563	2576.868967
381.077049	2579.581108
381.462474	2583.056984
381.847835	2587.079825
382.233134	2591.994950
382.618371	2595.216247
383.003545	2604.050869
383.388657	2612.910697
383.773706	2617.588888
384.158693	2624.739764
384.543618	2626.489045
384.928480	2634.328039
385.313280	2644.904380
385.698017	2652.322438
386.082692	2660.632780
386.467305	2665.666372
386.851856	2676.121725
387.236344	2686.148580
387.620770	2690.680577
388.005133	2698.890096
388.389435	2710.923331
388.773674	2717.960781
389.157851	2725.731720
389.541965	2737.820407
389.926018	2739.529358
390.310008	2754.065525
390.693936	2764.097421
391.077802	2771.676796
391.461606	2781.242386
391.845348	2786.709517
392.229027	2798.697381
392.612645	2814.894608
392.996200	2823.845177
393.379694	2832.400015
393.763125	2852.068077
394.146494	2860.363295
394.529801	2868.613143
394.913047	2889.123078
395.296230	2888.681977
395.679351	2892.581309
396.062410	2914.638878
396.445408	2910.381624
396.828343	2917.615679
397.211217	2928.721341
397.594028	2922.676998
397.976778	2934.795932
398.359466	2948.109619
398.742092	2945.190791
399.124656	2961.312401
399.507158	2972.269349
399.889598	2978.898466
400.271977	2989.265599
400.654294	2999.012670
401.036549	3010.670338
401.418742	3012.384331
401.800874	3036.869215
402.182944	3040.950029
402.564952	3067.158988
402.946898	3055.037533
403.328783	3065.220664
403.710606	3077.258939
404.092367	3095.341558
404.474067	3120.214611
404.855705	3108.806480
405.237282	3104.135851
405.618797	3130.886734
406.000250	3146.723519
406.381642	3170.159843
406.762972	3169.756551
407.144240	3155.081752
407.525447	3170.865605
407.906593	3167.021725
408.287677	3177.981193
408.668700	3189.149870
409.049661	3179.954805
409.430560	3185.789941
409.811399	3180.227027
410.192176	3188.860003
410.572891	3187.438398
410.953545	3212.775237
411.334138	3176.254598
411.714669	3205.636963
412.095139	3153.324910
412.475547	3184.572502
412.855894	3166.620953
413.236180	3179.743077
413.616405	3153.148469
413.996568	3158.282885
414.376670	3147.976246
414.756711	3132.149543
415.136691	3136.290851
415.516609	3137.664565
415.896466	3124.860035
416.276262	3131.375726
416.655997	3131.849594
417.035670	3121.512708
417.415283	3147.492295
417.794834	3142.509114
418.174324	3114.092130
418.553753	3102.631067
418.933121	3109.429063
419.312428	3088.838470
419.691674	3072.116963
420.070859	3067.789132
420.449983	3041.892725
420.829045	3047.977397
421.208047	3022.930424
421.586988	3023.757174
421.965867	3020.898839
422.344686	3005.273783
422.723444	3002.337311
423.102141	2947.585339
423.480777	2967.235757
423.859352	2941.898918
424.237866	2952.205557
424.616319	2929.853080
424.994712	2930.263934
425.373044	2911.271387
425.751314	2907.984555
426.129524	2874.912065
426.507673	2879.028167
426.885762	2861.772298
427.263789	2848.594722
427.641756	2833.347752
428.019662	2823.378870
428.397508	2810.201294
428.775292	2800.665951
429.153016	2785.729012
429.530679	2776.705347
429.908282	2761.929725
430.285824	2748.782396
430.663305	2744.089082
431.040726	2724.748695
431.418086	2714.384083
431.795385	2711.356870
432.172624	2704.009388
432.549802	2691.373736
432.926920	2682.133301
433.303977	2675.607527
433.680974	2669.936229
434.057910	2662.011535
434.434786	2653.270175
434.811601	2647.538383
435.188355	2642.880357
435.565050	2636.752834
435.941683	2631.469705
436.318257	2624.616256
436.694770	2618.708024
437.071222	2616.686521
437.447614	2607.473812
437.823946	2604.307968
438.200218	2605.172526
438.576429	2598.775302
438.952580	2597.968717
439.328670	2592.909919
439.704700	2591.750454
440.080670	2591.652151
440.456580	2590.165011
440.832429	2587.586461
441.208218	2583.430029
441.583947	2584.523960
441.959616	2583.503126
442.335224	2578.240161
442.710773	2579.492888
443.086261	2580.395255
443.461689	2577.017682
443.837057	2576.057342
444.212365	2573.698082
444.587612	2574.824780
444.962800	2575.170099
445.337927	2575.578432
445.712995	2573.682958
446.088002	2575.185222
446.462949	2572.929306
446.837837	2575.144893
447.212664	2572.906621
447.587431	2574.489543
447.962139	2573.980386
448.336786	2578.605645
448.711374	2575.296127
449.085901	2576.977352
449.460369	2577.405850
449.834776	2574.466858
450.209124	2572.490725
450.583412	2574.378638
450.957640	2575.626323
451.331808	2574.560119
451.705917	2572.558781
452.079965	2574.605489
452.453954	2574.671024
452.827883	2573.821590
453.201752	2573.998030
453.575562	2573.443503
453.949311	2570.950653
454.323001	2573.781261
454.696632	2572.735221
455.070202	2576.463155
455.443713	2575.293607
455.817164	2572.478122
456.190556	2572.894018
456.563888	2571.490056
456.937160	2571.548030
457.310373	2576.576581
457.683526	2576.493402
458.056619	2572.049624
458.429653	2574.764286
458.802628	2576.132959
459.175542	2577.642785
459.548398	2574.766806
459.921194	2579.785275
460.293930	2576.561457
460.666607	2576.901735
461.039224	2577.967939
461.411782	2582.389031
461.784280	2579.999524
462.156719	2576.919379
462.529099	2577.980542
462.901419	2578.280491
463.273680	2579.550861
463.645882	2577.652867
464.018024	2577.511715
464.390106	2578.958526
464.762130	2580.559092
465.134094	2581.496747
465.505999	2583.689649
465.877845	2584.904567
466.249631	2588.786255
466.621358	2588.367839
466.993026	2588.453539
467.364634	2587.223497
467.736184	2584.476069
468.107674	2584.128229
468.479105	2583.971953
468.850477	2582.061356
469.221790	2588.261975
469.593043	2583.031778
469.964238	2584.274423
470.335373	2584.700400
470.706449	2578.567836
471.077467	2583.692169
471.448425	2586.762232
471.819324	2588.627459
472.190164	2587.838518
472.560945	2586.452201
472.931667	2585.191913
473.302330	2585.005390
473.672934	2583.982036
474.043479	2582.033630
474.413965	2584.715523
474.784393	2579.563464
475.154761	2579.966757
475.525070	2580.738053
475.895321	2581.181675
476.265513	2580.496078
476.635645	2585.174268
477.005719	2583.591346
477.375734	2588.390525
477.745691	2585.983374
478.115588	2588.158632
478.485427	2587.233580
478.855207	2590.091914
479.224928	2589.517222
479.594591	2589.887747
479.964194	2590.722058
480.333739	2591.790783
480.703226	2593.414034
481.072653	2591.453026
481.442022	2592.710793
481.811333	2591.793303
482.180584	2591.931935
482.549777	2588.856831
482.918912	2590.233066
483.287988	2592.604929
483.657005	2593.739189
484.025964	2588.652665
484.394864	2590.018817
484.763706	2591.405135
485.132489	2587.745257
485.501213	2590.986719
485.869879	2589.754157
486.238487	2586.666450
486.607036	2587.863724
486.975527	2587.568817
487.343959	2586.593353
487.712333	2589.330700
488.080648	2585.693507
488.448905	2587.543611
488.817104	2589.668457
489.185244	2590.003694
489.553326	2588.166193
489.921350	2590.903540
490.289315	2590.865731
490.657222	2591.911771
491.025070	2591.851277
491.392861	2591.074939
491.760593	2590.787593
492.128267	2591.069898
492.495883	2592.307501
492.863440	2589.534867
493.230939	2587.397417
493.598380	2589.459249
493.965763	2582.822570
494.333088	2585.133939
494.700354	2585.065884
495.067563	2585.726275
495.434713	2585.297777
495.801805	2584.342478
496.168839	2588.511512
496.535815	2589.028231
496.902733	2588.098138
497.269593	2588.017479
497.636395	2584.803744
498.003139	2586.832808
498.369825	2588.002356
498.736453	2587.866245
499.103023	2588.587130
499.469535	2584.924731
499.835989	2586.575709
500.202385	2586.691656
500.568723	2588.503951
500.935003	2587.596543
501.301226	2588.014959
501.667390	2588.713158
502.033497	2587.102510
502.399546	2587.941862
502.765537	2587.067222
503.131470	2586.878178
503.497345	2590.162490
503.863163	2586.527818
504.228923	2587.667119
504.594625	2589.706266
504.960269	2587.215936
505.325856	2589.534867
505.691385	2584.649988
506.056856	2588.687953
506.422270	2587.347006
506.787625	2586.497571
507.152924	2586.374063
507.518164	2586.739547
507.883347	2587.130236
508.248472	2587.054619
508.613540	2586.273240
508.978550	2589.728951
509.343503	2585.625452
509.708398	2585.922880
510.073236	2584.700400
510.438016	2588.312387
510.802738	2586.472366
511.167403	2591.190886
511.532010	2584.854155
511.896561	2586.883220
512.261053	2589.628128
512.625488	2582.288208
512.989866	2583.740060
513.354186	2581.945409
513.718449	2581.005234
514.082655	2585.960688
514.446803	2585.063363
514.810894	2585.927921
515.174927	2584.544124
515.538904	2586.225349
515.902822	2585.852304
516.266684	2584.231573
516.630488	2585.368353
516.994235	2587.621749
517.357925	2584.077818
517.721558	2585.685946
518.085133	2586.931111
518.448651	2589.277768
518.812112	2586.585792
519.175516	2589.048395
519.538863	2588.395566
519.902152	2587.536049
520.265385	2587.004207
520.628560	2586.590833
520.991678	2586.774835
521.354739	2589.146698
521.717743	2587.697366
522.080690	2588.337592
522.443580	2589.068560
522.806413	2589.507140
523.169189	2586.923549
523.531908	2588.241811
523.894569	2585.421285
524.257174	2589.988570
524.619722	2587.725092
524.982213	2588.572006
525.344647	2586.114444
525.707025	2586.661409
526.069345	2586.691656
526.431608	2585.912797
526.793815	2586.603436
527.155964	2587.347006
527.518057	2587.135277
527.880093	2588.705597
528.242072	2586.603436
528.603995	2585.854824
528.965860	2587.130236
529.327669	2586.167376
529.689421	2586.921028
530.051117	2588.324990
530.412755	2586.260637
530.774337	2587.498240
531.135862	2587.163004
531.497331	2585.053281
531.858743	2585.801892
532.220098	2583.520770
532.581396	2584.254258
532.942638	2583.082190
533.303824	2585.317941
533.664953	2588.193920
534.026025	2587.352047
534.387040	2587.886409
534.747999	2585.388517
535.108902	2587.125195
535.469748	2585.000349
535.830537	2586.363981
536.191270	2585.912797
536.551947	2588.536718
536.912567	2587.818354
537.273131	2586.260637
537.633638	2585.559917
537.994089	2588.002356
538.354483	2585.539752
538.714821	2586.941193
539.075103	2587.102510
539.435328	2586.089238
539.795497	2586.356419
540.155609	2587.888930
540.515665	2585.953127
540.875665	2587.576378
541.235609	2585.751481
541.595496	2584.833991
541.955328	2585.995977
542.315102	2585.449011
542.674821	2584.072776
543.034483	2587.180648
543.394090	2585.706110
543.753640	2584.995307
544.113134	2587.193251
544.472571	2583.619073
544.831953	2586.205184
545.191278	2584.478589
545.550548	2586.588312
545.909761	2586.406831
546.268918	2585.345668
546.628019	2586.242993
546.987064	2586.573189
547.346053	2585.194433
547.704986	2587.306677
548.063863	2588.753488
548.422684	2585.385997
548.781449	2587.357088
549.140158	2586.006059
549.498811	2585.925400
549.857408	2584.551686
550.215949	2581.247210
550.574434	2583.762745
550.932864	2583.808116
551.291237	2581.383321
551.649555	2586.898343
552.007817	2586.835329
552.366022	2586.283322
552.724173	2584.866758
553.082267	2586.089238
553.440305	2587.145360
553.798288	2584.811305
554.156215	2584.226532
554.514086	2585.242324
554.871902	2586.227870
555.229661	2583.984556
555.587365	2582.527663
555.945014	2585.378435
556.302606	2584.554207
556.660143	2587.720051
557.017625	2584.972622
557.375050	2586.540421
557.732421	2587.198292
558.089735	2585.769125
558.446994	2584.438260
558.804197	2586.169896
559.161345	2584.745770
559.518437	2586.772314
559.875474	2583.679566
560.232455	2587.558734
560.589381	2586.565627
560.946251	2586.636203
561.303065	2588.561924
561.659825	2586.469845
562.016528	2585.534711
562.373177	2584.965061
562.729770	2583.571182
563.086307	2587.815833
563.442789	2587.339444
563.799216	2587.031934
564.155587	2585.809454
564.511904	2585.663260
564.868164	2584.602097
565.224370	2588.420772
565.580520	2585.832139
565.936615	2586.505133
566.292654	2587.654516
566.648638	2585.804413
567.004567	2587.372212
567.360441	2587.190730
567.716260	2587.452870
568.072023	2586.817685
568.427732	2582.673856
568.783385	2583.296439
569.138982	2581.665625
569.494525	2580.990111
569.850013	2579.933989
570.205445	2585.943044
570.560823	2585.461614
570.916145	2585.322983
571.271412	2585.406162
571.626625	2584.324834
571.981782	2586.172417
572.336884	2586.426995
572.691931	2584.468507
573.046923	2585.360791
573.401860	2584.491192
573.756743	2587.319279
574.111570	2585.829618
574.466342	2584.783579
574.821059	2586.369022
575.175722	2582.043712
575.530330	2584.095462
575.884882	2585.658219
576.239380	2584.140832
576.593823	2585.504464
576.948211	2584.917170
577.302544	2584.090420
577.656823	2586.253075
578.011047	2587.979671
578.365216	2583.762745
578.719330	2586.157293
579.073389	2584.612180
579.427394	2585.141501
579.781344	2584.239134
580.135239	2584.965061
580.489080	2583.477920
580.842866	2585.925400
581.196597	2586.490010
581.550273	2585.358271
581.903895	2585.385997
582.257463	2584.196285
582.610975	2585.025554
582.964434	2583.767787
583.317837	2586.053950
583.671186	2584.160997
584.024481	2585.486820
584.377721	2584.581933
584.730906	2583.732498
585.084037	2583.520770
585.437113	2582.036150
585.790135	2585.126377
586.143103	2583.838363
586.496016	2584.090420
586.848874	2581.524473
587.201679	2582.590677
587.554428	2579.954154
587.907124	2581.650502
588.259765	2581.887436
588.612352	2584.586974
588.964884	2584.783579
589.317362	2583.102354
589.669786	2585.229721
590.022155	2586.278281
590.374470	2582.991449
590.726731	2582.789803
591.078937	2583.664443
591.431090	2582.076479
591.783188	2583.581264
592.135232	2582.694021
592.487222	2583.808116
592.839157	2583.445153
593.191038	2585.819536
593.542866	2584.481110
593.894639	2583.591346
594.246358	2585.418764
594.598022	2582.837694
594.949633	2583.881212
595.301190	2581.653023
595.652692	2584.503795
596.004141	2580.513722
596.355535	2584.322313
596.706876	2582.091603
597.058162	2582.890626
597.409395	2582.973805
597.760573	2582.872982
598.111698	2582.472210
598.462768	2583.263671
598.813785	2583.024216
599.164748	2581.002714
599.515657	2583.152766
599.866511	2584.284505
600.217312	2580.458269
600.568060	2583.672005
600.918753	2584.287025
601.269392	2582.197467
601.619978	2584.720565
601.970510	2581.617734
602.320988	2583.137642
602.671412	2583.422467
603.021783	2582.447004
603.372100	2581.290059
603.722363	2583.440112
604.072572	2582.988928
604.422728	2583.387179
604.772830	2579.722261
605.122878	2576.153124
605.472872	2579.044225
605.822813	2578.066242
606.172701	2578.794688
606.522534	2581.892477
606.872314	2581.486664
607.222041	2581.156469
607.571714	2581.655543
607.921333	2582.678897
608.270899	2583.021696
608.620411	2582.656212
608.969870	2584.060173
609.319276	2584.912128
609.668627	2582.872982
610.017926	2582.731829
610.367171	2583.573702
610.716362	2582.162179
611.065500	2582.096644
611.414585	2582.585636
611.763616	2583.856007
612.112594	2582.421798
612.461518	2583.563620
612.810389	2581.645461
613.159207	2583.800554
613.507971	2580.765779
613.856682	2585.043198
614.205340	2582.386510
614.553945	2582.409196
614.902496	2582.071438
615.250994	2582.603280
615.599439	2586.885740
615.947830	2584.095462
616.296169	2584.052612
616.644454	2585.839701
616.992686	2586.041347
617.340864	2584.534042
617.688990	2582.147056
618.037063	2584.143353
618.385082	2581.937848
618.733048	2584.846593
619.080961	2584.155955
619.428821	2582.028588
619.776628	2582.883064
620.124382	2583.041860
620.472083	2585.998497
620.819731	2583.840883
621.167326	2582.305852
621.514868	2584.937334
621.862357	2582.908270
622.209793	2585.199474
622.557176	2586.185020
622.904506	2582.386510
623.251783	2578.025912
623.599007	2581.290059
623.946179	2581.526994
624.293297	2578.018351
624.640363	2584.377766
624.987376	2581.249730
625.334336	2581.799216
625.681243	2582.167220
626.028097	2581.287539
626.374899	2581.214442
626.721647	2582.182344
627.068343	2582.774679
627.414987	2583.669484
627.761577	2579.210583
628.108115	2581.169072
628.454600	2580.077662
628.801032	2579.891139
629.147412	2582.963722
629.493739	2580.359967
629.840014	2581.564802
630.186236	2581.406006
630.532405	2580.932137
630.878521	2580.264185
631.224585	2581.952971
631.570597	2581.728640
631.916556	2581.718557
632.262462	2582.817529
632.608316	2581.741243
632.954117	2580.359967
633.299866	2580.796026
633.645562	2581.063207
633.991206	2581.837025
634.336797	2578.519945
634.682336	2581.726119
635.027823	2580.581777
635.373257	2580.846438
635.718639	2580.448187
636.063968	2581.279977
636.409245	2579.689493
636.754470	2579.316448
637.099642	2581.705955
637.444762	2580.682600
637.789829	2580.415419
638.134845	2579.344174
638.479808	2580.168403
638.824719	2580.145717
639.169577	2580.097827
639.514383	2577.741087
639.859137	2578.764441
640.203839	2582.126891
640.548489	2581.043043
640.893086	2578.434246
641.237632	2576.112794
641.582125	2577.410892
641.926566	2575.931313
642.270955	2581.269895
642.615292	2580.107909
642.959576	2580.710327
643.303809	2578.391396
643.647990	2579.576067
643.992118	2579.097158
644.336195	2579.465162
