Dividing Wavelength (nm)	Counts (n)	Blue Motor Position (mm): 0.000000	Red Motor Position (mm): 16.000000	
326.493990	2145.499953
326.888308	2145.499953
327.282561	2145.499953
327.676750	2119.517847
328.070874	2123.651593
328.464933	2124.813579
328.858929	2137.804632
329.252859	2150.369708
329.646726	2161.679537
330.040528	2176.150169
330.434265	2194.976358
330.827938	2212.973277
331.221547	2231.693602
331.615091	2254.683784
332.008571	2273.883018
332.401986	2294.254321
332.795338	2315.331385
333.188625	2336.254694
333.581847	2352.275481
333.975006	2374.292721
334.368100	2390.353837
334.761129	2409.182547
335.154095	2422.612180
335.546996	2439.898297
335.939833	2454.142077
336.332606	2470.795529
336.725315	2480.136787
337.117960	2485.646768
337.510540	2499.139416
337.903056	2505.962618
338.295508	2509.930006
338.687896	2519.520801
339.080220	2527.485824
339.472480	2532.731145
339.864676	2537.248019
340.256807	2540.716333
340.648875	2541.238092
341.040879	2544.013247
341.432818	2543.945192
341.824694	2545.402085
342.216506	2543.768751
342.608253	2545.868392
342.999937	2545.291180
343.391557	2543.567105
343.783113	2541.724563
344.174605	2540.307999
344.566033	2541.782537
344.957397	2539.571991
345.348697	2535.090405
345.739934	2533.061341
346.131106	2532.597554
346.522215	2531.879190
346.913260	2527.417769
347.304241	2525.683612
347.695159	2526.144877
348.086012	2525.088756
348.476802	2521.849814
348.867528	2523.468025
349.258191	2520.786131
349.648789	2519.583816
350.039324	2518.835204
350.429796	2518.353774
350.820203	2515.629031
351.210548	2513.778927
351.600828	2513.826818
351.991045	2516.150790
352.381198	2514.240193
352.771288	2512.236334
353.161314	2512.853875
353.551276	2511.094513
353.941175	2514.774555
354.331010	2511.845645
354.720782	2514.414113
355.110490	2515.263547
355.500135	2515.966788
355.889717	2516.269257
356.279235	2512.811026
356.668689	2518.807478
357.058080	2516.753208
357.447408	2513.423526
357.836672	2513.063083
358.225873	2514.121726
358.615010	2513.917559
359.004084	2518.391583
359.393095	2519.127591
359.782043	2519.997190
360.170927	2517.683301
360.559748	2520.503826
360.948505	2521.239835
361.337199	2521.673374
361.725830	2521.413755
362.114398	2522.875689
362.502903	2524.748478
362.891344	2523.853673
363.279722	2522.878210
363.668037	2522.270751
364.056289	2523.997346
364.444478	2526.152439
364.832603	2523.523477
365.220665	2526.664116
365.608665	2527.014477
365.996601	2523.599095
366.384474	2528.322656
366.772284	2525.855011
367.160031	2525.844929
367.547715	2527.871473
367.935336	2527.493386
368.322893	2524.861904
368.710388	2526.069260
369.097820	2530.563449
369.485189	2530.666793
369.872495	2528.645290
370.259738	2529.971113
370.646918	2528.892306
371.034035	2529.429189
371.421090	2531.163346
371.808081	2532.088398
372.195010	2531.886752
372.581875	2532.274921
372.968678	2533.106711
373.355418	2533.252904
373.742096	2539.067875
374.128710	2534.732483
374.515262	2535.518903
374.901751	2539.642567
375.288177	2537.021167
375.674540	2540.265149
376.060841	2542.962167
376.447079	2542.737835
376.833254	2545.817980
377.219367	2544.393854
377.605417	2545.737322
377.991404	2547.791592
378.377329	2553.409958
378.763191	2550.715461
379.148991	2560.739796
379.534727	2562.990671
379.920402	2566.312791
380.306013	2569.178687
380.691563	2572.856209
381.077049	2578.971129
381.462474	2584.458425
381.847835	2590.296081
382.233134	2594.926381
382.618371	2596.993254
383.003545	2606.894080
383.388657	2611.075717
383.773706	2618.355143
384.158693	2623.363529
384.543618	2630.990795
384.928480	2636.135293
385.313280	2645.761376
385.698017	2653.028199
386.082692	2659.843839
386.467305	2665.663851
386.851856	2675.015192
387.236344	2686.977850
387.620770	2693.652338
388.005133	2700.972093
388.389435	2713.547251
388.773674	2718.200236
389.157851	2728.630383
389.541965	2738.228740
389.926018	2739.277300
390.310008	2755.613159
390.693936	2764.432658
391.077802	2770.958432
391.461606	2780.571912
391.845348	2789.525001
392.229027	2800.807104
392.612645	2814.168682
392.996200	2824.364416
393.379694	2835.104594
393.763125	2855.506143
394.146494	2862.278934
394.529801	2871.990717
394.913047	2883.529918
395.296230	2890.000239
395.679351	2894.723800
396.062410	2912.884557
396.445408	2909.592683
396.828343	2918.371853
397.211217	2927.597164
397.594028	2922.979467
397.976778	2936.673762
398.359466	2950.027778
398.742092	2946.718261
399.124656	2964.163173
399.507158	2976.289669
399.889598	2980.849393
400.271977	2997.583503
400.654294	3002.985099
401.036549	3013.816018
401.418742	3018.708458
401.800874	3041.270142
402.182944	3047.069990
402.564952	3078.960329
402.946898	3066.906930
403.328783	3075.779361
403.710606	3089.501382
404.092367	3112.239506
404.474067	3138.118269
404.855705	3129.646610
405.237282	3127.970427
405.618797	3161.073163
406.000250	3180.103519
406.381642	3208.591079
406.762972	3211.605689
407.144240	3200.346272
407.525447	3219.124570
407.906593	3219.858058
408.287677	3237.829772
408.668700	3256.139242
409.049661	3248.128849
409.430560	3263.842126
409.811399	3265.299019
410.192176	3278.481636
410.572891	3280.876184
410.953545	3316.287770
411.334138	3277.695216
411.714669	3322.523677
412.095139	3268.356479
412.475547	3310.492963
412.855894	3295.644245
413.236180	3312.700989
413.616405	3288.180816
413.996568	3304.861994
414.376670	3299.677168
414.756711	3288.014458
415.136691	3300.725728
415.516609	3314.233499
415.896466	3307.543888
416.276262	3319.342709
416.655997	3332.946263
417.035670	3327.920232
417.415283	3369.456819
417.794834	3371.488404
418.174324	3349.065352
418.553753	3337.410204
418.933121	3354.338399
419.312428	3334.297292
419.691674	3317.618634
420.070859	3329.079698
420.449983	3298.769760
420.829045	3317.931186
421.208047	3295.230870
421.586988	3302.296047
421.965867	3308.907520
422.344686	3297.759009
422.723444	3297.753968
423.102141	3225.965416
423.480777	3266.776077
423.859352	3230.015983
424.237866	3267.328083
424.616319	3238.412025
424.994712	3250.041967
425.373044	3221.161197
425.751314	3236.219123
426.129524	3183.012265
426.507673	3207.769371
426.885762	3175.725277
427.263789	3165.728669
427.641756	3147.275525
428.019662	3137.609113
428.397508	3117.326030
428.775292	3110.616254
429.153016	3088.563727
429.530679	3071.738876
429.908282	3054.851011
430.285824	3026.597864
430.663305	3027.588451
431.040726	2996.567710
431.418086	2977.854947
431.795385	2977.749083
432.172624	2962.817185
432.549802	2937.646704
432.926920	2922.934097
433.303977	2904.549009
433.680974	2891.252965
434.057910	2880.953888
434.434786	2863.821527
434.811601	2846.878209
435.188355	2845.433918
435.565050	2826.436330
435.941683	2811.466623
436.318257	2808.966211
436.694770	2791.324693
437.071222	2783.568878
437.447614	2760.646752
437.823946	2747.907756
438.200218	2741.989441
438.576429	2725.378839
438.952580	2717.771738
439.328670	2707.520552
439.704700	2700.667103
440.080670	2686.423323
440.456580	2682.932324
440.832429	2675.622651
441.208218	2660.315187
441.583947	2655.268992
441.959616	2649.726243
442.335224	2644.324647
442.710773	2639.336425
443.086261	2633.597072
443.461689	2628.724797
443.837057	2623.910495
444.212365	2621.407562
444.587612	2616.580657
444.962800	2610.813577
445.337927	2609.250819
445.712995	2603.236723
446.088002	2604.882659
446.462949	2599.334870
446.837837	2599.551639
447.212664	2596.169025
447.587431	2597.683892
447.962139	2599.607092
448.336786	2603.486260
448.711374	2598.334201
449.085901	2592.181472
449.460369	2588.476224
449.834776	2586.921028
450.209124	2587.503282
450.583412	2589.121492
450.957640	2588.337593
451.331808	2585.161666
451.705917	2583.946747
452.079965	2583.041860
452.453954	2582.099165
452.827883	2581.090934
453.201752	2578.731674
453.575562	2580.448187
453.949311	2578.056159
454.323001	2580.241499
454.696632	2580.380131
455.070202	2583.435070
455.443713	2582.172261
455.817164	2576.984914
456.190556	2577.965418
456.563888	2576.949626
456.937160	2576.074986
457.310373	2581.751325
457.683526	2577.297466
458.056619	2579.356777
458.429653	2577.284863
458.802628	2577.461303
459.175542	2578.197312
459.548398	2582.716706
459.921194	2580.463310
460.293930	2582.691500
460.666607	2582.192426
461.039224	2581.935327
461.411782	2585.144022
461.784280	2585.020513
462.156719	2582.462128
462.529099	2583.956830
462.901419	2582.988928
463.273680	2581.751325
463.645882	2585.814495
464.018024	2585.121336
464.390106	2581.998342
464.762130	2583.924062
465.134094	2584.329875
465.505999	2589.423961
465.877845	2592.181472
466.249631	2592.070567
466.621358	2591.672316
466.993026	2592.531832
467.364634	2593.159456
467.736184	2586.401789
468.107674	2588.887078
468.479105	2589.960844
468.850477	2585.552355
469.221790	2585.355750
469.593043	2583.876171
469.964238	2584.554207
470.335373	2584.229052
470.706449	2584.965061
471.077467	2590.739702
471.448425	2590.664085
471.819324	2592.491503
472.190164	2592.625094
472.560945	2591.158118
472.931667	2590.810278
473.302330	2587.256265
473.672934	2586.616038
474.043479	2589.978488
474.413965	2588.599732
474.784393	2581.998342
475.154761	2585.262489
475.525070	2584.433219
475.895321	2582.767118
476.265513	2586.676532
476.635645	2590.051585
477.005719	2589.870103
477.375734	2588.826584
477.745691	2591.889085
478.115588	2591.823550
478.485427	2592.244487
478.855207	2593.492172
479.224928	2592.887234
479.594591	2595.344796
479.964194	2597.383943
480.333739	2594.137440
480.703226	2597.172215
481.072653	2597.194900
481.442022	2598.059458
481.811333	2600.126331
482.180584	2594.293716
482.549777	2596.181628
482.918912	2596.521906
483.287988	2597.658686
483.657005	2593.771956
484.025964	2595.153232
484.394864	2595.133068
484.763706	2594.825557
485.132489	2594.434868
485.501213	2595.939652
485.869879	2598.137596
486.238487	2592.960331
486.607036	2592.897316
486.975527	2594.949066
487.343959	2592.589806
487.712333	2592.862028
488.080648	2594.918819
488.448905	2592.917481
488.817104	2590.696853
489.185244	2591.947059
489.553326	2595.145671
489.921350	2598.795466
490.289315	2598.576176
490.657222	2596.897472
491.025070	2599.965014
491.392861	2597.840167
491.760593	2598.820672
492.128267	2595.939652
492.495883	2594.596185
492.863440	2593.991247
493.230939	2592.521750
493.598380	2594.374374
493.965763	2589.116451
494.333088	2587.374732
494.700354	2587.999835
495.067563	2589.900350
495.434713	2590.016297
495.801805	2593.174580
496.168839	2591.339600
496.535815	2592.236925
496.902733	2589.360947
497.269593	2593.141812
497.636395	2590.800196
498.003139	2590.722058
498.369825	2590.795155
498.736453	2591.488314
499.103023	2591.843715
499.469535	2588.748447
499.835989	2591.841194
500.202385	2591.140474
500.568723	2591.039651
500.935003	2591.223653
501.301226	2588.904722
501.667390	2590.154928
502.033497	2591.818509
502.399546	2591.435382
502.765537	2592.652820
503.131470	2590.913622
503.497345	2592.635176
503.863163	2590.182655
504.228923	2591.311873
504.594625	2589.270206
504.960269	2589.245000
505.325856	2592.849425
505.691385	2591.127871
506.056856	2588.612335
506.422270	2591.558890
506.787625	2592.284816
507.152924	2590.777511
507.518164	2591.541246
507.883347	2590.840525
508.248472	2591.332038
508.613540	2591.074939
508.978550	2591.105186
509.343503	2592.299939
509.708398	2592.284816
510.073236	2590.548138
510.438016	2589.892788
510.802738	2590.454877
511.167403	2591.594178
511.532010	2591.833633
511.896561	2592.685588
512.261053	2591.420258
512.625488	2586.104361
512.989866	2588.002356
513.354186	2586.459763
513.718449	2584.733167
514.082655	2590.061667
514.446803	2588.551842
514.810894	2590.858169
515.174927	2594.276072
515.538904	2589.880186
515.902822	2590.888416
516.266684	2591.445464
516.630488	2589.507140
516.994235	2592.078129
517.357925	2591.455546
517.721558	2592.549477
518.085133	2589.330700
518.448651	2591.760536
518.812112	2590.926225
519.175516	2590.389342
519.538863	2590.306163
519.902152	2592.113417
520.265385	2593.242635
520.628560	2588.791296
520.991678	2589.066039
521.354739	2592.468818
521.717743	2590.734661
522.080690	2591.841194
522.443580	2591.838674
522.806413	2591.793303
523.169189	2593.300608
523.531908	2592.299939
523.894569	2590.724579
524.257174	2590.958992
524.619722	2592.161308
524.982213	2591.289188
525.344647	2592.332707
525.707025	2589.285329
526.069345	2587.039495
526.431608	2589.471852
526.793815	2590.543097
527.155964	2591.531163
527.518057	2590.762387
527.880093	2591.810947
528.242072	2589.751636
528.603995	2592.471339
528.965860	2592.264651
529.327669	2590.233066
529.689421	2589.779363
530.051117	2594.109714
530.412755	2591.813468
530.774337	2590.517892
531.135862	2590.268354
531.497331	2589.406317
531.858743	2588.602253
532.220098	2585.181830
532.581396	2588.201481
532.942638	2588.783735
533.303824	2591.039651
533.664953	2590.646441
534.026025	2592.020155
534.387040	2592.980495
534.747999	2592.002511
535.108902	2588.758529
535.469748	2586.979002
535.830537	2594.301278
536.191270	2588.244331
536.551947	2591.505958
536.912567	2589.519743
537.273131	2590.626276
537.633638	2588.657706
537.994089	2587.397417
538.354483	2590.994281
538.714821	2589.169383
539.075103	2590.941348
539.435328	2589.330700
539.795497	2589.413879
540.155609	2590.316245
540.515665	2589.963365
540.875665	2591.959662
541.235609	2587.997315
541.595496	2592.211719
541.955328	2591.022007
542.315102	2587.483117
542.674821	2588.778693
543.034483	2589.217274
543.394090	2587.480596
543.753640	2589.862542
544.113134	2590.376739
544.472571	2590.210381
544.831953	2588.377922
545.191278	2589.219794
545.550548	2589.393714
545.909761	2593.320773
546.268918	2589.393714
546.628019	2589.930597
546.987064	2589.050916
547.346053	2589.711307
547.704986	2587.087386
548.063863	2591.400093
548.422684	2591.463108
548.781449	2586.303487
549.140158	2590.159970
549.498811	2590.593509
549.857408	2591.551328
550.215949	2586.358940
550.574434	2586.903384
550.932864	2586.772314
551.291237	2584.904567
551.649555	2588.647623
552.007817	2589.766760
552.366022	2588.388004
552.724173	2588.861872
553.082267	2588.519074
553.440305	2589.555031
553.798288	2588.655185
554.156215	2589.945721
554.514086	2587.999835
554.871902	2591.536205
555.229661	2590.205340
555.587365	2589.847418
555.945014	2590.427151
556.302606	2591.962182
556.660143	2587.480596
557.017625	2591.475711
557.375050	2589.113930
557.732421	2589.620566
558.089735	2588.551842
558.446994	2591.097624
558.804197	2591.470670
559.161345	2590.706935
559.518437	2590.412027
559.875474	2591.042172
560.232455	2589.670978
560.589381	2588.781214
560.946251	2592.990578
561.303065	2590.076791
561.659825	2587.856162
562.016528	2586.742067
562.373177	2585.726275
562.729770	2591.095104
563.086307	2588.428333
563.442789	2589.965885
563.799216	2590.487645
564.155587	2588.201481
564.511904	2590.263313
564.868164	2588.516553
565.224370	2589.187027
565.580520	2590.464959
565.936615	2589.282809
566.292654	2587.914136
566.648638	2588.617377
567.004567	2588.287181
567.360441	2590.659044
567.716260	2590.028900
568.072023	2590.006214
568.427732	2588.261975
568.783385	2586.679053
569.138982	2585.660740
569.494525	2588.544280
569.850013	2585.070925
570.205445	2589.650813
570.560823	2590.459918
570.916145	2591.498396
571.271412	2590.391863
571.626625	2591.740371
571.981782	2587.402458
572.336884	2589.045875
572.691931	2589.338262
573.046923	2587.974629
573.401860	2590.018817
573.756743	2589.539908
574.111570	2586.568147
574.466342	2588.816502
574.821059	2590.031420
575.175722	2587.858683
575.530330	2589.091245
575.884882	2588.153590
576.239380	2590.762388
576.593823	2589.108889
576.948211	2588.561924
577.302544	2585.436408
577.656823	2590.225505
578.011047	2589.854980
578.365216	2587.054619
578.719330	2591.430340
579.073389	2586.288363
579.427394	2583.465317
579.781344	2588.403127
580.135239	2587.478076
580.489080	2591.422779
580.842866	2589.865062
581.196597	2589.665937
581.550273	2590.618715
581.903895	2587.881368
582.257463	2588.927407
582.610975	2586.860534
582.964434	2586.490010
583.317837	2588.584609
583.671186	2588.821543
584.024481	2590.069229
584.377721	2586.880699
584.730906	2587.412541
585.084037	2590.838005
585.437113	2586.058991
585.790135	2589.386152
586.143103	2587.115113
586.496016	2587.014290
586.848874	2583.840883
587.201679	2583.636717
587.554428	2582.716706
587.907124	2585.854824
588.259765	2582.696541
588.612352	2587.110072
588.964884	2586.459763
589.317362	2587.561255
589.669786	2586.124526
590.022155	2588.382963
590.374470	2587.147880
590.726731	2588.108220
591.078937	2587.740216
591.431090	2585.385997
591.783188	2586.913467
592.135232	2585.799372
592.487222	2585.655699
592.839157	2585.474217
593.191038	2586.172417
593.542866	2587.384814
593.894639	2587.127716
594.246358	2588.564444
594.598022	2587.014290
594.949633	2587.034454
595.301190	2587.737695
595.652692	2585.479258
596.004141	2587.016810
596.355535	2587.268868
596.706876	2583.440112
597.058162	2586.545462
597.409395	2585.852304
597.760573	2582.973805
598.111698	2586.227870
598.462768	2587.011769
598.813785	2584.728126
599.164748	2588.236769
599.515657	2585.350709
599.866511	2583.707293
600.217312	2583.089751
600.568060	2583.624114
600.918753	2587.533528
601.269392	2588.214084
601.619978	2584.463466
601.970510	2585.201995
602.320988	2585.484299
602.671412	2583.881213
603.021783	2584.579412
603.372100	2588.020000
603.722363	2583.936665
604.072572	2585.441450
604.422728	2586.149732
604.772830	2582.605801
605.122878	2584.040009
605.472872	2581.022878
605.822813	2581.247210
606.172701	2581.736202
606.522534	2587.594022
606.872314	2585.751481
607.222041	2585.111254
607.571714	2588.307346
607.921333	2585.567478
608.270899	2583.170410
608.620411	2584.251737
608.969870	2586.119485
609.319276	2584.960019
609.668627	2586.598394
610.017926	2585.171748
610.367171	2585.151583
610.716362	2587.959506
611.065500	2586.091758
611.414585	2583.606470
611.763616	2586.515215
612.112594	2585.380956
612.461518	2585.436408
612.810389	2587.427664
613.159207	2584.256778
613.507971	2585.343147
613.856682	2587.583940
614.205340	2582.792323
614.553945	2586.316090
614.902496	2585.625452
615.250994	2585.690987
615.599439	2585.912798
615.947830	2586.555545
616.296169	2585.963209
616.644454	2587.188209
616.992686	2586.212746
617.340864	2585.822057
617.688990	2585.627972
618.037063	2585.557396
618.385082	2586.953796
618.733048	2586.154773
619.080961	2586.230390
619.428821	2584.960019
619.776628	2584.861717
620.124382	2585.653178
620.472083	2585.048240
620.819731	2588.980340
621.167326	2584.355081
621.514868	2586.832808
621.862357	2583.649319
622.209793	2584.660071
622.557176	2585.811974
622.904506	2582.285687
623.251783	2580.203691
623.599007	2581.158989
623.946179	2580.138156
624.293297	2579.220666
624.640363	2585.108733
624.987376	2585.396079
625.334336	2583.936665
625.681243	2583.556058
626.028097	2584.128229
626.374899	2586.739547
626.721647	2584.425657
627.068343	2582.383990
627.414987	2585.610328
627.761577	2584.526480
628.108115	2582.499936
628.454600	2584.725606
628.801032	2584.032447
629.147412	2586.555545
629.493739	2581.708475
629.840014	2582.938517
630.186236	2582.021027
630.532405	2583.185533
630.878521	2583.510688
631.224585	2585.229721
631.570597	2582.583115
631.916556	2583.792992
632.262462	2583.533373
632.608316	2583.525811
632.954117	2584.153435
633.299866	2584.050091
633.645562	2584.944896
633.991206	2585.733837
634.336797	2583.432550
634.682336	2583.636717
635.027823	2581.282498
635.373257	2581.469020
635.718639	2581.912642
636.063968	2581.093454
636.409245	2581.947930
636.754470	2582.076479
637.099642	2585.015472
637.444762	2582.880543
637.789829	2584.561768
638.134845	2581.534555
638.479808	2580.901891
638.824719	2582.681418
639.169577	2583.135122
639.514383	2583.510688
639.859137	2579.475244
640.203839	2582.199988
640.548489	2582.036150
640.893086	2574.983576
641.237632	2578.895511
641.582125	2579.384503
641.926566	2576.727815
642.270955	2584.622262
642.615292	2581.317786
642.959576	2580.599421
643.303809	2581.317786
643.647990	2582.600759
643.992118	2580.551530
644.336195	2581.718558
