Dividing Wavelength (nm)	Counts (n)	Blue Motor Position (mm): 44.100000	Red Motor Position (mm): 0.000000	
326.493990	2263.077305
326.888308	2263.077305
327.282561	2263.077305
327.676750	2223.350492
328.070874	2220.207333
328.464933	2221.704556
328.858929	2223.065667
329.252859	2229.714949
329.646726	2239.686351
330.040528	2253.231932
330.434265	2265.839858
330.827938	2280.171858
331.221547	2299.073664
331.615091	2320.377580
332.008571	2335.853923
332.401986	2353.475276
332.795338	2374.045704
333.188625	2393.391132
333.581847	2416.519946
333.975006	2432.366813
334.368100	2451.684515
334.761129	2468.683285
335.154095	2489.352016
335.546996	2511.974194
335.939833	2554.960113
336.332606	2565.128120
336.725315	2583.798033
337.117960	2594.752461
337.510540	2604.938112
337.903056	2615.905142
338.295508	2624.137347
338.687896	2630.590023
339.080220	2641.025212
339.472480	2648.738177
339.864676	2653.272695
340.256807	2656.156235
340.648875	2659.584220
341.040879	2663.188645
341.432818	2666.977072
341.824694	2669.510252
342.216506	2669.895900
342.608253	2667.859274
342.999937	2667.912206
343.391557	2671.047804
343.783113	2672.179543
344.174605	2669.928667
344.566033	2668.996054
344.957397	2669.162412
345.348697	2666.238543
345.739934	2664.640497
346.131106	2666.241063
346.522215	2662.369457
346.913260	2661.043634
347.304241	2661.126813
347.695159	2657.655978
348.086012	2656.209167
348.476802	2654.976605
348.867528	2648.992756
349.258191	2647.556027
349.648789	2644.488485
350.039324	2643.386992
350.429796	2643.187867
350.820203	2646.290697
351.210548	2642.517393
351.600828	2643.727270
351.991045	2642.419091
352.381198	2638.242495
352.771288	2640.400109
353.161314	2638.539923
353.551276	2637.549336
353.941175	2639.144862
354.331010	2640.914307
354.720782	2637.433390
355.110490	2636.672176
355.500135	2640.049749
355.889717	2640.170736
356.279235	2639.714512
356.668689	2639.926240
357.058080	2638.686117
357.447408	2640.780716
357.836672	2640.019502
358.225873	2637.982876
358.615010	2639.477578
359.004084	2638.718884
359.393095	2640.977321
359.782043	2644.899339
360.170927	2644.664925
360.559748	2643.258443
360.948505	2644.629637
361.337199	2645.577374
361.725830	2644.279277
362.114398	2644.526293
362.502903	2648.143321
362.891344	2647.619041
363.279722	2648.949906
363.668037	2647.782879
364.056289	2653.030720
364.444478	2650.729433
364.832603	2650.429484
365.220665	2650.510143
365.608665	2655.329486
365.996601	2655.490803
366.384474	2653.459218
366.772284	2653.242448
367.160031	2656.206647
367.547715	2656.370484
367.935336	2658.276040
368.322893	2653.570123
368.710388	2654.366626
369.097820	2656.867038
369.485189	2654.326296
369.872495	2656.758653
370.259738	2659.377532
370.646918	2661.076401
371.034035	2660.680671
371.421090	2661.217554
371.808081	2660.723521
372.195010	2663.037410
372.581875	2659.680002
372.968678	2663.211330
373.355418	2660.776453
373.742096	2664.965652
374.128710	2663.743172
374.515262	2663.750733
374.901751	2666.725014
375.288177	2669.689213
375.674540	2667.143430
376.060841	2671.415808
376.447079	2673.649039
376.833254	2675.809173
377.219367	2676.593073
377.605417	2685.011800
377.991404	2688.341482
378.377329	2698.028059
378.763191	2709.015254
379.148991	2724.617625
379.534727	2741.177815
379.920402	2763.464757
380.306013	2778.981428
380.691563	2813.561223
381.077049	2836.304388
381.462474	2868.640870
381.847835	2908.007240
382.233134	2945.241203
382.618371	2981.683704
383.003545	3028.952083
383.388657	3067.537074
383.773706	3125.336424
384.158693	3167.760254
384.543618	3210.103426
384.928480	3266.932353
385.313280	3328.638597
385.698017	3371.412787
386.082692	3457.893781
386.467305	3489.688338
386.851856	3539.535268
387.236344	3625.358391
387.620770	3671.568128
388.005133	3740.014394
388.389435	3797.702838
388.773674	3833.691636
389.157851	3920.341509
389.541965	4005.267307
389.926018	3994.103672
390.310008	4105.586268
390.693936	4174.198893
391.077802	4225.328796
391.461606	4240.479984
391.845348	4315.905727
392.229027	4388.531110
392.612645	4401.199530
392.996200	4515.500132
393.379694	4581.340122
393.763125	4689.694682
394.146494	4727.500816
394.529801	4795.556392
394.913047	4885.730032
395.296230	4845.340307
395.679351	4955.643274
396.062410	5012.207541
396.445408	4992.428574
396.828343	5053.996186
397.211217	5112.894507
397.594028	4999.539121
397.976778	5122.760045
398.359466	5165.274616
398.742092	5191.498698
399.124656	5106.625832
399.507158	5227.870623
399.889598	5290.748935
400.271977	5412.903654
400.654294	5413.125465
401.036549	5456.547444
401.418742	5368.223908
401.800874	5576.892389
402.182944	5636.705679
402.564952	5747.222895
402.946898	5801.891688
403.328783	5646.440147
403.710606	5654.417773
404.092367	5981.187886
404.474067	6001.019785
404.855705	5908.769191
405.237282	5841.195044
405.618797	6091.473209
406.000250	6078.046096
406.381642	6276.576816
406.762972	6299.307379
407.144240	6358.132603
407.525447	6340.463359
407.906593	6363.065372
408.287677	6520.414907
408.668700	6431.425939
409.049661	6546.071860
409.430560	6573.609163
409.811399	6436.494819
410.192176	6702.813936
410.572891	6713.468414
410.953545	6913.660195
411.334138	6640.956458
411.714669	6813.487427
412.095139	6606.480006
412.475547	6858.492328
412.855894	6922.285610
413.236180	7102.446366
413.616405	6775.300687
413.996568	6995.916703
414.376670	7036.266098
414.756711	6933.514780
415.136691	7026.766044
415.516609	7230.597538
415.896466	7219.169242
416.276262	7423.661127
416.655997	7410.639827
417.035670	7590.253618
417.415283	7931.426307
417.794834	7988.257755
418.174324	7851.226591
418.553753	7772.403109
418.933121	8070.088285
419.312428	8174.251126
419.691674	7949.019934
420.070859	8425.575331
420.449983	8112.625541
420.829045	8470.817166
421.208047	8245.008762
421.586988	8551.231131
421.965867	8569.253256
422.344686	8669.015170
422.723444	8725.692863
423.102141	8078.083555
423.480777	8839.852312
423.859352	8353.398610
424.237866	8981.019744
424.616319	8843.842386
424.994712	9267.871480
425.373044	8816.473962
425.751314	9294.738309
426.129524	9169.110235
426.507673	9272.247201
426.885762	9419.658102
427.263789	9342.697326
427.641756	9269.625801
428.019662	9362.264565
428.397508	9620.598494
428.775292	9290.591960
429.153016	9670.941977
429.530679	9506.469291
429.908282	9529.086428
430.285824	9251.875899
430.663305	9938.513820
431.040726	9388.692814
431.418086	9373.738231
431.795385	9701.940032
432.172624	9796.025607
432.549802	9705.057985
432.926920	9778.711764
433.303977	9653.882712
433.680974	9857.943579
434.057910	9952.704668
434.434786	10025.060349
434.811601	9850.205408
435.188355	10425.726216
435.565050	10159.699486
435.941683	10082.776520
436.318257	10563.904243
436.694770	10723.469365
437.071222	10776.716552
437.447614	10607.537950
437.823946	10524.736998
438.200218	10631.160797
438.576429	10469.957300
438.952580	10710.064937
439.328670	10748.009702
439.704700	10540.092352
440.080670	10530.660354
440.456580	11062.728936
440.832429	10840.345996
441.208218	10436.216857
441.583947	10744.158260
441.959616	10922.191649
442.335224	10731.893133
442.710773	10840.706439
443.086261	11075.132695
443.461689	10340.717238
443.837057	11022.830724
444.212365	11264.163362
444.587612	10893.283153
444.962800	11114.738521
445.337927	10865.143432
445.712995	10523.310351
446.088002	11571.076370
446.462949	11259.066755
446.837837	11224.938144
447.212664	11165.928917
447.587431	11740.706155
447.962139	12486.708704
448.336786	14777.305668
448.711374	15270.708601
449.085901	13093.093977
449.460369	12733.715161
449.834776	12179.709997
450.209124	13099.450872
450.583412	13516.984439
450.957640	14451.541266
451.331808	13519.943597
451.705917	12566.469841
452.079965	11826.690596
452.453954	12742.950554
452.827883	12398.102864
453.201752	12680.031913
453.575562	12219.920761
453.949311	12637.560192
454.323001	12609.697735
454.696632	12858.745858
455.070202	13132.815749
455.443713	13337.773941
455.817164	13817.180110
456.190556	13798.787460
456.563888	14162.118541
456.937160	14309.925172
457.310373	13661.098425
457.683526	13768.563222
458.056619	13297.353969
458.429653	13489.321108
458.802628	12863.416487
459.175542	13271.921348
459.548398	14225.455598
459.921194	14575.498198
460.293930	14651.612059
460.666607	15502.435320
461.039224	16568.979636
461.411782	17283.414480
461.784280	17077.982420
462.156719	17176.599992
462.529099	16834.600553
462.901419	15796.087573
463.273680	15560.970678
463.645882	15460.692046
464.018024	15181.197873
464.390106	15405.115845
464.762130	16128.506298
465.134094	16924.300324
465.505999	18974.580443
465.877845	22237.474832
466.249631	25050.189141
466.621358	24665.523897
466.993026	23234.206729
467.364634	22665.027692
467.736184	21186.789985
468.107674	20388.835825
468.479105	20521.642503
468.850477	19978.238886
469.221790	19586.211036
469.593043	18889.180776
469.964238	18320.520978
470.335373	17962.871278
470.706449	18460.770920
471.077467	18045.183238
471.448425	19911.867054
471.819324	24034.414285
472.190164	25887.272737
472.560945	22246.004464
472.931667	19936.273801
473.302330	19315.465787
473.672934	18936.212221
474.043479	19177.464200
474.413965	18986.827926
474.784393	18584.773222
475.154761	19336.222738
475.525070	19268.676317
475.895321	18981.839705
476.265513	19584.335727
476.635645	20171.015129
477.005719	19934.567370
477.375734	20122.645258
477.745691	20599.656879
478.115588	21154.309831
478.485427	21702.497503
478.855207	22792.309265
479.224928	24590.138482
479.594591	26802.136296
479.964194	26735.222540
480.333739	26963.584289
480.703226	26541.995113
481.072653	26247.085093
481.442022	26862.239453
481.811333	27780.888918
482.180584	27673.555191
482.549777	26711.924848
482.918912	26382.979477
483.287988	26528.726796
483.657005	26158.670816
484.025964	25946.148373
484.394864	25814.107951
484.763706	25470.729756
485.132489	24927.134575
485.501213	25131.361800
485.869879	25041.500712
486.238487	24871.873447
486.607036	25003.064435
486.975527	24743.623972
487.343959	25033.195411
487.712333	24951.329593
488.080648	24619.528409
488.448905	25118.189265
488.817104	24884.070519
489.185244	25577.788741
489.553326	25530.749734
489.921350	26581.318634
490.289315	28925.329143
490.657222	30645.766566
491.025070	31161.552222
491.392861	30902.537737
491.760593	30028.189932
492.128267	29122.796181
492.495883	28057.560044
492.863440	27194.413682
493.230939	26332.331004
493.598380	26172.791088
493.965763	25793.658510
494.333088	25290.500945
494.700354	25256.906695
495.067563	25108.485044
495.434713	24860.712332
495.801805	25031.534351
496.168839	24810.394055
496.535815	24671.462376
496.902733	24887.969851
497.269593	24581.944086
497.636395	24741.133642
498.003139	24687.465519
498.369825	24438.472848
498.736453	24651.252390
499.103023	24514.039744
499.469535	24513.308777
499.835989	24739.215483
500.202385	24763.097950
500.568723	24289.531957
500.935003	24486.535209
501.301226	24161.902545
501.667390	25012.337637
502.033497	25218.377157
502.399546	24948.725837
502.765537	24474.224711
503.131470	24862.935481
503.497345	25008.029971
503.863163	24255.907461
504.228923	24816.327493
504.594625	25045.243769
504.960269	24607.210349
505.325856	25078.964047
505.691385	24476.810823
506.056856	25080.857000
506.422270	25056.964452
506.787625	24595.761889
507.152924	25017.199830
507.518164	25056.727517
507.883347	24882.303594
508.248472	24556.342587
508.613540	25341.396434
508.978550	25131.515555
509.343503	25140.811443
509.708398	25359.126172
510.073236	25513.393041
510.438016	25738.730098
510.802738	25380.409923
511.167403	25655.480483
511.532010	25384.331941
511.896561	26135.317671
512.261053	26096.684788
512.625488	25929.623470
512.989866	25807.284749
513.354186	25658.522819
513.718449	25790.016276
514.082655	26155.618397
514.446803	25878.894339
514.810894	26371.788115
515.174927	25865.905806
515.538904	25888.583437
515.902822	26385.552986
516.266684	26141.694730
516.630488	26042.257971
516.994235	25998.538564
517.357925	26333.573649
517.721558	26482.859858
518.085133	26610.280063
518.448651	26491.124830
518.812112	26256.325528
519.175516	26475.119166
519.538863	26618.497143
519.902152	26411.492243
520.265385	26673.533941
520.628560	26467.933002
520.991678	26468.351417
521.354739	26516.403696
521.717743	26618.671063
522.080690	26397.659317
522.443580	26724.005973
522.806413	26693.300305
523.169189	26812.906721
523.531908	26845.918717
523.894569	26471.242519
524.257174	26559.775263
524.619722	26699.508486
524.982213	26418.277636
525.344647	26436.387981
525.707025	26614.852389
526.069345	26573.935864
526.431608	26535.791973
526.793815	26718.029685
527.155964	26210.362807
527.518057	26373.771809
527.880093	26297.491590
528.242072	26513.338674
528.603995	26234.557825
528.965860	26035.568360
529.327669	26067.052886
529.689421	26051.884054
530.051117	25911.611428
530.412755	26077.604021
530.774337	25853.849887
531.135862	25743.355356
531.497331	25928.854694
531.858743	25527.888879
532.220098	25976.400337
532.581396	25668.406002
532.942638	25564.041514
533.303824	25687.935432
533.664953	25691.479363
534.026025	25342.180333
534.387040	25586.031027
534.747999	25630.330167
535.108902	25800.857278
535.469748	25304.502749
535.830537	25476.136394
536.191270	25601.033501
536.551947	25433.904127
536.912567	25058.794390
537.273131	25492.290771
537.633638	25166.405381
537.994089	25391.298816
538.354483	24872.901842
538.714821	25385.362857
539.075103	25436.192811
539.435328	25201.423756
539.795497	24806.469517
540.155609	25147.778318
540.515665	25480.444060
540.875665	24681.002759
541.235609	25021.212588
541.595496	24945.519663
541.955328	25313.982639
542.315102	25232.570525
542.674821	24737.758590
543.034483	24626.759944
543.394090	24801.206552
543.753640	24601.884370
544.113134	25227.599948
544.472571	24820.468801
544.831953	25134.935978
545.191278	24773.389465
545.550548	24655.527288
545.909761	24855.424162
546.268918	25089.719349
546.628019	25074.225362
546.987064	24754.270889
547.346053	24496.050387
547.704986	24598.166519
548.063863	24756.501600
548.422684	24793.959894
548.781449	24290.474653
549.140158	24702.336923
549.498811	24271.217446
549.857408	24040.156159
550.215949	24433.920686
550.574434	24132.008503
550.932864	24325.520755
551.291237	24509.074208
551.649555	24340.470297
552.007817	24411.701800
552.366022	24268.790130
552.724173	24292.216372
553.082267	24268.243165
553.440305	24739.739763
553.798288	23988.446523
554.156215	24470.196829
554.514086	24595.900521
554.871902	23991.065403
555.229661	24258.367544
555.587365	24102.742084
555.945014	24011.119113
556.302606	24218.033273
556.660143	24215.767274
557.017625	24440.524597
557.375050	23957.251863
557.732421	24341.917108
558.089735	24185.832902
558.446994	24226.386464
558.804197	24273.397745
559.161345	24162.270549
559.518437	23969.975736
559.875474	24133.437670
560.232455	24327.350694
560.589381	24123.539364
560.946251	24125.381906
561.303065	24432.441107
561.659825	24533.485995
562.016528	24124.053562
562.373177	23858.717470
562.729770	24235.994904
563.086307	24068.358894
563.442789	24242.326593
563.799216	24090.539971
564.155587	24083.467232
564.511904	24056.479415
564.868164	24020.034393
565.224370	23958.968376
565.580520	23909.451643
565.936615	24030.522514
566.292654	23729.399271
566.648638	23976.075532
567.004567	23817.934536
567.360441	23757.932202
567.716260	23497.329754
568.072023	23799.481392
568.427732	23587.654628
568.783385	23334.865968
569.138982	23588.090688
569.494525	23622.005050
569.850013	23384.912023
570.205445	23478.332166
570.560823	23297.831132
570.916145	23064.715575
571.271412	23242.317946
571.626625	22991.596159
571.981782	23109.420527
572.336884	22896.865317
572.691931	23043.628428
573.046923	22779.494652
573.401860	22659.363956
573.756743	22682.351618
574.111570	22570.919432
574.466342	22490.996979
574.821059	22572.646027
575.175722	22302.074698
575.530330	22252.946133
575.884882	22265.196137
576.239380	22196.273481
576.593823	22075.386612
576.948211	22046.916696
577.302544	21906.873442
577.656823	21760.138056
578.011047	21872.782639
578.365216	21741.163153
578.719330	21622.292746
579.073389	21501.647852
579.427394	21666.586844
579.781344	21409.709808
580.135239	21293.155811
580.489080	21242.719067
580.842866	21027.895337
581.196597	21244.165878
581.550273	21197.106707
581.903895	21073.124569
582.257463	21391.871686
582.610975	20924.085376
582.964434	21258.197930
583.317837	20936.332859
583.671186	21014.417812
584.024481	21004.242243
584.377721	20766.730800
584.730906	20846.010506
585.084037	20821.686939
585.437113	20766.302302
585.790135	20964.754885
586.143103	20423.289591
586.496016	20443.129052
586.848874	20674.674290
587.201679	20592.077504
587.554428	20298.581528
587.907124	20621.162442
588.259765	20373.775378
588.612352	20463.109666
588.964884	20025.318222
589.317362	20205.247085
589.669786	20257.019735
590.022155	20256.460167
590.374470	20495.534367
590.726731	20255.827502
591.078937	20053.427695
591.431090	20133.970210
591.783188	19896.967924
592.135232	19855.136429
592.487222	19965.820003
592.839157	19973.555654
593.191038	19847.854483
593.542866	19736.989427
593.894639	19448.126271
594.246358	19657.697118
594.598022	19546.859789
594.949633	19306.575712
595.301190	19296.203538
595.652692	19451.836560
596.004141	19677.750828
596.355535	19013.472945
596.706876	19040.125525
597.058162	18932.055790
597.409395	19169.136214
597.760573	19214.246979
598.111698	18988.239449
598.462768	18932.801881
598.813785	18908.934538
599.164748	18699.023412
599.515657	18759.786960
599.866511	18559.680879
600.217312	18900.906500
600.568060	18416.507068
600.918753	18731.982476
601.269392	18626.269480
601.619978	18419.751051
601.970510	18614.011914
602.320988	18571.961129
602.671412	18758.536754
603.021783	18708.223518
603.372100	18401.489471
603.722363	18553.921360
604.072572	18497.760386
604.422728	18656.760899
604.772830	18404.408299
605.122878	18363.640488
605.472872	18345.484772
605.822813	18321.267069
606.172701	18317.728179
606.522534	18483.950145
606.872314	18516.072377
607.222041	18357.490280
607.571714	18577.476152
607.921333	18402.394358
608.270899	18481.301019
608.620411	18633.521180
608.969870	18429.969470
609.319276	18420.056041
609.668627	18440.850800
610.017926	18580.372295
610.367171	18695.058545
610.716362	18745.381863
611.065500	18557.808090
611.414585	18712.183344
611.763616	18688.817596
612.112594	18615.582234
612.461518	18600.761241
612.810389	18785.627915
613.159207	18638.774062
613.507971	18562.478719
613.856682	18815.852152
614.205340	18732.257219
614.553945	18893.780829
614.902496	18640.727509
615.250994	18845.221915
615.599439	18807.163724
615.947830	18788.753430
616.296169	18865.920893
616.644454	18817.190579
616.992686	18796.521848
617.340864	19009.931534
617.688990	18750.344879
618.037063	18929.000851
618.385082	18792.473802
618.733048	19051.397545
619.080961	18952.722000
619.428821	18973.287387
619.776628	18857.693729
620.124382	18782.681360
620.472083	18834.607765
620.819731	18836.183126
621.167326	18538.520635
621.514868	18588.622143
621.862357	18356.030866
622.209793	18352.736472
622.557176	18198.126804
622.904506	18019.571656
623.251783	17958.283828
623.599007	17696.191719
623.946179	17640.040827
624.293297	17568.592553
624.640363	17313.323646
624.987376	17332.384248
625.334336	17137.296636
625.681243	16984.501783
626.028097	16990.984707
626.374899	16915.359838
626.721647	16784.715815
627.068343	16614.350021
627.414987	16557.531176
627.761577	16519.656987
628.108115	16547.569856
628.454600	16281.439783
628.801032	16381.171450
629.147412	16311.941284
629.493739	16325.486864
629.840014	16128.907070
630.186236	16230.708131
630.532405	15999.001577
630.878521	16201.524891
631.224585	16108.913854
631.570597	15912.777681
631.916556	15949.867971
632.262462	15918.585091
632.608316	15830.518653
632.954117	15776.391785
633.299866	15763.050371
633.645562	15680.153637
633.991206	15444.885508
634.336797	15326.735985
634.682336	15284.123112
635.027823	15162.946376
635.373257	15027.306570
635.718639	14947.666422
636.063968	14884.699889
