Dividing Wavelength (nm)	Counts (n)	Blue Motor Position (mm): 23.200000	Red Motor Position (mm): 0.000000	
326.493990	2193.922757
326.888308	2193.922757
327.282561	2193.922757
327.676750	2152.560089
328.070874	2148.940541
328.464933	2152.915491
328.858929	2155.680564
329.252859	2159.506799
329.646726	2169.909220
330.040528	2180.853565
330.434265	2192.982582
330.827938	2213.106868
331.221547	2228.134547
331.615091	2246.078534
332.008571	2264.100659
332.401986	2282.760490
332.795338	2302.610034
333.188625	2320.596871
333.581847	2337.356187
333.975006	2357.094824
334.368100	2378.960829
334.761129	2394.928684
335.154095	2409.721950
335.546996	2435.915785
335.939833	2470.798049
336.332606	2487.239773
336.725315	2497.521206
337.117960	2509.350273
337.510540	2523.621780
337.903056	2531.163346
338.295508	2540.701209
338.687896	2552.434495
339.080220	2557.611760
339.472480	2564.813048
339.864676	2569.471074
340.256807	2576.959708
340.648875	2580.438104
341.040879	2581.993300
341.432818	2586.363981
341.824694	2587.725092
342.216506	2586.545462
342.608253	2589.973447
342.999937	2589.880186
343.391557	2589.154259
343.783113	2589.955803
344.174605	2586.106882
344.566033	2589.020669
344.957397	2588.587130
345.348697	2584.647468
345.739934	2585.181830
346.131106	2581.600090
346.522215	2580.846438
346.913260	2578.671180
347.304241	2578.285532
347.695159	2572.185736
348.086012	2575.495253
348.476802	2570.128945
348.867528	2567.696588
349.258191	2563.827503
349.648789	2564.646690
350.039324	2557.490772
350.429796	2562.990671
350.820203	2561.314487
351.210548	2563.532595
351.600828	2561.135526
351.991045	2557.848694
352.381198	2555.706204
352.771288	2556.502706
353.161314	2555.544887
353.551276	2557.979764
353.941175	2556.185113
354.331010	2552.918446
354.720782	2555.764177
355.110490	2555.219732
355.500135	2556.905998
355.889717	2553.664536
356.279235	2556.878272
356.668689	2555.184444
357.058080	2556.127140
357.447408	2555.852397
357.836672	2555.413817
358.225873	2553.346944
358.615010	2557.556307
359.004084	2558.355330
359.393095	2556.429609
359.782043	2558.645196
360.170927	2560.094528
360.559748	2558.413303
360.948505	2560.722152
361.337199	2562.312636
361.725830	2558.592264
362.114398	2560.618808
362.502903	2561.279199
362.891344	2564.646690
363.279722	2561.044786
363.668037	2563.031000
364.056289	2564.016546
364.444478	2565.339849
364.832603	2562.554611
365.220665	2566.075857
365.608665	2563.237687
365.996601	2564.235836
366.384474	2568.324212
366.772284	2564.739951
367.160031	2567.031156
367.547715	2567.623491
367.935336	2564.629046
368.322893	2562.978068
368.710388	2566.002760
369.097820	2564.306412
369.485189	2565.372616
369.872495	2565.291958
370.259738	2568.924109
370.646918	2570.033163
371.034035	2569.708008
371.421090	2571.527865
371.808081	2569.715570
372.195010	2573.567012
372.581875	2570.736404
372.968678	2574.814697
373.355418	2570.547361
373.742096	2572.684810
374.128710	2573.519121
374.515262	2575.769996
374.901751	2572.626837
375.288177	2572.868812
375.674540	2571.212793
376.060841	2572.727660
376.447079	2572.657083
376.833254	2574.421487
377.219367	2577.020202
377.605417	2575.722105
377.991404	2574.794533
378.377329	2574.814697
378.763191	2573.473750
379.148991	2574.489543
379.534727	2576.296797
379.920402	2575.815366
380.306013	2576.780747
380.691563	2577.746128
381.077049	2578.514904
381.462474	2575.094481
381.847835	2576.942064
382.233134	2576.183371
382.618371	2574.199677
383.003545	2578.096488
383.388657	2577.332754
383.773706	2575.001220
384.158693	2578.323340
384.543618	2576.725295
384.928480	2577.642785
385.313280	2577.998186
385.698017	2579.979359
386.082692	2580.279308
386.467305	2579.729822
386.851856	2576.042218
387.236344	2579.618917
387.620770	2580.034812
388.005133	2577.133628
388.389435	2577.191601
388.773674	2574.061045
389.157851	2583.745101
389.541965	2584.143352
389.926018	2581.224524
390.310008	2585.388518
390.693936	2583.614031
391.077802	2582.646130
391.461606	2585.834660
391.845348	2580.591860
392.229027	2584.155955
392.612645	2580.566654
392.996200	2583.619073
393.379694	2585.396079
393.763125	2583.291398
394.146494	2582.842735
394.529801	2584.281984
394.913047	2584.460945
395.296230	2585.249886
395.679351	2585.950606
396.062410	2586.179979
396.445408	2587.984712
396.828343	2587.924218
397.211217	2588.062850
397.594028	2588.831626
397.976778	2588.330031
398.359466	2587.115113
398.742092	2586.253075
399.124656	2586.484968
399.507158	2590.003694
399.889598	2589.285329
400.271977	2588.826584
400.654294	2588.871955
401.036549	2589.308015
401.418742	2589.824733
401.800874	2588.698035
402.182944	2588.539239
402.564952	2590.023858
402.946898	2590.084352
403.328783	2592.332707
403.710606	2590.081832
404.092367	2592.912440
404.474067	2590.855649
404.855705	2594.074426
405.237282	2590.490165
405.618797	2591.185844
406.000250	2594.016452
406.381642	2592.889754
406.762972	2591.773139
407.144240	2591.644589
407.525447	2592.882193
407.906593	2588.516553
408.287677	2593.187182
408.668700	2595.213726
409.049661	2596.852101
409.430560	2596.332862
409.811399	2595.896803
410.192176	2594.689446
410.572891	2594.996957
410.953545	2593.232553
411.334138	2594.817996
411.714669	2598.258583
412.095139	2595.667430
412.475547	2594.455033
412.855894	2597.575507
413.236180	2595.523757
413.616405	2596.589961
413.996568	2597.210023
414.376670	2599.221444
414.756711	2595.009560
415.136691	2597.683892
415.516609	2601.217741
415.896466	2599.775971
416.276262	2596.103490
416.655997	2598.417380
417.035670	2598.646752
417.415283	2602.745210
417.794834	2597.817482
418.174324	2599.095415
418.553753	2599.203800
418.933121	2601.401743
419.312428	2598.455188
419.691674	2601.157247
420.070859	2601.290837
420.449983	2600.574993
420.829045	2600.746393
421.208047	2603.622371
421.586988	2602.805704
421.965867	2601.721856
422.344686	2600.511979
422.723444	2605.371651
423.102141	2602.599017
423.480777	2601.351331
423.859352	2602.798142
424.237866	2605.109511
424.616319	2602.624222
424.994712	2603.561877
425.373044	2605.474995
425.751314	2601.414346
426.129524	2600.020467
426.507673	2602.803183
426.885762	2600.703543
427.263789	2603.932402
427.641756	2606.150510
428.019662	2607.524224
428.397508	2607.163782
428.775292	2605.467433
429.153016	2605.321240
429.530679	2606.092536
429.908282	2610.332147
430.285824	2607.105808
430.663305	2605.056579
431.040726	2604.305447
431.418086	2607.204111
431.795385	2607.372989
432.172624	2608.194697
432.549802	2611.413474
432.926920	2607.478854
433.303977	2609.883484
433.680974	2609.157558
434.057910	2607.299893
434.434786	2610.806015
434.811601	2611.171499
435.188355	2610.788371
435.565050	2610.102774
435.941683	2608.424070
436.318257	2611.902466
436.694770	2610.122939
437.071222	2609.656632
437.447614	2611.020264
437.823946	2613.634102
438.200218	2612.925820
438.576429	2612.305758
438.952580	2614.939761
439.328670	2613.190481
439.704700	2612.192333
440.080670	2613.457662
440.456580	2614.793568
440.832429	2614.060080
441.208218	2612.764503
441.583947	2616.610904
441.959616	2613.316510
442.335224	2615.595111
442.710773	2615.612755
443.086261	2615.842128
443.461689	2617.765328
443.837057	2616.673918
444.212365	2617.256172
444.587612	2615.945472
444.962800	2617.039402
445.337927	2618.282046
445.712995	2612.840121
446.088002	2620.283384
446.462949	2618.216511
446.837837	2618.385390
447.212664	2619.776748
447.587431	2621.730196
447.962139	2622.677932
448.336786	2626.294960
448.711374	2626.763788
449.085901	2620.847994
449.460369	2624.966616
449.834776	2625.995012
450.209124	2624.578447
450.583412	2629.322173
450.957640	2629.491052
451.331808	2629.748151
451.705917	2626.292440
452.079965	2626.267234
452.453954	2632.215796
452.827883	2629.995167
453.201752	2631.696557
453.575562	2633.909623
453.949311	2633.599592
454.323001	2633.546660
454.696632	2633.337452
455.070202	2635.157309
455.443713	2636.677217
455.817164	2639.286014
456.190556	2640.528658
456.563888	2643.697023
456.937160	2643.523104
457.310373	2643.722229
457.683526	2643.402116
458.056619	2645.973104
458.429653	2648.259268
458.802628	2649.267498
459.175542	2650.454690
459.548398	2658.303767
459.921194	2661.356185
460.293930	2665.583193
460.666607	2672.121569
461.039224	2681.125070
461.411782	2689.652182
461.784280	2695.948583
462.156719	2698.010415
462.529099	2703.565767
462.901419	2704.742876
463.273680	2708.768237
463.645882	2711.550954
464.018024	2720.257027
464.390106	2729.182390
464.762130	2751.529825
465.134094	2773.615120
465.505999	2824.051864
465.877845	2905.758886
466.249631	2965.221816
466.621358	2979.211018
466.993026	2969.342959
467.364634	2982.165134
467.736184	2984.259733
468.107674	2996.340858
468.479105	3034.557846
468.850477	3061.044068
469.221790	3086.317893
469.593043	3102.167281
469.964238	3119.977677
470.335373	3149.629744
470.706449	3203.996068
471.077467	3230.368864
471.448425	3361.869883
471.819324	3628.355357
472.190164	3806.537461
472.560945	3690.132177
472.931667	3625.030716
473.302330	3653.724964
473.672934	3688.239224
474.043479	3789.415182
474.413965	3852.064121
474.784393	3904.552615
475.154761	4041.029252
475.525070	4122.635451
475.895321	4171.587575
476.265513	4319.495029
476.635645	4472.138647
477.005719	4546.926685
477.375734	4674.225902
477.745691	4843.028938
478.115588	5008.192262
478.485427	5201.412127
478.855207	5463.403413
479.224928	5869.032295
479.594591	6398.895373
479.964194	6537.212032
480.333739	6743.843887
480.703226	6770.277177
481.072653	6891.516927
481.442022	7199.922117
481.811333	7554.161477
482.180584	7745.629541
482.549777	7691.500152
482.918912	7830.280596
483.287988	8034.071761
483.657005	8168.410949
484.025964	8266.932740
484.394864	8431.745703
484.763706	8542.250316
485.132489	8622.283674
485.501213	8807.021798
485.869879	9014.538376
486.238487	9075.367458
486.607036	9380.546309
486.975527	9461.121592
487.343959	9749.543648
487.712333	9977.156785
488.080648	10008.457309
488.448905	10411.192569
488.817104	10516.688796
489.185244	10944.977665
489.553326	11194.482013
489.921350	11726.893394
490.289315	12869.188608
490.657222	13872.867216
491.025070	14341.926417
491.392861	14507.566129
491.760593	14410.120625
492.128267	14326.991998
492.495883	14069.288214
492.863440	13946.228607
493.230939	13737.340836
493.598380	13904.865940
493.965763	13922.827571
494.333088	13916.901695
494.700354	14096.994395
495.067563	14279.912662
495.434713	14362.184293
495.801805	14584.612604
496.168839	14760.697587
496.535815	14871.744124
496.902733	15180.781978
497.269593	15158.421940
497.636395	15512.200035
498.003139	15695.541759
498.369825	15797.506657
498.736453	16069.650827
499.103023	16181.801377
499.469535	16402.727424
499.835989	16729.091724
500.202385	16965.637786
500.568723	16822.587483
500.935003	17153.665262
501.301226	17074.380515
501.667390	17785.856202
502.033497	18207.286581
502.399546	18144.438516
502.765537	18108.318648
503.131470	18526.235343
503.497345	18818.065219
503.863163	18392.062513
504.228923	19044.476041
504.594625	19358.983547
504.960269	19116.849366
505.325856	19689.388332
505.691385	19403.015506
506.056856	19992.649024
506.422270	20162.334263
506.787625	19967.163471
507.152924	20474.565688
507.518164	20593.027762
507.883347	20574.640153
508.248472	20454.111206
508.613540	21243.016495
508.978550	21213.651774
509.343503	21317.839821
509.708398	21690.048374
510.073236	21932.386722
510.438016	22225.643244
510.802738	22092.382862
511.167403	22404.541191
511.532010	22236.214543
511.896561	23051.449779
512.261053	23143.453357
512.625488	23087.292383
512.989866	23107.267955
513.354186	23055.144944
513.718449	23243.139654
514.082655	23680.568135
514.446803	23548.726838
514.810894	24032.634757
515.174927	23647.147805
515.538904	23764.173151
515.902822	24280.624239
516.266684	24138.115861
516.630488	24105.993628
516.994235	24178.180431
517.357925	24494.918647
517.721558	24752.597226
518.085133	24889.792228
518.448651	24882.280909
518.812112	24662.842003
519.175516	24881.880137
519.538863	25114.403358
519.902152	24929.274545
520.265385	25281.981395
520.628560	25111.111485
520.991678	25177.042216
521.354739	25281.510047
521.717743	25374.219387
522.080690	25197.153899
522.443580	25562.408180
522.806413	25592.627377
523.169189	25721.002880
523.531908	25806.011857
523.894569	25438.615086
524.257174	25534.563367
524.619722	25760.195331
524.982213	25464.831606
525.344647	25564.351545
525.707025	25688.812592
526.069345	25726.104528
526.431608	25683.816809
526.793815	25901.834110
527.155964	25355.937642
527.518057	25538.513111
527.880093	25489.437478
528.242072	25733.668779
528.603995	25434.294817
528.965860	25256.881490
529.327669	25311.666229
529.689421	25318.867517
530.051117	25151.206302
530.412755	25347.052608
530.774337	25156.910368
531.135862	25030.833631
531.497331	25252.626756
531.858743	24787.539984
532.220098	25287.458608
532.581396	24964.366017
532.942638	24933.685555
533.303824	25010.479972
533.664953	25042.773603
534.026025	24723.900458
534.387040	24949.114006
534.747999	25020.428689
535.108902	25185.997825
535.469748	24677.478993
535.830537	24870.028385
536.191270	24987.167156
536.551947	24885.250149
536.912567	24564.980604
537.273131	24858.774009
537.633638	24593.339615
537.994089	24797.478619
538.354483	24365.174471
538.714821	24860.369534
539.075103	24903.794033
539.435328	24694.364338
539.795497	24236.345264
540.155609	24652.512678
540.515665	24932.798312
540.875665	24193.397154
541.235609	24446.654641
541.595496	24437.827580
541.955328	24784.875734
542.315102	24699.133269
542.674821	24281.486276
543.034483	24155.212934
543.394090	24320.928264
543.753640	24104.017496
544.113134	24740.705144
544.472571	24354.923285
544.831953	24634.382169
545.191278	24233.713782
545.550548	24171.069883
545.909761	24404.492950
546.268918	24615.676967
546.628019	24568.335492
546.987064	24279.958806
547.346053	24058.163161
547.704986	24173.335882
548.063863	24335.842517
548.422684	24323.635363
548.781449	23894.355908
549.140158	24282.413848
549.498811	23857.104301
549.857408	23588.471295
550.215949	24053.036307
550.574434	23719.082550
550.932864	23935.713534
551.291237	24076.059257
551.649555	23955.084167
552.007817	24000.603266
552.366022	23873.954358
552.724173	23920.819445
553.082267	23855.685216
553.440305	24322.052441
553.798288	23604.161886
554.156215	24143.981243
554.514086	24210.295101
554.871902	23571.535539
555.229661	23866.251475
555.587365	23738.667433
555.945014	23584.637498
556.302606	23842.505120
556.660143	23763.527883
557.017625	24027.381875
557.375050	23581.048196
557.732421	23955.323622
558.089735	23757.107973
558.446994	23837.121167
558.804197	23850.644063
559.161345	23814.415810
559.518437	23546.680130
559.875474	23759.280711
560.232455	23932.474592
560.589381	23762.648202
560.946251	23741.833277
561.303065	24059.375558
561.659825	24140.414627
562.016528	23748.389298
562.373177	23498.955526
562.729770	23850.873435
563.086307	23713.030645
563.442789	23884.082036
563.799216	23719.682447
564.155587	23728.633016
564.511904	23719.589186
564.868164	23640.662361
565.224370	23639.117247
565.580520	23519.513352
565.936615	23661.757069
566.292654	23335.755732
566.648638	23653.507221
567.004567	23476.386280
567.360441	23421.624226
567.716260	23155.554647
568.072023	23476.890396
568.427732	23233.407706
568.783385	23029.850955
569.138982	23254.988886
569.494525	23291.091109
569.850013	23049.786198
570.205445	23138.260968
570.560823	22933.759001
570.916145	22709.838509
571.271412	22874.772460
571.626625	22628.827167
571.981782	22758.541096
572.336884	22551.576525
572.691931	22681.764323
573.046923	22421.943254
573.401860	22305.626191
573.756743	22298.215694
574.111570	22218.537737
574.466342	22160.786279
574.821059	22246.135534
575.175722	21936.341507
575.530330	21938.957866
575.884882	21955.949075
576.239380	21865.782997
576.593823	21759.583529
576.948211	21746.675655
577.302544	21582.155079
577.656823	21456.771500
578.011047	21552.051828
578.365216	21417.689955
578.719330	21307.407153
579.073389	21204.759178
579.427394	21354.123526
579.781344	21126.094493
580.135239	21014.939571
580.489080	21001.391470
580.842866	20748.441494
581.196597	20935.536357
581.550273	20921.879871
581.903895	20818.760549
582.257463	21136.496914
582.610975	20653.390538
582.964434	20957.465376
583.317837	20669.353352
583.671186	20770.337746
584.024481	20723.848225
584.377721	20509.516007
584.730906	20549.462110
585.084037	20590.076166
585.437113	20484.350567
585.790135	20687.861948
586.143103	20161.094139
586.496016	20172.101498
586.848874	20411.967160
587.201679	20364.625684
587.554428	20011.770121
587.907124	20349.222438
588.259765	20132.485591
588.612352	20206.472085
588.964884	19783.252096
589.317362	19950.363826
589.669786	19992.303705
590.022155	20060.132430
590.374470	20225.434385
590.726731	20043.630213
591.078937	19786.972468
591.431090	19885.247241
591.783188	19625.741244
592.135232	19616.089955
592.487222	19698.764878
592.839157	19741.082844
593.191038	19612.513257
593.542866	19508.660446
593.894639	19228.226099
594.246358	19449.815057
594.598022	19355.174956
594.949633	19100.160627
595.301190	19067.148631
595.652692	19233.163909
596.004141	19482.945520
596.355535	18797.482188
596.706876	18813.092121
597.058162	18711.361636
597.409395	18930.263660
597.760573	19022.788997
598.111698	18799.672569
598.462768	18726.527947
598.813785	18686.251649
599.164748	18525.595117
599.515657	18549.679229
599.866511	18342.119802
600.217312	18707.822746
600.568060	18228.887925
600.918753	18546.644455
601.269392	18437.584132
601.619978	18215.337303
601.970510	18428.925951
602.320988	18379.338641
602.671412	18590.837730
603.021783	18479.622314
603.372100	18219.975165
603.722363	18361.394654
604.072572	18298.667577
604.422728	18438.461293
604.772830	18202.341209
605.122878	18139.828381
605.472872	18128.453017
605.822813	18120.745093
606.172701	18088.529599
606.522534	18286.241132
606.872314	18313.503692
607.222041	18136.302093
607.571714	18360.146968
607.921333	18184.576183
608.270899	18254.615454
608.620411	18462.197566
608.969870	18203.578812
609.319276	18214.288743
609.668627	18244.412158
610.017926	18377.783445
610.367171	18497.556219
610.716362	18540.499288
611.065500	18358.669910
611.414585	18485.013828
611.763616	18473.134349
612.112594	18430.778575
612.461518	18391.334067
612.810389	18588.067616
613.159207	18438.632693
613.507971	18345.968723
613.856682	18620.827554
614.205340	18548.970947
614.553945	18701.627168
614.902496	18443.825081
615.250994	18685.755095
615.599439	18616.779508
615.947830	18607.637375
616.296169	18653.486669
616.644454	18622.982648
616.992686	18587.341690
617.340864	18804.701120
617.688990	18567.469461
618.037063	18740.136542
618.385082	18581.899764
618.733048	18863.324698
619.080961	18729.676148
619.428821	18767.852806
619.776628	18659.599068
620.124382	18578.612932
620.472083	18622.511300
620.819731	18646.129105
621.167326	18339.682404
621.514868	18382.091111
621.862357	18136.087844
622.209793	18155.760947
622.557176	17986.552098
622.904506	17821.025811
623.251783	17720.709370
623.599007	17489.627919
623.946179	17433.721523
624.293297	17381.023821
624.640363	17137.568858
624.987376	17153.030077
625.334336	16941.820854
625.681243	16780.889579
626.028097	16790.245961
626.374899	16735.602374
626.721647	16590.699448
627.068343	16429.115343
627.414987	16362.473810
627.761577	16339.266858
628.108115	16377.146088
628.454600	16100.422030
628.801032	16192.327306
629.147412	16123.608817
629.493739	16135.430323
629.840014	15955.478775
630.186236	16056.316975
630.532405	15817.184802
630.878521	16013.331057
631.224585	15899.579941
631.570597	15730.570217
631.916556	15767.562204
632.262462	15750.500418
632.608316	15663.026317
632.954117	15601.133551
633.299866	15602.081287
633.645562	15529.644948
633.991206	15272.392347
634.336797	15143.134641
634.682336	15112.766731
635.027823	15008.308982
635.373257	14899.725048
635.718639	14782.014106
636.063968	14738.450975
636.409245	14489.944776
636.754470	14519.992573
637.099642	14357.415362
637.444762	14138.616682
637.789829	14176.785778
638.134845	14018.609494
