Dividing Wavelength (nm)	Counts (n)	Blue Motor Position (mm): 9.800000	Red Motor Position (mm): 0.000000	
326.493990	2160.318425
326.888308	2160.318425
327.282561	2160.318425
327.676750	2121.284771
328.070874	2117.208998
328.464933	2117.612290
328.858929	2120.826026
329.252859	2124.896758
329.646726	2136.385547
330.040528	2146.500623
330.434265	2161.699701
330.827938	2179.152176
331.221547	2193.375792
331.615091	2213.023689
332.008571	2231.557491
332.401986	2249.088103
332.795338	2267.566453
333.188625	2285.654113
333.581847	2302.957873
333.975006	2320.465801
334.368100	2340.446414
334.761129	2359.297809
335.154095	2375.679038
335.546996	2395.021945
335.939833	2417.455080
336.332606	2432.311360
336.725315	2445.279729
337.117960	2460.708180
337.510540	2468.617750
337.903056	2479.506643
338.295508	2490.299753
338.687896	2500.573625
339.080220	2506.897752
339.472480	2512.236334
339.864676	2518.946110
340.256807	2522.290915
340.648875	2525.590351
341.040879	2529.351051
341.432818	2532.158974
341.824694	2536.204500
342.216506	2533.194931
342.608253	2536.943029
342.999937	2536.643080
343.391557	2534.188038
343.783113	2536.731301
344.174605	2534.989582
344.566033	2533.772143
344.957397	2533.326001
345.348697	2532.395908
345.739934	2531.980013
346.131106	2529.015815
346.522215	2528.176463
346.913260	2526.822913
347.304241	2521.852335
347.695159	2522.011131
348.086012	2524.072963
348.476802	2515.855882
348.867528	2513.224400
349.258191	2511.714575
349.648789	2509.889677
350.039324	2508.445386
350.429796	2510.325737
350.820203	2508.082423
351.210548	2507.575787
351.600828	2508.039573
351.991045	2505.302227
352.381198	2505.715602
352.771288	2505.145951
353.161314	2501.977586
353.551276	2500.787874
353.941175	2504.029336
354.331010	2499.840137
354.720782	2502.569922
355.110490	2503.336177
355.500135	2501.833913
355.889717	2499.641011
356.279235	2502.317864
356.668689	2501.493635
357.058080	2502.476660
357.447408	2503.905827
357.836672	2502.612771
358.225873	2504.931702
358.615010	2502.620333
359.004084	2504.740138
359.393095	2502.501866
359.782043	2504.241064
360.170927	2503.651249
360.559748	2505.158554
360.948505	2506.118894
361.337199	2508.447907
361.725830	2507.235509
362.114398	2507.961436
362.502903	2505.511435
362.891344	2509.632578
363.279722	2509.272136
363.668037	2511.737260
364.056289	2511.717095
364.444478	2509.219203
364.832603	2511.281035
365.220665	2510.189626
365.608665	2510.729029
365.996601	2513.695748
366.384474	2511.583505
366.772284	2511.603669
367.160031	2515.611387
367.547715	2513.655419
367.935336	2514.426715
368.322893	2512.765655
368.710388	2512.213649
369.097820	2513.262209
369.485189	2510.229955
369.872495	2515.321520
370.259738	2514.159534
370.646918	2516.067611
371.034035	2513.990656
371.421090	2517.388393
371.808081	2515.092148
372.195010	2518.121881
372.581875	2515.543331
372.968678	2518.134484
373.355418	2517.529546
373.742096	2517.451408
374.128710	2519.213291
374.515262	2519.503157
374.901751	2517.953002
375.288177	2519.535925
375.674540	2517.532066
376.060841	2520.602129
376.447079	2519.518281
376.833254	2521.164218
377.219367	2519.296470
377.605417	2521.086080
377.991404	2520.324865
378.377329	2520.513909
378.763191	2518.807478
379.148991	2520.743281
379.534727	2521.691018
379.920402	2520.523991
380.306013	2522.737058
380.691563	2523.347037
381.077049	2522.089269
381.462474	2521.597757
381.847835	2521.012983
382.233134	2520.821419
382.618371	2520.576923
383.003545	2521.522139
383.388657	2521.098683
383.773706	2524.710669
384.158693	2522.648837
384.543618	2526.417100
384.928480	2523.760412
385.313280	2525.187058
385.698017	2521.922911
386.082692	2525.411390
386.467305	2524.360309
386.851856	2526.578417
387.236344	2525.653365
387.620770	2521.650689
388.005133	2518.860410
388.389435	2523.326872
388.773674	2522.449712
389.157851	2528.489014
389.541965	2525.751667
389.926018	2526.762419
390.310008	2526.500279
390.693936	2528.483973
391.077802	2528.226874
391.461606	2531.158305
391.845348	2527.624456
392.229027	2525.174455
392.612645	2527.102697
392.996200	2527.125382
393.379694	2528.241998
393.763125	2530.812986
394.146494	2526.759898
394.529801	2528.846936
394.913047	2530.533202
395.296230	2530.450023
395.679351	2527.669827
396.062410	2530.329035
396.445408	2527.558921
396.828343	2531.433048
397.211217	2530.923891
397.594028	2532.388347
397.976778	2531.637215
398.359466	2529.577903
398.742092	2529.754344
399.124656	2531.163346
399.507158	2531.100332
399.889598	2532.579910
400.271977	2532.698378
400.654294	2531.740558
401.036549	2534.205682
401.418742	2532.806762
401.800874	2532.174098
402.182944	2533.300795
402.564952	2533.242822
402.946898	2530.548325
403.328783	2533.252904
403.710606	2533.189890
404.092367	2533.933460
404.474067	2531.906916
404.855705	2536.338091
405.237282	2533.182328
405.618797	2533.189890
406.000250	2535.907072
406.381642	2535.087884
406.762972	2533.205013
407.144240	2530.117307
407.525447	2535.125693
407.906593	2530.346679
408.287677	2533.383974
408.668700	2535.637370
409.049661	2536.839685
409.430560	2534.301464
409.811399	2532.804242
410.192176	2534.455220
410.572891	2537.462268
410.953545	2536.141486
411.334138	2537.094264
411.714669	2536.257432
412.095139	2536.201979
412.475547	2534.966897
412.855894	2536.416228
413.236180	2537.709284
413.616405	2537.081661
413.996568	2535.904551
414.376670	2536.353214
414.756711	2534.616537
415.136691	2538.654501
415.516609	2536.932947
415.896466	2538.999820
416.276262	2538.896476
416.655997	2538.059645
417.035670	2534.724921
417.415283	2539.027546
417.794834	2538.992258
418.174324	2541.417053
418.553753	2537.152237
418.933121	2540.181970
419.312428	2538.639377
419.691674	2541.863195
420.070859	2541.961498
420.449983	2540.827238
420.829045	2542.117773
421.208047	2539.488812
421.586988	2536.799356
421.965867	2540.819676
422.344686	2541.580891
422.723444	2541.840510
423.102141	2540.383617
423.480777	2540.557536
423.859352	2540.403781
424.237866	2542.866385
424.616319	2538.508307
424.994712	2542.876467
425.373044	2543.670449
425.751314	2536.159130
426.129524	2536.885056
426.507673	2539.579552
426.885762	2537.984027
427.263789	2542.707588
427.641756	2542.949564
428.019662	2541.419574
428.397508	2542.798329
428.775292	2541.830428
429.153016	2540.315561
429.530679	2544.782023
429.908282	2541.195242
430.285824	2542.533669
430.663305	2543.514173
431.040726	2540.020653
431.418086	2541.752290
431.795385	2544.265305
432.172624	2542.243802
432.549802	2541.459903
432.926920	2543.062990
433.303977	2541.535520
433.680974	2542.579039
434.057910	2541.941333
434.434786	2545.301262
434.811601	2543.138607
435.188355	2542.571477
435.565050	2544.406457
435.941683	2541.974101
436.318257	2545.875954
436.694770	2541.033925
437.071222	2544.925696
437.447614	2545.475182
437.823946	2546.490974
438.200218	2544.265305
438.576429	2545.853268
438.952580	2546.546427
439.328670	2544.729091
439.704700	2544.250182
440.080670	2547.380738
440.456580	2544.749256
440.832429	2547.169010
441.208218	2544.897970
441.583947	2544.106509
441.959616	2547.274874
442.335224	2546.233876
442.710773	2548.540203
443.086261	2545.006355
443.461689	2546.130532
443.837057	2544.993752
444.212365	2547.113557
444.587612	2544.010727
444.962800	2543.882177
445.337927	2541.409491
445.712995	2540.512166
446.088002	2544.010727
446.462949	2548.525080
446.837837	2547.526932
447.212664	2545.908721
447.587431	2546.533824
447.962139	2546.352343
448.336786	2547.322765
448.711374	2547.668084
449.085901	2547.693290
449.460369	2545.860830
449.834776	2549.177909
450.209124	2547.708413
450.583412	2544.900490
450.957640	2549.404761
451.331808	2547.794113
451.705917	2549.858465
452.079965	2547.751263
452.453954	2547.773948
452.827883	2549.117416
453.201752	2547.201777
453.575562	2546.037271
453.949311	2548.303269
454.323001	2545.886036
454.696632	2547.710934
455.070202	2549.727395
455.443713	2549.213198
455.817164	2550.047508
456.190556	2549.679504
456.563888	2548.320913
456.937160	2548.867878
457.310373	2546.664894
457.683526	2549.896274
458.056619	2549.324103
458.429653	2548.182282
458.802628	2548.341078
459.175542	2550.082797
459.548398	2550.365101
459.921194	2549.253527
460.293930	2550.723023
460.666607	2551.060780
461.039224	2547.763866
461.411782	2551.519525
461.784280	2551.693445
462.156719	2548.094061
462.529099	2551.161603
462.901419	2548.913249
463.273680	2550.281922
463.645882	2544.260264
464.018024	2550.680173
464.390106	2544.222455
464.762130	2548.368804
465.134094	2549.765204
465.505999	2551.706048
465.877845	2549.137580
466.249631	2550.907025
466.621358	2552.300904
466.993026	2551.406099
467.364634	2556.391801
467.736184	2552.552962
468.107674	2552.956254
468.479105	2552.694114
468.850477	2550.405430
469.221790	2552.066491
469.593043	2549.734957
469.964238	2552.167314
470.335373	2551.335523
470.706449	2551.821995
471.077467	2551.879968
471.448425	2552.416851
471.819324	2551.448949
472.190164	2551.249824
472.560945	2551.781665
472.931667	2552.789896
473.302330	2551.915256
473.672934	2553.059598
474.043479	2552.792417
474.413965	2550.302087
474.784393	2552.225287
475.154761	2553.198230
475.525070	2551.801830
475.895321	2554.206460
476.265513	2552.086655
476.635645	2553.321738
477.005719	2551.469114
477.375734	2553.382232
477.745691	2552.537838
478.115588	2554.677808
478.485427	2553.742674
478.855207	2553.198230
479.224928	2554.957592
479.594591	2553.997252
479.964194	2556.177552
480.333739	2554.781152
480.703226	2553.813250
481.072653	2557.422717
481.442022	2551.650595
481.811333	2552.676470
482.180584	2551.819474
482.549777	2552.779814
482.918912	2551.244783
483.287988	2559.229970
483.657005	2555.257541
484.025964	2555.154197
484.394864	2557.198385
484.763706	2557.667213
485.132489	2555.471790
485.501213	2556.127140
485.869879	2560.092007
486.238487	2557.601678
486.607036	2556.951369
486.975527	2556.999260
487.343959	2557.168138
487.712333	2559.678633
488.080648	2555.502037
488.448905	2559.287943
488.817104	2556.432130
489.185244	2559.393808
489.553326	2557.241235
489.921350	2557.889023
490.289315	2556.427089
490.657222	2560.543191
491.025070	2560.739796
491.392861	2558.501523
491.760593	2558.463715
492.128267	2557.863818
492.495883	2559.061092
492.863440	2559.761812
493.230939	2556.681667
493.598380	2560.051678
493.965763	2555.209650
494.333088	2560.994374
494.700354	2557.243756
495.067563	2557.339538
495.434713	2558.955227
495.801805	2557.800803
496.168839	2558.572100
496.535815	2558.035217
496.902733	2559.383725
497.269593	2559.963458
497.636395	2562.902451
498.003139	2558.098231
498.369825	2558.010011
498.736453	2559.837429
499.103023	2560.671740
499.469535	2559.955896
499.835989	2559.996226
500.202385	2558.181410
500.568723	2555.794424
500.935003	2555.454146
501.301226	2553.669578
501.667390	2560.283571
502.033497	2560.770043
502.399546	2560.152501
502.765537	2560.684343
503.131470	2558.882131
503.497345	2560.722152
503.863163	2562.763819
504.228923	2560.596123
504.594625	2559.446740
504.960269	2560.175187
505.325856	2561.490928
505.691385	2558.675443
506.056856	2562.685681
506.422270	2558.761143
506.787625	2560.124775
507.152924	2560.540670
507.518164	2557.518498
507.883347	2561.165773
508.248472	2561.032183
508.613540	2560.480176
508.978550	2560.800290
509.343503	2559.287943
509.708398	2561.039744
510.073236	2560.268448
510.438016	2562.504200
510.802738	2562.642831
511.167403	2560.626370
511.532010	2560.734755
511.896561	2561.654765
512.261053	2561.329611
512.625488	2561.042265
512.989866	2559.547563
513.354186	2559.613098
513.718449	2564.167780
514.082655	2561.405228
514.446803	2558.902295
514.810894	2562.441185
515.174927	2560.701987
515.538904	2563.938408
515.902822	2561.962276
516.266684	2562.421021
516.630488	2562.678119
516.994235	2562.012687
517.357925	2564.016546
517.721558	2561.319528
518.085133	2562.673078
518.448651	2561.576627
518.812112	2560.124775
519.175516	2561.188458
519.538863	2557.679815
519.902152	2563.577965
520.265385	2562.864642
520.628560	2564.530743
520.991678	2567.283213
521.354739	2564.467729
521.717743	2564.888665
522.080690	2565.773388
522.443580	2566.209448
522.806413	2566.832030
523.169189	2567.053841
523.531908	2566.264900
523.894569	2566.784139
524.257174	2567.752041
524.619722	2570.307906
524.982213	2569.193811
525.344647	2569.675241
525.707025	2570.128945
526.069345	2570.000395
526.431608	2571.986610
526.793815	2568.972000
527.155964	2571.696744
527.518057	2570.197000
527.880093	2572.394943
528.242072	2573.491394
528.603995	2571.810170
528.965860	2569.516445
529.327669	2573.095664
529.689421	2574.088771
530.051117	2573.551888
530.412755	2574.101374
530.774337	2576.213617
531.135862	2576.180850
531.497331	2580.344843
531.858743	2575.830490
532.220098	2579.258474
532.581396	2580.712847
532.942638	2581.292580
533.303824	2578.895511
533.664953	2583.488002
534.026025	2579.734863
534.387040	2583.412385
534.747999	2584.047571
535.108902	2583.553538
535.469748	2584.246696
535.830537	2585.839701
536.191270	2587.220977
536.551947	2583.798033
536.912567	2584.387848
537.273131	2585.383476
537.633638	2584.962540
537.994089	2588.796337
538.354483	2592.224322
538.714821	2592.335227
539.075103	2588.569486
539.435328	2591.397573
539.795497	2591.848756
540.155609	2590.994281
540.515665	2592.529312
540.875665	2592.420927
541.235609	2593.245156
541.595496	2591.614343
541.955328	2596.910075
542.315102	2596.456371
542.674821	2593.875300
543.034483	2596.307657
543.394090	2595.647266
543.753640	2598.067019
544.113134	2598.762699
544.472571	2600.212030
544.831953	2601.583224
545.191278	2602.372165
545.550548	2603.367793
545.909761	2601.273193
546.268918	2603.256887
546.628019	2605.653956
546.987064	2603.529110
547.346053	2604.794439
547.704986	2605.573297
548.063863	2606.200921
548.422684	2605.664038
548.781449	2605.275869
549.140158	2609.747373
549.498811	2607.771241
549.857408	2607.458689
550.215949	2607.410798
550.574434	2608.335850
550.932864	2606.621857
551.291237	2609.303751
551.649555	2611.552106
552.007817	2611.347939
552.366022	2610.876591
552.724173	2606.853751
553.082267	2609.976745
553.440305	2609.533124
553.798288	2609.777620
554.156215	2613.492950
554.514086	2607.771241
554.871902	2606.082454
555.229661	2609.296190
555.587365	2606.256374
555.945014	2608.630757
556.302606	2613.427415
556.660143	2611.932713
557.017625	2615.423712
557.375050	2611.060593
557.732421	2612.693927
558.089735	2612.005810
558.446994	2611.826849
558.804197	2612.396499
559.161345	2614.622169
559.518437	2611.968001
559.875474	2612.847683
560.232455	2610.606890
560.589381	2610.057404
560.946251	2610.198556
561.303065	2613.029164
561.659825	2613.455142
562.016528	2614.158382
562.373177	2613.634102
562.729770	2609.180243
563.086307	2612.222579
563.442789	2610.740480
563.799216	2615.726181
564.155587	2611.799122
564.511904	2614.392796
564.868164	2612.877929
565.224370	2613.341716
565.580520	2613.777775
565.936615	2612.310800
566.292654	2612.799792
566.648638	2616.086624
567.004567	2610.233844
567.360441	2611.398351
567.716260	2611.678135
568.072023	2613.508074
568.427732	2611.257198
568.783385	2610.251488
569.138982	2612.036057
569.494525	2612.850203
569.850013	2612.338526
570.205445	2611.564709
570.560823	2608.650922
570.916145	2610.032198
571.271412	2607.612444
571.626625	2613.034205
571.981782	2611.605038
572.336884	2610.180912
572.691931	2605.409460
573.046923	2603.342587
573.401860	2604.164295
573.756743	2609.631426
574.111570	2610.170830
574.466342	2606.488267
574.821059	2609.739811
575.175722	2610.526231
575.530330	2610.553957
575.884882	2608.829883
576.239380	2608.489605
576.593823	2611.267281
576.948211	2609.326437
577.302544	2608.419029
577.656823	2609.109667
578.011047	2607.146137
578.365216	2608.333329
578.719330	2608.169492
579.073389	2608.842486
579.427394	2609.943978
579.781344	2607.814090
580.135239	2608.048504
580.489080	2607.690582
580.842866	2606.810901
581.196597	2610.352311
581.550273	2606.647063
581.903895	2606.873915
582.257463	2607.642691
582.610975	2608.048504
582.964434	2608.033381
583.317837	2606.505911
583.671186	2609.344081
584.024481	2608.303082
584.377721	2608.673607
584.730906	2607.826693
585.084037	2607.904831
585.437113	2607.057917
585.790135	2609.747373
586.143103	2610.022116
586.496016	2608.058586
586.848874	2612.343567
587.201679	2609.218052
587.554428	2609.414657
587.907124	2611.269801
588.259765	2610.208638
588.612352	2612.235182
588.964884	2610.954729
589.317362	2612.401540
589.669786	2612.378855
590.022155	2607.751076
590.374470	2610.853906
590.726731	2610.042280
591.078937	2609.328957
591.431090	2612.875409
591.783188	2611.809205
592.135232	2611.665532
592.487222	2613.888681
592.839157	2612.799792
593.191038	2616.008486
593.542866	2615.698455
593.894639	2613.772734
594.246358	2614.460852
594.598022	2613.687035
594.949633	2615.227107
595.301190	2614.246603
595.652692	2620.795062
596.004141	2616.764659
596.355535	2615.247272
596.706876	2615.514453
597.058162	2618.037550
597.409395	2615.569906
597.760573	2617.798096
598.111698	2620.900926
598.462768	2620.928652
598.813785	2620.815226
599.164748	2623.613067
599.515657	2624.023921
599.866511	2621.548714
600.217312	2622.670371
600.568060	2621.473097
600.918753	2626.715897
601.269392	2623.653396
601.619978	2622.176338
601.970510	2624.404528
602.320988	2626.698253
602.671412	2629.559107
603.021783	2630.234622
603.372100	2628.129940
603.722363	2631.063892
604.072572	2632.765281
604.422728	2630.587503
604.772830	2632.256125
605.122878	2633.781074
605.472872	2634.769140
605.822813	2634.885087
606.172701	2639.215438
606.522534	2639.858185
606.872314	2640.117804
607.222041	2641.131076
607.571714	2638.350880
607.921333	2642.033443
608.270899	2642.562764
608.620411	2644.589308
608.969870	2646.706592
609.319276	2650.873106
609.668627	2657.366112
610.017926	2664.244767
610.367171	2669.086795
610.716362	2667.992864
611.065500	2666.835920
611.414585	2667.085457
611.763616	2669.845488
612.112594	2668.431445
612.461518	2666.369613
612.810389	2674.253977
613.159207	2671.476302
613.507971	2671.607372
613.856682	2678.702796
614.205340	2677.787826
614.553945	2682.629855
614.902496	2679.030471
615.250994	2686.945082
615.599439	2685.856193
615.947830	2690.156297
616.296169	2693.485979
616.644454	2694.627801
616.992686	2696.868594
617.340864	2703.653987
617.688990	2708.289328
618.037063	2712.302086
618.385082	2717.751573
618.733048	2719.450442
619.080961	2722.288612
619.428821	2729.817575
619.776628	2733.401836
620.124382	2732.340673
620.472083	2738.548854
620.819731	2743.380800
621.167326	2740.940881
621.514868	2744.371386
621.862357	2741.429873
622.209793	2746.720564
622.557176	2747.101171
622.904506	2745.041860
623.251783	2748.346336
623.599007	2749.944382
623.946179	2749.231059
624.293297	2752.782552
624.640363	2754.539394
624.987376	2752.812798
625.334336	2752.797675
625.681243	2756.732296
626.028097	2757.115423
626.374899	2770.058586
626.721647	2770.880294
627.068343	2771.094543
627.414987	2772.334667
627.761577	2784.435957
628.108115	2790.324024
628.454600	2787.150618
628.801032	2792.562297
629.147412	2797.210240
629.493739	2805.013947
629.840014	2811.973259
630.186236	2816.585915
630.532405	2818.672953
630.878521	2830.116372
631.224585	2834.907989
631.570597	2841.698423
631.916556	2846.618589
632.262462	2853.461956
632.608316	2866.664738
632.954117	2870.256560
633.299866	2882.173847
633.645562	2882.831718
633.991206	2881.891543
634.336797	2881.727705
634.682336	2892.775394
635.027823	2887.686349
635.373257	2896.793193
635.718639	2896.165570
636.063968	2895.472411
636.409245	2896.813358
636.754470	2904.637229
637.099642	2904.211251
637.444762	2905.642939
637.789829	2915.271543
638.134845	2919.228849
638.479808	2920.360588
638.824719	2930.838626
639.169577	2933.913730
639.514383	2938.798608
639.859137	2940.920934
640.203839	2951.900567
640.548489	2952.407203
640.893086	2968.425469
641.237632	2961.682926
641.582125	2982.265957
641.926566	2982.812922
642.270955	2986.866010
642.615292	2995.965292
642.959576	3004.298320
643.303809	3015.640916
643.647990	3023.343799
643.992118	3041.262580
644.336195	3034.898124
