Dividing Wavelength (nm)	Counts (n)	Blue Motor Position (mm): 30.300000	Red Motor Position (mm): 0.000000	
326.493990	2212.479244
326.888308	2212.479244
327.282561	2212.479244
327.676750	2171.913079
328.070874	2168.069199
328.464933	2170.763696
328.858929	2172.893583
329.252859	2178.222083
329.646726	2186.875224
330.040528	2198.737059
330.434265	2212.504450
330.827938	2232.550598
331.221547	2247.772362
331.615091	2264.350197
332.008571	2283.579678
332.401986	2301.185908
332.795338	2322.192396
333.188625	2336.491629
333.581847	2356.366378
333.975006	2376.659543
334.368100	2395.238715
334.761129	2413.805285
335.154095	2433.889242
335.546996	2458.984105
335.939833	2495.305619
336.332606	2507.590911
336.725315	2520.612211
337.117960	2536.544778
337.510540	2549.258568
337.903056	2557.730227
338.295508	2565.654921
338.687896	2577.690676
339.080220	2585.267530
339.472480	2589.234918
339.864676	2596.652976
340.256807	2602.755292
340.648875	2605.840479
341.040879	2606.561364
341.432818	2612.799792
341.824694	2614.866665
342.216506	2613.964298
342.608253	2615.554782
342.999937	2615.953033
343.391557	2614.831377
343.783113	2614.334823
344.174605	2611.342898
344.566033	2613.288783
344.957397	2612.426746
345.348697	2612.124277
345.739934	2608.557661
346.131106	2610.664863
346.522215	2606.543720
346.913260	2604.111363
347.304241	2601.951228
347.695159	2600.844695
348.086012	2602.256218
348.476802	2596.559714
348.867528	2594.470156
349.258191	2589.776842
349.648789	2588.816502
350.039324	2585.010431
350.429796	2588.619897
350.820203	2588.115782
351.210548	2585.640575
351.600828	2586.144691
351.991045	2586.852973
352.381198	2581.645461
352.771288	2583.513208
353.161314	2581.615214
353.551276	2582.857858
353.941175	2582.668815
354.331010	2581.637899
354.720782	2581.244689
355.110490	2583.747622
355.500135	2580.677559
355.889717	2578.547672
356.279235	2582.656212
356.668689	2580.612024
357.058080	2583.624114
357.447408	2582.142014
357.836672	2582.550348
358.225873	2581.317786
358.615010	2581.945409
359.004084	2583.109916
359.393095	2581.595049
359.782043	2585.733837
360.170927	2586.278281
360.559748	2581.244689
360.948505	2586.880699
361.337199	2585.567478
361.725830	2585.527149
362.114398	2585.716193
362.502903	2587.682242
362.891344	2587.757860
363.279722	2588.108220
363.668037	2591.102665
364.056289	2585.741398
364.444478	2589.544949
364.832603	2589.078642
365.220665	2591.879003
365.608665	2590.321287
365.996601	2590.200299
366.384474	2593.565269
366.772284	2593.197265
367.160031	2591.450505
367.547715	2595.438058
367.935336	2592.196596
368.322893	2589.315576
368.710388	2589.870103
369.097820	2591.206009
369.485189	2590.651482
369.872495	2598.553491
370.259738	2594.830599
370.646918	2595.710280
371.034035	2596.857142
371.421090	2600.527102
371.808081	2596.942842
372.195010	2597.542739
372.581875	2599.657503
372.968678	2598.205651
373.355418	2595.077615
373.742096	2601.076588
374.128710	2598.649273
374.515262	2599.871752
374.901751	2596.872266
375.288177	2599.508789
375.674540	2600.796804
376.060841	2598.566094
376.447079	2598.404777
376.833254	2601.530292
377.219367	2601.878132
377.605417	2601.510127
377.991404	2601.079109
378.377329	2602.261259
378.763191	2602.253698
379.148991	2603.047679
379.534727	2601.293358
379.920402	2602.248657
380.306013	2603.062803
380.691563	2604.718822
381.077049	2604.353338
381.462474	2603.773606
381.847835	2602.021805
382.233134	2609.021447
382.618371	2604.108842
383.003545	2604.355859
383.388657	2601.109356
383.773706	2605.911055
384.158693	2606.868874
384.543618	2606.800818
384.928480	2605.732094
385.313280	2608.461879
385.698017	2606.432814
386.082692	2607.355345
386.467305	2608.512290
386.851856	2609.084461
387.236344	2609.515480
387.620770	2608.502208
388.005133	2605.822835
388.389435	2607.461210
388.773674	2606.054728
389.157851	2613.588732
389.541965	2612.283073
389.926018	2610.637137
390.310008	2610.712754
390.693936	2611.756273
391.077802	2611.627723
391.461606	2612.845162
391.845348	2613.503032
392.229027	2615.595111
392.612645	2613.765172
392.996200	2614.367590
393.379694	2614.546551
393.763125	2615.900101
394.146494	2612.552775
394.529801	2615.965636
394.913047	2615.763990
395.296230	2617.306583
395.679351	2615.489247
396.062410	2619.534773
396.445408	2614.085286
396.828343	2617.667026
397.211217	2617.616614
397.594028	2620.671553
397.976778	2617.969495
398.359466	2619.524691
398.742092	2618.029989
399.124656	2618.468569
399.507158	2618.282046
399.889598	2620.416975
400.271977	2620.923611
400.654294	2618.450925
401.036549	2619.834722
401.418742	2623.877727
401.800874	2623.320680
402.182944	2623.474435
402.564952	2622.987963
402.946898	2623.020731
403.328783	2622.998046
403.710606	2626.088273
404.092367	2625.536267
404.474067	2625.992491
404.855705	2626.012656
405.237282	2628.195475
405.618797	2624.754888
406.000250	2627.996350
406.381642	2629.506175
406.762972	2626.826802
407.144240	2627.978706
407.525447	2627.111627
407.906593	2627.966103
408.287677	2630.088429
408.668700	2632.188069
409.049661	2631.686474
409.430560	2632.856022
409.811399	2633.942391
410.192176	2633.448358
410.572891	2631.653707
410.953545	2634.030611
411.334138	2635.205200
411.714669	2635.270735
412.095139	2636.160498
412.475547	2637.173770
412.855894	2639.936323
413.236180	2638.151754
413.616405	2639.490181
413.996568	2640.846251
414.376670	2639.041518
414.756711	2638.257618
415.136691	2639.548154
415.516609	2641.002527
415.896466	2641.741056
416.276262	2643.596200
416.655997	2645.857158
417.035670	2645.436222
417.415283	2648.607107
417.794834	2647.845893
418.174324	2645.970584
418.553753	2650.736995
418.933121	2652.516522
419.312428	2651.835966
419.691674	2655.102634
420.070859	2656.367964
420.449983	2656.141112
420.829045	2657.799651
421.208047	2658.651606
421.586988	2663.281906
421.965867	2670.946981
422.344686	2673.548216
422.723444	2678.559123
423.102141	2683.438960
423.480777	2691.550176
423.859352	2701.791280
424.237866	2712.831407
424.616319	2728.968141
424.994712	2748.956316
425.373044	2758.529467
425.751314	2783.110133
426.129524	2798.604119
426.507673	2826.862307
426.885762	2857.681401
427.263789	2894.607853
427.641756	2926.014242
428.019662	2966.053606
428.397508	3022.403624
428.775292	3058.084911
429.153016	3129.623925
429.530679	3173.502128
429.908282	3236.821541
430.285824	3268.094339
430.663305	3404.538209
431.040726	3418.439191
431.418086	3480.679797
431.795385	3596.389401
432.172624	3687.445242
432.549802	3756.987959
432.926920	3852.462372
433.303977	3910.206269
433.680974	4035.282337
434.057910	4147.180829
434.434786	4253.284514
434.811601	4323.182633
435.188355	4548.302920
435.565050	4589.587449
435.941683	4671.549049
436.318257	4922.946350
436.694770	5065.797527
437.071222	5211.864959
437.447614	5271.771511
437.823946	5357.335015
438.200218	5533.258682
438.576429	5574.714610
438.952580	5778.790600
439.328670	5935.268016
439.704700	5965.731708
440.080670	6075.356640
440.456580	6454.552232
440.832429	6467.646629
441.208218	6399.127266
441.583947	6677.590523
441.959616	6876.741305
442.335224	6908.828249
442.710773	7106.128929
443.086261	7351.040785
443.461689	7061.706281
443.837057	7549.740385
444.212365	7862.206224
444.587612	7765.433714
444.962800	8041.918317
445.337927	8018.252620
445.712995	7836.990372
446.088002	8694.818316
446.462949	8570.828617
446.837837	8663.308584
447.212664	8795.598543
447.587431	9256.513760
447.962139	9881.367300
448.336786	11621.079575
448.711374	12231.018861
449.085901	10756.932544
449.460369	10562.979191
449.834776	10249.646274
450.209124	11016.710763
450.583412	11423.224368
450.957640	12321.179897
451.331808	11781.526899
451.705917	11004.793476
452.079965	10512.933136
452.453954	11374.231915
452.827883	11119.295724
453.201752	11447.416866
453.575562	11082.853222
453.949311	11523.046776
454.323001	11546.369675
454.696632	11801.305866
455.070202	12110.371446
455.443713	12399.733677
455.817164	12885.136299
456.190556	12957.413842
456.563888	13344.398017
456.937160	13572.079210
457.310373	12976.340854
457.683526	13094.389554
458.056619	12703.448073
458.429653	12853.009025
458.802628	12377.013197
459.175542	12736.875964
459.548398	13685.449719
459.921194	14033.629612
460.293930	14113.133649
460.666607	15007.313354
461.039224	16010.540778
461.411782	16714.127058
461.784280	16672.855132
462.156719	16725.605766
462.529099	16461.519880
462.901419	15408.369910
463.273680	15222.026178
463.645882	15087.001393
464.018024	14846.608931
464.390106	15064.512806
464.762130	15805.885055
465.134094	16533.376487
465.505999	18479.733220
465.877845	21709.973534
466.249631	24563.470778
466.621358	24316.000536
466.993026	22875.122820
467.364634	22320.787461
467.736184	20898.824154
468.107674	20099.612226
468.479105	20225.041175
468.850477	19692.866728
469.221790	19277.934396
469.593043	18603.551520
469.964238	18061.183860
470.335373	17732.619096
470.706449	18143.425244
471.077467	17683.669492
471.448425	19495.649228
471.819324	23453.486839
472.190164	25588.160915
472.560945	22094.608532
472.931667	19691.331697
473.302330	19041.388334
473.672934	18518.729065
474.043479	18901.675276
474.413965	18715.172748
474.784393	18353.643880
475.154761	19001.492643
475.525070	19038.961019
475.895321	18670.402261
476.265513	19242.772348
476.635645	19829.572738
477.005719	19620.511047
477.375734	19817.794082
477.745691	20288.221956
478.115588	20808.590021
478.485427	21310.373872
478.855207	22357.804653
479.224928	24101.910294
479.594591	26322.105024
479.964194	26413.617089
480.333739	26603.648425
480.703226	26163.777505
481.072653	25835.119480
481.442022	26386.062143
481.811333	27280.987938
482.180584	27226.767808
482.549777	26284.145135
482.918912	25920.259527
483.287988	26030.993513
483.657005	25742.818473
484.025964	25458.394053
484.394864	25379.003442
484.763706	25095.602375
485.132489	24512.209805
485.501213	24679.545866
485.869879	24599.298258
486.238487	24401.720316
486.607036	24555.934253
486.975527	24227.394695
487.343959	24578.695063
487.712333	24519.020404
488.080648	24200.127094
488.448905	24662.166488
488.817104	24410.809516
489.185244	25068.070113
489.553326	25047.315683
489.921350	26011.259916
490.289315	28271.983002
490.657222	30084.935680
491.025070	30566.451572
491.392861	30360.573370
491.760593	29526.973211
492.128267	28625.642630
492.495883	27604.796373
492.863440	26731.300523
493.230939	25855.599167
493.598380	25692.812748
493.965763	25292.615709
494.333088	24846.740774
494.700354	24769.485092
495.067563	24662.647918
495.434713	24407.648713
495.801805	24551.414859
496.168839	24384.272882
496.535815	24188.358520
496.902733	24410.368415
497.269593	24082.990843
497.636395	24267.393730
498.003139	24253.742286
498.369825	24002.181147
498.736453	24198.375293
499.103023	24079.691408
499.469535	24094.648512
499.835989	24294.885663
500.202385	24328.240457
500.568723	23827.235465
500.935003	24097.113636
501.301226	23675.925232
501.667390	24526.816548
502.033497	24772.285453
502.399546	24496.768751
502.765537	24073.742847
503.131470	24457.520848
503.497345	24591.234933
503.863163	23800.648419
504.228923	24417.647841
504.594625	24614.789724
504.960269	24129.094716
505.325856	24625.504697
505.691385	24035.939234
506.056856	24649.167873
506.422270	24608.039619
506.787625	24199.252454
507.152924	24595.744245
507.518164	24616.728048
507.883347	24429.933133
508.248472	24120.857470
508.613540	24902.503498
508.978550	24684.571896
509.343503	24665.629761
509.708398	24946.724499
510.073236	25099.597490
510.438016	25300.863036
510.802738	24987.280582
511.167403	25241.475723
511.532010	24927.356386
511.896561	25714.104061
512.261053	25681.767580
512.625488	25526.353848
512.989866	25408.882360
513.354186	25261.584886
513.718449	25362.972572
514.082655	25744.419040
514.446803	25481.447249
514.810894	25936.081188
515.174927	25414.818319
515.538904	25458.106707
515.902822	25940.151920
516.266684	25695.986154
516.630488	25598.623829
516.994235	25593.479332
517.357925	25876.499791
517.721558	26066.702526
518.085133	26145.059701
518.448651	26067.178915
518.812112	25802.127648
519.175516	25995.934808
519.538863	26149.742933
519.902152	25925.882934
520.265385	26220.082152
520.628560	26021.269127
520.991678	26016.104465
521.354739	26100.032114
521.717743	26155.293243
522.080690	25953.763036
522.443580	26279.078776
522.806413	26296.548894
523.169189	26369.590172
523.531908	26428.304491
523.894569	26032.732711
524.257174	26106.494874
524.619722	26295.162577
524.982213	25989.545146
525.344647	26048.413220
525.707025	26165.219275
526.069345	26181.139239
526.431608	26108.828928
526.793815	26315.443139
527.155964	25763.036021
527.518057	25940.003206
527.880093	25850.260585
528.242072	26091.714211
528.603995	25809.144935
528.965860	25604.227072
529.327669	25632.659180
529.689421	25628.480063
530.051117	25467.039632
530.412755	25646.270295
530.774337	25442.711023
531.135862	25319.535470
531.497331	25514.668453
531.858743	25062.532406
532.220098	25551.453753
532.581396	25221.674071
532.942638	25168.076523
533.303824	25266.225268
533.664953	25293.008919
534.026025	24942.626041
534.387040	25176.568347
534.747999	25240.979170
535.108902	25399.762913
535.469748	24892.827003
535.830537	25081.676188
536.191270	25201.217069
536.551947	25093.522899
536.912567	24736.957047
537.273131	25074.585805
537.633638	24774.720330
537.994089	24991.356355
538.354483	24532.780233
538.714821	25031.045359
539.075103	25072.012296
539.435328	24849.115158
539.795497	24424.496249
540.155609	24818.532998
540.515665	25109.843635
540.875665	24354.809859
541.235609	24640.242510
541.595496	24605.985349
541.955328	24964.499608
542.315102	24869.020154
542.674821	24436.015285
543.034483	24303.594256
543.394090	24472.992149
543.753640	24261.316619
544.113134	24901.454938
544.472571	24495.962166
544.831953	24780.033706
545.191278	24400.412136
545.550548	24332.681714
545.909761	24534.658063
546.268918	24757.774491
546.628019	24731.318516
546.987064	24427.190746
547.346053	24197.838410
547.704986	24315.262007
548.063863	24460.923627
548.422684	24479.873324
548.781449	24008.603577
549.140158	24418.406535
549.498811	23997.933975
549.857408	23736.280446
550.215949	24170.840511
550.574434	23840.344985
550.932864	24067.138935
551.291237	24217.415731
551.649555	24087.462347
552.007817	24133.339367
552.366022	24009.092569
552.724173	24041.582806
553.082267	23991.322502
553.440305	24459.136537
553.798288	23719.074988
554.156215	24246.972016
554.514086	24327.184336
554.871902	23701.201577
555.229661	23991.103212
555.587365	23842.076622
555.945014	23707.772721
556.302606	23961.332677
556.660143	23899.848245
557.017625	24160.576722
557.375050	23680.754657
557.732421	24081.390277
558.089735	23892.488160
558.446994	23966.010868
558.804197	23978.649041
559.161345	23928.910497
559.518437	23694.476678
559.875474	23890.587645
560.232455	24057.956473
560.589381	23892.583942
560.946251	23863.947667
561.303065	24183.861811
561.659825	24272.812971
562.016528	23874.387897
562.373177	23626.622747
562.729770	23968.697803
563.086307	23835.482792
563.442789	24005.896477
563.799216	23836.866589
564.155587	23844.987888
564.511904	23832.846269
564.868164	23765.539303
565.224370	23746.423248
565.580520	23649.151664
565.936615	23786.760040
566.292654	23463.201142
566.648638	23769.093317
567.004567	23591.490946
567.360441	23544.958576
567.716260	23275.619808
568.072023	23605.795220
568.427732	23361.039639
568.783385	23140.234580
569.138982	23371.421896
569.494525	23417.656838
569.850013	23151.524244
570.205445	23260.715637
570.560823	23059.102250
570.916145	22831.937776
571.271412	22999.132684
571.626625	22751.911979
571.981782	22867.351881
572.336884	22672.178569
572.691931	22805.832160
573.046923	22537.975492
573.401860	22420.844282
573.756743	22426.255961
574.111570	22331.278102
574.466342	22259.192123
574.821059	22354.779961
575.175722	22057.442625
575.530330	22053.707130
575.884882	22073.788566
576.239380	21980.466726
576.593823	21880.246067
576.948211	21850.175585
577.302544	21693.950227
577.656823	21564.455587
578.011047	21668.494921
578.365216	21534.647245
578.719330	21408.250394
579.073389	21306.792132
579.427394	21463.894651
579.781344	21227.784648
580.135239	21125.066098
580.489080	21075.577090
580.842866	20849.413285
581.196597	21033.601923
581.550273	21015.751197
581.903895	20908.432593
582.257463	21230.716079
582.610975	20756.721589
582.964434	21074.110115
583.317837	20766.864391
583.671186	20856.319666
584.024481	20830.897127
584.377721	20595.039182
584.730906	20669.973414
585.084037	20674.046666
585.437113	20586.501988
585.790135	20797.479318
586.143103	20250.937582
586.496016	20263.457288
586.848874	20503.834627
587.201679	20443.229875
587.554428	20117.069742
587.907124	20453.899478
588.259765	20226.326669
588.612352	20307.806839
588.964884	19874.116374
589.317362	20048.464679
589.669786	20094.515620
590.022155	20141.330295
590.374470	20332.435396
590.726731	20117.566296
591.078937	19889.948117
591.431090	19976.398865
591.783188	19730.559436
592.135232	19699.692451
592.487222	19799.378747
592.839157	19827.100052
593.191038	19707.415498
593.542866	19596.250494
593.894639	19309.292894
594.246358	19534.226658
594.598022	19437.013047
594.949633	19182.550724
595.301190	19153.493514
595.652692	19318.324121
596.004141	19565.194466
596.355535	18885.115086
596.706876	18910.557789
597.058162	18789.489438
597.409395	19019.391260
597.760573	19100.541234
598.111698	18875.292397
598.462768	18808.113981
598.813785	18767.857847
599.164748	18586.124251
599.515657	18623.360734
599.866511	18424.018388
600.217312	18783.016597
600.568060	18307.537487
600.918753	18617.036607
601.269392	18521.899951
601.619978	18300.069017
601.970510	18506.176592
602.320988	18449.824054
602.671412	18663.891611
603.021783	18566.604903
603.372100	18292.668603
603.722363	18438.448690
604.072572	18380.306543
604.422728	18524.251649
604.772830	18285.860525
605.122878	18229.870950
605.472872	18215.743116
605.822813	18201.471610
606.172701	18175.529832
606.522534	18380.861069
606.872314	18399.684738
607.222041	18226.906752
607.571714	18444.576213
607.921333	18275.190923
608.270899	18345.565431
608.620411	18527.659469
608.969870	18296.535168
609.319276	18298.755797
609.668627	18326.988779
610.017926	18471.667374
610.367171	18574.028003
610.716362	18628.338873
611.065500	18432.653884
611.414585	18577.798786
611.763616	18550.586637
612.112594	18500.260798
612.461518	18468.924986
612.810389	18661.673503
613.159207	18513.657665
613.507971	18434.113298
613.856682	18709.322489
614.205340	18640.931676
614.553945	18783.243449
614.902496	18531.289100
615.250994	18766.365666
615.599439	18705.188743
615.947830	18689.513275
616.296169	18735.564216
616.644454	18698.688175
616.992686	18660.992947
617.340864	18884.275734
617.688990	18642.779259
618.037063	18823.275252
618.385082	18671.939813
618.733048	18953.402556
619.080961	18813.324014
619.428821	18863.778402
619.776628	18739.375328
620.124382	18674.888888
620.472083	18707.802582
620.819731	18721.698522
621.167326	18419.042769
621.514868	18457.453840
621.862357	18226.553871
622.209793	18240.028875
622.557176	18073.675839
622.904506	17903.229387
623.251783	17806.285478
623.599007	17565.898056
623.946179	17516.562804
624.293297	17455.794215
624.640363	17208.651648
624.987376	17225.605048
625.334336	17011.376174
625.681243	16862.243720
626.028097	16881.440434
626.374899	16802.737940
626.721647	16663.080335
627.068343	16497.344840
627.414987	16440.029442
627.761577	16411.430976
628.108115	16452.251719
628.454600	16173.924574
628.801032	16272.232115
629.147412	16205.106631
629.493739	16219.138683
629.840014	16025.533169
630.186236	16122.275432
630.532405	15886.404885
630.878521	16085.598518
631.224585	15988.329454
631.570597	15807.893955
631.916556	15831.118551
632.262462	15807.062165
632.608316	15732.778242
632.954117	15673.406053
633.299866	15660.183106
633.645562	15587.867754
633.991206	15331.041130
634.336797	15216.866557
634.682336	15183.098388
635.027823	15067.976079
635.373257	14944.359425
635.718639	14852.403737
636.063968	14792.361074
636.409245	14550.935176
636.754470	14571.568618
