Dividing Wavelength (nm)	Counts (n)	Blue Motor Position (mm): 36.300000	Red Motor Position (mm): 0.000000	
326.493990	2231.817110
326.888308	2231.817110
327.282561	2231.817110
327.676750	2193.219516
328.070874	2188.203568
328.464933	2194.608354
328.858929	2194.933508
329.252859	2199.621781
329.646726	2210.430015
330.040528	2219.796479
330.434265	2235.635784
330.827938	2254.068763
331.221547	2270.455034
331.615091	2286.130502
332.008571	2304.434931
332.401986	2322.757005
332.795338	2342.604028
333.188625	2363.116483
333.581847	2380.942003
333.975006	2400.582338
334.368100	2421.157808
334.761129	2439.406784
335.154095	2455.374639
335.546996	2482.944710
335.939833	2521.302849
336.332606	2532.627801
336.725315	2551.511964
337.117960	2560.434806
337.510540	2574.744121
337.903056	2584.655030
338.295508	2592.592326
338.687896	2601.830241
339.080220	2607.481374
339.472480	2614.299535
339.864676	2621.919239
340.256807	2625.712707
340.648875	2630.872328
341.040879	2634.068420
341.432818	2635.588327
341.824694	2635.789974
342.216506	2639.931282
342.608253	2640.435397
342.999937	2642.358597
343.391557	2641.582259
343.783113	2637.254429
344.174605	2637.473719
344.566033	2637.095632
344.957397	2636.218472
345.348697	2634.998512
345.739934	2632.553553
346.131106	2632.538429
346.522215	2631.978861
346.913260	2626.778911
347.304241	2625.639610
347.695159	2626.370578
348.086012	2624.580968
348.476802	2620.084259
348.867528	2617.878754
349.258191	2616.804988
349.648789	2614.110492
350.039324	2609.815428
350.429796	2614.788527
350.820203	2613.737446
351.210548	2613.417333
351.600828	2608.267794
351.991045	2609.550768
352.381198	2609.255860
352.771288	2610.798453
353.161314	2608.308123
353.551276	2607.231837
353.941175	2603.801332
354.331010	2607.239399
354.720782	2604.149172
355.110490	2607.138576
355.500135	2606.480705
355.889717	2607.221755
356.279235	2605.719491
356.668689	2605.323760
357.058080	2608.166971
357.447408	2607.463730
357.836672	2607.297372
358.225873	2603.307299
358.615010	2606.611775
359.004084	2610.551437
359.393095	2608.308123
359.782043	2607.811570
360.170927	2610.236365
360.559748	2609.959101
360.948505	2609.903649
361.337199	2613.167796
361.725830	2610.231324
362.114398	2612.323402
362.502903	2611.615120
362.891344	2612.683845
363.279722	2613.124946
363.668037	2613.072014
364.056289	2616.366408
364.444478	2614.178547
364.832603	2617.510750
365.220665	2616.931017
365.608665	2619.219701
365.996601	2620.084259
366.384474	2619.108796
366.772284	2617.992180
367.160031	2618.662653
367.547715	2619.900257
367.935336	2619.111316
368.322893	2618.183744
368.710388	2617.909001
369.097820	2615.327930
369.485189	2617.830863
369.872495	2623.091307
370.259738	2623.108951
370.646918	2621.778087
371.034035	2625.962244
371.421090	2622.556945
371.808081	2622.564507
372.195010	2625.014507
372.581875	2624.119702
372.968678	2624.288581
373.355418	2624.013838
373.742096	2624.782614
374.128710	2627.983747
374.515262	2624.699435
374.901751	2627.101545
375.288177	2626.302522
375.674540	2626.320166
376.060841	2628.946607
376.447079	2630.509365
376.833254	2629.188583
377.219367	2628.210599
377.605417	2629.070116
377.991404	2628.911319
378.377329	2630.373254
378.763191	2630.990795
379.148991	2630.272431
379.534727	2632.503141
379.920402	2631.278141
380.306013	2631.467184
380.691563	2635.651342
381.077049	2634.184366
381.462474	2633.302164
381.847835	2636.092443
382.233134	2636.273924
382.618371	2634.391053
383.003545	2638.292907
383.388657	2637.390540
383.773706	2637.352731
384.158693	2640.180819
384.543618	2641.670480
384.928480	2638.940695
385.313280	2639.038997
385.698017	2641.020171
386.082692	2640.316930
386.467305	2641.514204
386.851856	2643.102167
387.236344	2644.725419
387.620770	2643.087044
388.005133	2641.970428
388.389435	2641.146200
388.773674	2640.354738
389.157851	2648.670122
389.541965	2646.320944
389.926018	2648.249185
390.310008	2648.327323
390.693936	2647.540903
391.077802	2651.072232
391.461606	2651.583909
391.845348	2651.089876
392.229027	2651.256234
392.612645	2651.341933
392.996200	2654.611122
393.379694	2652.559372
393.763125	2654.739671
394.146494	2655.125319
394.529801	2654.026348
394.913047	2657.287974
395.296230	2657.298057
395.679351	2657.507264
396.062410	2661.426762
396.445408	2658.938952
396.828343	2659.405259
397.211217	2664.506907
397.594028	2663.523882
397.976778	2664.413645
398.359466	2667.486228
398.742092	2672.103925
399.124656	2672.819769
399.507158	2679.726150
399.889598	2688.432223
400.271977	2697.067719
400.654294	2710.358721
401.036549	2719.631924
401.418742	2733.946280
401.800874	2758.037954
402.182944	2782.787499
402.564952	2812.696665
402.946898	2845.524659
403.328783	2870.813607
403.710606	2905.403484
404.092367	2981.613128
404.474067	3036.458361
404.855705	3078.030236
405.237282	3125.245683
405.618797	3220.218501
406.000250	3287.238121
406.381642	3394.332393
406.762972	3470.295020
407.144240	3554.754511
407.525447	3626.679174
407.906593	3712.527503
408.287677	3840.033407
408.668700	3897.124475
409.049661	4021.628372
409.430560	4113.546250
409.811399	4141.446516
410.192176	4335.951876
410.572891	4425.134928
410.953545	4613.883290
411.334138	4578.680913
411.714669	4750.725411
412.095139	4735.775870
412.475547	4948.721770
412.855894	5072.376233
413.236180	5263.803967
413.616405	5170.933311
413.996568	5381.512389
414.376670	5481.181042
414.756711	5496.324668
415.136691	5640.405886
415.516609	5853.528227
415.896466	5945.788904
416.276262	6153.711294
416.655997	6216.574483
417.035670	6437.263595
417.415283	6767.292814
417.794834	6875.412961
418.174324	6845.350040
418.553753	6853.637697
418.933121	7180.795979
419.312428	7322.220509
419.691674	7205.167437
420.070859	7677.185795
420.449983	7450.258255
420.829045	7824.909247
421.208047	7681.387597
421.586988	7995.242274
421.965867	8052.933238
422.344686	8211.911066
422.723444	8264.762523
423.102141	7718.707259
423.480777	8450.430740
423.859352	8031.200824
424.237866	8652.782655
424.616319	8552.282212
424.994712	8957.885889
425.373044	8577.046880
425.751314	9034.667703
426.129524	8910.511645
426.507673	9061.161487
426.885762	9230.861849
427.263789	9155.703286
427.641756	9081.474816
428.019662	9197.449081
428.397508	9432.243342
428.775292	9149.248089
429.153016	9523.775572
429.530679	9366.627684
429.908282	9422.944934
430.285824	9138.071851
430.663305	9815.255088
431.040726	9273.867932
431.418086	9273.567984
431.795385	9590.792672
432.172624	9670.631946
432.549802	9599.486142
432.926920	9681.803143
433.303977	9563.245287
433.680974	9773.610116
434.057910	9852.927631
434.434786	9919.904401
434.811601	9776.004664
435.188355	10335.219860
435.565050	10051.526407
435.941683	9988.101130
436.318257	10490.263067
436.694770	10607.845460
437.071222	10679.538230
437.447614	10531.759325
437.823946	10422.273025
438.200218	10571.881869
438.576429	10376.670748
438.952580	10608.805800
439.328670	10675.706953
439.704700	10457.102357
440.080670	10444.514596
440.456580	11011.175577
440.832429	10754.059086
441.208218	10365.295384
441.583947	10700.418689
441.959616	10842.732983
442.335224	10635.380243
442.710773	10792.175251
443.086261	10988.505508
443.461689	10278.151478
443.837057	10922.428584
444.212365	11202.084073
444.587612	10843.000164
444.962800	11084.320198
445.337927	10855.577843
445.712995	10427.266288
446.088002	11518.333297
446.462949	11170.775987
446.837837	11141.345731
447.212664	11141.247428
447.587431	11647.195272
447.962139	12367.644212
448.336786	14627.457370
448.711374	15181.102092
449.085901	13032.257332
449.460369	12637.782003
449.834776	12092.951739
450.209124	12965.212507
450.583412	13378.471176
450.957640	14309.025326
451.331808	13468.125576
451.705917	12455.292234
452.079965	11772.878799
452.453954	12665.299141
452.827883	12286.968107
453.201752	12585.033890
453.575562	12100.021957
453.949311	12519.166173
454.323001	12480.127478
454.696632	12710.346892
455.070202	12998.358093
455.443713	13233.066655
455.817164	13688.315615
456.190556	13688.247559
456.563888	14050.315831
456.937160	14226.753695
457.310373	13564.799784
457.683526	13647.893123
458.056619	13198.532230
458.429653	13339.712264
458.802628	12775.980194
459.175542	13140.899239
459.548398	14095.673613
459.921194	14426.499334
460.293930	14488.409744
460.666607	15378.117946
461.039224	16406.188176
461.411782	17110.780167
461.784280	16987.445817
462.156719	17045.706432
462.529099	16732.592805
462.901419	15658.406099
463.273680	15452.825325
463.645882	15320.028730
464.018024	15054.422937
464.390106	15265.523774
464.762130	15992.054867
465.134094	16760.639264
465.505999	18757.165560
465.877845	22029.617976
466.249631	24839.058056
466.621358	24528.293607
466.993026	23085.026384
467.364634	22525.808667
467.736184	21069.724311
468.107674	20263.053996
468.479105	20401.645397
468.850477	19853.561069
469.221790	19439.543706
469.593043	18757.788143
469.964238	18198.015899
470.335373	17856.949074
470.706449	18308.371798
471.077467	17857.370010
471.448425	19702.949036
471.819324	23737.142484
472.190164	25747.141263
472.560945	22175.705574
472.931667	19804.596342
473.302330	19184.254634
473.672934	18716.899344
474.043479	19035.311223
474.413965	18845.511781
474.784393	18463.886353
475.154761	19160.011726
475.525070	19152.790273
475.895321	18812.270413
476.265513	19403.587677
476.635645	19988.933694
477.005719	19765.492111
477.375734	19957.255083
477.745691	20438.408012
478.115588	20974.915330
478.485427	21491.336172
478.855207	22550.913613
479.224928	24321.676875
479.594591	26551.248151
479.964194	26573.794712
480.333739	26780.582842
480.703226	26351.981422
481.072653	26024.283737
481.442022	26609.165968
481.811333	27529.489096
482.180584	27435.658100
482.549777	26484.057132
482.918912	26131.362886
483.287988	26249.875371
483.657005	25921.824805
484.025964	25666.298799
484.394864	25575.222793
484.763706	25276.751197
485.132489	24701.391706
485.501213	24878.772266
485.869879	24784.238028
486.238487	24608.836122
486.607036	24754.170066
486.975527	24462.960253
487.343959	24778.133191
487.712333	24722.599840
488.080648	24395.202104
488.448905	24875.067018
488.817104	24620.340035
489.185244	25298.118128
489.553326	25278.949141
489.921350	26277.014423
490.289315	28563.170131
490.657222	30334.208135
491.025070	30822.564873
491.392861	30601.812746
491.760593	29749.499824
492.128267	28848.635549
492.495883	27807.523854
492.863440	26936.102439
493.230939	26064.333183
493.598380	25904.412660
493.965763	25500.160013
494.333088	25043.363418
494.700354	24994.701160
495.067563	24868.531162
495.434713	24619.372133
495.801805	24778.140753
496.168839	24583.448871
496.535815	24423.742596
496.902733	24642.753005
497.269593	24312.668333
497.636395	24498.172712
498.003139	24446.521050
498.369825	24188.043448
498.736453	24396.538010
499.103023	24272.044195
499.469535	24288.455671
499.835989	24492.919830
500.202385	24528.298648
500.568723	24030.628378
500.935003	24265.236117
501.301226	23895.081834
501.667390	24726.935233
502.033497	24967.292407
502.399546	24688.446023
502.765537	24262.660087
503.131470	24641.918694
503.497345	24772.729074
503.863163	23994.503470
504.228923	24587.224695
504.594625	24803.795185
504.960269	24338.970553
505.325856	24830.404915
505.691385	24225.393357
506.056856	24838.591749
506.422270	24808.730474
506.787625	24367.193453
507.152924	24780.187461
507.518164	24812.697863
507.883347	24630.195490
508.248472	24298.444718
508.613540	25085.731796
508.978550	24878.638675
509.343503	24879.311669
509.708398	25134.076461
510.073236	25278.886126
510.438016	25492.673899
510.802738	25172.442163
511.167403	25415.171200
511.532010	25129.194104
511.896561	25906.396354
512.261053	25869.142227
512.625488	25699.139396
512.989866	25599.090136
513.354186	25431.683499
513.718449	25538.132504
514.082655	25929.187411
514.446803	25659.042058
514.810894	26119.319569
515.174927	25609.946261
515.538904	25646.502188
515.902822	26122.054395
516.266684	25904.301755
516.630488	25793.446782
516.994235	25763.759427
517.357925	26084.583498
517.721558	26260.499603
518.085133	26362.159512
518.448651	26265.480263
518.812112	25991.193603
519.175516	26210.534207
519.538863	26370.258125
519.902152	26149.753015
520.265385	26432.176097
520.628560	26215.792130
520.991678	26215.424126
521.354739	26288.480528
521.717743	26352.029313
522.080690	26141.193136
522.443580	26477.236451
522.806413	26464.714225
523.169189	26563.039410
523.531908	26614.955733
523.894569	26219.174744
524.257174	26315.037326
524.619722	26479.078993
524.982213	26166.840006
525.344647	26214.756173
525.707025	26359.265889
526.069345	26340.028846
526.431608	26301.438813
526.793815	26494.240263
527.155964	25955.703880
527.518057	26128.529757
527.880093	26048.645113
528.242072	26277.591635
528.603995	25989.537584
528.965860	25782.356243
529.327669	25831.237791
529.689421	25826.431051
530.051117	25657.290257
530.412755	25830.650497
530.774337	25615.741067
531.135862	25501.521124
531.497331	25699.978748
531.858743	25262.401553
532.220098	25740.668421
532.581396	25424.769557
532.942638	25345.598236
533.303824	25448.331910
533.664953	25450.895337
534.026025	25134.734332
534.387040	25348.106210
534.747999	25421.926346
535.108902	25578.761683
535.469748	25074.001031
535.830537	25253.617343
536.191270	25390.300667
536.551947	25240.086886
536.912567	24880.917277
537.273131	25254.890234
537.633638	24949.981085
537.994089	25168.792367
538.354483	24688.806466
538.714821	25190.827251
539.075103	25233.588838
539.435328	25014.835529
539.795497	24581.321504
540.155609	24971.562264
540.515665	25267.848520
540.875665	24492.917309
541.235609	24818.956455
541.595496	24769.323775
541.955328	25133.879856
542.315102	25052.717279
542.674821	24580.492234
543.034483	24443.120792
543.394090	24616.511278
543.753640	24428.645118
544.113134	25053.115531
544.472571	24646.871627
544.831953	24941.060763
545.191278	24564.801643
545.550548	24493.023174
545.909761	24678.272975
546.268918	24919.161991
546.628019	24893.923454
546.987064	24576.403858
547.346053	24330.098123
547.704986	24436.514360
548.063863	24610.673622
548.422684	24617.373316
548.781449	24143.464525
549.140158	24546.144332
549.498811	24125.278562
549.857408	23880.011304
550.215949	24290.782164
550.574434	23972.269461
550.932864	24187.874570
551.291237	24348.072357
551.649555	24217.040165
552.007817	24262.781075
552.366022	24111.886737
552.724173	24140.933866
553.082267	24107.274081
553.440305	24584.091618
553.798288	23842.401776
554.156215	24352.697615
554.514086	24460.689213
554.871902	23846.298588
555.229661	24117.590803
555.587365	23972.007321
555.945014	23848.120965
556.302606	24084.208282
556.660143	24044.854514
557.017625	24311.713034
557.375050	23830.635723
557.732421	24211.489855
558.089735	24022.975907
558.446994	24081.591923
558.804197	24112.408497
559.161345	24036.839080
559.518437	23802.339726
559.875474	23995.912472
560.232455	24175.148177
560.589381	23984.625329
560.946251	23975.059739
561.303065	24285.219250
561.659825	24394.214038
562.016528	23976.735923
562.373177	23728.665783
562.729770	24082.806841
563.086307	23935.461476
563.442789	24107.475727
563.799216	23941.828453
564.155587	23958.814621
564.511904	23936.938534
564.868164	23877.886458
565.224370	23856.249826
565.580520	23771.797896
565.936615	23899.938985
566.292654	23573.078132
566.648638	23858.145299
567.004567	23682.438403
567.360441	23631.253047
567.716260	23353.084698
568.072023	23680.603423
568.427732	23462.182829
568.783385	23220.308268
569.138982	23465.061328
569.494525	23502.665815
569.850013	23255.379575
570.205445	23351.143854
570.560823	23179.139685
570.916145	22938.487603
571.271412	23115.855560
571.626625	22860.430377
571.981782	22973.599240
572.336884	22784.558491
572.691931	22910.819230
573.046923	22661.859327
573.401860	22535.528012
573.756743	22554.815466
574.111570	22455.915590
574.466342	22382.352552
574.821059	22474.124237
575.175722	22173.031242
575.530330	22146.063589
575.884882	22160.756032
576.239380	22074.138927
576.593823	21960.730609
576.948211	21937.818565
577.302544	21793.777676
577.656823	21655.319865
578.011047	21762.784662
578.365216	21629.292388
578.719330	21503.742451
579.073389	21413.175602
579.427394	21548.586035
579.781344	21317.875109
580.135239	21203.660207
580.489080	21162.161428
580.842866	20938.462747
581.196597	21129.943414
581.550273	21104.914085
581.903895	20986.446970
582.257463	21300.846091
582.610975	20830.539205
582.964434	21149.803040
583.317837	20836.283600
583.671186	20937.525092
584.024481	20899.434134
584.377721	20673.661018
584.730906	20744.330433
585.084037	20759.554718
585.437113	20674.243271
585.790135	20868.299968
586.143103	20336.919503
586.496016	20347.120277
586.848874	20589.524160
587.201679	20515.663694
587.554428	20191.661175
587.907124	20525.380518
588.259765	20297.706887
588.612352	20367.274810
588.964884	19938.670869
589.317362	20114.400451
589.669786	20169.270890
590.022155	20200.702484
590.374470	20404.322250
590.726731	20177.326654
591.078937	19963.382605
591.431090	20040.660973
591.783188	19805.418050
592.135232	19778.281518
592.487222	19879.510408
592.839157	19893.187059
593.191038	19769.023439
593.542866	19654.821140
593.894639	19369.937975
594.246358	19595.456512
594.598022	19482.839656
594.949633	19242.578264
595.301190	19209.946875
595.652692	19387.768536
596.004141	19612.974522
596.355535	18938.435370
596.706876	18964.296489
597.058162	18852.826495
597.409395	19081.888964
597.760573	19149.561414
598.111698	18915.740095
598.462768	18873.414568
598.813785	18828.505449
599.164748	18635.963619
599.515657	18692.384212
599.866511	18480.965782
600.217312	18831.018464
600.568060	18356.250156
600.918753	18664.204163
601.269392	18571.439370
601.619978	18351.209002
601.970510	18551.143685
602.320988	18493.798039
602.671412	18712.556390
603.021783	18629.551271
603.372100	18336.577053
603.722363	18489.266042
604.072572	18429.969470
604.422728	18566.272187
604.772830	18327.555909
605.122878	18279.307025
605.472872	18268.060211
605.822813	18257.430938
606.172701	18238.040140
606.522534	18423.804138
606.872314	18450.802038
607.222041	18288.396226
607.571714	18496.384151
607.921333	18321.057861
608.270899	18397.857320
608.620411	18572.082117
608.969870	18347.163477
609.319276	18344.274895
609.668627	18372.588536
610.017926	18509.229011
610.367171	18621.651783
610.716362	18672.784206
611.065500	18481.124578
611.414585	18630.423391
611.763616	18626.345097
612.112594	18558.690292
612.461518	18524.949849
612.810389	18711.984219
613.159207	18572.555986
613.507971	18482.490731
613.856682	18744.739116
614.205340	18663.654677
614.553945	18821.236105
614.902496	18568.823011
615.250994	18791.064799
615.599439	18724.992916
615.947830	18716.294405
616.296169	18788.093039
616.644454	18738.636799
616.992686	18724.619871
617.340864	18937.437222
617.688990	18690.609726
618.037063	18865.159678
618.385082	18718.141988
618.733048	18987.773143
619.080961	18882.372698
619.428821	18896.820645
619.776628	18779.792779
620.124382	18705.738229
620.472083	18762.357948
620.819731	18770.451521
621.167326	18463.853585
621.514868	18512.198251
621.862357	18280.685781
622.209793	18280.700904
622.557176	18114.620091
622.904506	17954.699567
623.251783	17870.156897
623.599007	17621.053321
623.946179	17573.217812
624.293297	17512.633225
624.640363	17247.937360
624.987376	17255.088237
625.334336	17067.204433
625.681243	16914.848161
626.028097	16930.775686
626.374899	16847.720156
626.721647	16717.481946
627.068343	16545.318981
627.414987	16476.171994
627.761577	16455.064683
628.108115	16481.563508
628.454600	16207.874225
628.801032	16308.414997
629.147412	16249.441059
629.493739	16260.355157
629.840014	16069.920529
630.186236	16180.054617
630.532405	15928.745536
630.878521	16137.098945
631.224585	16036.321239
631.570597	15851.396592
631.916556	15883.415481
632.262462	15862.172058
632.608316	15779.676096
632.954117	15712.447269
633.299866	15716.003803
633.645562	15630.273940
633.991206	15383.965684
634.336797	15259.340799
634.682336	15222.989039
635.027823	15111.393016
635.373257	14986.448018
635.718639	14892.032248
636.063968	14840.468806
