Dividing Wavelength (nm)	Counts (n)	Blue Motor Position (mm): 0.400000	Red Motor Position (mm): 0.000000	
326.493990	2167.277738
326.888308	2167.277738
327.282561	2167.277738
327.676750	2126.787190
328.070874	2123.366768
328.464933	2124.291819
328.858929	2127.069495
329.252859	2133.436472
329.646726	2141.484674
330.040528	2149.984060
330.434265	2166.206493
330.827938	2184.619307
331.221547	2202.260825
331.615091	2219.194061
332.008571	2237.153172
332.401986	2254.872827
332.795338	2274.140117
333.188625	2292.096707
333.581847	2310.975828
333.975006	2329.817141
334.368100	2344.572598
334.761129	2366.814169
335.154095	2383.926366
335.546996	2399.170815
335.939833	2415.040367
336.332606	2426.277099
336.725315	2445.093206
337.117960	2458.094342
337.510540	2470.397278
337.903056	2478.823566
338.295508	2487.575009
338.687896	2495.323263
339.080220	2502.748883
339.472480	2508.420181
339.864676	2515.288753
340.256807	2520.823940
340.648875	2524.135978
341.040879	2526.558252
341.432818	2529.789632
341.824694	2535.201310
342.216506	2534.198121
342.608253	2536.811959
342.999937	2536.680889
343.391557	2536.408667
343.783113	2534.891279
344.174605	2531.906916
344.566033	2531.659900
344.957397	2532.292565
345.348697	2528.524302
345.739934	2527.495907
346.131106	2527.750485
346.522215	2524.942562
346.913260	2524.882068
347.304241	2521.527181
347.695159	2521.302849
348.086012	2519.094824
348.476802	2514.651047
348.867528	2510.693741
349.258191	2507.885818
349.648789	2509.262053
350.039324	2504.861126
350.429796	2510.933196
350.820203	2508.889008
351.210548	2505.357680
351.600828	2505.087978
351.991045	2505.375324
352.381198	2505.024963
352.771288	2504.929182
353.161314	2500.437513
353.551276	2502.965652
353.941175	2502.343070
354.331010	2500.397184
354.720782	2499.464571
355.110490	2499.275527
355.500135	2500.586228
355.889717	2499.290651
356.279235	2499.807369
356.668689	2500.089674
357.058080	2503.028667
357.447408	2500.046824
357.836672	2503.560508
358.225873	2499.938439
358.615010	2503.089160
359.004084	2501.922133
359.393095	2500.513131
359.782043	2506.887670
360.170927	2504.609068
360.559748	2506.386075
360.948505	2505.387927
361.337199	2504.760303
361.725830	2507.583349
362.114398	2507.860613
362.502903	2504.117556
362.891344	2508.100067
363.279722	2508.999913
363.668037	2510.557630
364.056289	2509.539317
364.444478	2512.821108
364.832603	2509.332629
365.220665	2512.468227
365.608665	2510.229955
365.996601	2512.382528
366.384474	2512.498474
366.772284	2512.032167
367.160031	2510.441683
367.547715	2512.848834
367.935336	2514.073835
368.322893	2508.783144
368.710388	2510.751714
369.097820	2512.425377
369.485189	2511.248268
369.872495	2515.268588
370.259738	2516.516274
370.646918	2514.454442
371.034035	2514.469565
371.421090	2515.785306
371.808081	2519.518281
372.195010	2515.729854
372.581875	2516.470903
372.968678	2517.143897
373.355418	2518.394103
373.742096	2516.105420
374.128710	2519.351923
374.515262	2517.285050
374.901751	2518.983918
375.288177	2518.532735
375.674540	2518.505009
376.060841	2517.801768
376.447079	2515.752539
376.833254	2519.735050
377.219367	2518.197498
377.605417	2520.294618
377.991404	2520.108096
378.377329	2525.325690
378.763191	2518.951151
379.148991	2519.750174
379.534727	2520.791172
379.920402	2519.286388
380.306013	2520.372756
380.691563	2522.442150
381.077049	2519.417458
381.462474	2522.079187
381.847835	2522.343848
382.233134	2521.658251
382.618371	2519.966943
383.003545	2521.842253
383.388657	2523.485669
383.773706	2522.419465
384.158693	2523.909126
384.543618	2523.407531
384.928480	2521.375946
385.313280	2524.821575
385.698017	2523.760412
386.082692	2521.045750
386.467305	2524.181348
386.851856	2523.173117
387.236344	2523.568848
387.620770	2523.092459
388.005133	2522.389218
388.389435	2522.580782
388.773674	2520.221522
389.157851	2525.408869
389.541965	2527.422810
389.926018	2526.628828
390.310008	2526.906092
390.693936	2526.795186
391.077802	2526.021369
391.461606	2527.485824
391.845348	2524.355268
392.229027	2529.658562
392.612645	2526.943900
392.996200	2528.826771
393.379694	2527.654703
393.763125	2528.093283
394.146494	2529.494724
394.529801	2528.221833
394.913047	2527.664785
395.296230	2528.489014
395.679351	2526.850639
396.062410	2527.054806
396.445408	2527.919364
396.828343	2528.370547
397.211217	2527.742923
397.594028	2529.645959
397.976778	2529.638397
398.359466	2530.936494
398.742092	2528.925074
399.124656	2532.098480
399.507158	2529.663603
399.889598	2532.106042
400.271977	2531.128058
400.654294	2528.483973
401.036549	2531.085208
401.418742	2530.729807
401.800874	2533.076464
402.182944	2532.675692
402.564952	2532.073274
402.946898	2533.676361
403.328783	2530.679395
403.710606	2532.814324
404.092367	2534.067051
404.474067	2532.484128
404.855705	2533.512524
405.237282	2533.414221
405.618797	2530.913809
406.000250	2532.673172
406.381642	2533.358769
406.762972	2531.286854
407.144240	2528.335259
407.525447	2529.308202
407.906593	2529.104035
408.287677	2533.477236
408.668700	2532.758871
409.049661	2536.688451
409.430560	2534.140147
409.811399	2535.518903
410.192176	2535.271887
410.572891	2534.835827
410.953545	2538.717515
411.334138	2538.261291
411.714669	2534.641742
412.095139	2536.280117
412.475547	2535.249201
412.855894	2536.038142
413.236180	2538.193235
413.616405	2535.435724
413.996568	2534.719880
414.376670	2537.442103
414.756711	2538.548637
415.136691	2538.296579
415.516609	2538.898997
415.896466	2539.700540
416.276262	2538.150385
416.655997	2540.136600
417.035670	2536.585107
417.415283	2538.157947
417.794834	2539.735828
418.174324	2537.311033
418.553753	2539.773637
418.933121	2542.037115
419.312428	2536.222144
419.691674	2537.893287
420.070859	2537.074099
420.449983	2539.413194
420.829045	2538.601569
421.208047	2539.698020
421.586988	2538.036959
421.965867	2539.834131
422.344686	2538.228523
422.723444	2540.756662
423.102141	2539.191384
423.480777	2538.904038
423.859352	2542.410160
424.237866	2539.488812
424.616319	2540.857485
424.994712	2541.999306
425.373044	2541.215407
425.751314	2537.089222
426.129524	2535.087884
426.507673	2539.824048
426.885762	2535.118131
427.263789	2541.938813
427.641756	2541.699358
428.019662	2540.469316
428.397508	2543.798998
428.775292	2541.139790
429.153016	2541.348998
429.530679	2540.980993
429.908282	2542.546272
430.285824	2541.107022
430.663305	2542.644574
431.040726	2542.931920
431.418086	2542.866385
431.795385	2543.146169
432.172624	2543.327650
432.549802	2543.080634
432.926920	2543.899821
433.303977	2541.207845
433.680974	2541.757331
434.057910	2544.867723
434.434786	2543.856972
434.811601	2542.505942
435.188355	2544.078782
435.565050	2547.093392
435.941683	2542.319420
436.318257	2545.291180
436.694770	2541.583411
437.071222	2544.265305
437.447614	2544.172044
437.823946	2544.441745
438.200218	2541.830428
438.576429	2542.153062
438.952580	2544.507280
439.328670	2546.430481
439.704700	2541.699358
440.080670	2545.598690
440.456580	2545.991900
440.832429	2544.630789
441.208218	2545.558361
441.583947	2547.811757
441.959616	2545.260933
442.335224	2542.914276
442.710773	2546.763197
443.086261	2542.790767
443.461689	2544.277908
443.837057	2547.582384
444.212365	2546.448125
444.587612	2544.126673
444.962800	2542.984852
445.337927	2543.468803
445.712995	2541.543082
446.088002	2546.206149
446.462949	2543.110881
446.837837	2546.596839
447.212664	2544.920655
447.587431	2545.644061
447.962139	2545.737322
448.336786	2547.569781
448.711374	2543.947712
449.085901	2545.815460
449.460369	2548.217570
449.834776	2548.288146
450.209124	2544.088865
450.583412	2547.116077
450.957640	2548.872920
451.331808	2546.105326
451.705917	2548.225131
452.079965	2547.327806
452.453954	2546.853938
452.827883	2547.789072
453.201752	2548.086500
453.575562	2547.557178
453.949311	2548.043650
454.323001	2548.716644
454.696632	2547.355532
455.070202	2551.229659
455.443713	2549.009031
455.817164	2548.900646
456.190556	2545.845707
456.563888	2548.920811
456.937160	2549.450132
457.310373	2547.085831
457.683526	2548.976263
458.056619	2549.800492
458.429653	2550.362581
458.802628	2548.825029
459.175542	2546.790923
459.548398	2548.071376
459.921194	2552.658826
460.293930	2550.458362
460.666607	2548.351160
461.039224	2550.720502
461.411782	2550.065153
461.784280	2549.051881
462.156719	2549.394679
462.529099	2551.635472
462.901419	2549.150183
463.273680	2547.058104
463.645882	2544.507280
464.018024	2547.675646
464.390106	2545.576005
464.762130	2548.275543
465.134094	2551.953065
465.505999	2548.141952
465.877845	2552.467262
466.249631	2550.181099
466.621358	2549.326623
466.993026	2551.146480
467.364634	2555.471790
467.736184	2550.145811
468.107674	2553.115051
468.479105	2550.155893
468.850477	2550.266799
469.221790	2548.618341
469.593043	2550.833928
469.964238	2551.781665
470.335373	2549.684545
470.706449	2550.231511
471.077467	2549.868548
471.448425	2550.725544
471.819324	2552.038764
472.190164	2554.208981
472.560945	2553.636810
472.931667	2548.678835
473.302330	2552.202602
473.672934	2551.973229
474.043479	2549.157745
474.413965	2555.686039
474.784393	2551.993394
475.154761	2549.543393
475.525070	2551.143959
475.895321	2552.484906
476.265513	2551.320400
476.635645	2552.802499
477.005719	2553.304094
477.375734	2552.043805
477.745691	2551.179247
478.115588	2551.834598
478.485427	2552.363919
478.855207	2551.527087
479.224928	2553.099927
479.594591	2552.298384
479.964194	2555.312994
480.333739	2551.242262
480.703226	2553.004145
481.072653	2552.772252
481.442022	2552.633620
481.811333	2554.589588
482.180584	2548.625903
482.549777	2549.992056
482.918912	2545.757487
483.287988	2554.022458
483.657005	2554.191337
484.025964	2552.318548
484.394864	2554.980277
484.763706	2554.226625
485.132489	2554.123281
485.501213	2553.321738
485.869879	2553.838456
486.238487	2552.011038
486.607036	2554.551779
486.975527	2552.805020
487.343959	2554.191337
487.712333	2553.591440
488.080648	2551.690925
488.448905	2554.592109
488.817104	2556.026317
489.185244	2554.181255
489.553326	2552.724361
489.921350	2556.331307
490.289315	2552.278219
490.657222	2555.345761
491.025070	2552.507592
491.392861	2552.333672
491.760593	2552.179917
492.128267	2554.239228
492.495883	2554.589588
492.863440	2553.611604
493.230939	2555.013045
493.598380	2555.718807
493.965763	2556.969013
494.333088	2557.906667
494.700354	2553.082283
495.067563	2556.767367
495.434713	2554.904660
495.801805	2554.884496
496.168839	2552.870555
496.535815	2554.335010
496.902733	2554.105637
497.269593	2555.018086
497.636395	2552.948693
498.003139	2555.378529
498.369825	2552.278219
498.736453	2554.156049
499.103023	2555.696121
499.469535	2553.117571
499.835989	2554.589588
500.202385	2552.852911
500.568723	2551.143959
500.935003	2550.778476
501.301226	2549.480379
501.667390	2554.347613
502.033497	2557.024465
502.399546	2555.149156
502.765537	2554.629917
503.131470	2556.938766
503.497345	2555.983467
503.863163	2554.289639
504.228923	2556.782490
504.594625	2555.108827
504.960269	2556.956410
505.325856	2559.524878
505.691385	2554.665205
506.056856	2555.922973
506.422270	2553.306614
506.787625	2553.770401
507.152924	2555.597819
507.518164	2556.593447
507.883347	2551.408620
508.248472	2554.428271
508.613540	2556.699311
508.978550	2554.418189
509.343503	2554.745864
509.708398	2556.296019
510.073236	2556.696790
510.438016	2558.836760
510.802738	2556.878272
511.167403	2553.742674
511.532010	2556.260731
511.896561	2557.258879
512.261053	2555.602860
512.625488	2556.311142
512.989866	2557.402552
513.354186	2555.829712
513.718449	2555.930535
514.082655	2556.343910
514.446803	2557.082439
514.810894	2556.018755
515.174927	2557.102603
515.538904	2558.521688
515.902822	2556.744681
516.266684	2557.432799
516.630488	2558.113355
516.994235	2556.323745
517.357925	2554.876934
517.721558	2557.770556
518.085133	2556.046482
518.448651	2555.292829
518.812112	2553.664536
519.175516	2554.826522
519.538863	2551.196892
519.902152	2556.840463
520.265385	2557.946997
520.628560	2557.205947
520.991678	2555.640669
521.354739	2555.260062
521.717743	2556.563200
522.080690	2556.404403
522.443580	2560.303736
522.806413	2556.492624
523.169189	2556.497665
523.531908	2555.887685
523.894569	2556.913560
524.257174	2557.853735
524.619722	2558.602347
524.982213	2556.588406
525.344647	2556.006152
525.707025	2561.390105
526.069345	2558.511606
526.431608	2560.122254
526.793815	2556.840463
527.155964	2557.886503
527.518057	2558.050340
527.880093	2556.056564
528.242072	2556.328786
528.603995	2556.958930
528.965860	2557.795762
529.327669	2557.160577
529.689421	2556.759805
530.051117	2556.527912
530.412755	2557.742830
530.774337	2558.930022
531.135862	2557.026986
531.497331	2556.147305
531.858743	2559.093859
532.220098	2557.286605
532.581396	2557.924311
532.942638	2556.749722
533.303824	2558.347768
533.664953	2556.933725
534.026025	2556.200237
534.387040	2558.509085
534.747999	2557.571431
535.108902	2557.271482
535.469748	2556.202757
535.830537	2558.554456
536.191270	2557.463046
536.551947	2554.007335
536.912567	2554.917263
537.273131	2553.535987
537.633638	2551.658157
537.994089	2559.199723
538.354483	2556.699311
538.714821	2558.493962
539.075103	2556.248128
539.435328	2556.976574
539.795497	2558.347768
540.155609	2558.932542
540.515665	2557.813406
540.875665	2560.865825
541.235609	2559.668551
541.595496	2556.759805
541.955328	2560.276010
542.315102	2558.496482
542.674821	2556.527912
543.034483	2559.305587
543.394090	2557.773077
543.753640	2559.766853
544.113134	2559.202244
544.472571	2557.536143
544.831953	2560.722152
545.191278	2560.754919
545.550548	2560.462532
545.909761	2559.023283
546.268918	2560.439847
546.628019	2559.524878
546.987064	2558.488921
547.346053	2558.683005
547.704986	2557.039589
548.063863	2559.673592
548.422684	2558.526729
548.781449	2555.630586
549.140158	2560.139898
549.498811	2557.387428
549.857408	2560.482697
550.215949	2556.553117
550.574434	2557.125288
550.932864	2559.310629
551.291237	2560.500341
551.649555	2557.677295
552.007817	2561.811041
552.366022	2558.269630
552.724173	2560.263407
553.082267	2554.957592
553.440305	2556.094373
553.798288	2559.232491
554.156215	2559.703839
554.514086	2553.752757
554.871902	2556.364074
555.229661	2557.021945
555.587365	2550.465924
555.945014	2556.984136
556.302606	2556.490103
556.660143	2558.307439
557.017625	2556.618653
557.375050	2558.526729
557.732421	2558.806513
558.089735	2556.704352
558.446994	2559.066133
558.804197	2559.310629
559.161345	2557.911708
559.518437	2559.315670
559.875474	2557.624363
560.232455	2558.872048
560.589381	2560.165104
560.946251	2555.040771
561.303065	2558.151163
561.659825	2561.594271
562.016528	2557.223591
562.373177	2558.831719
562.729770	2557.679815
563.086307	2560.452450
563.442789	2556.888354
563.799216	2558.284754
564.155587	2558.499003
564.511904	2559.124106
564.868164	2557.480690
565.224370	2560.064281
565.580520	2558.672923
565.936615	2557.523540
566.292654	2558.516647
566.648638	2556.359033
567.004567	2558.665361
567.360441	2558.327604
567.716260	2558.942624
568.072023	2558.786349
568.427732	2559.411452
568.783385	2558.887172
569.138982	2557.689898
569.494525	2556.306101
569.850013	2556.197716
570.205445	2558.919939
570.560823	2555.922973
570.916145	2559.547563
571.271412	2556.452294
571.626625	2560.160063
571.981782	2558.776266
572.336884	2553.593960
572.691931	2553.130174
573.046923	2559.179559
573.401860	2554.405586
573.756743	2558.443550
574.111570	2560.023952
574.466342	2559.479507
574.821059	2561.427913
575.175722	2557.873900
575.530330	2557.510937
575.884882	2558.935063
576.239380	2559.726524
576.593823	2557.609239
576.948211	2560.757440
577.302544	2561.506051
577.656823	2559.769374
578.011047	2560.054199
578.365216	2560.946483
578.719330	2557.253838
579.073389	2559.280382
579.427394	2561.760629
579.781344	2558.481359
580.135239	2556.424568
580.489080	2558.115875
580.842866	2560.069322
581.196597	2563.194838
581.550273	2557.291647
581.903895	2558.216698
582.257463	2560.490259
582.610975	2558.425906
582.964434	2556.956410
583.317837	2558.604867
583.671186	2561.135526
584.024481	2557.899106
584.377721	2559.708880
584.730906	2556.018755
585.084037	2559.101421
585.437113	2558.614949
585.790135	2558.493962
586.143103	2558.299877
586.496016	2559.857594
586.848874	2560.550753
587.201679	2561.901782
587.554428	2560.903633
587.907124	2558.060423
588.259765	2559.580330
588.612352	2557.427758
588.964884	2557.009342
589.317362	2558.050340
589.669786	2560.142419
590.022155	2556.916081
590.374470	2556.752243
590.726731	2554.055226
591.078937	2552.225287
591.431090	2559.078736
591.783188	2558.335165
592.135232	2560.825495
592.487222	2560.462532
592.839157	2559.340876
593.191038	2558.234342
593.542866	2559.958417
593.894639	2558.657799
594.246358	2558.690567
594.598022	2558.889692
594.949633	2560.767522
595.301190	2558.504044
595.652692	2561.238870
596.004141	2557.137891
596.355535	2559.340876
596.706876	2558.877089
597.058162	2558.231822
597.409395	2560.001267
597.760573	2560.933880
598.111698	2560.092008
598.462768	2557.546225
598.813785	2558.650238
599.164748	2561.740465
599.515657	2558.683005
599.866511	2559.701318
600.217312	2558.599826
600.568060	2559.149312
600.918753	2559.968499
601.269392	2561.944632
601.619978	2558.952707
601.970510	2558.655279
602.320988	2561.521175
602.671412	2559.325752
603.021783	2558.859445
603.372100	2558.607388
603.722363	2557.896585
604.072572	2560.573438
604.422728	2560.454971
604.772830	2560.124775
605.122878	2556.943807
605.472872	2560.749878
605.822813	2559.298026
606.172701	2556.822819
606.522534	2560.044117
606.872314	2563.411607
607.222041	2558.695608
607.571714	2559.023283
607.921333	2556.278375
608.270899	2557.541184
608.620411	2556.197716
608.969870	2561.090156
609.319276	2562.201730
609.668627	2567.855384
610.017926	2572.102557
610.367171	2572.838565
610.716362	2573.582135
611.065500	2571.583318
611.414585	2569.609706
611.763616	2564.717266
612.112594	2566.307750
612.461518	2564.339180
612.810389	2563.275496
613.159207	2563.298181
613.507971	2561.329611
613.856682	2564.465208
614.205340	2563.179714
614.553945	2562.947821
614.902496	2563.761967
615.250994	2563.872873
615.599439	2561.077553
615.947830	2558.446071
616.296169	2561.740465
616.644454	2559.108983
616.992686	2559.532439
617.340864	2556.890875
617.688990	2560.767522
618.037063	2561.526216
618.385082	2563.048644
618.733048	2561.062430
619.080961	2560.218036
619.428821	2561.942111
619.776628	2558.383056
620.124382	2560.893551
620.472083	2558.844322
620.819731	2563.129303
621.167326	2558.965310
621.514868	2559.585372
621.862357	2559.668551
622.209793	2558.425906
622.557176	2562.012687
622.904506	2559.355999
623.251783	2558.415824
623.599007	2560.737275
623.946179	2557.473128
624.293297	2558.544373
624.640363	2558.917419
624.987376	2557.664692
625.334336	2555.870041
625.681243	2558.236863
626.028097	2556.966492
626.374899	2559.628221
626.721647	2557.768036
627.068343	2559.688715
627.414987	2559.315670
627.761577	2559.555125
628.108115	2560.152501
628.454600	2558.519168
628.801032	2557.757953
629.147412	2561.773232
629.493739	2560.933880
629.840014	2558.965310
630.186236	2559.325752
630.532405	2556.772408
630.878521	2560.825495
631.224585	2560.825495
631.570597	2559.794579
631.916556	2559.108983
632.262462	2558.067984
632.608316	2559.645865
632.954117	2558.352809
633.299866	2558.501523
633.645562	2559.824826
633.991206	2556.502706
634.336797	2558.723334
634.682336	2555.285267
635.027823	2556.767367
635.373257	2558.826678
635.718639	2560.512944
636.063968	2561.017059
636.409245	2560.777604
636.754470	2559.880279
637.099642	2561.621998
637.444762	2559.855073
637.789829	2561.211144
638.134845	2560.253324
638.479808	2555.738971
638.824719	2560.238201
639.169577	2561.710218
639.514383	2559.134188
639.859137	2559.020762
640.203839	2559.154353
640.548489	2559.076215
640.893086	2559.101421
641.237632	2559.487069
641.582125	2560.739796
641.926566	2558.824157
642.270955	2557.147974
642.615292	2552.479865
642.959576	2557.586554
643.303809	2552.310987
643.647990	2558.617470
643.992118	2557.624363
644.336195	2557.773077
