Dividing Wavelength (nm)	Counts (n)	Blue Motor Position (mm): 0.100000	Red Motor Position (mm): 0.000000	
326.493990	2166.801349
326.888308	2166.801349
327.282561	2166.801349
327.676750	2127.160236
328.070874	2124.070008
328.464933	2125.378188
328.858929	2127.500514
329.252859	2133.151647
329.646726	2142.868471
330.040528	2154.102683
330.434265	2164.053920
330.827938	2185.428413
331.221547	2202.759899
331.615091	2218.790769
332.008571	2236.780126
332.401986	2256.317118
332.795338	2277.457197
333.188625	2294.488735
333.581847	2313.388021
333.975006	2330.464929
334.368100	2350.359843
334.761129	2365.163191
335.154095	2383.845707
335.546996	2402.692061
335.939833	2415.415933
336.332606	2430.846905
336.725315	2444.536158
337.117960	2455.147787
337.510540	2467.168419
337.903056	2479.151241
338.295508	2487.232211
338.687896	2499.792246
339.080220	2503.900786
339.472480	2511.989317
339.864676	2517.930317
340.256807	2521.176820
340.648875	2524.577079
341.040879	2528.420958
341.432818	2531.780888
341.824694	2534.845909
342.216506	2536.491846
342.608253	2534.208203
342.999937	2536.733821
343.391557	2538.077289
343.783113	2536.965714
344.174605	2537.671476
344.566033	2533.716691
344.957397	2532.678213
345.348697	2530.762574
345.739934	2532.244674
346.131106	2527.281658
346.522215	2526.689322
346.913260	2526.694363
347.304241	2523.170597
347.695159	2519.470390
348.086012	2522.134640
348.476802	2517.239679
348.867528	2512.153155
349.258191	2512.143073
349.648789	2512.279184
350.039324	2506.292814
350.429796	2511.800274
350.820203	2506.653256
351.210548	2509.231806
351.600828	2508.258864
351.991045	2506.610406
352.381198	2505.544202
352.771288	2500.472802
353.161314	2504.838441
353.551276	2505.269459
353.941175	2502.678306
354.331010	2501.602020
354.720782	2501.780981
355.110490	2500.382061
355.500135	2501.430621
355.889717	2500.308964
356.279235	2501.591938
356.668689	2503.656290
357.058080	2499.482215
357.447408	2503.399191
357.836672	2503.174860
358.225873	2503.396671
358.615010	2502.824500
359.004084	2504.046980
359.393095	2503.603358
359.782043	2504.546054
360.170927	2505.440859
360.559748	2503.368944
360.948505	2506.559995
361.337199	2508.667197
361.725830	2507.190139
362.114398	2506.590242
362.502903	2508.495798
362.891344	2509.783813
363.279722	2508.024450
363.668037	2512.120388
364.056289	2513.030316
364.444478	2510.343381
364.832603	2511.810357
365.220665	2512.100223
365.608665	2511.911180
365.996601	2512.206087
366.384474	2511.389420
366.772284	2513.093330
367.160031	2511.729698
367.547715	2514.482168
367.935336	2513.791530
368.322893	2512.316993
368.710388	2509.987979
369.097820	2512.221211
369.485189	2511.414626
369.872495	2514.335975
370.259738	2514.653567
370.646918	2514.764473
371.034035	2517.375790
371.421090	2515.024092
371.808081	2518.073990
372.195010	2517.673218
372.581875	2516.438136
372.968678	2517.582478
373.355418	2518.124402
373.742096	2518.285719
374.128710	2519.089783
374.515262	2519.001563
374.901751	2521.444002
375.288177	2519.293949
375.674540	2517.731192
376.060841	2518.290760
376.447079	2520.650020
376.833254	2519.077180
377.219367	2519.223373
377.605417	2519.848476
377.991404	2520.576923
378.377329	2521.038189
378.763191	2521.108765
379.148991	2520.004752
379.534727	2521.176820
379.920402	2522.116996
380.306013	2522.106913
380.691563	2524.312418
381.077049	2521.159176
381.462474	2522.207736
381.847835	2522.979033
382.233134	2521.199506
382.618371	2523.873838
383.003545	2524.125895
383.388657	2521.144053
383.773706	2525.116482
384.158693	2522.290915
384.543618	2522.338806
384.928480	2523.878879
385.313280	2525.310567
385.698017	2526.419620
386.082692	2523.808303
386.467305	2525.529857
386.851856	2526.454908
387.236344	2526.323838
387.620770	2523.120185
388.005133	2518.981398
388.389435	2522.689167
388.773674	2520.491223
389.157851	2525.572707
389.541965	2529.101514
389.926018	2529.857687
390.310008	2525.282840
390.693936	2527.720238
391.077802	2527.879034
391.461606	2528.645290
391.845348	2526.384332
392.229027	2529.265352
392.612645	2527.377440
392.996200	2528.173942
393.379694	2528.347862
393.763125	2529.691329
394.146494	2528.141174
394.529801	2529.625794
394.913047	2527.168232
395.296230	2531.112935
395.679351	2528.264683
396.062410	2529.963552
396.445408	2529.366175
396.828343	2529.146885
397.211217	2528.796524
397.594028	2530.258459
397.976778	2530.649148
398.359466	2532.418593
398.742092	2528.826771
399.124656	2532.569828
399.507158	2529.809796
399.889598	2532.569828
400.271977	2533.754499
400.654294	2532.484128
401.036549	2532.032945
401.418742	2529.015815
401.800874	2532.171577
402.182944	2531.264169
402.564952	2534.044366
402.946898	2531.957328
403.328783	2534.563604
403.710606	2534.891279
404.092367	2534.460261
404.474067	2533.898172
404.855705	2534.442617
405.237282	2532.257277
405.618797	2531.987575
406.000250	2532.988244
406.381642	2534.893800
406.762972	2533.651156
407.144240	2531.470857
407.525447	2531.324663
407.906593	2530.712163
408.287677	2534.361958
408.668700	2538.352032
409.049661	2537.890766
409.430560	2534.498069
409.811399	2537.575694
410.192176	2534.883718
410.572891	2536.731301
410.953545	2538.294058
411.334138	2534.311547
411.714669	2539.055273
412.095139	2535.967566
412.475547	2535.531506
412.855894	2538.185673
413.236180	2538.599048
413.616405	2536.426311
413.996568	2536.804397
414.376670	2536.958153
414.756711	2537.263142
415.136691	2537.353883
415.516609	2536.184335
415.896466	2537.031249
416.276262	2537.449665
416.655997	2538.778009
417.035670	2538.427649
417.415283	2539.335057
417.794834	2537.868081
418.174324	2539.123328
418.553753	2537.648791
418.933121	2537.731970
419.312428	2539.287166
419.691674	2540.713812
420.070859	2539.466127
420.449983	2540.320602
420.829045	2536.254912
421.208047	2541.918648
421.586988	2543.075593
421.965867	2542.498381
422.344686	2540.615510
422.723444	2542.236241
423.102141	2542.269008
423.480777	2540.318082
423.859352	2542.019471
424.237866	2542.400078
424.616319	2539.546785
424.994712	2542.614327
425.373044	2540.176929
425.751314	2538.997299
426.129524	2540.950746
426.507673	2541.371683
426.885762	2536.091074
427.263789	2541.094419
427.641756	2543.390665
428.019662	2542.077444
428.397508	2544.925696
428.775292	2542.062321
429.153016	2543.078113
429.530679	2546.228834
429.908282	2540.607948
430.285824	2543.073072
430.663305	2541.656508
431.040726	2543.093237
431.418086	2542.316899
431.795385	2544.109029
432.172624	2542.919317
432.549802	2543.166333
432.926920	2544.497198
433.303977	2543.494008
433.680974	2545.359235
434.057910	2549.699669
434.434786	2542.521066
434.811601	2547.194215
435.188355	2542.926879
435.565050	2547.045501
435.941683	2544.277908
436.318257	2549.868547
436.694770	2544.613145
437.071222	2545.714637
437.447614	2545.805377
437.823946	2546.455686
438.200218	2546.521221
438.576429	2545.092054
438.952580	2545.424770
439.328670	2543.342774
439.704700	2545.344112
440.080670	2547.650440
440.456580	2544.439225
440.832429	2547.670604
441.208218	2546.221273
441.583947	2547.204298
441.959616	2546.594318
442.335224	2546.543907
442.710773	2544.209852
443.086261	2545.802857
443.461689	2548.068856
443.837057	2548.734288
444.212365	2543.365459
444.587612	2545.122301
444.962800	2543.441076
445.337927	2542.742877
445.712995	2541.991745
446.088002	2547.529452
446.462949	2547.582384
446.837837	2545.981818
447.212664	2548.285625
447.587431	2544.459389
447.962139	2549.956768
448.336786	2548.421736
448.711374	2547.353012
449.085901	2549.026675
449.460369	2549.077086
449.834776	2547.635316
450.209124	2548.421736
450.583412	2548.061294
450.957640	2547.133722
451.331808	2548.877961
451.705917	2549.248486
452.079965	2548.255378
452.453954	2548.940975
452.827883	2548.210008
453.201752	2550.450801
453.575562	2548.603218
453.949311	2549.296377
454.323001	2549.266130
454.696632	2549.210677
455.070202	2549.520708
455.443713	2548.262940
455.817164	2550.418033
456.190556	2548.890564
456.563888	2550.581871
456.937160	2549.815615
457.310373	2549.666901
457.683526	2549.135060
458.056619	2549.805533
458.429653	2550.854093
458.802628	2550.115564
459.175542	2549.308979
459.548398	2551.527087
459.921194	2550.755791
460.293930	2550.201264
460.666607	2550.352498
461.039224	2549.649257
461.411782	2549.364432
461.784280	2550.324772
462.156719	2549.999618
462.529099	2551.937941
462.901419	2549.878630
463.273680	2547.332847
463.645882	2548.015923
464.018024	2548.371325
464.390106	2547.441232
464.762130	2550.007179
465.134094	2551.239741
465.505999	2551.171686
465.877845	2550.133208
466.249631	2549.750080
466.621358	2549.898794
466.993026	2551.138918
467.364634	2556.331307
467.736184	2553.543549
468.107674	2550.571788
468.479105	2554.156049
468.850477	2553.798127
469.221790	2553.367108
469.593043	2550.612118
469.964238	2552.333672
470.335373	2551.491799
470.706449	2551.723692
471.077467	2551.411141
471.448425	2551.479196
471.819324	2551.660678
472.190164	2552.043805
472.560945	2551.597663
472.931667	2552.215205
473.302330	2551.877447
473.672934	2552.270657
474.043479	2553.273847
474.413965	2551.295194
474.784393	2553.029351
475.154761	2553.896429
475.525070	2551.950544
475.895321	2551.156562
476.265513	2554.763508
476.635645	2554.602191
477.005719	2552.101779
477.375734	2552.797458
477.745691	2553.329300
478.115588	2552.918446
478.485427	2553.974567
478.855207	2551.784186
479.224928	2554.766028
479.594591	2553.644372
479.964194	2552.545400
480.333739	2555.101265
480.703226	2555.217212
481.072653	2557.160577
481.442022	2552.371480
481.811333	2553.346944
482.180584	2548.988866
482.549777	2551.748898
482.918912	2549.046839
483.287988	2554.259392
483.657005	2552.386604
484.025964	2554.259393
484.394864	2554.196378
484.763706	2554.261913
485.132489	2552.318548
485.501213	2553.586398
485.869879	2551.360729
486.238487	2558.168807
486.607036	2556.452294
486.975527	2554.158569
487.343959	2555.121430
487.712333	2555.060936
488.080648	2552.613456
488.448905	2557.268961
488.817104	2555.547407
489.185244	2554.012376
489.553326	2553.619166
489.921350	2555.572613
490.289315	2556.863148
490.657222	2552.626059
491.025070	2555.643189
491.392861	2553.694783
491.760593	2555.660833
492.128267	2556.837943
492.495883	2554.052705
492.863440	2555.955741
493.230939	2555.925494
493.598380	2556.227963
493.965763	2555.817109
494.333088	2555.065977
494.700354	2554.677808
495.067563	2555.698642
495.434713	2553.891388
495.801805	2557.543704
496.168839	2555.479352
496.535815	2555.759136
496.902733	2557.309291
497.269593	2557.944476
497.636395	2555.184444
498.003139	2555.542366
498.369825	2558.952707
498.736453	2557.891544
499.103023	2555.028168
499.469535	2557.223591
499.835989	2554.660164
500.202385	2553.616645
500.568723	2550.158414
500.935003	2552.459701
501.301226	2552.179917
501.667390	2555.691080
502.033497	2554.123281
502.399546	2557.198385
502.765537	2558.186451
503.131470	2555.338199
503.497345	2557.372305
503.863163	2554.249310
504.228923	2555.650751
504.594625	2554.501368
504.960269	2556.623694
505.325856	2557.352140
505.691385	2556.011193
506.056856	2558.892213
506.422270	2557.170659
506.787625	2555.577654
507.152924	2559.731565
507.518164	2559.706359
507.883347	2559.227450
508.248472	2557.599157
508.613540	2558.413303
508.978550	2557.006821
509.343503	2557.558828
509.708398	2559.305587
510.073236	2555.043292
510.438016	2557.243756
510.802738	2558.587223
511.167403	2556.691749
511.532010	2558.766184
511.896561	2558.602347
512.261053	2556.918601
512.625488	2557.359702
512.989866	2557.342058
513.354186	2558.872048
513.718449	2555.005483
514.082655	2556.127140
514.446803	2558.128478
514.810894	2555.456667
515.174927	2555.963302
515.538904	2557.473128
515.902822	2557.644527
516.266684	2556.898437
516.630488	2554.854249
516.994235	2556.578323
517.357925	2555.890206
517.721558	2560.089487
518.085133	2554.037582
518.448651	2556.215360
518.812112	2555.776780
519.175516	2554.403065
519.538863	2553.309135
519.902152	2556.187634
520.265385	2555.365926
520.628560	2558.662840
520.991678	2557.216029
521.354739	2555.670916
521.717743	2556.172510
522.080690	2556.288457
522.443580	2555.116389
522.806413	2557.389949
523.169189	2558.085628
523.531908	2558.622511
523.894569	2557.694939
524.257174	2556.497665
524.619722	2559.114024
524.982213	2557.132850
525.344647	2559.872717
525.707025	2558.690567
526.069345	2559.323232
526.431608	2554.728220
526.793815	2556.391801
527.155964	2559.361040
527.518057	2556.734599
527.880093	2558.327604
528.242072	2557.649568
528.603995	2557.417675
528.965860	2558.299877
529.327669	2557.042109
529.689421	2559.620660
530.051117	2560.064281
530.412755	2559.197203
530.774337	2559.008159
531.135862	2556.719476
531.497331	2557.092521
531.858743	2559.214847
532.220098	2559.030845
532.581396	2560.364230
532.942638	2561.226267
533.303824	2561.175856
533.664953	2557.614280
534.026025	2558.141081
534.387040	2556.321224
534.747999	2558.012532
535.108902	2555.917932
535.469748	2557.609239
535.830537	2558.380536
536.191270	2562.073181
536.551947	2555.640669
536.912567	2556.981616
537.273131	2556.054043
537.633638	2556.802655
537.994089	2560.215516
538.354483	2558.388097
538.714821	2558.226781
539.075103	2558.700649
539.435328	2558.539332
539.795497	2558.773746
540.155609	2559.260217
540.515665	2558.108313
540.875665	2560.805331
541.235609	2558.650237
541.595496	2560.354147
541.955328	2557.906667
542.315102	2560.790207
542.674821	2560.235680
543.034483	2558.158725
543.394090	2556.890875
543.753640	2561.027142
544.113134	2559.005639
544.472571	2559.673592
544.831953	2559.078736
545.191278	2561.344734
545.550548	2561.765671
545.909761	2559.426575
546.268918	2561.707697
546.628019	2558.831719
546.987064	2557.636966
547.346053	2560.069322
547.704986	2559.734086
548.063863	2560.754919
548.422684	2558.897254
548.781449	2559.555125
549.140158	2558.723334
549.498811	2560.908674
549.857408	2561.148129
550.215949	2561.206103
550.574434	2558.519168
550.932864	2558.451112
551.291237	2559.935732
551.649555	2559.736606
552.007817	2558.844322
552.366022	2558.320042
552.724173	2559.628221
553.082267	2558.199054
553.440305	2558.536812
553.798288	2558.032696
554.156215	2558.546894
554.514086	2558.052861
554.871902	2556.570762
555.229661	2559.595454
555.587365	2555.562531
555.945014	2558.211657
556.302606	2557.213509
556.660143	2559.577810
557.017625	2560.759960
557.375050	2560.391956
557.732421	2559.726524
558.089735	2560.465053
558.446994	2561.606874
558.804197	2560.921277
559.161345	2558.062943
559.518437	2559.386246
559.875474	2559.746688
560.232455	2559.078736
560.589381	2559.804662
560.946251	2560.160063
561.303065	2557.589075
561.659825	2559.345917
562.016528	2559.908005
562.373177	2559.620660
562.729770	2558.446071
563.086307	2562.514282
563.442789	2559.061092
563.799216	2558.846842
564.155587	2561.145609
564.511904	2557.667212
564.868164	2561.372461
565.224370	2559.996226
565.580520	2559.945814
565.936615	2560.359189
566.292654	2561.188458
566.648638	2558.541853
567.004567	2559.759291
567.360441	2562.108469
567.716260	2559.852553
568.072023	2561.387584
568.427732	2559.595454
568.783385	2560.719631
569.138982	2557.818447
569.494525	2561.606874
569.850013	2559.565207
570.205445	2559.166956
570.560823	2560.535629
570.916145	2559.605536
571.271412	2559.943293
571.626625	2558.720814
571.981782	2561.518654
572.336884	2558.655279
572.691931	2556.353992
573.046923	2555.980947
573.401860	2556.263251
573.756743	2558.622511
574.111570	2558.796431
574.466342	2560.454971
574.821059	2561.127965
575.175722	2560.470094
575.530330	2561.420352
575.884882	2560.144940
576.239380	2560.737275
576.593823	2560.744837
576.948211	2562.811710
577.302544	2558.793910
577.656823	2561.722821
578.011047	2563.071329
578.365216	2561.251473
578.719330	2559.590413
579.073389	2560.820454
579.427394	2564.006463
579.781344	2558.982954
580.135239	2559.794579
580.489080	2558.806513
580.842866	2560.086966
581.196597	2568.092319
581.550273	2559.807182
581.903895	2562.547049
582.257463	2559.860114
582.610975	2560.719631
582.964434	2558.526729
583.317837	2559.098900
583.671186	2561.490928
584.024481	2561.198541
584.377721	2562.660475
584.730906	2557.009342
585.084037	2559.814744
585.437113	2559.242573
585.790135	2560.661658
586.143103	2563.514951
586.496016	2563.134344
586.848874	2561.110321
587.201679	2562.012687
587.554428	2559.794579
587.907124	2561.831206
588.259765	2562.330280
588.612352	2562.720969
588.964884	2558.032696
589.317362	2561.826164
589.669786	2559.439178
590.022155	2557.846173
590.374470	2555.562531
590.726731	2559.834909
591.078937	2552.608415
591.431090	2561.495969
591.783188	2562.257183
592.135232	2561.725341
592.487222	2561.012018
592.839157	2559.824826
593.191038	2557.669733
593.542866	2560.202913
593.894639	2561.425393
594.246358	2560.104610
594.598022	2561.863973
594.949633	2560.326421
595.301190	2562.768860
595.652692	2558.788869
596.004141	2559.781977
596.355535	2561.226267
596.706876	2560.102090
597.058162	2557.684857
597.409395	2560.795248
597.760573	2559.565207
598.111698	2560.989333
598.462768	2559.799621
598.813785	2561.773232
599.164748	2559.630742
599.515657	2558.977913
599.866511	2559.124106
600.217312	2562.368088
600.568060	2558.942624
600.918753	2561.992522
601.269392	2563.192317
601.619978	2559.764332
601.970510	2561.072512
602.320988	2556.669064
602.671412	2559.802141
603.021783	2560.712069
603.372100	2560.961607
603.722363	2560.165104
604.072572	2560.376833
604.422728	2559.053530
604.772830	2559.015721
605.122878	2558.831719
605.472872	2559.552604
605.822813	2559.769374
606.172701	2561.669889
606.522534	2563.522513
606.872314	2561.543860
607.222041	2559.933211
607.571714	2558.665361
607.921333	2559.766853
608.270899	2559.141750
608.620411	2557.891544
608.969870	2566.922771
609.319276	2562.478994
609.668627	2567.341187
610.017926	2571.366548
610.367171	2572.972156
610.716362	2575.840572
611.065500	2573.587176
611.414585	2570.756568
611.763616	2568.238512
612.112594	2565.798594
612.461518	2564.374468
612.810389	2566.675754
613.159207	2562.983109
613.507971	2563.746844
613.856682	2564.974365
614.205340	2561.800959
614.553945	2562.272307
614.902496	2562.713407
615.250994	2563.676268
615.599439	2562.647872
615.947830	2560.270968
616.296169	2562.491597
616.644454	2559.814744
616.992686	2561.027142
617.340864	2560.142419
617.688990	2560.575958
618.037063	2561.916905
618.385082	2559.035886
618.733048	2562.289951
619.080961	2560.817934
619.428821	2559.066133
619.776628	2562.786504
620.124382	2560.714590
620.472083	2562.257183
620.819731	2561.659806
621.167326	2560.994374
621.514868	2559.159394
621.862357	2560.354147
622.209793	2561.337172
622.557176	2563.852708
622.904506	2562.307595
623.251783	2560.938921
623.599007	2561.135526
623.946179	2559.106462
624.293297	2561.143088
624.640363	2560.391956
624.987376	2558.899775
625.334336	2555.824671
625.681243	2557.082439
626.028097	2558.398180
626.374899	2561.259035
626.721647	2562.569735
627.068343	2563.129303
627.414987	2562.516803
627.761577	2560.505382
628.108115	2558.935063
628.454600	2560.611246
628.801032	2562.652914
629.147412	2560.238201
629.493739	2561.228788
629.840014	2563.764488
630.186236	2561.208623
630.532405	2560.192831
630.878521	2561.722821
631.224585	2562.141237
631.570597	2562.499158
631.916556	2563.076371
632.262462	2557.858776
632.608316	2560.064281
632.954117	2560.452450
633.299866	2560.586041
633.645562	2560.167625
633.991206	2560.689384
634.336797	2559.955896
634.682336	2559.114024
635.027823	2558.302398
635.373257	2559.562686
635.718639	2561.838767
636.063968	2559.877758
636.409245	2562.393294
636.754470	2558.756102
637.099642	2560.525547
637.444762	2560.449929
637.789829	2559.799621
638.134845	2560.611246
638.479808	2559.171997
638.824719	2559.378684
639.169577	2561.372461
639.514383	2561.911864
639.859137	2556.779969
640.203839	2559.514795
640.548489	2560.207954
640.893086	2560.417162
641.237632	2559.507234
641.582125	2556.626214
641.926566	2560.684343
642.270955	2556.283416
642.615292	2556.079249
642.959576	2555.441543
643.303809	2553.861141
643.647990	2560.328942
643.992118	2558.110834
644.336195	2561.362378
