Dividing Wavelength (nm)	Counts (n)	Blue Motor Position (mm): 19.700000	Red Motor Position (mm): 0.000000	
326.493990	2183.492609
326.888308	2183.492609
327.282561	2183.492609
327.676750	2143.566671
328.070874	2140.181536
328.464933	2139.006947
328.858929	2144.161527
329.252859	2148.910294
329.646726	2159.340441
330.040528	2168.807728
330.434265	2182.131498
330.827938	2202.535568
331.221547	2217.754812
331.615091	2234.327605
332.008571	2254.257807
332.401986	2273.877977
332.795338	2290.256686
333.188625	2310.005406
333.581847	2328.118272
333.975006	2344.315499
334.368100	2365.717718
334.761129	2381.877137
335.154095	2401.313305
335.546996	2424.046389
335.939833	2454.063939
336.332606	2470.160343
336.725315	2480.177116
337.117960	2495.731596
337.510540	2503.260560
337.903056	2517.605163
338.295508	2528.272244
338.687896	2532.605116
339.080220	2543.488967
339.472480	2548.199926
339.864676	2555.544887
340.256807	2561.017059
340.648875	2563.436813
341.040879	2565.871690
341.432818	2572.115159
341.824694	2572.886456
342.216506	2573.824111
342.608253	2577.282342
342.999937	2574.615572
343.391557	2575.767475
343.783113	2574.222362
344.174605	2572.704974
344.566033	2571.263204
344.957397	2570.423852
345.348697	2568.329253
345.739934	2567.573080
346.131106	2565.982596
346.522215	2566.942936
346.913260	2562.922615
347.304241	2559.691236
347.695159	2560.530588
348.086012	2558.158725
348.476802	2556.729558
348.867528	2548.726726
349.258191	2547.095913
349.648789	2549.440049
350.039324	2542.286652
350.429796	2549.132539
350.820203	2544.580377
351.210548	2545.782692
351.600828	2543.120963
351.991045	2542.301776
352.381198	2541.840510
352.771288	2540.923020
353.161314	2539.009902
353.551276	2540.784388
353.941175	2539.108205
354.331010	2538.553678
354.720782	2537.958822
355.110490	2541.406971
355.500135	2539.927392
355.889717	2538.987217
356.279235	2538.346990
356.668689	2538.977135
357.058080	2539.826569
357.447408	2541.520397
357.836672	2540.093750
358.225873	2540.247505
358.615010	2540.814635
359.004084	2539.153575
359.393095	2540.166847
359.782043	2540.804553
360.170927	2541.464944
360.559748	2542.788247
360.948505	2542.536189
361.337199	2545.918803
361.725830	2544.804708
362.114398	2544.731612
362.502903	2544.295552
362.891344	2545.533155
363.279722	2547.443753
363.668037	2544.905532
364.056289	2549.540873
364.444478	2547.058104
364.832603	2550.743188
365.220665	2545.644061
365.608665	2549.752601
365.996601	2547.650440
366.384474	2549.424926
366.772284	2552.696635
367.160031	2549.613969
367.547715	2549.258568
367.935336	2551.227138
368.322893	2546.785882
368.710388	2547.433670
369.097820	2550.047508
369.485189	2549.016592
369.872495	2552.121943
370.259738	2554.030020
370.646918	2554.269475
371.034035	2553.208312
371.421090	2551.416182
371.808081	2554.302242
372.195010	2553.838456
372.581875	2555.865000
372.968678	2556.830381
373.355418	2553.707386
373.742096	2557.155535
374.128710	2555.030689
374.515262	2555.716286
374.901751	2557.584033
375.288177	2556.595967
375.674540	2557.803324
376.060841	2557.090000
376.447079	2556.225442
376.833254	2558.592264
377.219367	2557.820968
377.605417	2559.787018
377.991404	2558.851884
378.377329	2558.526729
378.763191	2556.691749
379.148991	2559.030845
379.534727	2559.300546
379.920402	2558.448591
380.306013	2557.974723
380.691563	2560.049158
381.077049	2559.663509
381.462474	2560.197872
381.847835	2556.313663
382.233134	2559.756771
382.618371	2560.281051
383.003545	2562.678119
383.388657	2559.545042
383.773706	2560.928839
384.158693	2560.638973
384.543618	2561.415310
384.928480	2561.075032
385.313280	2561.916905
385.698017	2560.583520
386.082692	2563.983778
386.467305	2564.578634
386.851856	2563.976217
387.236344	2563.935887
387.620770	2561.286761
388.005133	2559.582851
388.389435	2564.165260
388.773674	2560.349106
389.157851	2564.800445
389.541965	2565.060065
389.926018	2565.029818
390.310008	2566.839592
390.693936	2568.213306
391.077802	2566.166598
391.461606	2566.337997
391.845348	2566.678275
392.229027	2566.171639
392.612645	2567.013512
392.996200	2568.024263
393.379694	2567.303378
393.763125	2568.389747
394.146494	2570.796898
394.529801	2566.632905
394.913047	2569.839078
395.296230	2568.004098
395.679351	2568.092319
396.062410	2569.213975
396.445408	2567.406722
396.828343	2569.922258
397.211217	2568.805642
397.594028	2568.261197
397.976778	2571.525344
398.359466	2572.725139
398.742092	2569.851681
399.124656	2568.208265
399.507158	2569.271949
399.889598	2571.419480
400.271977	2571.328739
400.654294	2571.532906
401.036549	2571.028791
401.418742	2571.734552
401.800874	2570.512072
402.182944	2572.006775
402.564952	2572.450396
402.946898	2576.337126
403.328783	2573.748493
403.710606	2572.626837
404.092367	2573.042732
404.474067	2575.102043
404.855705	2575.109605
405.237282	2573.050293
405.618797	2573.115828
406.000250	2575.139852
406.381642	2573.700602
406.762972	2573.546847
407.144240	2573.249419
407.525447	2573.045252
407.906593	2570.822103
408.287677	2575.742270
408.668700	2575.394430
409.049661	2577.332754
409.430560	2575.477609
409.811399	2576.485840
410.192176	2579.636561
410.572891	2576.175809
410.953545	2575.994327
411.334138	2577.211766
411.714669	2576.536251
412.095139	2579.094637
412.475547	2574.847465
412.855894	2578.708989
413.236180	2577.957857
413.616405	2577.524318
413.996568	2579.896180
414.376670	2579.059349
414.756711	2577.214287
415.136691	2577.166396
415.516609	2577.718402
415.896466	2578.913155
416.276262	2578.456931
416.655997	2580.811150
417.035670	2578.283011
417.415283	2581.305183
417.794834	2580.796026
418.174324	2579.414750
418.553753	2579.931468
418.933121	2582.560430
419.312428	2578.149421
419.691674	2581.176633
420.070859	2580.216294
420.449983	2581.247210
420.829045	2580.758218
421.208047	2581.186716
421.586988	2581.406006
421.965867	2581.842066
422.344686	2582.429360
422.723444	2582.378949
423.102141	2584.224011
423.480777	2583.649319
423.859352	2581.721078
424.237866	2584.634865
424.616319	2580.274267
424.994712	2582.847776
425.373044	2582.961202
425.751314	2579.684452
426.129524	2581.257292
426.507673	2577.554564
426.885762	2579.203022
427.263789	2584.367684
427.641756	2582.260482
428.019662	2585.980853
428.397508	2582.714185
428.775292	2584.077817
429.153016	2581.222004
429.530679	2582.812488
429.908282	2584.965061
430.285824	2582.951120
430.663305	2585.630493
431.040726	2583.409865
431.418086	2584.450863
431.795385	2586.298446
432.172624	2587.687284
432.549802	2584.103023
432.926920	2585.403641
433.303977	2586.905905
433.680974	2586.817685
434.057910	2586.696697
434.434786	2584.889443
434.811601	2587.102510
435.188355	2589.577716
435.565050	2587.019331
435.941683	2587.525967
436.318257	2587.016810
436.694770	2587.931780
437.071222	2588.861872
437.447614	2589.025710
437.823946	2589.310535
438.200218	2588.733323
438.576429	2589.933118
438.952580	2587.785586
439.328670	2589.411358
439.704700	2588.942531
440.080670	2592.163828
440.456580	2588.574527
440.832429	2589.902871
441.208218	2591.584096
441.583947	2589.862542
441.959616	2592.899837
442.335224	2590.711976
442.710773	2592.564600
443.086261	2589.250041
443.461689	2591.180803
443.837057	2591.916812
444.212365	2591.611822
444.587612	2590.417068
444.962800	2589.701225
445.337927	2591.536205
445.712995	2587.520926
446.088002	2592.904878
446.462949	2592.244487
446.837837	2592.483942
447.212664	2592.683067
447.587431	2593.474528
447.962139	2594.719693
448.336786	2598.808069
448.711374	2600.000302
449.085901	2594.145002
449.460369	2595.826227
449.834776	2594.805393
450.209124	2596.005187
450.583412	2595.412852
450.957640	2596.864704
451.331808	2599.405446
451.705917	2597.998964
452.079965	2597.058789
452.453954	2597.003336
452.827883	2597.462081
453.201752	2601.777309
453.575562	2596.995774
453.949311	2597.220106
454.323001	2597.729262
454.696632	2597.517534
455.070202	2599.050044
455.443713	2600.186825
455.817164	2600.640528
456.190556	2596.559714
456.563888	2600.615323
456.937160	2600.784201
457.310373	2598.951742
457.683526	2599.533995
458.056619	2599.443254
458.429653	2599.904520
458.802628	2599.687750
459.175542	2600.123810
459.548398	2600.088522
459.921194	2601.729418
460.293930	2602.382247
460.666607	2599.231526
461.039224	2603.753441
461.411782	2604.280242
461.784280	2605.170005
462.156719	2602.964500
462.529099	2605.222937
462.901419	2606.818462
463.273680	2601.487442
463.645882	2599.539036
464.018024	2601.132041
464.390106	2600.716146
464.762130	2604.693616
465.134094	2607.332660
465.505999	2607.846858
465.877845	2611.365583
466.249631	2616.394134
466.621358	2617.619135
466.993026	2616.522684
467.364634	2617.760287
467.736184	2615.121243
468.107674	2613.949175
468.479105	2613.520677
468.850477	2614.145780
469.221790	2612.358691
469.593043	2615.751387
469.964238	2616.469752
470.335373	2612.535131
470.706449	2613.752570
471.077467	2610.546396
471.448425	2614.901953
471.819324	2619.975874
472.190164	2624.112141
472.560945	2621.410082
472.931667	2617.334309
473.302330	2616.842797
473.672934	2616.608383
474.043479	2618.776079
474.413965	2615.665687
474.784393	2617.611573
475.154761	2619.499485
475.525070	2621.596605
475.895321	2619.471759
476.265513	2620.006121
476.635645	2623.895371
477.005719	2619.018055
477.375734	2623.792027
477.745691	2626.685650
478.115588	2627.918212
478.485427	2630.111114
478.855207	2633.445837
479.224928	2635.676548
479.594591	2640.206024
479.964194	2644.511170
480.333739	2646.318423
480.703226	2643.747435
481.072653	2644.659884
481.442022	2649.035605
481.811333	2650.192550
482.180584	2648.954947
482.549777	2649.824546
482.918912	2649.126346
483.287988	2656.811585
483.657005	2660.264776
484.025964	2661.895589
484.394864	2661.469611
484.763706	2662.036741
485.132489	2666.538492
485.501213	2670.354645
485.869879	2670.019408
486.238487	2673.165088
486.607036	2675.912517
486.975527	2680.149607
487.343959	2684.616069
487.712333	2686.645134
488.080648	2690.635207
488.448905	2695.207533
488.817104	2700.286496
489.185244	2710.192363
489.553326	2713.446428
489.921350	2728.169118
490.289315	2752.086872
490.657222	2770.403905
491.025070	2782.658950
491.392861	2795.040024
491.760593	2799.418266
492.128267	2801.903555
492.495883	2804.141827
492.863440	2809.961839
493.230939	2815.817139
493.598380	2829.173676
493.965763	2837.980572
494.333088	2850.780062
494.700354	2868.580376
495.067563	2883.971019
495.434713	2898.277813
495.801805	2923.647420
496.168839	2941.851027
496.535815	2963.729634
496.902733	2989.061432
497.269593	3010.771161
497.636395	3038.212682
498.003139	3066.523802
498.369825	3094.348451
498.736453	3126.657206
499.103023	3154.673418
499.469535	3192.247659
499.835989	3231.029255
500.202385	3269.004267
500.568723	3295.268679
500.935003	3347.711802
501.301226	3377.895711
501.667390	3457.548462
502.033497	3526.166128
502.399546	3557.010427
502.765537	3598.894854
503.131470	3664.772653
503.497345	3729.203640
503.863163	3748.861619
504.228923	3841.820496
504.594625	3920.311262
504.960269	3947.168009
505.325856	4052.354204
505.691385	4094.047067
506.056856	4189.027447
506.422270	4275.483235
506.787625	4313.743073
507.152924	4442.209317
507.518164	4509.211292
507.883347	4570.259665
508.248472	4615.990492
508.613540	4780.823620
508.978550	4869.689080
509.343503	4960.644099
509.708398	5080.086677
510.073236	5183.135424
510.438016	5303.064474
510.802738	5379.947111
511.167403	5504.425802
511.532010	5570.911060
511.896561	5780.189521
512.261053	5915.302526
512.625488	5987.431355
512.989866	6079.578606
513.354186	6159.251522
513.718449	6319.512324
514.082655	6470.300797
514.446803	6577.841211
514.810894	6765.185612
515.174927	6803.500902
515.538904	6932.035201
515.902822	7144.799620
516.266684	7263.402846
516.630488	7348.474838
516.994235	7488.966755
517.357925	7692.997374
517.721558	7890.071202
518.085133	8053.961634
518.448651	8166.628902
518.812112	8265.054910
519.175516	8430.853419
519.538863	8651.088827
519.902152	8727.608502
520.265385	8976.165113
520.628560	9071.077437
520.991678	9239.789732
521.354739	9415.184078
521.717743	9601.931101
522.080690	9677.974386
522.443580	9966.918201
522.806413	10098.731772
523.169189	10323.889867
523.531908	10464.076794
523.894569	10534.141270
524.257174	10721.447862
524.619722	10949.910434
524.982213	10993.004738
525.344647	11223.088040
525.707025	11397.554813
526.069345	11602.490320
526.431608	11757.210893
526.793815	12005.001249
527.155964	11913.789132
527.518057	12169.879747
527.880093	12326.026967
528.242072	12529.712267
528.603995	12597.793050
528.965860	12690.257894
529.327669	12946.872789
529.689421	13067.356366
530.051117	13164.693485
530.412755	13446.889716
530.774337	13475.936844
531.135862	13599.034259
531.497331	13851.951468
531.858743	13805.466989
532.220098	14230.816865
532.581396	14187.291543
532.942638	14388.176482
533.303824	14554.658068
533.664953	14734.057610
534.026025	14753.919756
534.387040	14995.201982
534.747999	15244.124076
535.108902	15454.935048
535.469748	15348.957391
535.830537	15629.971471
536.191270	15822.447766
536.551947	15974.211703
536.912567	15875.533637
537.273131	16211.382868
537.633638	16184.150555
537.994089	16511.949063
538.354483	16358.614807
538.714821	16815.968448
539.075103	17024.394954
539.435328	17016.898758
539.795497	16876.497583
540.155609	17295.861089
540.515665	17635.707955
540.875665	17265.798168
541.235609	17590.519052
541.595496	17740.332062
541.955328	18129.821690
542.315102	18211.760605
542.674821	18074.207681
543.034483	18103.441332
543.394090	18329.360642
543.753640	18320.563828
544.113134	18906.013189
544.472571	18770.746428
544.831953	19138.904414
545.191278	18936.655843
545.550548	19041.022851
545.909761	19269.039280
546.268918	19602.562019
546.628019	19680.800727
546.987064	19623.470204
547.346053	19549.513957
547.704986	19729.331915
548.063863	19986.390432
548.422684	20041.407064
548.781449	19838.062041
549.140158	20261.513923
549.498811	20044.479647
549.857408	19911.967877
550.215949	20382.413395
550.574434	20199.419511
550.932864	20482.056842
551.291237	20686.667195
551.649555	20698.816375
552.007817	20830.793783
552.366022	20819.887247
552.724173	20917.975498
553.082267	20948.839962
553.440305	21447.276487
553.798288	20905.566698
554.156215	21445.552412
554.514086	21589.709248
554.871902	21109.738469
555.229661	21440.995209
555.587365	21405.581103
555.945014	21314.207669
556.302606	21642.593472
556.660143	21630.509826
557.017625	21952.775668
557.375050	21609.054676
557.732421	22004.316425
558.089735	21920.023292
558.446994	22011.825224
558.804197	22090.326072
559.161345	22128.175055
559.518437	21925.072007
559.875474	22198.201723
560.232455	22395.167165
560.589381	22316.850320
560.946251	22300.413637
561.303065	22677.260052
561.659825	22799.775214
562.016528	22476.233960
562.373177	22293.398872
562.729770	22657.440756
563.086307	22591.331064
563.442789	22793.138535
563.799216	22654.113594
564.155587	22707.648128
564.511904	22731.628896
564.868164	22696.353422
565.224370	22732.700142
565.580520	22646.602275
565.936615	22829.268485
566.292654	22528.525849
566.648638	22887.703019
567.004567	22724.384758
567.360441	22714.602399
567.716260	22465.821457
568.072023	22813.376247
568.427732	22609.736317
568.783385	22418.926123
569.138982	22656.276249
569.494525	22722.010375
569.850013	22500.055933
570.205445	22611.961986
570.560823	22424.980549
570.916145	22232.836970
571.271412	22413.453951
571.626625	22198.473945
571.981782	22312.220020
572.336884	22139.222743
572.691931	22281.158950
573.046923	22028.231659
573.401860	21937.954676
573.756743	21943.537754
574.111570	21874.330273
574.466342	21828.486020
574.821059	21926.435639
575.175722	21642.285962
575.530330	21644.882156
575.884882	21681.236437
576.239380	21593.837953
576.593823	21482.395685
576.948211	21477.324284
577.302544	21327.712921
577.656823	21217.815767
578.011047	21313.154068
578.365216	21199.806245
578.719330	21084.391548
579.073389	20996.317549
579.427394	21149.795478
579.781344	20939.597007
580.135239	20826.218936
580.489080	20802.800256
580.842866	20576.810370
581.196597	20751.148593
581.550273	20740.889845
581.903895	20645.733025
582.257463	20961.248762
582.610975	20493.850622
582.964434	20787.328955
583.317837	20515.469610
583.671186	20604.614854
584.024481	20564.341076
584.377721	20359.854232
584.730906	20402.575490
585.084037	20444.971594
585.437113	20338.288176
585.790135	20542.369207
586.143103	20029.172184
586.496016	20032.587565
586.848874	20276.765934
587.201679	20228.670806
587.554428	19887.102386
587.907124	20219.200998
588.259765	20008.614358
588.612352	20078.537683
588.964884	19659.590072
589.317362	19828.844292
589.669786	19877.713237
590.022155	19943.500295
590.374470	20101.023749
590.726731	19927.378685
591.078937	19667.265228
591.431090	19773.210118
591.783188	19513.547845
592.135232	19486.988526
592.487222	19586.349668
592.839157	19622.550194
593.191038	19502.293469
593.542866	19394.279186
593.894639	19122.220716
594.246358	19339.726340
594.598022	19252.726107
594.949633	19006.385083
595.301190	18962.832034
595.652692	19127.992837
596.004141	19367.830772
596.355535	18702.834524
596.706876	18707.774855
597.058162	18610.490668
597.409395	18822.650148
597.760573	18918.066588
598.111698	18700.928968
598.462768	18625.788050
598.813785	18584.042255
599.164748	18429.220858
599.515657	18449.940001
599.866511	18241.959637
600.217312	18596.317464
600.568060	18133.214387
600.918753	18444.987067
601.269392	18336.493874
601.619978	18114.846943
601.970510	18332.937340
602.320988	18273.575233
602.671412	18486.344693
603.021783	18387.470022
603.372100	18138.444584
603.722363	18261.368079
604.072572	18194.724025
604.422728	18332.375252
604.772830	18099.166434
605.122878	18040.694090
605.472872	18041.059574
605.822813	18025.789919
606.172701	17988.661821
606.522534	18195.644036
606.872314	18214.182879
607.222041	18037.770221
607.571714	18264.725488
607.921333	18090.808201
608.270899	18159.849323
608.620411	18363.617803
608.969870	18104.162217
609.319276	18116.099669
609.668627	18151.410432
610.017926	18285.772305
610.367171	18409.003311
610.716362	18432.255633
611.065500	18264.728008
611.414585	18393.002688
611.763616	18377.095327
612.112594	18335.203339
612.461518	18291.143654
612.810389	18485.142378
613.159207	18337.461776
613.507971	18245.511130
613.856682	18533.129121
614.205340	18461.806877
614.553945	18609.832798
614.902496	18341.106530
615.250994	18595.629347
615.599439	18522.945991
615.947830	18518.534981
616.296169	18546.510864
616.644454	18523.412297
616.992686	18491.806783
617.340864	18710.519763
617.688990	18481.376636
618.037063	18654.817534
618.385082	18487.022728
618.733048	18784.213871
619.080961	18641.340009
619.428821	18682.440537
619.776628	18575.174865
620.124382	18492.532709
620.472083	18524.289458
620.819731	18560.757165
621.167326	18246.098424
621.514868	18294.034756
621.862357	18033.578502
622.209793	18061.584632
622.557176	17891.624650
622.904506	17727.222541
623.251783	17625.781923
623.599007	17401.311945
623.946179	17346.829675
624.293297	17289.491591
624.640363	17052.620375
624.987376	17061.754945
625.334336	16856.395982
625.681243	16700.712548
626.028097	16704.259000
626.374899	16647.624157
626.721647	16525.237544
627.068343	16351.907552
627.414987	16269.106600
627.761577	16242.882517
628.108115	16298.216743
628.454600	16017.147210
628.801032	16104.225581
629.147412	16040.951538
629.493739	16066.424489
629.840014	15876.279728
630.186236	15976.596168
630.532405	15740.201341
630.878521	15939.296671
631.224585	15821.898280
631.570597	15646.130890
631.916556	15693.253075
632.262462	15667.134857
632.608316	15577.430045
632.954117	15530.237283
633.299866	15526.340472
633.645562	15446.037411
633.991206	15206.416246
634.336797	15065.294185
634.682336	15040.368200
635.027823	14929.092290
635.373257	14817.891998
635.718639	14707.699937
636.063968	14656.849818
636.409245	14416.500205
636.754470	14435.580973
637.099642	14295.497390
637.444762	14066.749993
637.789829	14109.332619
638.134845	13942.848513
638.479808	13966.398264
638.824719	13926.994085
639.169577	13772.656639
639.514383	13824.734279
