Dividing Wavelength (nm)	Counts (n)	Blue Motor Position (mm): 18.000000	Red Motor Position (mm): 0.000000	
326.493990	2179.013544
326.888308	2179.013544
327.282561	2179.013544
327.676750	2138.283542
328.070874	2134.742131
328.464933	2135.062244
328.858929	2138.409571
329.252859	2144.552217
329.646726	2152.703762
330.040528	2164.726914
330.434265	2179.134532
330.827938	2199.397450
331.221547	2213.426981
331.615091	2232.938767
332.008571	2249.239338
332.401986	2267.838675
332.795338	2289.959258
333.188625	2305.949798
333.581847	2321.595019
333.975006	2340.398523
334.368100	2361.498272
334.761129	2377.027547
335.154095	2397.976062
335.546996	2418.909453
335.939833	2448.475820
336.332606	2461.376133
336.725315	2477.041518
337.117960	2490.786224
337.510540	2498.794097
337.903056	2513.131139
338.295508	2522.076666
338.687896	2530.555887
339.080220	2535.639891
339.472480	2543.728422
339.864676	2549.278732
340.256807	2553.319217
340.648875	2559.686195
341.040879	2560.006308
341.432818	2563.961093
341.824694	2567.547874
342.216506	2567.401681
342.608253	2565.249108
342.999937	2568.402350
343.391557	2568.387226
343.783113	2568.152812
344.174605	2566.832030
344.566033	2564.757595
344.957397	2564.961762
345.348697	2562.305074
345.739934	2561.979920
346.131106	2561.175856
346.522215	2559.161915
346.913260	2555.844835
347.304241	2554.703014
347.695159	2553.541028
348.086012	2553.490617
348.476802	2546.029709
348.867528	2543.786395
349.258191	2541.464944
349.648789	2540.333205
350.039324	2535.599562
350.429796	2540.008051
350.820203	2540.484440
351.210548	2536.428831
351.600828	2533.278110
351.991045	2537.578214
352.381198	2536.401105
352.771288	2535.849099
353.161314	2534.576207
353.551276	2533.517565
353.941175	2533.421783
354.331010	2533.814993
354.720782	2533.452030
355.110490	2532.375744
355.500135	2532.887421
355.889717	2533.275590
356.279235	2534.314067
356.668689	2533.446989
357.058080	2533.383974
357.447408	2532.963038
357.836672	2531.261649
358.225873	2534.127545
358.615010	2533.194931
359.004084	2534.334232
359.393095	2537.883204
359.782043	2536.222144
360.170927	2535.745755
360.559748	2536.328008
360.948505	2538.722556
361.337199	2537.626105
361.725830	2538.586445
362.114398	2537.343801
362.502903	2539.130890
362.891344	2540.620551
363.279722	2539.713143
363.668037	2543.612476
364.056289	2542.097609
364.444478	2541.820345
364.832603	2542.599204
365.220665	2545.233207
365.608665	2542.281611
365.996601	2543.161292
366.384474	2544.756817
366.772284	2545.235727
367.160031	2544.643392
367.547715	2544.429143
367.935336	2543.781354
368.322893	2543.657846
368.710388	2542.994934
369.097820	2542.004347
369.485189	2540.050900
369.872495	2548.489792
370.259738	2546.972405
370.646918	2549.561037
371.034035	2549.223280
371.421090	2547.620193
371.808081	2547.108516
372.195010	2548.157076
372.581875	2548.273022
372.968678	2548.908208
373.355418	2546.498536
373.742096	2549.326623
374.128710	2551.033054
374.515262	2552.071532
374.901751	2552.313507
375.288177	2553.309135
375.674540	2551.706048
376.060841	2551.393497
376.447079	2552.706717
376.833254	2552.207643
377.219367	2552.742005
377.605417	2554.335010
377.991404	2554.995401
378.377329	2552.452139
378.763191	2550.292004
379.148991	2552.621018
379.534727	2553.019269
379.920402	2552.772252
380.306013	2552.777293
380.691563	2555.101265
381.077049	2554.662685
381.462474	2551.388455
381.847835	2554.740823
382.233134	2554.640000
382.618371	2554.259392
383.003545	2556.134702
383.388657	2554.249310
383.773706	2556.280895
384.158693	2556.401883
384.543618	2553.079763
384.928480	2555.746533
385.313280	2555.832233
385.698017	2555.302911
386.082692	2555.824671
386.467305	2558.017573
386.851856	2557.188303
387.236344	2558.153684
387.620770	2556.732078
388.005133	2551.925338
388.389435	2557.543704
388.773674	2553.152859
389.157851	2560.366750
389.541965	2558.022614
389.926018	2558.181410
390.310008	2555.343241
390.693936	2559.461863
391.077802	2558.050340
391.461606	2558.932542
391.845348	2558.932542
392.229027	2561.344734
392.612645	2559.398849
392.996200	2560.084446
393.379694	2562.146278
393.763125	2560.840619
394.146494	2558.718293
394.529801	2564.790363
394.913047	2558.493962
395.296230	2561.722821
395.679351	2560.084446
396.062410	2562.161401
396.445408	2562.282389
396.828343	2560.754919
397.211217	2564.641649
397.594028	2562.073181
397.976778	2564.177863
398.359466	2563.988819
398.742092	2561.201061
399.124656	2562.773901
399.507158	2563.623336
399.889598	2566.269942
400.271977	2564.445044
400.654294	2565.712894
401.036549	2563.580486
401.418742	2561.831206
401.800874	2564.762637
402.182944	2567.036197
402.564952	2564.646690
402.946898	2566.837071
403.328783	2565.954869
403.710606	2564.641649
404.092367	2567.315981
404.474067	2566.121227
404.855705	2566.063254
405.237282	2568.619119
405.618797	2569.960066
406.000250	2569.156002
406.381642	2566.123748
406.762972	2566.211968
407.144240	2567.752041
407.525447	2565.173491
407.906593	2561.306926
408.287677	2566.504355
408.668700	2568.717422
409.049661	2569.639953
409.430560	2567.694068
409.811399	2570.633060
410.192176	2571.671538
410.572891	2573.531724
410.953545	2571.520303
411.334138	2568.394788
411.714669	2570.743966
412.095139	2571.754717
412.475547	2568.649366
412.855894	2569.692885
413.236180	2571.069120
413.616405	2570.749007
413.996568	2570.391085
414.376670	2570.023081
414.756711	2572.193297
415.136691	2572.049624
415.516609	2572.074830
415.896466	2574.736559
416.276262	2572.021898
416.655997	2571.283369
417.035670	2570.025601
417.415283	2573.372927
417.794834	2571.704305
418.174324	2575.192784
418.553753	2574.880232
418.933121	2571.593400
419.312428	2572.117680
419.691674	2574.880232
420.070859	2573.564491
420.449983	2573.783781
420.829045	2573.259501
421.208047	2572.221024
421.586988	2575.651529
421.965867	2577.584811
422.344686	2575.336457
422.723444	2573.325036
423.102141	2572.866291
423.480777	2573.372927
423.859352	2573.453586
424.237866	2576.571539
424.616319	2574.056004
424.994712	2574.426528
425.373044	2576.591704
425.751314	2570.696075
426.129524	2573.123390
426.507673	2573.171281
426.885762	2570.428893
427.263789	2575.258319
427.641756	2576.140521
428.019662	2576.684965
428.397508	2577.042887
428.775292	2575.931313
429.153016	2576.208576
429.530679	2577.247054
429.908282	2579.001376
430.285824	2579.185378
430.663305	2577.083217
431.040726	2579.379462
431.418086	2575.369224
431.795385	2577.478947
432.172624	2575.769996
432.549802	2579.664287
432.926920	2577.322671
433.303977	2576.140521
433.680974	2578.358628
434.057910	2578.124215
434.434786	2577.872157
434.811601	2580.221335
435.188355	2579.714699
435.565050	2580.312076
435.941683	2575.369224
436.318257	2583.112437
436.694770	2575.444842
437.071222	2582.131932
437.447614	2578.698906
437.823946	2581.063207
438.200218	2577.128587
438.576429	2579.565985
438.952580	2580.710327
439.328670	2580.843917
439.704700	2583.112437
440.080670	2578.204873
440.456580	2581.927765
440.832429	2582.472210
441.208218	2583.545976
441.583947	2581.370718
441.959616	2581.998342
442.335224	2580.521283
442.710773	2580.181006
443.086261	2578.875347
443.461689	2578.920717
443.837057	2582.472210
444.212365	2581.718557
444.587612	2580.208732
444.962800	2579.213104
445.337927	2579.535738
445.712995	2577.236972
446.088002	2583.387179
446.462949	2583.553537
446.837837	2583.757704
447.212664	2584.402972
447.587431	2584.140832
447.962139	2582.625965
448.336786	2584.942375
448.711374	2586.459763
449.085901	2585.073445
449.460369	2583.684607
449.834776	2583.109916
450.209124	2586.222828
450.583412	2587.599063
450.957640	2588.556883
451.331808	2587.031934
451.705917	2588.398086
452.079965	2587.888930
452.453954	2588.642582
452.827883	2587.218456
453.201752	2586.477407
453.575562	2588.551842
453.949311	2586.820205
454.323001	2587.992273
454.696632	2588.279619
455.070202	2586.477407
455.443713	2586.996646
455.817164	2585.973291
456.190556	2588.841708
456.563888	2591.248859
456.937160	2592.786411
457.310373	2592.194075
457.683526	2589.481934
458.056619	2587.112592
458.429653	2590.437233
458.802628	2591.241297
459.175542	2589.663416
459.548398	2591.498396
459.921194	2587.556214
460.293930	2591.629466
460.666607	2593.555187
461.039224	2592.977975
461.411782	2594.812955
461.784280	2593.986205
462.156719	2594.636514
462.529099	2596.453850
462.901419	2593.446802
463.273680	2591.576534
463.645882	2588.897161
464.018024	2590.495206
464.390106	2588.173755
464.762130	2595.233891
465.134094	2594.523088
465.505999	2597.303285
465.877845	2599.569283
466.249631	2601.782350
466.621358	2603.435848
466.993026	2603.539192
467.364634	2606.508432
467.736184	2601.555498
468.107674	2597.399067
468.479105	2597.157091
468.850477	2596.647935
469.221790	2599.407966
469.593043	2598.651793
469.964238	2598.651793
470.335373	2597.182297
470.706449	2601.520210
471.077467	2597.515013
471.448425	2600.832092
471.819324	2601.326125
472.190164	2606.662187
472.560945	2606.760489
472.931667	2599.274376
473.302330	2603.478698
473.672934	2602.924171
474.043479	2601.048862
474.413965	2601.895776
474.784393	2598.692122
475.154761	2603.214037
475.525070	2602.548605
475.895321	2604.607917
476.265513	2600.827051
476.635645	2601.361413
477.005719	2605.089347
477.375734	2604.691096
477.745691	2605.467433
478.115588	2604.963318
478.485427	2606.495829
478.855207	2606.458020
479.224928	2611.960439
479.594591	2610.359873
479.964194	2614.486057
480.333739	2614.612086
480.703226	2612.451952
481.072653	2612.683845
481.442022	2615.585029
481.811333	2614.322220
482.180584	2611.771396
482.549777	2612.184771
482.918912	2611.063114
483.287988	2616.568054
483.657005	2620.530401
484.025964	2616.910852
484.394864	2617.924124
484.763706	2615.116202
485.132489	2616.557972
485.501213	2618.211470
485.869879	2616.709206
486.238487	2616.762138
486.607036	2619.070987
486.975527	2618.806326
487.343959	2619.494444
487.712333	2620.832870
488.080648	2618.110647
488.448905	2620.250617
488.817104	2620.971502
489.185244	2620.177520
489.553326	2622.584671
489.921350	2624.994343
490.289315	2629.249077
490.657222	2629.801083
491.025070	2631.686474
491.392861	2631.827627
491.760593	2634.771661
492.128267	2632.056999
492.495883	2630.559777
492.863440	2628.946607
493.230939	2630.388377
493.598380	2631.381485
493.965763	2628.941566
494.333088	2631.091618
494.700354	2634.776702
495.067563	2634.456588
495.434713	2635.984058
495.801805	2639.061682
496.168839	2638.328195
496.535815	2638.368524
496.902733	2640.185860
497.269593	2642.456900
497.636395	2644.301962
498.003139	2643.586118
498.369825	2644.344812
498.736453	2647.893784
499.103023	2650.938641
499.469535	2654.447284
499.835989	2655.931904
500.202385	2654.613642
500.568723	2654.548107
500.935003	2663.687719
501.301226	2658.079435
501.667390	2669.532937
502.033497	2675.899914
502.399546	2676.668690
502.765537	2680.489885
503.131470	2685.619259
503.497345	2691.650999
503.863163	2693.851463
504.228923	2700.939325
504.594625	2706.524924
504.960269	2704.609285
505.325856	2712.281922
505.691385	2718.744681
506.056856	2729.399159
506.422270	2734.818400
506.787625	2740.197311
507.152924	2749.296594
507.518164	2759.215064
507.883347	2766.164294
508.248472	2773.985645
508.613540	2789.204888
508.978550	2799.708132
509.343503	2810.481078
509.708398	2821.969867
510.073236	2840.072651
510.438016	2855.422964
510.802738	2864.618029
511.167403	2883.550082
511.532010	2894.907802
511.896561	2926.634304
512.261053	2942.360183
512.625488	2957.218984
512.989866	2975.636840
513.354186	2994.329438
513.718449	3018.133767
514.082655	3045.792057
514.446803	3067.942887
514.810894	3102.419338
515.174927	3117.152110
515.538904	3145.632109
515.902822	3186.543593
516.266684	3214.731205
516.630488	3238.522930
516.994235	3273.352262
517.357925	3316.512101
517.721558	3362.169831
518.085133	3401.785739
518.448651	3440.642953
518.812112	3470.214361
519.175516	3520.124305
519.538863	3570.752613
519.902152	3605.292078
520.265385	3669.425638
520.628560	3710.836196
520.991678	3766.440123
521.354739	3820.932475
521.717743	3877.400960
522.080690	3924.500461
522.443580	4007.074561
522.806413	4055.212539
523.169189	4133.385711
523.531908	4187.404195
523.894569	4234.516299
524.257174	4306.655210
524.619722	4389.360380
524.982213	4429.097275
525.344647	4514.847302
525.707025	4590.280608
526.069345	4670.659285
526.431608	4743.869442
526.793815	4845.796532
527.155964	4859.362277
527.518057	4962.035457
527.880093	5034.817116
528.242072	5115.815855
528.603995	5175.298950
528.965860	5239.208178
529.327669	5359.684193
529.689421	5426.252630
530.051117	5496.526314
530.412755	5633.466738
530.774337	5671.650958
531.135862	5757.768989
531.497331	5874.343151
531.858743	5907.249283
532.220098	6092.844403
532.581396	6105.485096
532.942638	6239.473924
533.303824	6333.194015
533.664953	6445.568896
534.026025	6512.086921
534.387040	6626.488346
534.747999	6776.102230
535.108902	6890.538943
535.469748	6915.056595
535.830537	7067.206180
536.191270	7179.500402
536.551947	7311.117367
536.912567	7312.423026
537.273131	7492.649318
537.633638	7540.739405
537.994089	7736.938592
538.354483	7731.736121
538.714821	7972.978018
539.075103	8124.353785
539.435328	8193.851132
539.795497	8197.954632
540.155609	8421.978467
540.515665	8622.843242
540.875665	8541.496663
541.235609	8729.330056
541.595496	8872.957570
541.955328	9086.026978
542.315102	9188.531280
542.674821	9212.411226
543.034483	9289.825705
543.394090	9435.096635
543.753640	9515.966825
544.113134	9817.316920
544.472571	9855.791006
544.831953	10106.268297
545.191278	10080.293751
545.550548	10207.895437
545.909761	10346.111273
546.268918	10597.432957
546.628019	10691.717657
546.987064	10791.721547
547.346053	10832.746457
547.704986	10970.639658
548.063863	11189.950015
548.422684	11260.006930
548.781449	11276.468818
549.140158	11542.752647
549.498811	11559.983311
549.857408	11542.987060
550.215949	11869.973943
550.574434	11853.791839
550.932864	12084.583424
551.291237	12257.558015
551.649555	12376.060419
552.007817	12522.972245
552.366022	12624.269190
552.724173	12738.922672
553.082267	12870.600132
553.440305	13226.697157
553.798288	13019.183100
554.156215	13399.021439
554.514086	13577.347216
554.871902	13398.683682
555.229661	13663.359383
555.587365	13760.020987
555.945014	13775.278039
556.302606	14074.087392
556.660143	14126.792656
557.017625	14421.488427
557.375050	14317.101254
557.732421	14625.892092
558.089735	14685.954920
558.446994	14819.429550
558.804197	14978.840917
559.161345	15121.545900
559.518437	15042.606472
559.875474	15348.700292
560.232455	15524.225708
560.589381	15605.723521
560.946251	15672.690209
561.303065	16021.613672
561.659825	16193.131370
562.016528	16084.796974
562.373177	16055.643981
562.729770	16352.048704
563.086307	16458.374200
563.442789	16674.914443
563.799216	16675.456367
564.155587	16766.161848
564.511904	16917.968635
564.868164	16936.653672
565.224370	17107.639528
565.580520	17098.278105
565.936615	17333.097572
566.292654	17200.192592
566.648638	17590.453517
567.004567	17522.541613
567.360441	17615.414790
567.716260	17510.362185
568.072023	17894.419970
568.427732	17806.323286
568.783385	17743.202999
569.138982	18009.328031
569.494525	18168.507505
569.850013	18103.527032
570.205445	18256.616792
570.560823	18176.409513
570.916145	18116.694526
571.271412	18316.664496
571.626625	18268.655067
571.981782	18414.442716
572.336884	18340.504112
572.691931	18543.929793
573.046923	18386.187048
573.401860	18426.806146
573.756743	18506.058125
574.111570	18510.932921
574.466342	18539.264206
574.821059	18712.095124
575.175722	18532.695582
575.530330	18629.410119
575.884882	18705.133291
576.239380	18723.909068
576.593823	18691.691054
576.948211	18729.166992
577.302544	18672.874947
577.656823	18645.325041
578.011047	18802.248599
578.365216	18744.787007
578.719330	18712.642089
579.073389	18681.097069
579.427394	18887.234891
579.781344	18740.663343
580.135239	18725.088698
580.489080	18752.671371
580.842866	18581.748530
581.196597	18825.243822
581.550273	18826.151230
581.903895	18818.876845
582.257463	19129.308578
582.610975	18759.358462
582.964434	19076.900743
583.317837	18873.217963
583.671186	18998.520883
584.024481	19006.281739
584.377721	18843.512964
584.730906	18940.287994
585.084037	19025.579276
585.437113	18967.742118
585.790135	19171.865999
586.143103	18756.389222
586.496016	18787.420045
586.848874	19066.967149
587.201679	19044.768428
587.554428	18745.996884
587.907124	19097.103167
588.259765	18926.558412
588.612352	19044.216422
588.964884	18672.557354
589.317362	18865.671355
589.669786	18940.565258
590.022155	19024.767650
590.374470	19196.857519
590.726731	19064.335667
591.078937	18850.119396
591.431090	18978.482296
591.783188	18748.749354
592.135232	18754.329911
592.487222	18877.157624
592.839157	18921.668492
593.191038	18843.429785
593.542866	18755.262524
593.894639	18517.904837
594.246358	18741.492613
594.598022	18673.691614
594.949633	18471.669894
595.301190	18429.631712
595.652692	18619.516854
596.004141	18867.899545
596.355535	18233.122494
596.706876	18271.631868
597.058162	18181.254062
597.409395	18393.990755
597.760573	18523.472791
598.111698	18320.805804
598.462768	18262.709026
598.813785	18237.722547
599.164748	18069.847083
599.515657	18119.958673
599.866511	17923.406605
600.217312	18296.290672
600.568060	17839.113471
600.918753	18160.769334
601.269392	18078.036437
601.619978	17851.197117
601.970510	18089.671420
602.320988	18021.822531
602.671412	18254.141585
603.021783	18146.439854
603.372100	17911.968227
603.722363	18046.504020
604.072572	17993.370258
604.422728	18118.894989
604.772830	17905.830622
605.122878	17855.298096
605.472872	17859.225155
605.822813	17863.492491
606.172701	17812.075243
606.522534	18018.074433
606.872314	18050.607519
607.222041	17887.349752
607.571714	18107.688504
607.921333	17932.810877
608.270899	18016.425976
608.620411	18220.091112
608.969870	17967.839335
609.319276	17996.828490
609.668627	18018.160132
610.017926	18165.944078
610.367171	18275.377446
610.716362	18319.109455
611.065500	18145.424061
611.414585	18268.418133
611.763616	18262.588038
612.112594	18212.945276
612.461518	18187.903344
612.810389	18382.920381
613.159207	18234.841528
613.507971	18142.948855
613.856682	18426.092822
614.205340	18371.968474
614.553945	18510.428806
614.902496	18253.811390
615.250994	18514.829733
615.599439	18443.641079
615.947830	18433.248740
616.296169	18472.935224
616.644454	18454.280434
616.992686	18408.642868
617.340864	18620.048696
617.688990	18389.274755
618.037063	18575.462211
618.385082	18405.517353
618.733048	18702.945430
619.080961	18561.833451
619.428821	18608.083517
619.776628	18503.550151
620.124382	18415.408097
620.472083	18446.267520
620.819731	18472.312641
621.167326	18172.011107
621.514868	18211.153146
621.862357	17972.361250
622.209793	17985.213672
622.557176	17823.115370
622.904506	17658.259557
623.251783	17560.877067
623.599007	17341.516299
623.946179	17289.113504
624.293297	17239.523674
624.640363	16999.153897
624.987376	16996.333371
625.334336	16797.013710
625.681243	16642.590565
626.028097	16646.741955
626.374899	16581.816935
626.721647	16459.853779
627.068343	16289.029240
627.414987	16219.562140
627.761577	16194.439550
628.108115	16247.638846
628.454600	15958.727799
628.801032	16057.496605
629.147412	15987.041439
629.493739	16007.054820
629.840014	15834.402863
630.186236	15927.162614
630.532405	15690.573702
630.878521	15886.402364
631.224585	15771.277534
631.570597	15603.245794
631.916556	15640.436907
632.262462	15613.459172
632.608316	15539.351690
632.954117	15481.592669
633.299866	15474.479601
633.645562	15404.589044
633.991206	15145.541792
634.336797	15014.859961
634.682336	14989.616383
635.027823	14888.712648
635.373257	14770.059010
635.718639	14655.503830
636.063968	14607.060862
636.409245	14365.236712
636.754470	14397.515220
637.099642	14240.359769
637.444762	14015.509184
637.789829	14058.215319
638.134845	13901.942071
638.479808	13923.561059
638.824719	13883.960275
639.169577	13729.834558
639.514383	13781.271971
639.859137	13599.223303
640.203839	13679.697762
640.548489	13517.785983
