Dividing Wavelength (nm)	Counts (n)	Blue Motor Position (mm): 46.800000	Red Motor Position (mm): 0.000000	
326.493990	2274.326640
326.888308	2274.326640
327.282561	2274.326640
327.676750	2234.534292
328.070874	2229.195710
328.464933	2232.016236
328.858929	2236.094529
329.252859	2241.730539
329.646726	2250.648340
330.040528	2260.677716
330.434265	2274.054418
330.827938	2293.840947
331.221547	2311.694193
331.615091	2326.865545
332.008571	2344.970849
332.401986	2366.052955
332.795338	2385.834443
333.188625	2406.417474
333.581847	2424.636204
333.975006	2443.417022
334.368100	2465.209930
334.761129	2480.860193
335.154095	2498.536998
335.546996	2523.984743
335.939833	2560.938921
336.332606	2577.151272
336.725315	2591.841194
337.117960	2607.350304
337.510540	2617.223404
337.903056	2627.366206
338.295508	2637.874491
338.687896	2644.581746
339.080220	2651.420071
339.472480	2659.853922
339.864676	2661.310815
340.256807	2667.904644
340.648875	2673.230623
341.040879	2675.557116
341.432818	2679.607683
341.824694	2680.366377
342.216506	2681.046932
342.608253	2681.457786
342.999937	2682.435770
343.391557	2682.095492
343.783113	2680.336130
344.174605	2678.581808
344.566033	2677.805470
344.957397	2678.912004
345.348697	2675.433607
345.739934	2676.083916
346.131106	2672.613082
346.522215	2670.072340
346.913260	2672.608041
347.304241	2668.927998
347.695159	2668.557474
348.086012	2665.772236
348.476802	2661.777122
348.867528	2660.539518
349.258191	2657.628252
349.648789	2656.254538
350.039324	2654.543066
350.429796	2659.574137
350.820203	2654.696821
351.210548	2655.377377
351.600828	2652.889567
351.991045	2652.186327
352.381198	2653.544917
352.771288	2651.034423
353.161314	2650.920997
353.551276	2651.089876
353.941175	2649.421254
354.331010	2648.513846
354.720782	2649.890081
355.110490	2650.021151
355.500135	2651.599032
355.889717	2649.408651
356.279235	2647.929072
356.668689	2649.499392
357.058080	2653.408806
357.447408	2649.779176
357.836672	2649.562406
358.225873	2651.261275
358.615010	2650.686583
359.004084	2655.568941
359.393095	2653.799496
359.782043	2655.521050
360.170927	2653.340751
360.559748	2657.630773
360.948505	2658.596154
361.337199	2660.121103
361.725830	2657.550114
362.114398	2658.976761
362.502903	2660.116062
362.891344	2655.687408
363.279722	2662.369457
363.668037	2661.250321
364.056289	2660.232008
364.444478	2662.704694
364.832603	2662.908861
365.220665	2662.195537
365.608665	2664.897596
365.996601	2665.590755
366.384474	2663.128151
366.772284	2664.965652
367.160031	2667.279541
367.547715	2666.929181
367.935336	2666.989675
368.322893	2666.871208
368.710388	2663.765857
369.097820	2663.599499
369.485189	2664.784170
369.872495	2671.156188
370.259738	2671.478822
370.646918	2670.735252
371.034035	2671.650222
371.421090	2675.095850
371.808081	2675.108453
372.195010	2679.942920
372.581875	2681.730009
372.968678	2685.606656
373.355418	2691.406503
373.742096	2700.336907
374.128710	2709.080789
374.515262	2717.832232
374.901751	2734.165570
375.288177	2746.428177
375.674540	2765.496342
376.060841	2783.241203
376.447079	2804.955973
376.833254	2829.287102
377.219367	2848.577077
377.605417	2878.082951
377.991404	2904.707805
378.377329	2940.268104
378.763191	2961.400621
379.148991	3006.420646
379.534727	3043.248795
379.920402	3081.382603
380.306013	3104.420676
380.691563	3168.889472
381.077049	3198.798638
381.462474	3240.360431
381.847835	3297.963175
382.233134	3340.747448
382.618371	3374.722304
383.003545	3443.531534
383.388657	3471.104125
383.773706	3532.505379
384.158693	3568.652972
384.543618	3598.315122
384.928480	3661.329545
385.313280	3719.625448
385.698017	3744.894231
386.082692	3838.440403
386.467305	3839.322605
386.851856	3878.852812
387.236344	3961.431954
387.620770	3985.604286
388.005133	4038.851474
388.389435	4085.862754
388.773674	4099.688118
389.157851	4173.026825
389.541965	4242.133482
389.926018	4207.770457
390.310008	4309.989933
390.693936	4361.762583
391.077802	4396.133170
391.461606	4394.484713
391.845348	4459.694559
392.229027	4518.043394
392.612645	4521.224362
392.996200	4624.232779
393.379694	4681.071789
393.763125	4787.790495
394.146494	4810.836130
394.529801	4869.396693
394.913047	4958.539417
395.296230	4904.770470
395.679351	5010.843909
396.062410	5064.305345
396.445408	5037.909864
396.828343	5093.778451
397.211217	5147.731400
397.594028	5035.996746
397.976778	5150.834230
398.359466	5197.948854
398.742092	5222.106063
399.124656	5142.322242
399.507158	5257.525210
399.889598	5325.243030
400.271977	5441.812151
400.654294	5442.510351
401.036549	5488.505838
401.418742	5405.024331
401.800874	5610.484117
402.182944	5674.640362
402.564952	5778.982164
402.946898	5841.142112
403.328783	5669.523591
403.710606	5695.825811
404.092367	6014.467063
404.474067	6039.037647
404.855705	5938.300270
405.237282	5871.827615
405.618797	6128.041739
406.000250	6103.085507
406.381642	6311.569986
406.762972	6330.285269
407.144240	6391.920937
407.525447	6376.442074
407.906593	6389.102932
408.287677	6555.395474
408.668700	6468.032278
409.049661	6582.355565
409.430560	6608.327589
409.811399	6469.970601
410.192176	6735.079841
410.572891	6752.136585
410.953545	6946.316790
411.334138	6678.586150
411.714669	6849.682912
412.095139	6643.295553
412.475547	6889.558439
412.855894	6959.975796
413.236180	7144.721482
413.616405	6806.318907
413.996568	7021.306474
414.376670	7071.891932
414.756711	6970.486602
415.136691	7063.702578
415.516609	7275.284846
415.896466	7250.895744
416.276262	7460.814431
416.655997	7450.659027
417.035670	7614.867051
417.415283	7964.428221
417.794834	8031.571349
418.174324	7884.896457
418.553753	7811.250241
418.933121	8102.913758
419.312428	8212.722692
419.691674	7983.607291
420.070859	8460.558418
420.449983	8144.213411
420.829045	8510.027260
421.208047	8279.840614
421.586988	8596.026824
421.965867	8620.247048
422.344686	8704.807363
422.723444	8782.345350
423.102141	8113.759801
423.480777	8882.719764
423.859352	8410.366169
424.237866	9025.122278
424.616319	8887.841577
424.994712	9324.660078
425.373044	8856.581382
425.751314	9343.453499
426.129524	9229.974606
426.507673	9305.218868
426.885762	9464.718455
427.263789	9381.012616
427.641756	9327.727620
428.019662	9409.626205
428.397508	9679.398512
428.775292	9334.664248
429.153016	9718.343946
429.530679	9558.070542
429.908282	9568.059588
430.285824	9295.388618
430.663305	9981.905552
431.040726	9437.092932
431.418086	9410.858768
431.795385	9747.181867
432.172624	9848.002423
432.549802	9745.722453
432.926920	9824.276233
433.303977	9703.570845
433.680974	9892.528415
434.057910	10002.407924
434.434786	10074.153626
434.811601	9883.172033
435.188355	10461.856165
435.565050	10207.187155
435.941683	10120.580132
436.318257	10599.703997
436.694770	10772.174473
437.071222	10820.317492
437.447614	10649.646708
437.823946	10575.193907
438.200218	10663.930817
438.576429	10511.110759
438.952580	10754.449776
439.328670	10779.118662
439.704700	10580.799670
440.080670	10571.760881
440.456580	11086.520662
440.832429	10880.826462
441.208218	10480.856274
441.583947	10774.732858
441.959616	10956.748759
442.335224	10773.210430
442.710773	10876.508713
443.086261	11107.159146
443.461689	10369.529953
443.837057	11060.833463
444.212365	11293.671756
444.587612	10930.600294
444.962800	11147.715228
445.337927	10881.950639
445.712995	10565.315766
446.088002	11600.065525
446.462949	11294.367435
446.837837	11258.474420
447.212664	11180.817965
447.587431	11776.667226
447.962139	12536.936241
448.336786	14828.985057
448.711374	15323.103834
449.085901	13127.081436
449.460369	12786.470836
449.834776	12224.926626
450.209124	13166.094926
450.583412	13580.024068
450.957640	14509.968239
451.331808	13543.732802
451.705917	12628.307154
452.079965	11856.158661
452.453954	12773.961212
452.827883	12434.399172
453.201752	12719.483983
453.575562	12279.267744
453.949311	12688.117924
454.323001	12678.761542
454.696632	12914.548911
455.070202	13191.116693
455.443713	13377.790620
455.817164	13876.766548
456.190556	13841.349922
456.563888	14198.641701
456.937160	14345.813146
457.310373	13710.191702
457.683526	13823.756295
458.056619	13334.996265
458.429653	13555.818968
458.802628	12906.346953
459.175542	13317.652175
459.548398	14279.315286
459.921194	14642.966480
460.293930	14714.629003
460.666607	15546.926023
461.039224	16607.425996
461.411782	17342.857246
461.784280	17113.784694
462.156719	17230.227786
462.529099	16893.929893
462.901419	15859.122160
463.273680	15616.700634
463.645882	15526.025399
464.018024	15245.298665
464.390106	15466.083560
464.762130	16173.251580
465.134094	16984.395919
465.505999	19048.612308
465.877845	22320.394251
466.249631	25120.034327
466.621358	24729.962446
466.993026	23309.130878
467.364634	22723.805026
467.736184	21255.233731
468.107674	20455.457194
468.479105	20586.507029
468.850477	20044.023423
469.221790	19648.474327
469.593043	18956.737279
469.964238	18372.805306
470.335373	18016.708280
470.706449	18534.742291
471.077467	18118.637890
471.448425	20000.596403
471.819324	24141.805985
472.190164	25948.787417
472.560945	22260.916197
472.931667	19981.472786
473.302330	19378.956599
473.672934	19028.861067
474.043479	19240.607173
474.413965	19033.418270
474.784393	18632.190315
475.154761	19410.831815
475.525070	19319.750768
475.895321	19046.147184
476.265513	19657.084618
476.635645	20245.969525
477.005719	19995.154477
477.375734	20184.280926
477.745691	20677.300731
478.115588	21217.384748
478.485427	21783.748300
478.855207	22886.067165
479.224928	24678.567882
479.594591	26895.697591
479.964194	26797.266541
480.333739	27040.650928
480.703226	26625.637938
481.072653	26335.698495
481.442022	26974.783212
481.811333	27900.966682
482.180584	27761.737574
482.549777	26811.056618
482.918912	26497.002815
483.287988	26634.941387
483.657005	26251.692707
484.025964	26059.355044
484.394864	25914.920945
484.763706	25552.940893
485.132489	25038.196236
485.501213	25211.740477
485.869879	25128.211079
486.238487	24969.477747
486.607036	25106.145948
486.975527	24854.219326
487.343959	25138.673994
487.712333	25045.710076
488.080648	24702.893970
488.448905	25232.406688
488.817104	24989.443237
489.185244	25694.846853
489.553326	25634.645394
489.921350	26692.181169
490.289315	29053.170284
490.657222	30750.937638
491.025070	31263.736411
491.392861	31004.721926
491.760593	30154.405301
492.128267	29236.932945
492.495883	28159.217432
492.863440	27298.163149
493.230939	26435.178104
493.598380	26284.591277
493.965763	25899.464767
494.333088	25390.212447
494.700354	25365.228489
495.067563	25201.534662
495.434713	24965.144875
495.801805	25142.434694
496.168839	24908.779734
496.535815	24782.637462
496.902733	25007.498129
497.269593	24700.887591
497.636395	24863.913465
498.003139	24780.666371
498.369825	24529.032136
498.736453	24749.449026
499.103023	24613.327790
499.469535	24619.820796
499.835989	24838.190977
500.202385	24855.517423
500.568723	24400.339040
500.935003	24572.640637
501.301226	24279.525267
501.667390	25112.339006
502.033497	25318.560007
502.399546	25048.202926
502.765537	24586.400466
503.131470	24965.616223
503.497345	25113.281702
503.863163	24349.867007
504.228923	24888.700818
504.594625	25150.460211
504.960269	24707.894795
505.325856	25188.266345
505.691385	24578.173303
506.056856	25185.811303
506.422270	25172.747152
506.787625	24697.061355
507.152924	25126.827282
507.518164	25168.482336
507.883347	24985.155736
508.248472	24653.704911
508.613540	25429.999754
508.978550	25232.459620
509.343503	25250.534677
509.708398	25442.413595
510.073236	25614.647137
510.438016	25834.973286
510.802738	25477.502547
511.167403	25746.788382
511.532010	25489.755071
511.896561	26228.677319
512.261053	26200.376282
512.625488	26026.988316
512.989866	25929.341166
513.354186	25750.344916
513.718449	25878.153290
514.082655	26260.983554
514.446803	25961.864170
514.810894	26465.611550
515.174927	25957.160773
515.538904	26000.335735
515.902822	26505.260225
516.266684	26233.438689
516.630488	26143.658260
516.994235	26091.373933
517.357925	26444.226976
517.721558	26576.481647
518.085133	26715.935086
518.448651	26585.424654
518.812112	26367.883742
519.175516	26597.588958
519.538863	26738.481646
519.902152	26529.558587
520.265385	26776.814580
520.628560	26587.168893
520.991678	26571.536275
521.354739	26618.237524
521.717743	26716.860137
522.080690	26479.472203
522.443580	26814.051063
522.806413	26787.312783
523.169189	26914.480930
523.531908	26949.330426
523.894569	26586.228718
524.257174	26683.026433
524.619722	26818.774624
524.982213	26530.460953
525.344647	26545.584415
525.707025	26726.332465
526.069345	26662.498855
526.431608	26651.299932
526.793815	26804.046893
527.155964	26323.377915
527.518057	26488.805899
527.880093	26394.750571
528.242072	26625.950489
528.603995	26346.983118
528.965860	26124.887523
529.327669	26171.253536
529.689421	26159.825240
530.051117	26003.413360
530.412755	26177.925503
530.774337	25956.873428
531.135862	25863.949839
531.497331	26034.192125
531.858743	25629.702543
532.220098	26078.614772
532.581396	25777.022702
532.942638	25672.350704
533.303824	25795.543902
533.664953	25779.596211
534.026025	25446.050788
534.387040	25700.611413
534.747999	25741.371662
535.108902	25905.614975
535.469748	25402.442286
535.830537	25548.618104
536.191270	25711.913680
536.551947	25514.701221
536.912567	25149.565407
537.273131	25593.171822
537.633638	25250.287660
537.994089	25479.077907
538.354483	24961.487518
538.714821	25479.448432
539.075103	25518.744226
539.435328	25284.638083
539.795497	24896.166767
540.155609	25225.477622
540.515665	25562.158643
540.875665	24765.802529
541.235609	25115.557783
541.595496	25027.400605
541.955328	25403.616875
542.315102	25327.651728
542.674821	24819.926877
543.034483	24715.998449
543.394090	24880.549273
543.753640	24692.741086
544.113134	25328.617109
544.472571	24908.086576
544.831953	25218.724996
545.191278	24871.628951
545.550548	24737.587191
545.909761	24955.155829
546.268918	25197.247160
546.628019	25169.825804
546.987064	24843.998387
547.346053	24579.549538
547.704986	24671.669063
548.063863	24832.358362
548.422684	24870.144331
548.781449	24364.057855
549.140158	24778.987667
549.498811	24349.567059
549.857408	24119.781184
550.215949	24503.176057
550.574434	24203.381159
550.932864	24393.961980
551.291237	24596.266004
551.649555	24420.576752
552.007817	24480.440454
552.366022	24334.539379
552.724173	24358.099212
553.082267	24325.692154
553.440305	24826.137579
553.798288	24039.727661
554.156215	24533.627147
554.514086	24668.296531
554.871902	24074.171345
555.229661	24328.255581
555.587365	24188.237533
555.945014	24098.883081
556.302606	24288.332163
556.660143	24298.603514
557.017625	24525.425190
557.375050	24043.377456
557.732421	24415.389404
558.089735	24255.718418
558.446994	24299.150479
558.804197	24347.137223
559.161345	24222.603078
559.518437	24039.092476
559.875474	24189.722153
560.232455	24370.238310
560.589381	24173.948382
560.946251	24192.890518
561.303065	24488.886907
561.659825	24577.028961
562.016528	24186.596637
562.373177	23919.667541
562.729770	24280.099959
563.086307	24121.946360
563.442789	24298.074193
563.799216	24157.239478
564.155587	24144.402179
564.511904	24118.624239
564.868164	24094.472071
565.224370	24046.187900
565.580520	23986.175484
565.936615	24098.807463
566.292654	23818.756244
566.648638	24031.790364
567.004567	23873.351940
567.360441	23814.456140
567.716260	23526.903683
568.072023	23844.556869
568.427732	23621.460606
568.783385	23391.072313
569.138982	23644.090345
569.494525	23670.556403
569.850013	23436.876237
570.205445	23532.295197
570.560823	23354.546633
570.916145	23125.973156
571.271412	23318.782167
571.626625	23071.085073
571.981782	23162.168641
572.336884	22964.779741
572.691931	23117.728349
573.046923	22855.681610
573.401860	22732.485893
573.756743	22768.457046
574.111570	22646.572028
574.466342	22579.955701
574.821059	22647.091267
575.175722	22362.719778
575.530330	22313.906286
575.884882	22326.695693
576.239380	22236.201940
576.593823	22137.740644
576.948211	22106.140171
577.302544	21965.572637
577.656823	21826.512408
578.011047	21939.245211
578.365216	21802.067853
578.719330	21679.325840
579.073389	21561.584650
579.427394	21735.733831
579.781344	21465.878345
580.135239	21359.865400
580.489080	21303.404477
580.842866	21079.942730
581.196597	21306.328346
581.550273	21247.626630
581.903895	21133.144547
582.257463	21445.507042
582.610975	20977.284673
582.964434	21320.622538
583.317837	20968.545832
583.671186	21066.331614
584.024481	21053.345602
584.377721	20819.604942
584.730906	20915.681773
585.084037	20887.169007
585.437113	20825.654327
585.790135	21024.008607
586.143103	20470.744493
586.496016	20502.902013
586.848874	20730.734441
587.201679	20640.573404
587.554428	20345.804536
587.907124	20681.336174
588.259765	20433.349214
588.612352	20506.818990
588.964884	20072.977290
589.317362	20248.543034
589.669786	20310.075358
590.022155	20297.195210
590.374470	20549.068900
590.726731	20298.127824
591.078937	20101.542988
591.431090	20171.955305
591.783188	19955.402459
592.135232	19907.708102
592.487222	20007.129738
592.839157	20007.286014
593.191038	19898.119828
593.542866	19781.429719
593.894639	19483.066508
594.246358	19695.467964
594.598022	19582.765408
594.949633	19342.960240
595.301190	19340.008644
595.652692	19498.305916
596.004141	19710.717454
596.355535	19044.980157
596.706876	19078.395445
597.058162	18963.512590
597.409395	19215.857628
597.760573	19250.344161
598.111698	19027.056334
598.462768	18972.332088
598.813785	18951.174366
599.164748	18745.475124
599.515657	18801.953691
599.866511	18604.285008
600.217312	18957.501014
600.568060	18450.970917
600.918753	18772.596532
601.269392	18677.028858
601.619978	18471.493454
601.970510	18658.270724
602.320988	18606.059494
602.671412	18810.498447
603.021783	18739.856758
603.372100	18437.959698
603.722363	18603.818701
604.072572	18544.398621
604.422728	18694.708184
604.772830	18440.177806
605.122878	18410.119926
605.472872	18387.754847
605.822813	18369.415130
606.172701	18354.112707
606.522534	18522.310805
606.872314	18553.818017
607.222041	18408.032889
607.571714	18615.103324
607.921333	18436.659081
608.270899	18521.257204
608.620411	18660.428338
608.969870	18469.681159
609.319276	18455.921330
609.668627	18484.537439
610.017926	18618.488459
610.367171	18727.490808
610.716362	18789.247463
611.065500	18602.737374
611.414585	18746.848839
611.763616	18732.340398
612.112594	18655.271238
612.461518	18637.584350
612.810389	18832.553495
613.159207	18687.791721
613.507971	18606.016644
613.856682	18850.376495
614.205340	18758.312423
614.553945	18917.970806
614.902496	18669.515018
615.250994	18872.008086
615.599439	18830.315223
615.947830	18807.647675
616.296169	18890.171363
616.644454	18841.138580
616.992686	18828.036621
617.340864	19045.086021
617.688990	18784.642369
618.037063	18960.649214
618.385082	18825.228699
618.733048	19083.678574
619.080961	18987.813472
619.428821	19015.033182
619.776628	18890.529285
620.124382	18801.252971
620.472083	18879.035454
620.819731	18873.661584
621.167326	18565.813442
621.514868	18611.009907
621.862357	18401.078617
622.209793	18390.459426
622.557176	18221.951297
622.904506	18061.110763
623.251783	18002.585488
623.599007	17732.883757
623.946179	17679.366868
624.293297	17611.558307
624.640363	17334.998087
624.987376	17363.614197
625.334336	17171.001790
625.681243	17020.644336
626.028097	17030.829987
626.374899	16943.403777
626.721647	16811.877552
627.068343	16654.535579
627.414987	16588.509066
627.761577	16540.708846
628.108115	16573.652786
628.454600	16312.725183
628.801032	16406.563742
629.147412	16352.189856
629.493739	16350.498549
629.840014	16161.503171
630.186236	16269.303205
630.532405	16028.220104
630.878521	16222.233951
631.224585	16132.645086
631.570597	15949.194977
631.916556	15983.784854
632.262462	15948.524503
632.608316	15868.816299
632.954117	15816.312682
633.299866	15800.980013
633.645562	15718.879781
633.991206	15488.315048
634.336797	15359.974833
634.682336	15337.062789
635.027823	15190.128277
635.373257	15052.371187
635.718639	14978.646832
636.063968	14915.410599
