Dividing Wavelength (nm)	Counts (n)	Blue Motor Position (mm): 27.900000	Red Motor Position (mm): 0.000000	
326.493990	2207.463296
326.888308	2207.463296
327.282561	2207.463296
327.676750	2167.499549
328.070874	2163.990906
328.464933	2166.582059
328.858929	2168.548109
329.252859	2169.485763
329.646726	2180.374656
330.040528	2195.921574
330.434265	2205.547658
330.827938	2224.512478
331.221547	2241.463358
331.615091	2260.839033
332.008571	2278.165479
332.401986	2297.495783
332.795338	2316.246355
333.188625	2332.367965
333.581847	2352.169617
333.975006	2369.738038
334.368100	2390.351316
334.761129	2408.370921
335.154095	2426.798859
335.546996	2450.083948
335.939833	2488.434526
336.332606	2501.120590
336.725315	2515.986953
337.117960	2529.832482
337.510540	2540.706250
337.903056	2549.382076
338.295508	2559.741647
338.687896	2569.072823
339.080220	2574.353432
339.472480	2581.758887
339.864676	2588.788776
340.256807	2592.287337
340.648875	2597.106680
341.040879	2603.221599
341.432818	2604.073554
341.824694	2607.234358
342.216506	2606.687392
342.608253	2605.681682
342.999937	2606.800818
343.391557	2609.298710
343.783113	2608.005654
344.174605	2605.343925
344.566033	2606.674790
344.957397	2606.357197
345.348697	2602.510797
345.739934	2602.823348
346.131106	2600.869901
346.522215	2596.912595
346.913260	2596.471494
347.304241	2593.265320
347.695159	2592.854466
348.086012	2593.756833
348.476802	2588.345154
348.867528	2588.584609
349.258191	2586.467324
349.648789	2582.512539
350.039324	2577.788978
350.429796	2583.465317
350.820203	2579.545820
351.210548	2578.625810
351.600828	2578.580439
351.991045	2579.608835
352.381198	2577.869637
352.771288	2575.782599
353.161314	2574.161868
353.551276	2575.777558
353.941175	2572.762948
354.331010	2575.570870
354.720782	2574.081209
355.110490	2572.266394
355.500135	2571.704305
355.889717	2574.146744
356.279235	2572.329408
356.668689	2575.492732
357.058080	2574.320664
357.447408	2572.742783
357.836672	2572.697413
358.225873	2573.720767
358.615010	2573.113308
359.004084	2573.249419
359.393095	2577.373083
359.782043	2576.069945
360.170927	2577.365521
360.559748	2575.840572
360.948505	2578.096488
361.337199	2578.802250
361.725830	2580.044894
362.114398	2579.094637
362.502903	2579.634040
362.891344	2579.772672
363.279722	2581.068249
363.668037	2580.992631
364.056289	2579.381983
364.444478	2582.346181
364.832603	2582.832653
365.220665	2583.664443
365.608665	2582.903229
365.996601	2583.893815
366.384474	2583.417426
366.772284	2586.565627
367.160031	2585.373394
367.547715	2586.432036
367.935336	2585.827098
368.322893	2586.754670
368.710388	2580.397775
369.097820	2584.226532
369.485189	2584.523960
369.872495	2584.932293
370.259738	2588.672829
370.646918	2586.822726
371.034035	2589.706266
371.421090	2588.365319
371.808081	2587.359609
372.195010	2589.703745
372.581875	2590.797676
372.968678	2590.409507
373.355418	2590.260793
373.742096	2588.453539
374.128710	2588.897161
374.515262	2590.878334
374.901751	2589.575196
375.288177	2593.010742
375.674540	2592.793972
376.060841	2592.957810
376.447079	2592.108376
376.833254	2595.644745
377.219367	2592.075608
377.605417	2593.968561
377.991404	2597.295723
378.377329	2593.887903
378.763191	2595.145671
379.148991	2593.633325
379.534727	2597.096597
379.920402	2596.058120
380.306013	2594.316401
380.691563	2599.155909
381.077049	2596.968048
381.462474	2595.659868
381.847835	2593.973603
382.233134	2596.496700
382.618371	2594.727255
383.003545	2598.424941
383.388657	2596.650455
383.773706	2599.581886
384.158693	2598.266145
384.543618	2598.140116
384.928480	2598.114910
385.313280	2598.984509
385.698017	2599.259252
386.082692	2597.318408
386.467305	2600.164139
386.851856	2603.224120
387.236344	2598.949221
387.620770	2599.660024
388.005133	2596.600044
388.389435	2599.647421
388.773674	2596.630291
389.157851	2603.007350
389.541965	2602.165477
389.926018	2602.956939
390.310008	2603.226640
390.693936	2604.232351
391.077802	2602.742690
391.461606	2603.251846
391.845348	2605.492639
392.229027	2605.711929
392.612645	2604.091198
392.996200	2607.191508
393.379694	2605.343925
393.763125	2607.927516
394.146494	2606.115222
394.529801	2607.980448
394.913047	2606.226127
395.296230	2607.897269
395.679351	2607.604882
396.062410	2609.326437
396.445408	2609.417177
396.828343	2608.542537
397.211217	2609.195367
397.594028	2612.830038
397.976778	2607.816611
398.359466	2607.834255
398.742092	2609.848196
399.124656	2607.617485
399.507158	2610.438011
399.889598	2610.914400
400.271977	2610.511108
400.654294	2609.926334
401.036549	2609.384410
401.418742	2611.131170
401.800874	2611.549585
402.182944	2613.621500
402.564952	2611.088320
402.946898	2613.248454
403.328783	2614.702827
403.710606	2612.383896
404.092367	2614.874226
404.474067	2614.433125
404.855705	2615.796758
405.237282	2618.198867
405.618797	2616.368928
406.000250	2617.946810
406.381642	2616.661315
406.762972	2611.962960
407.144240	2611.239554
407.525447	2616.870523
407.906593	2615.892539
408.287677	2620.979064
408.668700	2617.644340
409.049661	2619.098713
409.430560	2618.050153
409.811399	2618.884464
410.192176	2620.588374
410.572891	2623.620628
410.953545	2621.629372
411.334138	2621.057202
411.714669	2619.139042
412.095139	2620.301028
412.475547	2620.797582
412.855894	2621.704990
413.236180	2623.068622
413.616405	2622.652727
413.996568	2620.386728
414.376670	2622.662809
414.756711	2620.482510
415.136691	2624.233128
415.516609	2624.039044
415.896466	2624.638941
416.276262	2624.961575
416.655997	2626.678088
417.035670	2624.517954
417.415283	2627.640948
417.794834	2628.185393
418.174324	2626.310084
418.553753	2624.906122
418.933121	2630.297637
419.312428	2626.126082
419.691674	2628.145064
420.070859	2629.924591
420.449983	2631.026083
420.829045	2632.508182
421.208047	2633.639922
421.586988	2631.961217
421.965867	2636.578914
422.344686	2634.938019
422.723444	2633.244191
423.102141	2634.680920
423.480777	2637.592186
423.859352	2635.545478
424.237866	2637.791312
424.616319	2637.181332
424.994712	2637.135962
425.373044	2638.620582
425.751314	2640.493370
426.129524	2635.338790
426.507673	2639.782567
426.885762	2637.186373
427.263789	2643.202990
427.641756	2641.370531
428.019662	2642.388844
428.397508	2642.935809
428.775292	2643.404637
429.153016	2641.703247
429.530679	2646.555358
429.908282	2646.658701
430.285824	2648.579381
430.663305	2651.241110
431.040726	2651.558703
431.418086	2653.509629
431.795385	2655.848725
432.172624	2658.253355
432.549802	2656.889723
432.926920	2662.205620
433.303977	2664.322904
433.680974	2668.300375
434.057910	2673.833041
434.434786	2679.103567
434.811601	2682.178671
435.188355	2692.828109
435.565050	2698.247349
435.941683	2705.289841
436.318257	2718.830380
436.694770	2732.098697
437.071222	2746.861716
437.447614	2758.917636
437.823946	2771.722167
438.200218	2792.630352
438.576429	2807.716005
438.952580	2836.347238
439.328670	2865.270858
439.704700	2883.136708
440.080670	2914.321285
440.456580	2968.085191
440.832429	2999.484018
441.208218	3012.981707
441.583947	3073.505800
441.959616	3128.285499
442.335224	3164.768329
442.710773	3226.731672
443.086261	3296.375212
443.461689	3300.690440
443.837057	3418.328285
444.212365	3506.629136
444.587612	3541.460988
444.962800	3643.604848
445.337927	3690.565716
445.712995	3713.051783
446.088002	3939.081998
446.462949	3977.893842
446.837837	4062.418868
447.212664	4156.958147
447.587431	4342.276003
447.962139	4581.728290
448.336786	5157.657432
448.711374	5448.196772
449.085901	5082.050207
449.460369	5081.669600
449.834776	5075.111058
450.209124	5418.625364
450.583412	5664.787427
450.957640	6080.039872
451.331808	5979.733513
451.705917	5796.376666
452.079965	5699.526018
452.453954	6138.171938
452.827883	6135.855527
453.201752	6372.772114
453.575562	6323.366286
453.949311	6612.300018
454.323001	6733.358287
454.696632	6954.334745
455.070202	7221.594037
455.443713	7467.811553
455.817164	7845.288111
456.190556	7987.264648
456.563888	8321.795617
456.937160	8565.432062
457.310373	8375.819142
457.683526	8557.497286
458.056619	8481.559865
458.429653	8684.045371
458.802628	8541.521869
459.175542	8874.013692
459.548398	9553.528462
459.921194	9915.248895
460.293930	10069.132637
460.666607	10775.486511
461.039224	11555.723536
461.411782	12171.281188
461.784280	12312.294864
462.156719	12546.660627
462.529099	12493.191628
462.901419	11931.370156
463.273680	11944.646034
463.645882	11981.247332
464.018024	11920.272055
464.390106	12223.557953
464.762130	12941.430864
465.134094	13598.043673
465.505999	15140.135155
465.877845	17739.621259
466.249631	20221.966071
466.621358	20297.822834
466.993026	19413.594367
467.364634	19170.817439
467.736184	18161.316299
468.107674	17597.309486
468.479105	17832.393613
468.850477	17499.647213
469.221790	17259.022857
469.593043	16795.952547
469.964238	16427.197184
470.335373	16236.087042
470.706449	16676.527613
471.077467	16350.306985
471.448425	18057.786122
471.819324	21768.902102
472.190164	23860.474313
472.560945	20790.928338
472.931667	18610.901522
473.302330	18063.099498
473.672934	17606.096217
474.043479	18058.829641
474.413965	17931.835414
474.784393	17636.827091
475.154761	18327.157658
475.525070	18401.600376
475.895321	18077.486952
476.265513	18695.308082
476.635645	19285.556621
477.005719	19128.191962
477.375734	19359.149905
477.745691	19871.845334
478.115588	20370.440655
478.485427	20897.251314
478.855207	21955.757511
479.224928	23665.124560
479.594591	25870.115170
479.964194	26010.511304
480.333739	26254.916525
480.703226	25865.636105
481.072653	25541.797423
481.442022	26092.339314
481.811333	26995.008321
482.180584	26971.135937
482.549777	26054.802882
482.918912	25693.344590
483.287988	25817.198178
483.657005	25528.050196
484.025964	25253.012404
484.394864	25221.593413
484.763706	24941.622852
485.132489	24367.634554
485.501213	24528.175139
485.869879	24466.244564
486.238487	24250.654579
486.607036	24424.546660
486.975527	24101.121353
487.343959	24451.040444
487.712333	24417.637759
488.080648	24083.651234
488.448905	24540.967067
488.817104	24296.846672
489.185244	24960.897703
489.553326	24941.653098
489.921350	25883.822067
490.289315	28133.515109
490.657222	29949.237901
491.025070	30445.567224
491.392861	30260.098133
491.760593	29427.975032
492.128267	28536.860349
492.495883	27508.424635
492.863440	26624.586857
493.230939	25755.083601
493.598380	25602.152637
493.965763	25201.053231
494.333088	24774.503560
494.700354	24676.022099
495.067563	24570.636778
495.434713	24348.324414
495.801805	24476.357119
496.168839	24306.959226
496.535815	24114.624084
496.902733	24330.831610
497.269593	23999.153934
497.636395	24179.803682
498.003139	24185.217882
498.369825	23929.003758
498.736453	24121.205310
499.103023	24005.289018
499.469535	24025.229303
499.835989	24216.657038
500.202385	24251.176338
500.568723	23745.291509
500.935003	24029.504201
501.301226	23606.778245
501.667390	24433.787095
502.033497	24674.091337
502.399546	24400.092023
502.765537	23992.166895
503.131470	24384.126689
503.497345	24511.365412
503.863163	23717.650862
504.228923	24345.007335
504.594625	24534.582446
504.960269	24044.804103
505.325856	24557.822165
505.691385	23959.321257
506.056856	24559.568925
506.422270	24528.901066
506.787625	24121.033911
507.152924	24524.064078
507.518164	24551.987030
507.883347	24351.578479
508.248472	24057.207862
508.613540	24838.861451
508.978550	24608.251348
509.343503	24591.144192
509.708398	24868.904207
510.073236	25029.974114
510.438016	25243.741722
510.802738	24914.778707
511.167403	25170.665156
511.532010	24854.920047
511.896561	25648.730378
512.261053	25621.755164
512.625488	25449.108247
512.989866	25351.350192
513.354186	25201.698499
513.718449	25293.076974
514.082655	25683.607601
514.446803	25412.658185
514.810894	25855.410124
515.174927	25352.214750
515.538904	25381.032506
515.902822	25874.969801
516.266684	25629.972245
516.630488	25524.176069
516.994235	25521.594999
517.357925	25809.676776
517.721558	25993.144529
518.085133	26077.500677
518.448651	26014.627407
518.812112	25731.954787
519.175516	25919.014362
519.538863	26101.615037
519.902152	25866.659459
520.265385	26165.133575
520.628560	25953.505937
520.991678	25962.564890
521.354739	26039.266046
521.717743	26090.060712
522.080690	25894.521916
522.443580	26232.513638
522.806413	26220.752626
523.169189	26306.280842
523.531908	26365.731169
523.894569	25968.939429
524.257174	26039.409719
524.619722	26239.377168
524.982213	25931.569356
525.344647	25989.182183
525.707025	26106.210048
526.069345	26105.592507
526.431608	26057.348665
526.793815	26250.818067
527.155964	25705.682814
527.518057	25872.655911
527.880093	25805.616127
528.242072	26030.975868
528.603995	25739.158596
528.965860	25532.100763
529.327669	25584.637148
529.689421	25568.495373
530.051117	25396.776029
530.412755	25588.740647
530.774337	25399.556226
531.135862	25259.323929
531.497331	25458.507479
531.858743	24994.189483
532.220098	25496.923592
532.581396	25154.518340
532.942638	25108.202739
533.303824	25204.909714
533.664953	25219.773556
534.026025	24883.828543
534.387040	25114.035354
534.747999	25181.659913
535.108902	25345.656209
535.469748	24840.734240
535.830537	25028.998651
536.191270	25147.828729
536.551947	25037.820670
536.912567	24691.417783
537.273131	25006.507543
537.633638	24724.959100
537.994089	24932.387458
538.354483	24484.203675
538.714821	24975.650640
539.075103	25018.903740
539.435328	24806.217459
539.795497	24355.218192
540.155609	24769.457365
540.515665	25062.779422
540.875665	24306.359329
541.235609	24580.525002
541.595496	24550.754468
541.955328	24902.138014
542.315102	24820.062988
542.674821	24380.368509
543.034483	24253.709518
543.394090	24415.094497
543.753640	24214.285175
544.113134	24848.943759
544.472571	24446.815958
544.831953	24728.845830
545.191278	24332.316230
545.550548	24276.475369
545.909761	24489.806917
546.268918	24715.703542
546.628019	24676.216184
546.987064	24388.073912
547.346053	24138.763649
547.704986	24264.255612
548.063863	24422.852833
548.422684	24413.241873
548.781449	23970.031188
549.140158	24363.296641
549.498811	23938.725623
549.857408	23682.836654
550.215949	24129.082113
550.574434	23799.357884
550.932864	24017.972562
551.291237	24153.783767
551.649555	24036.178689
552.007817	24091.134827
552.366022	23956.377223
552.724173	24002.516384
553.082267	23930.306896
553.440305	24411.222891
553.798288	23676.542773
554.156215	24198.922258
554.514086	24283.734631
554.871902	23666.571371
555.229661	23945.163177
555.587365	23810.713083
555.945014	23659.541482
556.302606	23926.382358
556.660143	23858.493139
557.017625	24116.648107
557.375050	23643.855932
557.732421	24033.206928
558.089735	23843.470501
558.446994	23911.962137
558.804197	23927.645167
559.161345	23881.437951
559.518437	23631.031236
559.875474	23840.216436
560.232455	24012.386963
560.589381	23835.697041
560.946251	23806.949862
561.303065	24142.718434
561.659825	24217.579569
562.016528	23839.084697
562.373177	23569.624941
562.729770	23917.456995
563.086307	23799.925014
563.442789	23964.319561
563.799216	23780.052785
564.155587	23791.773468
564.511904	23783.659731
564.868164	23707.755077
565.224370	23694.980793
565.580520	23600.456638
565.936615	23740.777156
566.292654	23406.886413
566.648638	23718.442323
567.004567	23549.364544
567.360441	23495.635926
567.716260	23211.715621
568.072023	23549.735069
568.427732	23301.654847
568.783385	23094.523918
569.138982	23321.297703
569.494525	23359.728939
569.850013	23114.408749
570.205445	23215.446075
570.560823	23009.835054
570.916145	22767.267333
571.271412	22940.216719
571.626625	22708.676523
571.981782	22821.258091
572.336884	22615.256380
572.691931	22761.275922
573.046923	22487.117811
573.401860	22373.974154
573.756743	22370.077343
574.111570	22284.039970
574.466342	22224.312379
574.821059	22313.074495
575.175722	22023.893746
575.530330	22004.243328
575.884882	22023.074559
576.239380	21935.660951
576.593823	21816.561171
576.948211	21804.792597
577.302544	21638.305971
577.656823	21518.984380
578.011047	21614.191611
578.365216	21490.355667
578.719330	21369.993078
579.073389	21266.372161
579.427394	21414.559398
579.781344	21188.201508
580.135239	21074.026936
580.489080	21034.627798
580.842866	20808.610186
581.196597	20985.882361
581.550273	20981.836835
581.903895	20872.453878
582.257463	21184.339985
582.610975	20712.188036
582.964434	21011.466216
583.317837	20725.330324
583.671186	20811.367697
584.024481	20784.145466
584.377721	20559.221784
584.730906	20624.761825
585.084037	20638.924947
585.437113	20549.827594
585.790135	20746.924107
586.143103	20222.344158
586.496016	20226.349355
586.848874	20469.953032
587.201679	20405.625388
587.554428	20070.035777
587.907124	20399.911240
588.259765	20193.405414
588.612352	20264.967114
588.964884	19831.637091
589.317362	20004.881384
589.669786	20052.875689
590.022155	20102.692371
590.374470	20286.054260
590.726731	20096.431258
591.078937	19840.658236
591.431090	19950.658733
591.783188	19694.255566
592.135232	19661.475463
592.487222	19769.426732
592.839157	19793.173087
593.191038	19676.971970
593.542866	19553.476304
593.894639	19281.319531
594.246358	19488.609257
594.598022	19404.787471
594.949633	19148.449839
595.301190	19109.343088
595.652692	19279.000600
596.004141	19524.658548
596.355535	18855.397484
596.706876	18865.444503
597.058162	18751.806813
597.409395	18980.045054
597.760573	19058.629081
598.111698	18848.392801
598.462768	18775.152397
598.813785	18746.901771
599.164748	18561.107525
599.515657	18601.144369
599.866511	18379.709166
600.217312	18739.846676
600.568060	18272.745963
600.918753	18585.312625
601.269392	18491.716042
601.619978	18262.542668
601.970510	18479.760946
602.320988	18414.089835
602.671412	18630.612434
603.021783	18526.114356
603.372100	18260.506042
603.722363	18409.943486
604.072572	18349.454681
604.422728	18482.790680
604.772830	18246.247138
605.122878	18195.737297
605.472872	18183.404114
605.822813	18170.181168
606.172701	18139.644378
606.522534	18341.177106
606.872314	18366.103092
607.222041	18190.557512
607.571714	18412.038085
607.921333	18238.007372
608.270899	18317.700453
608.620411	18495.776692
608.969870	18260.637112
609.319276	18267.815715
609.668627	18293.177760
610.017926	18438.975491
610.367171	18533.913021
610.716362	18584.954703
611.065500	18414.130164
611.414585	18544.880051
611.763616	18520.299385
612.112594	18466.921127
612.461518	18430.942412
612.810389	18630.977918
613.159207	18478.770359
613.507971	18394.378923
613.856682	18666.651643
614.205340	18604.595039
614.553945	18757.510879
614.902496	18487.496597
615.250994	18725.907886
615.599439	18667.639709
615.947830	18654.018511
616.296169	18699.756900
616.644454	18670.805553
616.992686	18629.400036
617.340864	18850.169807
617.688990	18603.685111
618.037063	18783.213202
618.385082	18626.125807
618.733048	18912.440660
619.080961	18787.581362
619.428821	18818.523964
619.776628	18705.508857
620.124382	18637.319689
620.472083	18665.769441
620.819731	18701.049956
621.167326	18391.530672
621.514868	18420.691226
621.862357	18187.331173
622.209793	18207.057208
622.557176	18037.094706
622.904506	17864.026854
623.251783	17773.754912
623.599007	17547.144964
623.946179	17485.128689
624.293297	17422.898166
624.640363	17170.474990
624.987376	17203.250052
625.334336	16988.368348
625.681243	16829.975294
626.028097	16834.459401
626.374899	16774.061337
626.721647	16634.257538
627.068343	16470.843494
627.414987	16397.333389
627.761577	16376.873866
628.108115	16418.980104
628.454600	16139.392670
628.801032	16240.563587
629.147412	16171.081363
629.493739	16198.159921
629.840014	16004.173801
630.186236	16094.493633
630.532405	15857.241810
630.878521	16060.612038
631.224585	15956.063549
631.570597	15771.607730
631.916556	15807.014274
632.262462	15784.639112
632.608316	15695.589650
632.954117	15645.898997
633.299866	15633.903571
633.645562	15557.590584
633.991206	15318.203832
634.336797	15179.211659
634.682336	15152.758204
635.027823	15045.225351
635.373257	14922.957206
635.718639	14816.853520
636.063968	14771.911634
636.409245	14520.118602
636.754470	14551.608170
637.099642	14391.574220
