Dividing Wavelength (nm)	Counts (n)	Blue Motor Position (mm): 15.300000	Red Motor Position (mm): 0.000000	
326.493990	2172.316371
326.888308	2172.316371
327.282561	2172.316371
327.676750	2131.888838
328.070874	2129.184259
328.464933	2130.225257
328.858929	2132.224075
329.252859	2138.767493
329.646726	2144.811836
330.040528	2157.853301
330.434265	2172.160096
330.827938	2191.480318
331.221547	2208.605117
331.615091	2223.040461
332.008571	2242.456465
332.401986	2260.934815
332.795338	2280.728905
333.188625	2298.617440
333.581847	2315.913639
333.975006	2337.066320
334.368100	2352.706500
334.761129	2371.998996
335.154095	2393.058416
335.546996	2411.468710
335.939833	2438.249840
336.332606	2453.547221
336.725315	2464.199179
337.117960	2478.105202
337.510540	2489.974599
337.903056	2500.462719
338.295508	2507.956394
338.687896	2520.702952
339.080220	2526.727131
339.472480	2533.716691
339.864676	2536.368338
340.256807	2542.853782
340.648875	2548.182282
341.040879	2549.349309
341.432818	2552.893240
341.824694	2558.579661
342.216506	2557.200906
342.608253	2557.919270
342.999937	2559.502193
343.391557	2557.939435
343.783113	2555.859959
344.174605	2556.180072
344.566033	2554.720658
344.957397	2553.535987
345.348697	2553.288970
345.739934	2552.734443
346.131106	2549.523228
346.522215	2547.342929
346.913260	2546.143135
347.304241	2544.575336
347.695159	2540.197094
348.086012	2543.529297
348.476802	2539.882022
348.867528	2533.366330
349.258191	2531.564118
349.648789	2531.112935
350.039324	2527.228726
350.429796	2533.141999
350.820203	2528.075639
351.210548	2526.782583
351.600828	2526.228057
351.991045	2525.484486
352.381198	2524.788807
352.771288	2525.119003
353.161314	2524.970289
353.551276	2521.892664
353.941175	2522.631193
354.331010	2521.302849
354.720782	2522.169928
355.110490	2521.668333
355.500135	2522.111954
355.889717	2523.462984
356.279235	2519.213291
356.668689	2521.401152
357.058080	2520.022396
357.447408	2520.546676
357.836672	2522.827798
358.225873	2521.779238
358.615010	2524.844260
359.004084	2522.795031
359.393095	2524.728313
359.782043	2524.425844
360.170927	2523.997346
360.559748	2526.712007
360.948505	2529.270393
361.337199	2526.520443
361.725830	2527.730320
362.114398	2530.076978
362.502903	2526.815351
362.891344	2528.519261
363.279722	2531.909437
363.668037	2531.828778
364.056289	2530.651669
364.444478	2532.254756
364.832603	2530.921371
365.220665	2534.903882
365.608665	2531.417924
365.996601	2531.720394
366.384474	2531.228881
366.772284	2536.060827
367.160031	2533.847761
367.547715	2535.889428
367.935336	2535.468492
368.322893	2534.248532
368.710388	2533.504962
369.097820	2534.225847
369.485189	2533.371372
369.872495	2537.285828
370.259738	2538.215920
370.646918	2536.214582
371.034035	2540.456713
371.421090	2536.766589
371.808081	2533.434386
372.195010	2538.339429
372.581875	2538.296579
372.968678	2538.415046
373.355418	2541.326312
373.742096	2538.772968
374.128710	2538.800694
374.515262	2540.300438
374.901751	2540.428987
375.288177	2540.670962
375.674540	2542.072403
376.060841	2540.189532
376.447079	2536.756506
376.833254	2541.580891
377.219367	2539.491332
377.605417	2543.420912
377.991404	2539.783719
378.377329	2542.132897
378.763191	2540.688606
379.148991	2544.487116
379.534727	2542.142979
379.920402	2543.320089
380.306013	2540.834800
380.691563	2541.971580
381.077049	2542.362269
381.462474	2543.201622
381.847835	2542.528627
382.233134	2544.615665
382.618371	2543.239430
383.003545	2544.913093
383.388657	2543.703216
383.773706	2545.359235
384.158693	2545.447456
384.543618	2546.748073
384.928480	2546.531304
385.313280	2543.728422
385.698017	2545.487785
386.082692	2547.814277
386.467305	2544.676159
386.851856	2548.998948
387.236344	2548.676315
387.620770	2547.451314
388.005133	2541.785057
388.389435	2545.374359
388.773674	2543.632640
389.157851	2547.955430
389.541965	2547.224462
389.926018	2549.843342
390.310008	2548.598177
390.693936	2547.658002
391.077802	2551.002807
391.461606	2546.952240
391.845348	2548.767055
392.229027	2549.314021
392.612645	2551.222097
392.996200	2549.548434
393.379694	2551.401058
393.763125	2550.844011
394.146494	2549.059442
394.529801	2550.488609
394.913047	2549.256047
395.296230	2552.137067
395.679351	2547.930224
396.062410	2551.189330
396.445408	2549.215718
396.828343	2552.089176
397.211217	2554.093034
397.594028	2551.025492
397.976778	2551.695966
398.359466	2550.218908
398.742092	2552.933569
399.124656	2555.214691
399.507158	2550.733105
399.889598	2554.708055
400.271977	2552.820143
400.654294	2553.490617
401.036549	2552.966337
401.418742	2554.866852
401.800874	2554.256872
402.182944	2554.287119
402.564952	2554.705535
402.946898	2552.996583
403.328783	2553.999773
403.710606	2553.553631
404.092367	2555.716286
404.474067	2554.561862
404.855705	2556.210319
405.237282	2556.081770
405.618797	2556.474980
406.000250	2558.163766
406.381642	2552.774773
406.762972	2553.064639
407.144240	2550.912066
407.525447	2554.413148
407.906593	2551.615307
408.287677	2557.130330
408.668700	2556.197716
409.049661	2557.120247
409.430560	2556.311142
409.811399	2557.851215
410.192176	2559.177038
410.572891	2556.505227
410.953545	2560.190310
411.334138	2560.240722
411.714669	2558.914898
412.095139	2558.700649
412.475547	2557.939435
412.855894	2559.224929
413.236180	2557.034548
413.616405	2557.768036
413.996568	2558.292316
414.376670	2557.747871
414.756711	2561.501010
415.136691	2559.396328
415.516609	2560.545711
415.896466	2558.733417
416.276262	2560.424724
416.655997	2563.136864
417.035670	2561.042265
417.415283	2559.015721
417.794834	2559.850032
418.174324	2561.858932
418.553753	2559.272820
418.933121	2564.124931
419.312428	2558.027655
419.691674	2562.393294
420.070859	2560.795248
420.449983	2562.244580
420.829045	2562.804148
421.208047	2560.928839
421.586988	2562.063099
421.965867	2562.231977
422.344686	2563.613253
422.723444	2561.871535
423.102141	2561.281720
423.480777	2562.408418
423.859352	2562.811710
424.237866	2565.100394
424.616319	2561.133006
424.994712	2567.126938
425.373044	2562.085784
425.751314	2561.569066
426.129524	2559.847512
426.507673	2561.556463
426.885762	2557.957079
427.263789	2563.104097
427.641756	2564.182904
428.019662	2565.594427
428.397508	2566.317832
428.775292	2565.299519
429.153016	2566.549726
429.530679	2565.728017
429.908282	2564.414797
430.285824	2563.328428
430.663305	2564.820610
431.040726	2565.463357
431.418086	2563.797256
431.795385	2564.591237
432.172624	2563.933367
432.549802	2565.869170
432.926920	2566.547205
433.303977	2565.130641
433.680974	2566.189283
434.057910	2567.189952
434.434786	2565.816238
434.811601	2564.944118
435.188355	2567.769685
435.565050	2567.263049
435.941683	2567.318502
436.318257	2567.908317
436.694770	2566.025446
437.071222	2567.562998
437.447614	2566.907647
437.823946	2568.392267
438.200218	2566.655590
438.576429	2567.857905
438.952580	2570.101218
439.328670	2565.891855
439.704700	2565.735579
440.080670	2565.899417
440.456580	2568.011660
440.832429	2568.488049
441.208218	2567.968810
441.583947	2567.583162
441.959616	2572.266394
442.335224	2566.675754
442.710773	2570.111301
443.086261	2569.491239
443.461689	2570.812021
443.837057	2567.066444
444.212365	2571.311095
444.587612	2568.515776
444.962800	2567.880590
445.337927	2568.717422
445.712995	2563.545198
446.088002	2570.527196
446.462949	2570.076013
446.837837	2569.680282
447.212664	2569.471074
447.587431	2571.207752
447.962139	2570.544840
448.336786	2574.892835
448.711374	2571.106929
449.085901	2575.006261
449.460369	2572.321847
449.834776	2570.655745
450.209124	2572.498287
450.583412	2573.768658
450.957640	2572.846127
451.331808	2572.659604
451.705917	2572.246229
452.079965	2572.213462
452.453954	2571.094326
452.827883	2573.224213
453.201752	2572.447876
453.575562	2574.706312
453.949311	2573.251940
454.323001	2573.851837
454.696632	2571.298492
455.070202	2574.436611
455.443713	2572.175653
455.817164	2572.785633
456.190556	2574.681107
456.563888	2575.260839
456.937160	2572.526013
457.310373	2575.480130
457.683526	2574.648339
458.056619	2575.371745
458.429653	2572.765468
458.802628	2574.986097
459.175542	2572.699933
459.548398	2576.800912
459.921194	2576.826118
460.293930	2576.153124
460.666607	2577.645305
461.039224	2576.947105
461.411782	2579.959195
461.784280	2577.408371
462.156719	2577.660429
462.529099	2578.073803
462.901419	2577.380645
463.273680	2574.421487
463.645882	2570.869994
464.018024	2574.734039
464.390106	2574.192115
464.762130	2577.572208
465.134094	2580.463310
465.505999	2579.399627
465.877845	2579.873495
466.249631	2582.585636
466.621358	2581.073290
466.993026	2583.127560
467.364634	2587.004207
467.736184	2582.983887
468.107674	2584.801223
468.479105	2585.310380
468.850477	2581.279977
469.221790	2580.959864
469.593043	2581.811819
469.964238	2581.418609
470.335373	2576.934502
470.706449	2582.270564
471.077467	2581.199319
471.448425	2583.422467
471.819324	2585.683425
472.190164	2586.182499
472.560945	2585.045719
472.931667	2582.933476
473.302330	2583.311562
473.672934	2583.016655
474.043479	2580.009606
474.413965	2584.080338
474.784393	2584.523960
475.154761	2584.884402
475.525070	2581.053125
475.895321	2584.382807
476.265513	2582.946078
476.635645	2584.816347
477.005719	2585.764083
477.375734	2586.242993
477.745691	2588.178796
478.115588	2584.581933
478.485427	2587.445308
478.855207	2589.272727
479.224928	2588.352716
479.594591	2589.630648
479.964194	2591.001842
480.333739	2587.394897
480.703226	2592.806575
481.072653	2590.086873
481.442022	2589.471852
481.811333	2589.804568
482.180584	2587.508323
482.549777	2592.269693
482.918912	2588.284660
483.287988	2592.539394
483.657005	2591.125351
484.025964	2593.673654
484.394864	2590.974116
484.763706	2592.501586
485.132489	2591.062336
485.501213	2589.141657
485.869879	2593.386308
486.238487	2592.249528
486.607036	2592.163828
486.975527	2594.283633
487.343959	2593.451843
487.712333	2590.278437
488.080648	2591.168200
488.448905	2592.907398
488.817104	2593.900506
489.185244	2594.805393
489.553326	2593.623242
489.921350	2594.487800
490.289315	2597.825044
490.657222	2595.977461
491.025070	2597.593151
491.392861	2597.600713
491.760593	2599.541557
492.128267	2599.415528
492.495883	2596.559714
492.863440	2593.613160
493.230939	2593.653489
493.598380	2595.208685
493.965763	2594.291195
494.333088	2594.543253
494.700354	2595.959817
495.067563	2596.451330
495.434713	2596.479056
495.801805	2592.867069
496.168839	2595.080136
496.535815	2597.288161
496.902733	2595.319591
497.269593	2598.692122
497.636395	2595.816144
498.003139	2594.679364
498.369825	2595.362440
498.736453	2595.448140
499.103023	2598.356886
499.469535	2598.913933
499.835989	2595.473346
500.202385	2594.951586
500.568723	2595.748089
500.935003	2596.083325
501.301226	2594.460074
501.667390	2598.326639
502.033497	2601.686568
502.399546	2599.730600
502.765537	2600.564911
503.131470	2604.131527
503.497345	2601.805035
503.863163	2603.990375
504.228923	2603.201435
504.594625	2604.580190
504.960269	2602.316712
505.325856	2604.444079
505.691385	2603.619850
506.056856	2604.144130
506.422270	2605.946343
506.787625	2603.125817
507.152924	2605.724532
507.518164	2606.899121
507.883347	2610.682507
508.248472	2606.919286
508.613540	2610.677466
508.978550	2610.692589
509.343503	2610.327106
509.708398	2611.990686
510.073236	2614.672580
510.438016	2614.405399
510.802738	2614.453290
511.167403	2615.234669
511.532010	2617.707355
511.896561	2620.757253
512.261053	2618.705503
512.625488	2622.183899
512.989866	2619.065946
513.354186	2619.713734
513.718449	2623.328241
514.082655	2625.269086
514.446803	2626.552059
514.810894	2627.550208
515.174927	2626.423510
515.538904	2624.636421
515.902822	2626.940228
516.266684	2631.356279
516.630488	2633.723101
516.994235	2633.287041
517.357925	2633.191259
517.721558	2636.198307
518.085133	2636.233595
518.448651	2638.207207
518.812112	2633.380302
519.175516	2638.360962
519.538863	2638.066055
519.902152	2642.928247
520.265385	2648.534011
520.628560	2646.288177
520.991678	2646.578043
521.354739	2648.455873
521.717743	2648.581902
522.080690	2652.783703
522.443580	2655.268992
522.806413	2658.540701
523.169189	2657.797131
523.531908	2662.838285
523.894569	2664.154026
524.257174	2664.075888
524.619722	2668.149140
524.982213	2668.786846
525.344647	2670.561332
525.707025	2675.340346
526.069345	2676.613237
526.431608	2678.601973
526.793815	2679.872343
527.155964	2682.725637
527.518057	2683.048270
527.880093	2685.462983
528.242072	2693.054961
528.603995	2696.094777
528.965860	2695.237780
529.327669	2700.634336
529.689421	2703.545602
530.051117	2705.637681
530.412755	2707.671786
530.774337	2714.310986
531.135862	2715.989690
531.497331	2721.686194
531.858743	2721.918087
532.220098	2731.143399
532.581396	2734.420149
532.942638	2737.316292
533.303824	2742.455748
533.664953	2748.051429
534.026025	2751.262644
534.387040	2760.228336
534.747999	2768.016918
535.108902	2771.376847
535.469748	2774.898093
535.830537	2782.076697
536.191270	2793.131947
536.551947	2794.094807
536.912567	2797.497586
537.273131	2809.916469
537.633638	2814.889567
537.994089	2827.336176
538.354483	2831.606033
538.714821	2847.982221
539.075103	2857.227697
539.435328	2864.403780
539.795497	2872.454503
540.155609	2886.771380
540.515665	2895.815210
540.875665	2901.862074
541.235609	2912.476223
541.595496	2927.014911
541.955328	2944.777416
542.315102	2959.981536
542.674821	2964.049748
543.034483	2972.758341
543.394090	2987.574292
543.753640	2997.132320
544.113134	3023.661392
544.472571	3034.215047
544.831953	3057.873182
545.191278	3069.107394
545.550548	3084.697162
545.909761	3097.017742
546.268918	3127.741054
546.628019	3142.995586
546.987064	3168.004750
547.346053	3183.140814
547.704986	3197.596323
548.063863	3232.909606
548.422684	3243.352356
548.781449	3263.811879
549.140158	3299.803197
549.498811	3323.189109
549.857408	3326.894357
550.215949	3370.069319
550.574434	3387.274778
550.932864	3422.300714
551.291237	3453.434881
551.649555	3485.864623
552.007817	3517.074407
552.366022	3541.708005
552.724173	3567.569124
553.082267	3603.860391
553.440305	3658.042712
553.798288	3663.265348
554.156215	3722.443453
554.514086	3757.224894
554.871902	3761.696397
555.229661	3810.525013
555.587365	3859.235162
555.945014	3883.659553
556.302606	3953.892908
556.660143	3977.767813
557.017625	4047.257598
557.375050	4067.676792
557.732421	4121.770893
558.089735	4167.902492
558.446994	4204.304664
558.804197	4270.177421
559.161345	4322.557530
559.518437	4322.431501
559.875474	4407.627001
560.232455	4454.209783
560.589381	4512.142723
560.946251	4548.938105
561.303065	4636.661744
561.659825	4703.446950
562.016528	4721.171647
562.373177	4756.931072
562.729770	4821.266277
563.086307	4898.305190
563.442789	4966.668278
563.799216	5012.941029
564.155587	5058.024068
564.511904	5136.260255
564.868164	5168.218649
565.224370	5252.458851
565.580520	5284.225682
565.936615	5382.853336
566.292654	5393.049070
566.648638	5518.006671
567.004567	5550.232247
567.360441	5615.232884
567.716260	5636.844311
568.072023	5779.685405
568.427732	5815.623791
568.783385	5849.969172
569.138982	5945.357885
569.494525	6039.849273
569.850013	6091.531182
570.205445	6162.223283
570.560823	6183.290264
570.916145	6251.068578
571.271412	6324.440052
571.626625	6402.441825
571.981782	6469.781558
572.336884	6500.676269
572.691931	6610.167610
573.046923	6608.420851
573.401860	6701.747732
573.756743	6793.219468
574.111570	6838.967939
574.466342	6891.637915
574.821059	6998.999368
575.175722	7001.275449
575.530330	7110.217304
575.884882	7179.066863
576.239380	7261.066272
576.593823	7305.004968
576.948211	7362.635439
577.302544	7403.972901
577.656823	7460.151519
578.011047	7580.700631
578.365216	7627.578321
578.719330	7691.227929
579.073389	7724.522230
579.427394	7878.141311
579.781344	7865.351904
580.135239	7955.825492
580.489080	8011.351281
580.842866	7999.265114
581.196597	8197.077471
581.550273	8215.863331
581.903895	8325.793252
582.257463	8476.801015
582.610975	8444.386396
582.964434	8605.484029
583.317837	8616.496430
583.671186	8728.745282
584.024481	8810.651429
584.377721	8798.328328
584.730906	8900.262980
585.084037	9015.312193
585.437113	9056.054798
585.790135	9197.106283
586.143103	9113.397923
586.496016	9170.993106
586.848874	9395.251355
587.201679	9418.208770
587.554428	9374.073468
587.907124	9584.271939
588.259765	9582.031146
588.612352	9721.532476
588.964884	9641.173963
589.317362	9780.622361
589.669786	9871.973110
590.022155	9967.565990
590.374470	10137.505806
590.726731	10151.363938
591.078937	10120.398651
591.431090	10230.656247
591.783188	10195.524446
592.135232	10256.976111
592.487222	10409.087887
592.839157	10485.302572
593.191038	10535.157063
593.542866	10535.099090
593.894639	10526.418223
594.246358	10693.371156
594.598022	10714.722963
594.949633	10688.226658
595.301190	10724.669159
595.652692	10890.563450
596.004141	11093.956364
596.355535	10840.565286
596.706876	10923.295662
597.058162	10959.256733
597.409395	11116.049221
597.760573	11266.683939
598.111698	11236.565565
598.462768	11266.394072
598.813785	11313.095322
599.164748	11299.469083
599.515657	11377.818696
599.866511	11354.979748
600.217312	11606.198088
600.568060	11427.985738
600.918753	11680.545025
601.269392	11717.685726
601.619978	11645.947587
601.970510	11867.080321
602.320988	11876.663554
602.671412	12074.014645
603.021783	12078.617218
603.372100	11998.389775
603.722363	12162.007985
604.072572	12199.345291
604.422728	12319.682675
604.772830	12288.034311
605.122878	12283.214968
605.472872	12376.350285
605.822813	12448.206892
606.172701	12491.296154
606.522534	12686.756812
606.872314	12781.129733
607.222041	12705.094010
607.571714	12935.341150
607.921333	12898.144996
608.270899	13024.362886
608.620411	13241.485382
608.969870	13096.985748
609.319276	13180.487420
609.668627	13286.734779
610.017926	13440.225310
610.367171	13573.591556
610.716362	13689.712014
611.065500	13592.027056
611.414585	13743.803595
611.763616	13808.267350
612.112594	13836.127287
612.461518	13852.538763
612.810389	14055.271285
613.159207	13988.440709
613.507971	13994.530423
613.856682	14282.493733
614.205340	14278.475934
614.553945	14461.648779
614.902496	14289.465649
615.250994	14566.555191
615.599439	14561.962700
615.947830	14593.769860
616.296169	14656.272606
616.644454	14719.682759
616.992686	14717.457090
617.340864	14932.089256
617.688990	14818.247399
618.037063	14998.501417
618.385082	14924.535087
618.733048	15177.016236
619.080961	15107.836482
619.428821	15203.769640
619.776628	15188.202557
620.124382	15159.004194
620.472083	15244.078706
620.819731	15326.579709
621.167326	15121.891219
621.514868	15209.597214
621.862357	15083.543162
622.209793	15151.908770
622.557176	15071.134362
622.904506	14968.090656
623.251783	14949.934941
623.599007	14838.953939
623.946179	14833.595192
624.293297	14839.944526
624.640363	14693.383060
624.987376	14734.229009
625.334336	14601.545840
625.681243	14515.942006
626.028097	14553.092789
626.374899	14567.341611
626.721647	14466.470643
627.068343	14353.294218
627.414987	14350.400596
627.761577	14372.284245
628.108115	14446.046408
628.454600	14225.180855
628.801032	14320.662830
629.147412	14299.202638
629.493739	14353.574003
629.840014	14218.622314
630.186236	14332.859901
630.532405	14158.836750
630.878521	14357.362430
631.224585	14277.450059
631.570597	14174.633206
631.916556	14204.723853
632.262462	14213.440008
632.608316	14172.936857
632.954117	14140.187001
633.299866	14163.966124
633.645562	14132.549653
633.991206	13926.646245
634.336797	13826.763343
634.682336	13848.107589
635.027823	13767.547430
635.373257	13706.385631
635.718639	13616.665695
636.063968	13598.066358
636.409245	13419.203699
636.754470	13463.333960
637.099642	13341.020444
637.444762	13146.636072
637.789829	13225.061303
638.134845	13088.395622
638.479808	13124.374337
638.824719	13108.535031
639.169577	12965.971201
639.514383	13044.905587
639.859137	12875.164896
640.203839	12972.186943
640.548489	12830.336436
640.893086	12838.382117
641.237632	12716.534908
641.582125	12900.763876
641.926566	12747.046492
642.270955	12763.112649
