Dividing Wavelength (nm)	Counts (n)	Blue Motor Position (mm): 7.600000	Red Motor Position (mm): 0.000000	
326.493990	2160.063847
326.888308	2160.063847
327.282561	2160.063847
327.676750	2117.372836
328.070874	2115.545417
328.464933	2116.780500
328.858929	2117.612290
329.252859	2123.555811
329.646726	2130.618467
330.040528	2143.629685
330.434265	2156.895482
330.827938	2174.494150
331.221547	2194.467201
331.615091	2208.630323
332.008571	2228.300905
332.401986	2246.706158
332.795338	2264.526637
333.188625	2282.203443
333.581847	2304.298820
333.975006	2322.676347
334.368100	2341.005982
334.761129	2357.125071
335.154095	2373.952443
335.546996	2390.810061
335.939833	2410.029460
336.332606	2424.767274
336.725315	2438.373348
337.117960	2448.927003
337.510540	2461.734055
337.903056	2474.576394
338.295508	2480.494709
338.687896	2490.985350
339.080220	2499.487256
339.472480	2508.173164
339.864676	2511.525531
340.256807	2517.741274
340.648875	2518.058867
341.040879	2523.982223
341.432818	2526.792666
341.824694	2528.262162
342.216506	2531.997657
342.608253	2529.726617
342.999937	2528.897348
343.391557	2530.467667
343.783113	2531.125538
344.174605	2528.625125
344.566033	2529.320804
344.957397	2527.644621
345.348697	2524.907274
345.739934	2525.179497
346.131106	2523.289064
346.522215	2522.192613
346.913260	2518.091634
347.304241	2518.376459
347.695159	2513.456293
348.086012	2512.906808
348.476802	2511.142404
348.867528	2506.466733
349.258191	2503.507576
349.648789	2502.156547
350.039324	2499.169663
350.429796	2501.385250
350.820203	2502.625374
351.210548	2498.763850
351.600828	2500.901300
351.991045	2496.991885
352.381198	2497.546412
352.771288	2494.378047
353.161314	2493.226143
353.551276	2495.681185
353.941175	2493.957110
354.331010	2493.684888
354.720782	2494.075577
355.110490	2495.565238
355.500135	2494.272182
355.889717	2494.940135
356.279235	2493.274034
356.668689	2495.519868
357.058080	2493.027017
357.447408	2494.279744
357.836672	2495.373674
358.225873	2493.639517
358.615010	2496.084477
359.004084	2499.635970
359.393095	2494.730927
359.782043	2500.243429
360.170927	2498.622698
360.559748	2499.068840
360.948505	2501.155878
361.337199	2498.688233
361.725830	2499.691423
362.114398	2499.872904
362.502903	2502.461537
362.891344	2500.881135
363.279722	2500.828203
363.668037	2502.131341
364.056289	2503.162257
364.444478	2504.417504
364.832603	2504.598986
365.220665	2505.718122
365.608665	2504.664521
365.996601	2506.691065
366.384474	2505.261898
366.772284	2506.459172
367.160031	2504.994717
367.547715	2508.833555
367.935336	2507.427073
368.322893	2505.095540
368.710388	2505.836589
369.097820	2505.808863
369.485189	2505.821466
369.872495	2508.936899
370.259738	2507.396826
370.646918	2509.478823
371.034035	2505.400529
371.421090	2513.998217
371.808081	2512.518639
372.195010	2512.085099
372.581875	2508.284069
372.968678	2512.707682
373.355418	2508.979749
373.742096	2507.565705
374.128710	2508.195849
374.515262	2509.320027
374.901751	2510.280366
375.288177	2511.195336
375.674540	2511.772548
376.060841	2510.144255
376.447079	2510.187105
376.833254	2512.077538
377.219367	2514.398989
377.605417	2512.430418
377.991404	2513.761283
378.377329	2513.146262
378.763191	2514.613238
379.148991	2513.173989
379.534727	2511.863289
379.920402	2513.849503
380.306013	2514.769514
380.691563	2515.434946
381.077049	2513.410923
381.462474	2515.916376
381.847835	2513.892353
382.233134	2516.980060
382.618371	2518.348733
383.003545	2518.104237
383.388657	2519.268744
383.773706	2518.505009
384.158693	2516.874196
384.543618	2517.864782
384.928480	2516.236490
385.313280	2518.497447
385.698017	2515.117353
386.082692	2517.280008
386.467305	2518.832684
386.851856	2518.820081
387.236344	2518.051305
387.620770	2515.830677
388.005133	2516.506191
388.389435	2516.470903
388.773674	2515.739936
389.157851	2520.786131
389.541965	2519.896367
389.926018	2518.043743
390.310008	2517.748836
390.693936	2520.874351
391.077802	2522.414424
391.461606	2518.981398
391.845348	2520.944927
392.229027	2523.606657
392.612645	2518.913342
392.996200	2521.829650
393.379694	2521.867458
393.763125	2521.474248
394.146494	2521.151615
394.529801	2522.331245
394.913047	2522.479959
395.296230	2520.196316
395.679351	2520.546676
396.062410	2522.908457
396.445408	2521.771677
396.828343	2523.024403
397.211217	2523.107582
397.594028	2523.546163
397.976778	2523.286543
398.359466	2524.272089
398.742092	2523.664630
399.124656	2522.900895
399.507158	2525.537418
399.889598	2525.539939
400.271977	2521.262520
400.654294	2525.736544
401.036549	2525.086235
401.418742	2524.284692
401.800874	2526.999353
402.182944	2523.122706
402.564952	2525.192099
402.946898	2528.355423
403.328783	2527.183355
403.710606	2524.561955
404.092367	2527.155629
404.474067	2524.937521
404.855705	2525.928108
405.237282	2528.549508
405.618797	2527.994981
406.000250	2529.928263
406.381642	2525.255114
406.762972	2526.172604
407.144240	2522.021214
407.525447	2524.733354
407.906593	2522.139681
408.287677	2528.602440
408.668700	2530.326515
409.049661	2528.287368
409.430560	2527.508510
409.811399	2528.317615
410.192176	2529.693850
410.572891	2530.187883
410.953545	2528.804086
411.334138	2528.920033
411.714669	2527.677388
412.095139	2530.598737
412.475547	2532.826927
412.855894	2530.409694
413.236180	2530.351720
413.616405	2529.406504
413.996568	2529.986237
414.376670	2531.891793
414.756711	2530.591175
415.136691	2529.411545
415.516609	2529.885414
415.896466	2532.360620
416.276262	2529.923222
416.655997	2529.330887
417.035670	2529.814837
417.415283	2532.158974
417.794834	2531.622091
418.174324	2530.883562
418.553753	2531.425486
418.933121	2534.266176
419.312428	2529.643438
419.691674	2531.301978
420.070859	2530.835671
420.449983	2530.845753
420.829045	2530.447502
421.208047	2535.075282
421.586988	2534.591331
421.965867	2531.110414
422.344686	2532.010260
422.723444	2533.066382
423.102141	2533.396577
423.480777	2533.487318
423.859352	2532.368182
424.237866	2534.571166
424.616319	2532.214427
424.994712	2535.130734
425.373044	2530.195445
425.751314	2532.390867
426.129524	2529.446833
426.507673	2532.181659
426.885762	2529.850126
427.263789	2534.644263
427.641756	2534.092257
428.019662	2536.222144
428.397508	2533.978831
428.775292	2536.126362
429.153016	2532.516896
429.530679	2532.317770
429.908282	2535.942360
430.285824	2534.906403
430.663305	2536.542257
431.040726	2534.356917
431.418086	2536.237268
431.795385	2535.589479
432.172624	2534.180477
432.549802	2534.777853
432.926920	2536.171733
433.303977	2536.597710
433.680974	2537.560570
434.057910	2536.456558
434.434786	2535.965045
434.811601	2537.691640
435.188355	2535.972607
435.565050	2535.765920
435.941683	2537.822710
436.318257	2535.932278
436.694770	2536.431352
437.071222	2538.258770
437.447614	2537.636188
437.823946	2537.633667
438.200218	2535.954963
438.576429	2539.708102
438.952580	2536.350693
439.328670	2538.843544
439.704700	2537.066537
440.080670	2539.148534
440.456580	2537.973945
440.832429	2539.267001
441.208218	2537.784902
441.583947	2539.398071
441.959616	2539.486291
442.335224	2537.492515
442.710773	2539.493853
443.086261	2538.866229
443.461689	2540.272711
443.837057	2539.670293
444.212365	2542.455531
444.587612	2536.874973
444.962800	2535.352545
445.337927	2536.660724
445.712995	2533.527647
446.088002	2539.448483
446.462949	2538.815818
446.837837	2538.135262
447.212664	2539.887063
447.587431	2540.277752
447.962139	2538.568801
448.336786	2542.420243
448.711374	2540.476878
449.085901	2539.342618
449.460369	2537.623585
449.834776	2537.467309
450.209124	2539.246836
450.583412	2541.326312
450.957640	2539.541744
451.331808	2540.721374
451.705917	2541.086857
452.079965	2544.749256
452.453954	2540.575180
452.827883	2540.091230
453.201752	2540.572660
453.575562	2540.703730
453.949311	2541.588452
454.323001	2538.344470
454.696632	2540.194573
455.070202	2542.521066
455.443713	2541.522917
455.817164	2542.047197
456.190556	2542.566436
456.563888	2541.611138
456.937160	2540.285314
457.310373	2542.468134
457.683526	2545.200439
458.056619	2542.289173
458.429653	2541.230530
458.802628	2540.829759
459.175542	2543.390665
459.548398	2541.192722
459.921194	2544.605583
460.293930	2542.999975
460.666607	2541.563247
461.039224	2544.434184
461.411782	2545.185316
461.784280	2542.180788
462.156719	2544.345963
462.529099	2542.677342
462.901419	2542.369831
463.273680	2541.336395
463.645882	2537.190046
464.018024	2540.718853
464.390106	2540.388658
464.762130	2542.150541
465.134094	2541.006199
465.505999	2544.015768
465.877845	2543.221786
466.249631	2544.136756
466.621358	2541.404450
466.993026	2545.142466
467.364634	2549.082127
467.736184	2543.672969
468.107674	2545.651622
468.479105	2543.738504
468.850477	2542.503422
469.221790	2545.308824
469.593043	2544.519883
469.964238	2545.376879
470.335373	2545.911242
470.706449	2544.802188
471.077467	2544.782023
471.448425	2545.066848
471.819324	2546.858979
472.190164	2545.628937
472.560945	2543.690613
472.931667	2545.565923
473.302330	2544.845038
473.672934	2545.512991
474.043479	2546.314534
474.413965	2545.591128
474.784393	2545.263453
475.154761	2545.071890
475.525070	2543.660367
475.895321	2546.705223
476.265513	2542.793288
476.635645	2544.628268
477.005719	2545.868392
477.375734	2544.542568
477.745691	2544.487116
478.115588	2546.513660
478.485427	2547.413506
478.855207	2546.780841
479.224928	2547.542055
479.594591	2546.143135
479.964194	2545.238248
480.333739	2547.012734
480.703226	2543.045346
481.072653	2548.083979
481.442022	2547.620193
481.811333	2544.988711
482.180584	2540.733977
482.549777	2545.056766
482.918912	2540.829759
483.287988	2549.031716
483.657005	2546.548948
484.025964	2546.483413
484.394864	2548.267981
484.763706	2546.574153
485.132489	2544.930737
485.501213	2548.888043
485.869879	2546.342260
486.238487	2547.118598
486.607036	2549.036757
486.975527	2549.024154
487.343959	2547.763866
487.712333	2546.594318
488.080648	2549.487940
488.448905	2548.762014
488.817104	2546.329658
489.185244	2547.095913
489.553326	2548.346119
489.921350	2550.211346
490.289315	2546.715306
490.657222	2549.929041
491.025070	2550.108002
491.392861	2550.188661
491.760593	2549.911397
492.128267	2547.221942
492.495883	2548.204967
492.863440	2544.492157
493.230939	2549.820657
493.598380	2548.988866
493.965763	2549.674463
494.333088	2545.455017
494.700354	2548.532642
495.067563	2548.792261
495.434713	2548.262940
495.801805	2545.775131
496.168839	2549.946685
496.535815	2549.256047
496.902733	2550.060111
497.269593	2547.085831
497.636395	2548.900646
498.003139	2550.844011
498.369825	2547.045501
498.736453	2549.719833
499.103023	2549.238403
499.469535	2548.575492
499.835989	2548.406613
500.202385	2549.455173
500.568723	2544.328319
500.935003	2550.087838
501.301226	2544.681200
501.667390	2549.586243
502.033497	2551.907694
502.399546	2551.963147
502.765537	2549.404761
503.131470	2548.570450
503.497345	2551.615307
503.863163	2548.530121
504.228923	2550.385266
504.594625	2551.484237
504.960269	2549.619010
505.325856	2551.693445
505.691385	2551.466593
506.056856	2553.946841
506.422270	2549.538352
506.787625	2549.056922
507.152924	2549.611449
507.518164	2551.794268
507.883347	2549.737477
508.248472	2550.234031
508.613540	2552.434495
508.978550	2551.300235
509.343503	2548.988866
509.708398	2550.390307
510.073236	2547.138763
510.438016	2552.036244
510.802738	2548.399051
511.167403	2551.282591
511.532010	2550.072714
511.896561	2550.982643
512.261053	2550.445760
512.625488	2552.825184
512.989866	2552.184958
513.354186	2550.720503
513.718449	2551.426264
514.082655	2552.298384
514.446803	2552.525236
514.810894	2552.603373
515.174927	2552.225287
515.538904	2550.171017
515.902822	2551.605225
516.266684	2549.787889
516.630488	2550.113043
516.994235	2550.032385
517.357925	2552.961295
517.721558	2550.150852
518.085133	2553.246121
518.448651	2547.373176
518.812112	2546.836293
519.175516	2549.190512
519.538863	2545.407126
519.902152	2554.329969
520.265385	2548.152035
520.628560	2552.013558
520.991678	2551.794268
521.354739	2551.925338
521.717743	2551.703528
522.080690	2553.493137
522.443580	2553.838456
522.806413	2552.167314
523.169189	2553.180586
523.531908	2552.915925
523.894569	2551.852242
524.257174	2551.113712
524.619722	2551.244782
524.982213	2552.411810
525.344647	2552.989022
525.707025	2553.412479
526.069345	2550.246634
526.431608	2552.000956
526.793815	2553.478014
527.155964	2551.804351
527.518057	2552.593291
527.880093	2551.305276
528.242072	2550.284443
528.603995	2552.424413
528.965860	2552.255534
529.327669	2554.813919
529.689421	2551.743857
530.051117	2552.149670
530.412755	2551.229659
530.774337	2554.372818
531.135862	2552.164793
531.497331	2554.685370
531.858743	2549.974412
532.220098	2553.803168
532.581396	2553.951882
532.942638	2554.009855
533.303824	2553.752757
533.664953	2553.914073
534.026025	2554.612273
534.387040	2556.364074
534.747999	2552.265616
535.108902	2556.096893
535.469748	2552.767211
535.830537	2555.416337
536.191270	2555.237376
536.551947	2553.205791
536.912567	2552.111861
537.273131	2553.110009
537.633638	2552.709238
537.994089	2558.970351
538.354483	2558.304918
538.714821	2556.633776
539.075103	2556.646379
539.435328	2557.828529
539.795497	2560.777604
540.155609	2557.417675
540.515665	2558.221739
540.875665	2561.085115
541.235609	2560.407080
541.595496	2560.530588
541.955328	2558.569579
542.315102	2558.723334
542.674821	2559.282902
543.034483	2561.448078
543.394090	2565.218861
543.753640	2558.279713
544.113134	2561.231308
544.472571	2564.283727
544.831953	2563.288099
545.191278	2562.534447
545.550548	2565.420507
545.909761	2564.820610
546.268918	2565.012174
546.628019	2567.608368
546.987064	2565.922102
547.346053	2568.717422
547.704986	2566.965621
548.063863	2569.687844
548.422684	2564.198027
548.781449	2568.145251
549.140158	2570.499470
549.498811	2569.017370
549.857408	2567.716753
550.215949	2570.484346
550.574434	2567.134499
550.932864	2568.956877
551.291237	2569.821434
551.649555	2570.101218
552.007817	2571.210272
552.366022	2569.720611
552.724173	2570.844789
553.082267	2572.649522
553.440305	2569.035014
553.798288	2572.878894
554.156215	2570.970817
554.514086	2569.854202
554.871902	2570.083574
555.229661	2570.489387
555.587365	2568.208265
555.945014	2570.317988
556.302606	2568.394788
556.660143	2573.292269
557.017625	2573.826631
557.375050	2574.512228
557.732421	2573.609862
558.089735	2574.305541
558.446994	2573.375448
558.804197	2577.794019
559.161345	2575.351580
559.518437	2572.251271
559.875474	2572.677248
560.232455	2573.554409
560.589381	2576.294276
560.946251	2572.755386
561.303065	2573.796384
561.659825	2574.731518
562.016528	2579.543300
562.373177	2575.306210
562.729770	2573.440983
563.086307	2576.082547
563.442789	2573.819069
563.799216	2574.061045
564.155587	2573.234296
564.511904	2575.820407
564.868164	2576.387537
565.224370	2575.613720
565.580520	2574.265212
565.936615	2574.124059
566.292654	2573.980386
566.648638	2574.940726
567.004567	2575.210428
567.360441	2575.727146
567.716260	2576.180850
568.072023	2574.131621
568.427732	2574.204718
568.783385	2574.726477
569.138982	2575.228072
569.494525	2576.574060
569.850013	2576.959708
570.205445	2574.121539
570.560823	2573.262022
570.916145	2575.008782
571.271412	2572.062227
571.626625	2577.597414
571.981782	2576.790830
572.336884	2574.179512
572.691931	2571.898390
573.046923	2567.696588
573.401860	2568.752710
573.756743	2576.039698
574.111570	2575.485171
574.466342	2572.737742
574.821059	2571.197669
575.175722	2573.007444
575.530330	2573.801425
575.884882	2570.076013
576.239380	2575.263360
576.593823	2573.062896
576.948211	2574.358473
577.302544	2573.080540
577.656823	2572.732701
578.011047	2574.187074
578.365216	2571.235478
578.719330	2570.191959
579.073389	2573.808987
579.427394	2571.013667
579.781344	2570.421332
580.135239	2569.813873
580.489080	2570.668348
580.842866	2569.183728
581.196597	2576.143041
581.550273	2569.876887
581.903895	2571.749676
582.257463	2570.718760
582.610975	2569.675241
582.964434	2571.207752
583.317837	2567.318502
583.671186	2569.886969
584.024481	2572.094995
584.377721	2568.661969
584.730906	2567.315981
585.084037	2571.406877
585.437113	2566.731207
585.790135	2569.637432
586.143103	2569.723132
586.496016	2567.384037
586.848874	2570.600293
587.201679	2569.788667
587.554428	2565.319684
587.907124	2568.707339
588.259765	2568.273800
588.612352	2566.035528
588.964884	2567.487380
589.317362	2565.906978
589.669786	2566.426217
590.022155	2564.364385
590.374470	2560.719631
590.726731	2564.129972
591.078937	2565.445713
591.431090	2569.284552
591.783188	2566.869839
592.135232	2563.046124
592.487222	2567.515107
592.839157	2564.457647
593.191038	2568.215827
593.542866	2564.855898
593.894639	2562.942780
594.246358	2568.455282
594.598022	2563.255332
594.949633	2564.440003
595.301190	2563.126782
595.652692	2563.353634
596.004141	2563.333469
596.355535	2564.908830
596.706876	2567.852864
597.058162	2565.768347
597.409395	2564.992009
597.760573	2564.639128
598.111698	2566.108625
598.462768	2564.845816
598.813785	2566.090981
599.164748	2561.501010
599.515657	2562.163922
599.866511	2563.159550
600.217312	2563.245249
600.568060	2562.153839
600.918753	2566.585014
601.269392	2564.437482
601.619978	2565.183573
601.970510	2563.827502
602.320988	2561.952193
602.671412	2563.734241
603.021783	2562.670558
603.372100	2566.297668
603.722363	2563.046124
604.072572	2563.318346
604.422728	2561.296843
604.772830	2563.714077
605.122878	2563.494786
605.472872	2564.810527
605.822813	2565.299519
606.172701	2563.623336
606.522534	2564.172822
606.872314	2566.254818
607.222041	2564.651731
607.571714	2561.306926
607.921333	2562.433623
608.270899	2562.816751
608.620411	2560.243242
608.969870	2565.864129
609.319276	2567.620971
609.668627	2574.144224
610.017926	2577.350398
610.367171	2578.966087
610.716362	2580.160841
611.065500	2576.841241
611.414585	2573.763617
611.763616	2570.955694
612.112594	2574.234965
612.461518	2571.424521
612.810389	2572.773030
613.159207	2572.399985
613.507971	2569.720611
613.856682	2572.977197
614.205340	2570.864953
614.553945	2572.039542
614.902496	2567.535271
615.250994	2567.845302
615.599439	2569.556774
615.947830	2567.152143
616.296169	2570.509552
616.644454	2569.977710
616.992686	2567.681465
617.340864	2568.747669
617.688990	2566.852195
618.037063	2570.370920
618.385082	2572.261353
618.733048	2568.306568
619.080961	2569.576938
619.428821	2572.011816
619.776628	2569.869325
620.124382	2569.647515
620.472083	2569.977710
620.819731	2574.093812
621.167326	2569.476115
621.514868	2568.273800
621.862357	2573.133472
622.209793	2570.892680
622.557176	2571.737073
622.904506	2571.311095
623.251783	2569.161043
623.599007	2570.212124
623.946179	2570.275138
624.293297	2572.190777
624.640363	2569.138358
624.987376	2567.442010
625.334336	2567.328584
625.681243	2570.522155
626.028097	2565.105435
626.374899	2572.800756
626.721647	2572.997361
627.068343	2571.041394
627.414987	2572.122721
627.761577	2570.610375
628.108115	2571.389233
628.454600	2573.756055
628.801032	2570.948132
629.147412	2572.420149
629.493739	2572.452917
629.840014	2573.957701
630.186236	2572.747824
630.532405	2572.533575
630.878521	2573.839234
631.224585	2572.720098
631.570597	2573.113308
631.916556	2575.001220
632.262462	2573.166240
632.608316	2574.371076
632.954117	2574.469378
633.299866	2573.718246
633.645562	2578.613207
633.991206	2574.207238
634.336797	2574.512228
634.682336	2578.189750
635.027823	2576.173288
635.373257	2574.378637
635.718639	2572.551219
636.063968	2576.977352
636.409245	2573.221693
636.754470	2573.708164
637.099642	2576.763103
637.444762	2573.004923
637.789829	2577.521797
638.134845	2576.669842
638.479808	2573.219172
638.824719	2574.424008
639.169577	2573.665314
639.514383	2574.973494
639.859137	2577.483988
640.203839	2578.003227
640.548489	2569.665159
640.893086	2576.173288
641.237632	2575.401992
641.582125	2576.523648
641.926566	2580.760738
642.270955	2574.340829
642.615292	2573.498956
642.959576	2575.810325
643.303809	2572.054666
643.647990	2577.922569
643.992118	2580.937179
644.336195	2577.579770
