Dividing Wavelength (nm)	Counts (n)	Blue Motor Position (mm): 25.400000	Red Motor Position (mm): 0.000000	
326.493990	2201.741586
326.888308	2201.741586
327.282561	2201.741586
327.676750	2160.446975
328.070874	2155.713331
328.464933	2157.255924
328.858929	2159.441264
329.252859	2164.888231
329.646726	2173.463234
330.040528	2187.187775
330.434265	2199.788139
330.827938	2219.879658
331.221547	2233.465568
331.615091	2251.873341
332.008571	2271.314551
332.401986	2288.890533
332.795338	2305.841413
333.188625	2325.869918
333.581847	2344.718792
333.975006	2363.222347
334.368100	2383.139946
334.761129	2398.500342
335.154095	2417.336613
335.546996	2444.682352
335.939833	2479.375573
336.332606	2493.216061
336.725315	2508.067300
337.117960	2519.150277
337.510540	2528.685619
337.903056	2541.719522
338.295508	2550.561706
338.687896	2560.371792
339.080220	2568.326732
339.472480	2574.792012
339.864676	2575.782599
340.256807	2586.989084
340.648875	2588.798858
341.040879	2589.970926
341.432818	2592.506627
341.824694	2598.064499
342.216506	2598.046855
342.608253	2597.356217
342.999937	2599.418049
343.391557	2600.053234
343.783113	2599.715477
344.174605	2596.199272
344.566033	2599.102977
344.957397	2595.080136
345.348697	2591.649631
345.739934	2590.981678
346.131106	2591.843715
346.522215	2590.832964
346.913260	2587.276430
347.304241	2585.877509
347.695159	2583.616552
348.086012	2581.083372
348.476802	2579.916345
348.867528	2574.093812
349.258191	2572.548699
349.648789	2572.679769
350.039324	2571.016188
350.429796	2571.220355
350.820203	2570.963256
351.210548	2566.083419
351.600828	2566.217009
351.991045	2564.520661
352.381198	2567.626012
352.771288	2564.039231
353.161314	2564.931515
353.551276	2564.961762
353.941175	2564.140054
354.331010	2562.932698
354.720782	2563.588048
355.110490	2567.046279
355.500135	2564.888665
355.889717	2563.298181
356.279235	2565.334808
356.668689	2565.007132
357.058080	2565.556618
357.447408	2565.680127
357.836672	2564.288768
358.225873	2564.220712
358.615010	2563.106617
359.004084	2564.250959
359.393095	2566.842113
359.782043	2569.035014
360.170927	2568.319171
360.559748	2566.491752
360.948505	2567.807493
361.337199	2569.405539
361.725830	2569.347566
362.114398	2573.350242
362.502903	2569.455951
362.891344	2571.011147
363.279722	2572.417629
363.668037	2573.572053
364.056289	2571.351425
364.444478	2572.009295
364.832603	2574.363514
365.220665	2571.358986
365.608665	2573.962742
365.996601	2573.078020
366.384474	2576.652198
366.772284	2576.034657
367.160031	2575.417115
367.547715	2576.490881
367.935336	2576.095150
368.322893	2576.311920
368.710388	2575.268401
369.097820	2573.672876
369.485189	2571.938719
369.872495	2579.404668
370.259738	2581.577405
370.646918	2579.313927
371.034035	2578.847620
371.421090	2576.654718
371.808081	2580.359967
372.195010	2576.349729
372.581875	2577.272260
372.968678	2580.974987
373.355418	2578.943402
373.742096	2578.280491
374.128710	2582.031109
374.515262	2581.857189
374.901751	2581.968095
375.288177	2581.796695
375.674540	2583.026737
376.060841	2582.522622
376.447079	2580.435584
376.833254	2580.831314
377.219367	2580.932137
377.605417	2585.363312
377.991404	2581.264854
378.377329	2582.015986
378.763191	2583.772828
379.148991	2585.577561
379.534727	2584.239134
379.920402	2585.343147
380.306013	2584.662591
380.691563	2588.922366
381.077049	2582.595718
381.462474	2585.880030
381.847835	2587.410020
382.233134	2583.813157
382.618371	2586.124526
383.003545	2588.224167
383.388657	2589.955803
383.773706	2588.120823
384.158693	2589.897830
384.543618	2589.423961
384.928480	2589.187027
385.313280	2587.626790
385.698017	2589.492017
386.082692	2586.537901
386.467305	2587.165524
386.851856	2591.929415
387.236344	2590.454877
387.620770	2589.290371
388.005133	2588.138467
388.389435	2587.783066
388.773674	2587.631831
389.157851	2591.798345
389.541965	2592.332707
389.926018	2593.535022
390.310008	2591.057295
390.693936	2590.424630
391.077802	2591.800865
391.461606	2594.185331
391.845348	2595.178438
392.229027	2595.685074
392.612645	2594.656679
392.996200	2595.017121
393.379694	2594.679364
393.763125	2593.756833
394.146494	2596.347986
394.529801	2594.422265
394.913047	2595.465784
395.296230	2594.689446
395.679351	2594.223140
396.062410	2596.055599
396.445408	2593.033427
396.828343	2597.454519
397.211217	2596.305136
397.594028	2597.424272
397.976778	2598.782863
398.359466	2597.993923
398.742092	2599.097935
399.124656	2597.411669
399.507158	2598.049375
399.889598	2600.658172
400.271977	2597.958635
400.654294	2600.723707
401.036549	2600.955601
401.418742	2598.941660
401.800874	2600.012905
402.182944	2600.683378
402.564952	2602.324274
402.946898	2601.225302
403.328783	2602.415015
403.710606	2598.931577
404.092367	2600.819489
404.474067	2603.448451
404.855705	2601.610951
405.237282	2604.723863
405.618797	2601.883173
406.000250	2605.570777
406.381642	2604.005499
406.762972	2601.986517
407.144240	2598.775302
407.525447	2601.245467
407.906593	2601.361413
408.287677	2606.294182
408.668700	2605.598503
409.049661	2606.863833
409.430560	2606.382403
409.811399	2605.974069
410.192176	2606.216045
410.572891	2608.469440
410.953545	2607.849378
411.334138	2608.895418
411.714669	2610.417846
412.095139	2606.891559
412.475547	2610.382558
412.855894	2605.137238
413.236180	2606.415170
413.616405	2610.896756
413.996568	2610.972373
414.376670	2607.423401
414.756711	2609.414657
415.136691	2610.236365
415.516609	2612.814915
415.896466	2611.093361
416.276262	2609.210490
416.655997	2609.797784
417.035670	2611.108484
417.415283	2614.944802
417.794834	2611.597476
418.174324	2611.617641
418.553753	2615.499329
418.933121	2612.971191
419.312428	2614.241562
419.691674	2614.788527
420.070859	2608.683689
420.449983	2614.266767
420.829045	2614.201232
421.208047	2615.060749
421.586988	2617.117540
421.965867	2614.649895
422.344686	2615.484206
422.723444	2617.034361
423.102141	2615.814402
423.480777	2613.838269
423.859352	2614.919597
424.237866	2616.449587
424.616319	2615.862292
424.994712	2619.592746
425.373044	2618.269443
425.751314	2618.150976
426.129524	2614.690224
426.507673	2616.333640
426.885762	2614.357508
427.263789	2620.701800
427.641756	2618.403034
428.019662	2622.302367
428.397508	2621.760442
428.775292	2621.218518
429.153016	2624.200361
429.530679	2621.919239
429.908282	2622.607356
430.285824	2621.808333
430.663305	2620.134670
431.040726	2622.829167
431.418086	2623.729013
431.795385	2623.388735
432.172624	2624.996863
432.549802	2624.822943
432.926920	2625.531226
433.303977	2627.131792
433.680974	2625.412758
434.057910	2627.782101
434.434786	2627.220012
434.811601	2625.911833
435.188355	2629.125568
435.565050	2628.182872
435.941683	2630.123717
436.318257	2630.907616
436.694770	2632.253604
437.071222	2629.004581
437.447614	2630.587503
437.823946	2633.697895
438.200218	2633.783594
438.576429	2634.852319
438.952580	2634.557412
439.328670	2635.323667
439.704700	2638.081178
440.080670	2636.339459
440.456580	2638.645787
440.832429	2641.509163
441.208218	2638.555047
441.583947	2640.422794
441.959616	2642.713998
442.335224	2643.563433
442.710773	2643.754997
443.086261	2645.269863
443.461689	2644.364976
443.837057	2647.422436
444.212365	2649.910246
444.587612	2649.703558
444.962800	2652.924856
445.337927	2654.238076
445.712995	2650.399238
446.088002	2661.852739
446.462949	2660.988181
446.837837	2665.968841
447.212664	2671.123421
447.587431	2676.582991
447.962139	2686.262006
448.336786	2709.441231
448.711374	2718.205277
449.085901	2715.392313
449.460369	2720.299877
449.834776	2723.889178
450.209124	2744.978845
450.583412	2763.159767
450.957640	2789.961061
451.331808	2796.358285
451.705917	2797.916002
452.079965	2803.660397
452.453954	2839.059379
452.827883	2853.514888
453.201752	2885.115361
453.575562	2898.277813
453.949311	2936.088988
454.323001	2961.687967
454.696632	3006.241685
455.070202	3051.896894
455.443713	3103.999740
455.817164	3168.821417
456.190556	3219.726988
456.563888	3290.431692
456.937160	3360.808720
457.310373	3367.463043
457.683526	3420.851383
458.056619	3453.112247
458.429653	3523.101106
458.802628	3550.383831
459.175542	3647.519304
459.548398	3809.741114
459.921194	3933.206533
460.293930	4031.851832
460.666607	4239.355806
461.039224	4492.847707
461.411782	4713.040266
461.784280	4802.253565
462.156719	4911.530657
462.529099	4944.794711
462.901419	4890.990476
463.273680	4954.408191
463.645882	5033.400552
464.018024	5087.217389
464.390106	5249.197224
464.762130	5535.897726
465.134094	5815.021373
465.505999	6430.021978
465.877845	7432.173115
466.249631	8370.241105
466.621358	8469.745921
466.993026	8274.000437
467.364634	8281.602497
467.736184	8081.493895
468.107674	8004.094540
468.479105	8211.636323
468.850477	8252.119309
469.221790	8279.901108
469.593043	8212.742856
469.964238	8228.904796
470.335373	8252.706603
470.706449	8578.100481
471.077467	8555.611894
471.448425	9413.848172
471.819324	11218.747607
472.190164	12339.413751
472.560945	11163.501602
472.931667	10298.573192
473.302330	10208.691940
473.672934	10126.024578
474.043479	10507.024904
474.413965	10595.819788
474.784393	10614.766964
475.154761	11123.961312
475.525070	11312.374437
475.895321	11288.754110
476.265513	11789.708691
476.635645	12271.942948
477.005719	12365.070703
477.375734	12673.485975
477.745691	13175.910052
478.115588	13627.277324
478.485427	14161.818593
478.855207	14970.517972
479.224928	16211.458485
479.594591	17860.351852
479.964194	18152.968148
480.333739	18670.193053
480.703226	18578.900278
481.072653	18619.413511
481.442022	19217.576661
481.811333	20042.001920
482.180584	20263.663975
482.549777	19792.999167
482.918912	19799.214910
483.287988	20074.807229
483.657005	20053.699918
484.025964	20039.801457
484.394864	20216.511543
484.763706	20196.949345
485.132489	19980.945985
485.501213	20243.224617
485.869879	20406.250491
486.238487	20333.788946
486.607036	20708.507994
486.975527	20575.093857
487.343959	21011.987976
487.712333	21160.298722
488.080648	21000.806697
488.448905	21568.090259
488.817104	21477.672124
489.185244	22163.500940
489.553326	22321.044560
489.921350	23243.285847
490.289315	25320.412631
490.657222	27075.684427
491.025070	27677.361262
491.392861	27647.910841
491.760593	27033.164815
492.128267	26404.976552
492.495883	25585.849546
492.863440	24900.023250
493.230939	24177.086500
493.598380	24131.131342
493.965763	23834.986239
494.333088	23501.644982
494.700354	23501.178675
495.067563	23478.170849
495.434713	23300.170227
495.801805	23475.118430
496.168839	23394.132294
496.535815	23265.154372
496.902733	23523.982334
497.269593	23239.121854
497.636395	23487.524710
498.003139	23534.667060
498.369825	23331.286749
498.736453	23549.639287
499.103023	23467.229024
499.469535	23526.875957
499.835989	23746.786211
500.202385	23812.890861
500.568723	23345.868287
500.935003	23649.224761
501.301226	23252.168360
501.667390	24086.927984
502.033497	24369.761921
502.399546	24109.940852
502.765537	23741.379573
503.131470	24125.639005
503.497345	24274.768938
503.863163	23512.876673
504.228923	24151.303519
504.594625	24338.710934
504.960269	23858.036915
505.325856	24383.920002
505.691385	23808.593278
506.056856	24414.305556
506.422270	24385.455033
506.787625	24000.532690
507.152924	24401.354832
507.518164	24428.743421
507.883347	24251.143571
508.248472	23949.382622
508.613540	24722.075560
508.978550	24510.750391
509.343503	24485.186700
509.708398	24785.755416
510.073236	24939.142604
510.438016	25158.538660
510.802738	24835.746018
511.167403	25086.056950
511.532010	24778.402893
511.896561	25574.627937
512.261053	25539.397833
512.625488	25388.692539
512.989866	25283.173628
513.354186	25144.672967
513.718449	25230.576749
514.082655	25612.396262
514.446803	25357.076943
514.810894	25814.077704
515.174927	25300.351359
515.538904	25318.050850
515.902822	25821.137840
516.266684	25576.301600
516.630488	25476.612783
516.994235	25474.631609
517.357925	25754.156028
517.721558	25949.606604
518.085133	26035.008792
518.448651	25980.241696
518.812112	25671.297103
519.175516	25876.121705
519.538863	26038.908124
519.902152	25826.501627
520.265385	26125.663861
520.628560	25898.567442
520.991678	25919.702480
521.354739	26007.733629
521.717743	26048.700565
522.080690	25848.546593
522.443580	26183.924476
522.806413	26179.818456
523.169189	26272.989062
523.531908	26344.649064
523.894569	25923.717759
524.257174	25998.911609
524.619722	26206.929782
524.982213	25882.965071
525.344647	25957.866535
525.707025	26070.490953
526.069345	26078.985297
526.431608	26017.248807
526.793815	26223.666413
527.155964	25663.415259
527.518057	25833.985220
527.880093	25759.875217
528.242072	25997.628636
528.603995	25692.845515
528.965860	25493.472922
529.327669	25544.496961
529.689421	25537.378851
530.051117	25374.743667
530.412755	25551.327724
530.774337	25362.360072
531.135862	25223.783794
531.497331	25430.541678
531.858743	24971.254754
532.220098	25451.878362
532.581396	25136.312213
532.942638	25085.729275
533.303824	25159.113352
533.664953	25196.906882
534.026025	24853.876528
534.387040	25084.950417
534.747999	25154.399873
535.108902	25318.628063
535.469748	24808.090248
535.830537	25002.081410
536.191270	25109.785662
536.551947	25003.273643
536.912567	24669.211501
537.273131	24974.009744
537.633638	24700.017992
537.994089	24909.056998
538.354483	24458.997906
538.714821	24955.571724
539.075103	24991.739482
539.435328	24777.225783
539.795497	24337.901829
540.155609	24742.393931
540.515665	25034.755648
540.875665	24276.382108
541.235609	24549.375712
541.595496	24527.804615
541.955328	24880.307297
542.315102	24794.348062
542.674821	24358.084088
543.034483	24238.081941
543.394090	24403.671242
543.753640	24191.766340
544.113134	24820.980478
544.472571	24424.476084
544.831953	24706.939496
545.191278	24317.197810
545.550548	24261.344346
545.909761	24474.990966
546.268918	24707.499064
546.628019	24653.599047
546.987064	24359.513255
547.346053	24126.760662
547.704986	24245.290791
548.063863	24402.582353
548.422684	24397.871395
548.781449	23959.316216
549.140158	24357.673234
549.498811	23928.131638
549.857408	23660.282532
550.215949	24115.637356
550.574434	23781.194607
550.932864	24007.701211
551.291237	24140.712055
551.649555	24019.449620
552.007817	24061.507966
552.366022	23929.626340
552.724173	23991.065403
553.082267	23909.139091
553.440305	24399.663525
553.798288	23662.818232
554.156215	24197.079717
554.514086	24273.511171
554.871902	23648.617302
555.229661	23937.109933
555.587365	23787.178456
555.945014	23634.600373
556.302606	23907.704883
556.660143	23843.291540
557.017625	24102.086734
557.375050	23637.768738
557.732421	24024.921792
558.089735	23827.023736
558.446994	23898.464448
558.804197	23915.412807
559.161345	23867.237020
559.518437	23615.436427
559.875474	23819.071316
560.232455	24002.660057
560.589381	23825.725639
560.946251	23796.222286
561.303065	24122.581545
561.659825	24207.446849
562.016528	23799.010044
562.373177	23564.356936
562.729770	23903.256065
563.086307	23771.271095
563.442789	23948.850781
563.799216	23774.809985
564.155587	23780.856849
564.511904	23764.689869
564.868164	23693.584394
565.224370	23693.087840
565.580520	23595.496143
565.936615	23719.579104
566.292654	23398.175299
566.648638	23711.546025
567.004567	23531.662532
567.360441	23472.708759
567.716260	23202.702038
568.072023	23539.297360
568.427732	23293.077324
568.783385	23072.431061
569.138982	23305.836484
569.494525	23346.148071
569.850013	23082.228543
570.205445	23188.377599
570.560823	22999.732581
570.916145	22761.497733
571.271412	22937.370988
571.626625	22688.476619
571.981782	22811.964724
572.336884	22606.537705
572.691931	22752.645467
573.046923	22472.150626
573.401860	22364.179192
573.756743	22356.935054
574.111570	22274.030759
574.466342	22209.819062
574.821059	22294.767545
575.175722	21986.064928
575.530330	21984.361018
575.884882	22007.431858
576.239380	21912.857292
576.593823	21805.402577
576.948211	21782.856016
577.302544	21629.713324
577.656823	21497.670381
578.011047	21608.966455
578.365216	21476.583235
578.719330	21354.904904
579.073389	21249.716188
579.427394	21399.113303
579.781344	21178.698933
580.135239	21068.758930
580.489080	21036.130062
580.842866	20797.819596
581.196597	20977.380455
581.550273	20968.664300
581.903895	20863.820903
582.257463	21168.299033
582.610975	20691.899912
582.964434	21004.264928
583.317837	20718.373532
583.671186	20796.211468
584.024481	20774.630288
584.377721	20548.486647
584.730906	20584.712379
585.084037	20640.754886
585.437113	20536.017353
585.790135	20729.547249
586.143103	20200.347083
586.496016	20211.694720
586.848874	20458.013059
587.201679	20402.852754
587.554428	20062.176618
587.907124	20390.963192
588.259765	20174.405305
588.612352	20251.459342
588.964884	19825.978396
589.317362	19996.029118
589.669786	20040.630726
590.022155	20094.094683
590.374470	20271.437435
590.726731	20075.112219
591.078937	19827.581483
591.431090	19933.680127
591.783188	19674.958029
592.135232	19648.920470
592.487222	19743.449666
592.839157	19771.775909
593.191038	19662.503859
593.542866	19548.644358
593.894639	19268.204969
594.246358	19484.483072
594.598022	19397.999558
594.949633	19153.266662
595.301190	19101.226831
595.652692	19276.462379
596.004141	19514.767804
596.355535	18836.777982
596.706876	18845.841977
597.058162	18742.485720
597.409395	18968.946954
597.760573	19059.919616
598.111698	18832.016612
598.462768	18769.062683
598.813785	18723.614161
599.164748	18548.834836
599.515657	18578.590247
599.866511	18370.511581
600.217312	18738.485564
600.568060	18266.749511
600.918753	18578.928004
601.269392	18464.975242
601.619978	18250.958097
601.970510	18471.853896
602.320988	18403.720182
602.671412	18624.931053
603.021783	18521.973048
603.372100	18252.843488
603.722363	18389.690650
604.072572	18333.002875
604.422728	18460.019788
604.772830	18235.580057
605.122878	18184.263631
605.472872	18169.513215
605.822813	18162.269077
606.172701	18119.371378
606.522534	18318.620463
606.872314	18346.240945
607.222041	18178.448660
607.571714	18401.658350
607.921333	18229.777689
608.270899	18296.852761
608.620411	18483.899733
608.969870	18252.467922
609.319276	18247.719155
609.668627	18288.660886
610.017926	18416.071008
610.367171	18536.736067
610.716362	18569.715295
611.065500	18398.058966
611.414585	18524.970014
611.763616	18510.464094
612.112594	18458.668758
612.461518	18431.403678
612.810389	18612.534856
613.159207	18470.147466
613.507971	18381.052633
613.856682	18661.557557
614.205340	18595.813349
614.553945	18737.762159
614.902496	18480.340679
615.250994	18715.520588
615.599439	18658.099325
615.947830	18634.894894
616.296169	18680.000618
616.644454	18651.346700
616.992686	18616.192213
617.340864	18841.090689
617.688990	18593.567515
618.037063	18769.014792
618.385082	18620.126834
618.733048	18895.298217
619.080961	18764.727291
619.428821	18805.311100
619.776628	18703.189926
620.124382	18614.997460
620.472083	18650.829981
620.819731	18676.345782
621.167326	18370.856900
621.514868	18408.214370
621.862357	18175.839863
622.209793	18182.365637
622.557176	18017.928239
622.904506	17852.661572
623.251783	17763.228983
623.599007	17530.983025
623.946179	17470.955485
624.293297	17402.781441
624.640363	17163.470307
624.987376	17186.503338
625.334336	16979.052296
625.681243	16814.667831
626.028097	16825.687793
626.374899	16762.983401
626.721647	16622.945188
627.068343	16457.454190
627.414987	16378.925616
627.761577	16356.298397
628.108115	16413.417190
628.454600	16121.715864
628.801032	16223.035495
629.147412	16156.227603
629.493739	16173.296950
629.840014	15979.683875
630.186236	16083.045173
630.532405	15843.928123
630.878521	16044.389605
631.224585	15931.089673
631.570597	15754.049391
631.916556	15792.387366
632.262462	15780.028977
632.608316	15685.681262
632.954117	15631.866945
633.299866	15623.962416
633.645562	15549.620520
633.991206	15303.602130
634.336797	15170.215720
634.682336	15142.242357
635.027823	15032.693043
635.373257	14910.114867
635.718639	14812.651719
636.063968	14760.493420
636.409245	14517.091389
636.754470	14544.641295
637.099642	14386.097007
637.444762	14157.979754
