Dividing Wavelength (nm)	Counts (n)	Blue Motor Position (mm): 23.600000	Red Motor Position (mm): 0.000000	
326.493990	2193.968127
326.888308	2193.968127
327.282561	2193.968127
327.676750	2154.682415
328.070874	2149.401807
328.464933	2153.931283
328.858929	2155.554535
329.252859	2159.983188
329.646726	2169.256391
330.040528	2182.789368
330.434265	2194.827644
330.827938	2213.056456
331.221547	2228.477346
331.615091	2244.288925
332.008571	2263.357089
332.401986	2284.199740
332.795338	2301.843778
333.188625	2319.366829
333.581847	2339.107988
333.975006	2357.498117
334.368100	2374.748945
334.761129	2395.536143
335.154095	2413.785120
335.546996	2436.354366
335.939833	2471.118163
336.332606	2485.394710
336.725315	2501.508759
337.117960	2509.498988
337.510540	2524.065402
337.903056	2535.095446
338.295508	2542.445448
338.687896	2550.060111
339.080220	2559.066133
339.472480	2564.694581
339.864676	2573.947619
340.256807	2575.719584
340.648875	2578.615727
341.040879	2583.372056
341.432818	2585.965730
341.824694	2588.327510
342.216506	2590.336410
342.608253	2591.349682
342.999937	2590.986719
343.391557	2592.874631
343.783113	2589.960844
344.174605	2591.810947
344.566033	2588.975298
344.957397	2588.622418
345.348697	2586.794999
345.739934	2586.220308
346.131106	2582.179823
346.522215	2581.486664
346.913260	2580.513722
347.304241	2577.242013
347.695159	2574.925603
348.086012	2573.929975
348.476802	2570.365879
348.867528	2566.761454
349.258191	2564.089642
349.648789	2564.855898
350.039324	2560.591082
350.429796	2564.916392
350.820203	2564.608881
351.210548	2562.599982
351.600828	2561.448078
351.991045	2557.279044
352.381198	2560.318859
352.771288	2557.389949
353.161314	2556.301060
353.551276	2557.450443
353.941175	2555.169321
354.331010	2558.241904
354.720782	2554.483724
355.110490	2558.027655
355.500135	2554.166131
355.889717	2556.069167
356.279235	2554.854249
356.668689	2557.946997
357.058080	2557.039589
357.447408	2555.897767
357.836672	2556.096893
358.225873	2557.498334
358.615010	2554.629917
359.004084	2559.121585
359.393095	2558.335165
359.782043	2556.961451
360.170927	2559.141750
360.559748	2559.151832
360.948505	2561.080074
361.337199	2561.889179
361.725830	2561.929508
362.114398	2561.939590
362.502903	2560.202913
362.891344	2563.058727
363.279722	2561.836247
363.668037	2563.406566
364.056289	2563.227605
364.444478	2568.848492
364.832603	2566.247256
365.220665	2565.327246
365.608665	2563.252811
365.996601	2567.283213
366.384474	2569.637432
366.772284	2568.876218
367.160031	2569.161043
367.547715	2571.043914
367.935336	2568.261197
368.322893	2565.546536
368.710388	2565.927143
369.097820	2567.540312
369.485189	2563.421690
369.872495	2571.048955
370.259738	2570.076013
370.646918	2570.406208
371.034035	2571.565674
371.421090	2572.566343
371.808081	2569.035014
372.195010	2572.488205
372.581875	2571.878225
372.968678	2570.897721
373.355418	2572.231106
373.742096	2574.459296
374.128710	2572.924265
374.515262	2574.655901
374.901751	2572.878894
375.288177	2573.451065
375.674540	2572.311764
376.060841	2577.370562
376.447079	2572.863771
376.833254	2578.630851
377.219367	2575.475088
377.605417	2577.340315
377.991404	2575.311251
378.377329	2574.890315
378.763191	2575.550706
379.148991	2578.663618
379.534727	2574.650860
379.920402	2577.567167
380.306013	2575.036508
380.691563	2574.381158
381.077049	2575.286045
381.462474	2574.776889
381.847835	2578.676221
382.233134	2577.673032
382.618371	2576.543813
383.003545	2580.697724
383.388657	2579.419791
383.773706	2581.118660
384.158693	2577.552044
384.543618	2580.899370
384.928480	2579.762590
385.313280	2579.505491
385.698017	2580.470872
386.082692	2580.833835
386.467305	2582.010944
386.851856	2583.707293
387.236344	2582.492375
387.620770	2580.591860
388.005133	2578.199832
388.389435	2580.254102
388.773674	2579.258474
389.157851	2583.230904
389.541965	2581.249730
389.926018	2584.344999
390.310008	2584.594536
390.693936	2585.075966
391.077802	2583.346850
391.461606	2586.323652
391.845348	2584.627303
392.229027	2583.321644
392.612645	2584.745770
392.996200	2587.752819
393.379694	2585.068404
393.763125	2587.984712
394.146494	2586.157293
394.529801	2585.267530
394.913047	2588.819023
395.296230	2586.711820
395.679351	2587.105030
396.062410	2587.193251
396.445408	2587.132757
396.828343	2588.582088
397.211217	2589.013107
397.594028	2587.583940
397.976778	2589.794486
398.359466	2590.986719
398.742092	2589.280288
399.124656	2589.509661
399.507158	2591.148036
399.889598	2591.364805
400.271977	2589.912953
400.654294	2592.720876
401.036549	2592.201637
401.418742	2592.786411
401.800874	2591.311873
402.182944	2590.777511
402.564952	2590.384301
402.946898	2592.259610
403.328783	2592.627614
403.710606	2592.478900
404.092367	2593.726586
404.474067	2592.168869
404.855705	2592.627614
405.237282	2592.957810
405.618797	2592.423448
406.000250	2590.399424
406.381642	2593.514857
406.762972	2589.365988
407.144240	2591.810948
407.525447	2593.535022
407.906593	2591.904209
408.287677	2591.795824
408.668700	2596.652976
409.049661	2594.621391
409.430560	2596.123655
409.811399	2598.810590
410.192176	2597.230188
410.572891	2595.611977
410.953545	2597.552822
411.334138	2597.817482
411.714669	2597.862853
412.095139	2597.784715
412.475547	2600.050713
412.855894	2597.691453
413.236180	2598.843357
413.616405	2598.999633
413.996568	2598.646752
414.376670	2600.131372
414.756711	2598.394694
415.136691	2598.742534
415.516609	2600.534664
415.896466	2599.163470
416.276262	2600.184304
416.655997	2597.938470
417.035670	2600.829572
417.415283	2603.322422
417.794834	2602.084819
418.174324	2601.104315
418.553753	2600.890066
418.933121	2601.434510
419.312428	2602.165477
419.691674	2604.126486
420.070859	2605.588421
420.449983	2602.873760
420.829045	2604.759151
421.208047	2603.251846
421.586988	2606.689913
421.965867	2601.565580
422.344686	2603.259408
422.723444	2604.832248
423.102141	2603.352669
423.480777	2601.779829
423.859352	2602.505755
424.237866	2606.062289
424.616319	2605.752258
424.994712	2607.773761
425.373044	2604.852412
425.751314	2603.692947
426.129524	2602.629264
426.507673	2606.556322
426.885762	2601.888214
427.263789	2605.595983
427.641756	2605.573297
428.019662	2609.291148
428.397508	2607.400716
428.775292	2607.549430
429.153016	2609.152517
429.530679	2607.332660
429.908282	2611.186622
430.285824	2609.454986
430.663305	2608.502208
431.040726	2610.553957
431.418086	2607.892228
431.795385	2608.633278
432.172624	2610.937085
432.549802	2609.248299
432.926920	2611.831890
433.303977	2610.324585
433.680974	2611.665532
434.057910	2611.955398
434.434786	2610.377517
434.811601	2611.105964
435.188355	2613.258537
435.565050	2610.553957
435.941683	2612.028495
436.318257	2612.298197
436.694770	2614.115533
437.071222	2613.329113
437.447614	2614.934720
437.823946	2615.847169
438.200218	2613.785337
438.576429	2614.861623
438.952580	2614.357508
439.328670	2616.074021
439.704700	2613.908845
440.080670	2615.370780
440.456580	2614.947323
440.832429	2616.711727
441.208218	2618.599639
441.583947	2619.713734
441.959616	2619.446553
442.335224	2619.239866
442.710773	2619.219701
443.086261	2618.012345
443.461689	2620.298508
443.837057	2620.109465
444.212365	2619.640637
444.587612	2615.892539
444.962800	2620.162397
445.337927	2617.014196
445.712995	2615.769031
446.088002	2623.736575
446.462949	2619.713734
446.837837	2623.534929
447.212664	2626.181534
447.587431	2625.861421
447.962139	2625.226236
448.336786	2628.744961
448.711374	2631.852832
449.085901	2631.073974
449.460369	2631.257976
449.834776	2629.145733
450.209124	2631.328552
450.583412	2632.863584
450.957640	2633.145888
451.331808	2633.859212
451.705917	2632.157822
452.079965	2632.235960
452.453954	2633.665127
452.827883	2635.066568
453.201752	2637.307361
453.575562	2638.802063
453.949311	2639.953967
454.323001	2639.578401
454.696632	2641.799029
455.070202	2644.480923
455.443713	2646.499905
455.817164	2647.964360
456.190556	2651.846049
456.563888	2654.291008
456.937160	2659.780825
457.310373	2659.506082
457.683526	2663.617143
458.056619	2665.913388
458.429653	2669.490087
458.802628	2671.093174
459.175542	2674.571570
459.548398	2689.813499
459.921194	2695.893130
460.293930	2703.401929
460.666607	2717.769217
461.039224	2744.086561
461.411782	2758.136257
461.784280	2770.648401
462.156719	2778.368928
462.529099	2788.300001
462.901419	2787.458128
463.273680	2797.033800
463.645882	2809.999648
464.018024	2823.988850
464.390106	2846.351408
464.762130	2881.284084
465.134094	2930.614295
465.505999	3026.746578
465.877845	3187.304807
466.249631	3310.543375
466.621358	3329.120027
466.993026	3317.608552
467.364634	3332.956345
467.736184	3335.078671
468.107674	3355.676825
468.479105	3421.073193
468.850477	3460.411838
469.221790	3498.026407
469.593043	3524.777290
469.964238	3554.333575
470.335373	3597.934514
470.706449	3692.481355
471.077467	3722.728278
471.448425	3945.022998
471.819324	4391.013879
472.190164	4682.397612
472.560945	4467.682267
472.931667	4328.397707
473.302330	4360.401472
473.672934	4399.694746
474.043479	4543.458371
474.413965	4625.392244
474.784393	4683.337787
475.154761	4883.244743
475.525070	4994.835725
475.895321	5040.891706
476.265513	5248.584724
476.635645	5447.347338
477.005719	5544.255959
477.375734	5707.198654
477.745691	5938.133912
478.115588	6146.003370
478.485427	6414.084370
478.855207	6755.821668
479.224928	7290.693133
479.594591	8019.472580
479.964194	8192.782408
480.333739	8456.197820
480.703226	8471.177608
481.072653	8615.039536
481.442022	8991.838060
481.811333	9441.347666
482.180584	9652.745932
482.549777	9558.423423
482.918912	9704.561432
483.287988	9943.653276
483.657005	10062.553931
484.025964	10170.003605
484.394864	10368.632628
484.763706	10481.922478
485.132489	10542.948166
485.501213	10762.046795
485.869879	10992.629172
486.238487	11043.801924
486.607036	11391.228165
486.975527	11468.289763
487.343959	11805.051443
487.712333	12043.717310
488.080648	12061.948643
488.448905	12522.558870
488.817104	12625.647946
489.185244	13158.913802
489.553326	13409.335640
489.921350	14037.597000
490.289315	15368.436410
490.657222	16549.694702
491.025070	17088.770489
491.392861	17244.025424
491.760593	17059.965336
492.128267	16915.735404
492.495883	16556.349025
492.863440	16352.656163
493.230939	16059.150104
493.598380	16216.285390
493.965763	16176.500604
494.333088	16135.190868
494.700354	16293.367153
495.067563	16465.852752
495.434713	16508.962179
495.801805	16747.350783
496.168839	16888.921506
496.535815	16982.089591
496.902733	17306.376936
497.269593	17231.440184
497.636395	17607.664016
498.003139	17782.581972
498.369825	17832.149117
498.736453	18116.896172
499.103023	18208.451087
499.469535	18418.236184
499.835989	18745.097038
500.202385	18955.945818
500.568723	18754.324870
500.935003	19097.171222
501.301226	18956.182752
501.667390	19698.613644
502.033497	20101.598441
502.399546	19993.942080
502.765537	19896.065557
503.131470	20316.943930
503.497345	20578.690720
503.863163	20063.920857
504.228923	20742.603838
504.594625	21027.660923
504.960269	20727.361909
505.325856	21303.046555
505.691385	20941.933581
506.056856	21550.224410
506.422270	21682.269873
506.787625	21411.953122
507.152924	21904.047875
507.518164	22010.572497
507.883347	21944.916509
508.248472	21764.423037
508.613540	22556.698337
508.978550	22470.232467
509.343503	22562.480541
509.708398	22910.184045
510.073236	23131.795689
510.438016	23398.371904
510.802738	23198.573333
511.167403	23500.208253
511.532010	23287.181694
511.896561	24101.554892
512.261053	24149.289578
512.625488	24062.364962
512.989866	24025.786350
513.354186	23944.369195
513.718449	24104.975315
514.082655	24520.005950
514.446803	24349.456153
514.810894	24812.269364
515.174927	24367.299317
515.538904	24452.073881
515.902822	24959.859226
516.266684	24772.169506
516.630488	24720.036414
516.994235	24747.908953
517.357925	25059.648866
517.721558	25283.130778
518.085133	25398.580763
518.448651	25371.378696
518.812112	25111.550065
519.175516	25318.081097
519.538863	25516.195923
519.902152	25309.359901
520.265385	25646.837425
520.628560	25453.718383
520.991678	25493.432593
521.354739	25583.011376
521.717743	25643.948844
522.080690	25468.877132
522.443580	25815.385883
522.806413	25831.401629
523.169189	25940.129235
523.531908	26018.438519
523.894569	25627.421421
524.257174	25694.120927
524.619722	25922.182727
524.982213	25606.631702
525.344647	25699.860281
525.707025	25813.760111
526.069345	25831.129407
526.431608	25781.968074
526.793815	25989.209909
527.155964	25439.363697
527.518057	25613.139832
527.880093	25554.138167
528.242072	25785.892612
528.603995	25487.753733
528.965860	25301.369672
529.327669	25355.310018
529.689421	25354.289185
530.051117	25200.541554
530.412755	25366.826534
530.774337	25186.766601
531.135862	25054.277517
531.497331	25263.424907
531.858743	24799.865605
532.220098	25292.648476
532.581396	24967.166378
532.942638	24919.154429
533.303824	25015.296794
533.664953	25043.960795
534.026025	24703.640061
534.387040	24935.515494
534.747999	25000.163251
535.108902	25157.245604
535.469748	24656.258256
535.830537	24867.704413
536.191270	24966.808456
536.551947	24863.820204
536.912567	24536.626634
537.273131	24836.144269
537.633638	24561.540016
537.994089	24769.810246
538.354483	24333.193391
538.714821	24825.701519
539.075103	24862.113773
539.435328	24661.967362
539.795497	24197.732546
540.155609	24614.542708
540.515665	24897.391768
540.875665	24159.664273
541.235609	24422.497431
541.595496	24405.604525
541.955328	24758.356745
542.315102	24672.707541
542.674821	24248.156687
543.034483	24115.108034
543.394090	24281.743375
543.753640	24067.327978
544.113134	24698.893814
544.472571	24304.978053
544.831953	24587.809469
545.191278	24190.599313
545.550548	24135.101251
545.909761	24351.485218
546.268918	24577.812861
546.628019	24535.608321
546.987064	24241.593105
547.346053	24008.187682
547.704986	24127.620178
548.063863	24285.617502
548.422684	24283.230515
548.781449	23844.110727
549.140158	24242.961778
549.498811	23818.002591
549.857408	23554.398136
550.215949	23993.691844
550.574434	23670.150590
550.932864	23892.914138
551.291237	24031.616444
551.649555	23906.857969
552.007817	23968.649912
552.366022	23838.104192
552.724173	23879.847467
553.082267	23807.277537
553.440305	24290.709067
553.798288	23557.710174
554.156215	24080.233332
554.514086	24161.300127
554.871902	23533.603377
555.229661	23813.498320
555.587365	23693.566750
555.945014	23523.692468
556.302606	23800.247648
556.660143	23722.334094
557.017625	23991.614889
557.375050	23530.276215
557.732421	23915.095214
558.089735	23729.169899
558.446994	23792.653149
558.804197	23799.990549
559.161345	23759.290793
559.518437	23512.354913
559.875474	23710.469739
560.232455	23886.597572
560.589381	23717.323187
560.946251	23688.870915
561.303065	24004.280788
561.659825	24113.192396
562.016528	23707.631569
562.373177	23445.209264
562.729770	23796.595332
563.086307	23670.049767
563.442789	23839.319110
563.799216	23659.480988
564.155587	23673.306352
564.511904	23665.512729
564.868164	23592.214352
565.224370	23590.646553
565.580520	23486.188804
565.936615	23627.956133
566.292654	23294.733343
566.648638	23607.612556
567.004567	23423.917951
567.360441	23370.441391
567.716260	23101.591615
568.072023	23430.710906
568.427732	23186.403988
568.783385	22981.720539
569.138982	23211.072874
569.494525	23242.474221
569.850013	22988.682372
570.205445	23086.379934
570.560823	22892.129152
570.916145	22664.553824
571.271412	22836.348785
571.626625	22587.313265
571.981782	22709.586451
572.336884	22506.173373
572.691931	22641.805617
573.046923	22377.233260
573.401860	22261.306887
573.756743	22259.819746
574.111570	22175.574504
574.466342	22114.470678
574.821059	22198.088297
575.175722	21897.582595
575.530330	21887.888457
575.884882	21920.648395
576.239380	21817.156027
576.593823	21708.814069
576.948211	21693.521729
577.302544	21539.713604
577.656823	21423.220101
578.011047	21504.115497
578.365216	21378.862988
578.719330	21267.884507
579.073389	21172.105104
579.427394	21299.361471
579.781344	21086.556723
580.135239	20975.510187
580.489080	20949.843152
580.842866	20710.390865
581.196597	20889.319059
581.550273	20879.685414
581.903895	20769.853795
582.257463	21082.722926
582.610975	20615.261771
582.964434	20916.994993
583.317837	20630.667537
583.671186	20720.533666
584.024481	20676.655463
584.377721	20462.121599
584.730906	20507.416367
585.084037	20556.290353
585.437113	20450.920156
585.790135	20646.206894
586.143103	20123.043509
586.496016	20133.831579
586.848874	20367.567197
587.201679	20313.478137
587.554428	19982.354988
587.907124	20317.750515
588.259765	20102.321847
588.612352	20167.695530
588.964884	19749.720861
589.317362	19917.024155
589.669786	19958.525454
590.022155	20021.577685
590.374470	20187.875268
590.726731	19995.232615
591.078937	19743.437063
591.431090	19847.730974
591.783188	19595.310319
592.135232	19568.413243
592.487222	19666.138531
592.839157	19703.518686
593.191038	19581.510160
593.542866	19462.112952
593.894639	19187.624646
594.246358	19409.057328
594.598022	19320.383432
594.949633	19063.879442
595.301190	19023.933339
595.652692	19188.083391
596.004141	19434.316030
596.355535	18765.541437
596.706876	18773.254403
597.058162	18659.236105
597.409395	18883.363285
597.760573	18983.314242
598.111698	18758.440972
598.462768	18687.947997
598.813785	18644.379825
599.164748	18477.449577
599.515657	18507.106685
599.866511	18285.369013
600.217312	18658.605961
600.568060	18189.632460
600.918753	18500.832969
601.269392	18401.441580
601.619978	18170.529008
601.970510	18393.345487
602.320988	18330.530189
602.671412	18547.695535
603.021783	18442.557231
603.372100	18184.051903
603.722363	18316.883786
604.072572	18253.738293
604.422728	18386.784425
604.772830	18149.204927
605.122878	18100.842617
605.472872	18092.686030
605.822813	18076.025017
606.172701	18055.139517
606.522534	18246.388291
606.872314	18260.851361
607.222041	18100.550230
607.571714	18319.779929
607.921333	18147.616963
608.270899	18222.387357
608.620411	18412.169155
608.969870	18169.321651
609.319276	18182.249690
609.668627	18201.191826
610.017926	18347.150874
610.367171	18451.079301
610.716362	18491.915168
611.065500	18316.934197
611.414585	18439.056149
611.763616	18437.947096
612.112594	18381.662613
612.461518	18344.269854
612.810389	18543.947437
613.159207	18391.366834
613.507971	18306.085634
613.856682	18586.209951
614.205340	18508.104834
614.553945	18658.976486
614.902496	18395.603924
615.250994	18644.599115
615.599439	18579.046471
615.947830	18559.489315
616.296169	18615.826730
616.644454	18581.776256
616.992686	18543.138332
617.340864	18752.880579
617.688990	18521.327780
618.037063	18696.253298
618.385082	18540.557262
618.733048	18822.897165
619.080961	18684.971196
619.428821	18729.235047
619.776628	18624.805025
620.124382	18545.505154
620.472083	18580.019414
620.819731	18600.935161
621.167326	18296.225138
621.514868	18341.948403
621.862357	18098.548892
622.209793	18118.204351
622.557176	17943.810675
622.904506	17773.722144
623.251783	17679.046754
623.599007	17448.434131
623.946179	17393.677118
624.293297	17341.445723
624.640363	17086.842248
624.987376	17108.340248
625.334336	16909.567552
625.681243	16754.133655
626.028097	16762.532218
626.374899	16698.280191
626.721647	16551.469188
627.068343	16388.864251
627.414987	16319.308930
627.761577	16292.800023
628.108115	16339.849112
628.454600	16061.262347
628.801032	16156.101575
629.147412	16093.054384
629.493739	16104.948987
629.840014	15918.423774
630.186236	16021.485123
630.532405	15779.542506
630.878521	15969.687267
631.224585	15873.255035
631.570597	15698.206009
631.916556	15726.030658
632.262462	15717.596807
632.608316	15621.509894
632.954117	15565.709362
633.299866	15565.512758
633.645562	15489.282950
633.991206	15243.665331
634.336797	15106.785402
634.682336	15078.774230
635.027823	14971.669876
635.373257	14857.991856
635.718639	14749.029837
636.063968	14701.849678
636.409245	14450.757366
636.754470	14479.837262
637.099642	14324.912522
637.444762	14098.254684
637.789829	14148.698990
638.134845	13990.663858
