Dividing Wavelength (nm)	Counts (n)	Blue Motor Position (mm): 9.500000	Red Motor Position (mm): 0.000000	
326.493990	2161.087201
326.888308	2161.087201
327.282561	2161.087201
327.676750	2121.128495
328.070874	2114.358226
328.464933	2114.822012
328.858929	2121.312497
329.252859	2124.173352
329.646726	2134.341359
330.040528	2144.915180
330.434265	2155.645276
330.827938	2176.684531
331.221547	2193.920236
331.615091	2210.309027
332.008571	2227.733776
332.401986	2247.928638
332.795338	2267.047214
333.188625	2283.355347
333.581847	2304.261012
333.975006	2319.129895
334.368100	2338.684531
334.761129	2357.183045
335.154095	2374.900180
335.546996	2396.088149
335.939833	2414.115316
336.332606	2430.327666
336.725315	2445.085644
337.117960	2455.760288
337.510540	2468.106073
337.903056	2475.992958
338.295508	2485.782879
338.687896	2498.284941
339.080220	2502.443893
339.472480	2509.836745
339.864676	2516.004597
340.256807	2520.256810
340.648875	2523.190761
341.040879	2529.829961
341.432818	2530.628984
341.824694	2534.987061
342.216506	2535.702905
342.608253	2535.143337
342.999937	2536.776671
343.391557	2532.952956
343.783113	2533.502442
344.174605	2534.208203
344.566033	2530.318953
344.957397	2530.563449
345.348697	2531.463295
345.739934	2528.920033
346.131106	2525.975999
346.522215	2523.157994
346.913260	2525.912984
347.304241	2520.120699
347.695159	2519.901408
348.086012	2518.628517
348.476802	2516.246572
348.867528	2510.971004
349.258191	2509.980418
349.648789	2510.119049
350.039324	2507.971518
350.429796	2506.733915
350.820203	2507.616117
351.210548	2504.563698
351.600828	2505.685355
351.991045	2501.498676
352.381198	2499.552791
352.771288	2501.609582
353.161314	2499.315857
353.551276	2502.403563
353.941175	2501.145796
354.331010	2498.282420
354.720782	2500.230826
355.110490	2502.668224
355.500135	2498.060609
355.889717	2499.784684
356.279235	2498.153871
356.668689	2501.208810
357.058080	2498.927688
357.447408	2500.777791
357.836672	2499.406597
358.225873	2502.784171
358.615010	2498.592451
359.004084	2501.637308
359.393095	2501.937257
359.782043	2502.474140
360.170927	2503.426918
360.559748	2503.908348
360.948505	2504.233502
361.337199	2508.324399
361.725830	2506.018071
362.114398	2505.944974
362.502903	2506.567557
362.891344	2506.819614
363.279722	2505.140910
363.668037	2508.135355
364.056289	2507.616117
364.444478	2510.834893
364.832603	2507.240551
365.220665	2509.468741
365.608665	2510.842455
365.996601	2508.894049
366.384474	2510.729029
366.772284	2511.906138
367.160031	2512.548886
367.547715	2511.394461
367.935336	2510.640809
368.322893	2509.083092
368.710388	2510.963443
369.097820	2511.316323
369.485189	2507.389265
369.872495	2515.941582
370.259738	2511.495284
370.646918	2514.514936
371.034035	2514.348578
371.421090	2516.685152
371.808081	2513.965450
372.195010	2516.478465
372.581875	2513.705830
372.968678	2516.420492
373.355418	2513.501664
373.742096	2515.976870
374.128710	2517.443846
374.515262	2518.046264
374.901751	2517.471572
375.288177	2519.019207
375.674540	2517.678260
376.060841	2520.153466
376.447079	2518.933507
376.833254	2518.406706
377.219367	2517.660616
377.605417	2518.938548
377.991404	2517.269926
378.377329	2518.578106
378.763191	2518.452077
379.148991	2519.223373
379.534727	2515.848321
379.920402	2521.537263
380.306013	2517.834535
380.691563	2522.600946
381.077049	2521.317973
381.462474	2519.069618
381.847835	2520.161028
382.233134	2519.818229
382.618371	2517.007786
383.003545	2520.443333
383.388657	2522.661440
383.773706	2524.304856
384.158693	2520.697911
384.543618	2519.750174
384.928480	2524.166225
385.313280	2521.975843
385.698017	2521.703621
386.082692	2522.845442
386.467305	2519.561131
386.851856	2523.173117
387.236344	2522.358971
387.620770	2522.540453
388.005133	2520.256810
388.389435	2522.300998
388.773674	2519.389731
389.157851	2524.042716
389.541965	2525.751667
389.926018	2527.095135
390.310008	2525.547501
390.693936	2525.318128
391.077802	2525.587830
391.461606	2527.695032
391.845348	2527.301822
392.229027	2526.260824
392.612645	2523.604136
392.996200	2525.645803
393.379694	2525.247552
393.763125	2527.984899
394.146494	2527.425331
394.529801	2527.997502
394.913047	2526.530526
395.296230	2528.428520
395.679351	2525.071112
396.062410	2526.268386
396.445408	2525.358458
396.828343	2527.818541
397.211217	2527.417769
397.594028	2528.017666
397.976778	2527.818541
398.359466	2529.512368
398.742092	2526.134795
399.124656	2529.262831
399.507158	2529.156967
399.889598	2533.759540
400.271977	2529.905578
400.654294	2531.720394
401.036549	2529.789632
401.418742	2531.876669
401.800874	2529.766947
402.182944	2534.349355
402.564952	2530.971782
402.946898	2531.352389
403.328783	2531.009591
403.710606	2532.363141
404.092367	2531.841381
404.474067	2530.276103
404.855705	2530.165198
405.237282	2530.094622
405.618797	2531.238963
406.000250	2533.399098
406.381642	2531.894313
406.762972	2529.668644
407.144240	2525.892820
407.525447	2531.846423
407.906593	2527.868952
408.287677	2533.308357
408.668700	2532.189221
409.049661	2531.569159
409.430560	2530.651669
409.811399	2534.792977
410.192176	2532.355579
410.572891	2533.837678
410.953545	2534.855991
411.334138	2535.914634
411.714669	2535.410518
412.095139	2536.910262
412.475547	2534.636701
412.855894	2534.528316
413.236180	2534.974458
413.616405	2538.001671
413.996568	2535.448327
414.376670	2536.554860
414.756711	2535.866743
415.136691	2535.844058
415.516609	2537.857998
415.896466	2536.388502
416.276262	2535.221475
416.655997	2536.184335
417.035670	2535.574356
417.415283	2537.278266
417.794834	2535.690302
418.174324	2534.281300
418.553753	2538.457896
418.933121	2539.304810
419.312428	2534.573687
419.691674	2533.724252
420.070859	2537.842875
420.449983	2536.181815
420.829045	2539.045190
421.208047	2540.096271
421.586988	2537.288348
421.965867	2540.103833
422.344686	2540.371014
422.723444	2540.587783
423.102141	2538.500746
423.480777	2535.471012
423.859352	2541.757331
424.237866	2539.120808
424.616319	2540.295396
424.994712	2539.617361
425.373044	2540.239944
425.751314	2535.902031
426.129524	2536.653163
426.507673	2536.287679
426.885762	2535.171063
427.263789	2536.144006
427.641756	2539.153575
428.019662	2539.461085
428.397508	2540.358411
428.775292	2539.798843
429.153016	2538.435211
429.530679	2541.931251
429.908282	2543.173895
430.285824	2540.877650
430.663305	2540.446631
431.040726	2540.194573
431.418086	2540.514687
431.795385	2542.541230
432.172624	2538.306661
432.549802	2540.912938
432.926920	2539.209028
433.303977	2540.718853
433.680974	2539.456044
434.057910	2540.754141
434.434786	2539.380427
434.811601	2541.422094
435.188355	2542.485778
435.565050	2540.585263
435.941683	2542.483257
436.318257	2539.884542
436.694770	2544.164482
437.071222	2542.561395
437.447614	2539.952598
437.823946	2543.846889
438.200218	2544.751776
438.576429	2544.504760
438.952580	2543.516694
439.328670	2541.608617
439.704700	2542.510983
440.080670	2544.257743
440.456580	2544.232538
440.832429	2544.280428
441.208218	2539.410674
441.583947	2546.007024
441.959616	2545.520552
442.335224	2544.464431
442.710773	2543.531817
443.086261	2544.174564
443.461689	2545.160110
443.837057	2543.675490
444.212365	2546.122970
444.587612	2542.168185
444.962800	2538.160468
445.337927	2543.264636
445.712995	2541.354039
446.088002	2545.379400
446.462949	2546.606921
446.837837	2545.812939
447.212664	2543.970398
447.587431	2544.076262
447.962139	2545.144986
448.336786	2547.975594
448.711374	2543.304965
449.085901	2546.896787
449.460369	2545.538196
449.834776	2545.434853
450.209124	2545.696993
450.583412	2544.605583
450.957640	2545.485264
451.331808	2546.236396
451.705917	2545.903680
452.079965	2544.650953
452.453954	2548.719164
452.827883	2545.704554
453.201752	2546.806047
453.575562	2547.209339
453.949311	2547.559699
454.323001	2544.356046
454.696632	2545.112219
455.070202	2545.205480
455.443713	2546.001983
455.817164	2548.993907
456.190556	2547.710934
456.563888	2546.395193
456.937160	2547.390820
457.310373	2549.354350
457.683526	2547.060625
458.056619	2547.993238
458.429653	2546.155738
458.802628	2548.091541
459.175542	2547.577343
459.548398	2548.318393
459.921194	2548.406613
460.293930	2548.482230
460.666607	2546.289328
461.039224	2547.216901
461.411782	2546.077600
461.784280	2550.856614
462.156719	2546.584236
462.529099	2549.941644
462.901419	2546.846376
463.273680	2546.367466
463.645882	2544.091385
464.018024	2547.133722
464.390106	2542.778165
464.762130	2549.881150
465.134094	2545.263453
465.505999	2548.429298
465.877845	2549.750080
466.249631	2548.930893
466.621358	2547.468958
466.993026	2549.233362
467.364634	2553.719989
467.736184	2547.905018
468.107674	2549.339226
468.479105	2549.591284
468.850477	2549.182951
469.221790	2549.064483
469.593043	2548.762014
469.964238	2553.677139
470.335373	2548.134391
470.706449	2550.105482
471.077467	2546.622044
471.448425	2554.030020
471.819324	2551.900132
472.190164	2550.481048
472.560945	2548.560368
472.931667	2549.092210
473.302330	2548.126829
473.672934	2549.860986
474.043479	2550.022303
474.413965	2551.753939
474.784393	2548.693959
475.154761	2550.760832
475.525070	2549.800492
475.895321	2548.013403
476.265513	2551.302756
476.635645	2550.970040
477.005719	2550.478527
477.375734	2549.324103
477.745691	2549.929041
478.115588	2552.454659
478.485427	2550.579350
478.855207	2555.302911
479.224928	2556.099414
479.594591	2557.541184
479.964194	2555.048333
480.333739	2551.128836
480.703226	2552.184958
481.072653	2549.795451
481.442022	2554.584547
481.811333	2549.487940
482.180584	2551.779145
482.549777	2554.093034
482.918912	2547.378217
483.287988	2555.766697
483.657005	2552.878116
484.025964	2552.563044
484.394864	2553.104968
484.763706	2555.965823
485.132489	2554.398024
485.501213	2552.994063
485.869879	2552.116902
486.238487	2553.243600
486.607036	2553.969526
486.975527	2554.277037
487.343959	2553.450287
487.712333	2553.551110
488.080648	2555.660833
488.448905	2553.001625
488.817104	2555.383570
489.185244	2556.903478
489.553326	2555.796944
489.921350	2555.275185
490.289315	2555.348282
490.657222	2557.430278
491.025070	2556.996739
491.392861	2557.785680
491.760593	2558.496482
492.128267	2557.082439
492.495883	2555.985988
492.863440	2555.519681
493.230939	2557.029507
493.598380	2559.061092
493.965763	2554.985319
494.333088	2554.186296
494.700354	2555.373487
495.067563	2554.808878
495.434713	2557.311811
495.801805	2555.582695
496.168839	2555.862479
496.535815	2555.265103
496.902733	2553.961964
497.269593	2557.510937
497.636395	2558.226781
498.003139	2556.457336
498.369825	2556.618652
498.736453	2557.463046
499.103023	2554.279557
499.469535	2559.194682
499.835989	2558.151163
500.202385	2556.041440
500.568723	2553.349464
500.935003	2553.442726
501.301226	2552.394166
501.667390	2556.359033
502.033497	2560.608726
502.399546	2556.011193
502.765537	2555.827191
503.131470	2558.244425
503.497345	2557.846173
503.863163	2559.209806
504.228923	2555.794424
504.594625	2558.809034
504.960269	2556.175031
505.325856	2559.242573
505.691385	2556.734599
506.056856	2557.881462
506.422270	2558.017573
506.787625	2559.124106
507.152924	2557.644527
507.518164	2558.199054
507.883347	2559.209806
508.248472	2558.746019
508.613540	2555.953220
508.978550	2554.791234
509.343503	2558.367933
509.708398	2556.812737
510.073236	2557.359702
510.438016	2559.340876
510.802738	2558.297357
511.167403	2559.484548
511.532010	2557.226112
511.896561	2561.526216
512.261053	2556.414486
512.625488	2558.279713
512.989866	2560.457491
513.354186	2556.984136
513.718449	2558.564538
514.082655	2557.596636
514.446803	2559.161915
514.810894	2561.122923
515.174927	2558.819116
515.538904	2561.753068
515.902822	2562.685681
516.266684	2559.053530
516.630488	2557.702501
516.994235	2559.159394
517.357925	2559.731565
517.721558	2560.596123
518.085133	2559.013201
518.448651	2560.684343
518.812112	2555.660833
519.175516	2556.275854
519.538863	2554.178734
519.902152	2561.211144
520.265385	2562.620146
520.628560	2561.737944
520.991678	2561.173335
521.354739	2563.502348
521.717743	2560.414641
522.080690	2562.834395
522.443580	2560.971689
522.806413	2562.597461
523.169189	2561.120403
523.531908	2559.887841
523.894569	2562.484035
524.257174	2563.348593
524.619722	2563.570404
524.982213	2565.112997
525.344647	2565.486042
525.707025	2565.765826
526.069345	2564.984447
526.431608	2568.785477
526.793815	2566.738769
527.155964	2566.940415
527.518057	2568.440158
527.880093	2566.345559
528.242072	2566.428738
528.603995	2567.593244
528.965860	2570.764130
529.327669	2568.326732
529.689421	2569.377813
530.051117	2569.821434
530.412755	2568.724983
530.774337	2571.633729
531.135862	2571.976528
531.497331	2569.531568
531.858743	2574.454255
532.220098	2575.112125
532.581396	2572.820921
532.942638	2574.378638
533.303824	2573.831672
533.664953	2579.324009
534.026025	2575.089440
534.387040	2577.292424
534.747999	2576.024574
535.108902	2578.126735
535.469748	2578.421643
535.830537	2578.232600
536.191270	2579.268557
536.551947	2574.567681
536.912567	2577.554564
537.273131	2578.013309
537.633638	2577.345357
537.994089	2581.862230
538.354483	2584.019844
538.714821	2586.230390
539.075103	2584.773497
539.435328	2584.529001
539.795497	2586.931111
540.155609	2588.677870
540.515665	2585.247365
540.875665	2586.626121
541.235609	2588.365319
541.595496	2587.876327
541.955328	2588.178796
542.315102	2590.873293
542.674821	2590.434712
543.034483	2593.560228
543.394090	2593.366143
543.753640	2592.070567
544.113134	2593.630804
544.472571	2594.397059
544.831953	2594.986874
545.191278	2596.027873
545.550548	2596.642893
545.909761	2595.848912
546.268918	2597.174735
546.628019	2597.920826
546.987064	2598.500559
547.346053	2597.454519
547.704986	2597.550301
548.063863	2599.004674
548.422684	2597.885538
548.781449	2598.193048
549.140158	2600.832092
549.498811	2600.028028
549.857408	2600.786722
550.215949	2601.847885
550.574434	2601.626074
550.932864	2602.669593
551.291237	2600.189345
551.649555	2604.323091
552.007817	2600.590117
552.366022	2602.024325
552.724173	2602.563729
553.082267	2601.318564
553.440305	2602.609099
553.798288	2602.399891
554.156215	2606.878956
554.514086	2604.691096
554.871902	2598.765219
555.229661	2599.705394
555.587365	2598.929057
555.945014	2606.992382
556.302606	2603.476177
556.660143	2602.195724
557.017625	2605.467433
557.375050	2606.195880
557.732421	2605.341404
558.089735	2604.670931
558.446994	2605.590942
558.804197	2607.060438
559.161345	2609.190325
559.518437	2604.189501
559.875474	2608.633278
560.232455	2606.699995
560.589381	2608.076230
560.946251	2606.495829
561.303065	2604.244953
561.659825	2610.720316
562.016528	2606.452979
562.373177	2606.715119
562.729770	2603.050200
563.086307	2609.533124
563.442789	2607.960284
563.799216	2608.731580
564.155587	2602.389809
564.511904	2608.827362
564.868164	2604.726384
565.224370	2605.235540
565.580520	2604.572628
565.936615	2609.870881
566.292654	2605.782505
566.648638	2606.291662
567.004567	2606.994903
567.360441	2605.898452
567.716260	2604.567587
568.072023	2606.407608
568.427732	2605.601024
568.783385	2604.698657
569.138982	2602.783019
569.494525	2605.684203
569.850013	2606.994903
570.205445	2606.009357
570.560823	2605.462392
570.916145	2603.881990
571.271412	2603.534151
571.626625	2604.476847
571.981782	2603.942484
572.336884	2601.290837
572.691931	2600.214551
573.046923	2599.816300
573.401860	2598.084663
573.756743	2604.343256
574.111570	2601.878132
574.466342	2603.715632
574.821059	2600.476691
575.175722	2601.008533
575.530330	2604.471805
575.884882	2601.938626
576.239380	2602.334356
576.593823	2603.176229
576.948211	2603.766044
577.302544	2602.352000
577.656823	2599.332349
578.011047	2600.847216
578.365216	2599.743203
578.719330	2600.890066
579.073389	2601.507607
579.427394	2600.764037
579.781344	2598.366968
580.135239	2600.312853
580.489080	2598.329159
580.842866	2598.898810
581.196597	2602.909048
581.550273	2599.355034
581.903895	2599.874273
582.257463	2600.948039
582.610975	2600.277565
582.964434	2598.606423
583.317837	2597.525095
583.671186	2600.217072
584.024481	2599.919643
584.377721	2596.587441
584.730906	2600.532144
585.084037	2600.552308
585.437113	2598.465271
585.790135	2597.197420
586.143103	2598.349324
586.496016	2598.886207
586.848874	2601.462237
587.201679	2602.185642
587.554428	2599.972576
587.907124	2599.838985
588.259765	2601.200097
588.612352	2599.670106
588.964884	2601.794953
589.317362	2598.964345
589.669786	2601.358893
590.022155	2598.508120
590.374470	2600.872422
590.726731	2600.587596
591.078937	2596.955445
591.431090	2600.282607
591.783188	2602.352000
592.135232	2601.336208
592.487222	2602.185642
592.839157	2602.961980
593.191038	2602.704881
593.542866	2600.955601
593.894639	2600.141454
594.246358	2605.785026
594.598022	2602.329315
594.949633	2603.166147
595.301190	2601.701691
595.652692	2603.171188
596.004141	2602.901486
596.355535	2603.826538
596.706876	2602.999788
597.058162	2604.469285
597.409395	2603.781167
597.760573	2603.897114
598.111698	2602.427617
598.462768	2603.105653
598.813785	2604.870057
599.164748	2606.488267
599.515657	2608.398864
599.866511	2607.007506
600.217312	2608.164451
600.568060	2603.796291
600.918753	2608.759307
601.269392	2608.666045
601.619978	2606.999944
601.970510	2606.624378
602.320988	2609.691920
602.671412	2611.080758
603.021783	2608.595469
603.372100	2608.434152
603.722363	2610.851386
604.072572	2612.731736
604.422728	2614.150821
604.772830	2616.348764
605.122878	2612.472117
605.472872	2613.631582
605.822813	2615.733743
606.172701	2616.868003
606.522534	2617.432612
606.872314	2619.829681
607.222041	2618.037550
607.571714	2617.785493
607.921333	2617.178034
608.270899	2619.680967
608.620411	2619.723816
608.969870	2624.719600
609.319276	2628.949128
609.668627	2632.977010
610.017926	2639.338946
610.367171	2640.190901
610.716362	2642.789616
611.065500	2640.140489
611.414585	2639.288534
611.763616	2639.303658
612.112594	2639.598565
612.461518	2639.918679
612.810389	2640.906745
613.159207	2641.972949
613.507971	2640.531179
613.856682	2646.328506
614.205340	2646.071407
614.553945	2650.757159
614.902496	2645.063176
615.250994	2651.455359
615.599439	2649.791778
615.947830	2651.848569
616.296169	2650.192550
616.644454	2656.355361
616.992686	2657.587923
617.340864	2658.901143
617.688990	2661.023469
618.037063	2668.373472
618.385082	2666.157884
618.733048	2667.985303
619.080961	2672.456806
619.428821	2674.596776
619.776628	2677.823114
620.124382	2678.783454
620.472083	2683.748991
620.819731	2689.838705
621.167326	2682.702951
621.514868	2685.485668
621.862357	2681.767817
622.209793	2688.162521
622.557176	2687.776873
622.904506	2683.033147
623.251783	2688.006245
623.599007	2689.390042
623.946179	2689.508509
624.293297	2690.262162
624.640363	2691.691329
624.987376	2692.129909
625.334336	2686.304856
625.681243	2690.693180
626.028097	2690.607481
626.374899	2704.473174
626.721647	2700.788091
627.068343	2700.974613
627.414987	2702.635674
627.761577	2710.038608
628.108115	2712.662529
628.454600	2710.983824
628.801032	2714.467262
629.147412	2717.708724
629.493739	2721.492110
629.840014	2724.889847
630.186236	2728.511916
630.532405	2732.633060
630.878521	2739.589852
631.224585	2741.162692
631.570597	2746.352560
631.916556	2748.661408
632.262462	2752.704414
632.608316	2761.009715
632.954117	2761.438213
633.299866	2770.890376
633.645562	2774.066303
633.991206	2771.429780
634.336797	2772.107815
634.682336	2777.627878
635.027823	2775.621499
635.373257	2778.184926
635.718639	2777.335491
636.063968	2780.967643
636.409245	2781.438991
636.754470	2784.214146
637.099642	2786.787655
637.444762	2787.468211
637.789829	2793.273099
638.134845	2794.044396
638.479808	2797.129582
638.824719	2802.032104
639.169577	2802.929429
639.514383	2810.687765
639.859137	2811.373362
640.203839	2818.778817
640.548489	2819.287974
640.893086	2826.496824
641.237632	2822.501709
641.582125	2840.478464
641.926566	2840.415449
642.270955	2840.874194
642.615292	2847.160513
642.959576	2855.367512
643.303809	2863.566948
643.647990	2867.748586
643.992118	2881.223590
644.336195	2874.362579
