Dividing Wavelength (nm)	Counts (n)	Blue Motor Position (mm): 45.400000	Red Motor Position (mm): 0.000000	
326.493990	2268.864550
326.888308	2268.864550
327.282561	2268.864550
327.676750	2230.839126
328.070874	2229.210834
328.464933	2226.334855
328.858929	2230.871894
329.252859	2234.499004
329.646726	2246.449059
330.040528	2255.974319
330.434265	2266.802718
330.827938	2288.938424
331.221547	2305.007102
331.615091	2321.990750
332.008571	2340.015395
332.401986	2361.415093
332.795338	2381.403268
333.188625	2399.508572
333.581847	2420.232756
333.975006	2438.670776
334.368100	2459.778087
334.761129	2473.384161
335.154095	2493.253869
335.546996	2520.289577
335.939833	2559.771894
336.332606	2576.266550
336.725315	2586.913467
337.117960	2597.600713
337.510540	2609.858278
337.903056	2620.452263
338.295508	2628.966772
338.687896	2639.349028
339.080220	2645.900008
339.472480	2652.642551
339.864676	2657.240083
340.256807	2662.795435
340.648875	2667.148471
341.040879	2668.209634
341.432818	2671.546878
341.824694	2674.763134
342.216506	2677.177847
342.608253	2675.804132
342.999937	2676.209945
343.391557	2680.237827
343.783113	2676.446879
344.174605	2676.099040
344.566033	2676.008299
344.957397	2672.940757
345.348697	2674.609379
345.739934	2671.458658
346.131106	2671.017557
346.522215	2667.203924
346.913260	2667.087977
347.304241	2665.857936
347.695159	2663.715445
348.086012	2662.417348
348.476802	2659.183448
348.867528	2656.146153
349.258191	2654.265802
349.648789	2652.171203
350.039324	2650.326141
350.429796	2651.316727
350.820203	2650.825215
351.210548	2652.178765
351.600828	2648.844042
351.991045	2647.901346
352.381198	2647.001500
352.771288	2648.546613
353.161314	2646.252888
353.551276	2642.963536
353.941175	2644.551499
354.331010	2646.789771
354.720782	2647.137611
355.110490	2645.658032
355.500135	2645.789102
355.889717	2646.144504
356.279235	2645.385810
356.668689	2645.756335
357.058080	2646.464617
357.447408	2650.484937
357.836672	2644.569143
358.225873	2648.173568
358.615010	2649.038126
359.004084	2650.401758
359.393095	2649.111223
359.782043	2650.656336
360.170927	2648.382776
360.559748	2649.186840
360.948505	2652.226656
361.337199	2654.520381
361.725830	2655.029537
362.114398	2654.132212
362.502903	2653.131543
362.891344	2656.741009
363.279722	2654.626245
363.668037	2657.527429
364.056289	2656.861997
364.444478	2655.362253
364.832603	2655.634476
365.220665	2656.322593
365.608665	2660.622697
365.996601	2660.103459
366.384474	2659.569096
366.772284	2661.225115
367.160031	2660.468942
367.547715	2663.105466
367.935336	2664.466577
368.322893	2659.243942
368.710388	2658.994405
369.097820	2661.063798
369.485189	2662.200579
369.872495	2665.845333
370.259738	2664.779129
370.646918	2666.382216
371.034035	2668.406239
371.421090	2668.673420
371.808081	2667.279541
372.195010	2668.393636
372.581875	2669.628719
372.968678	2667.738286
373.355418	2671.803977
373.742096	2674.538803
374.128710	2675.872188
374.515262	2681.019206
374.901751	2685.014320
375.288177	2689.962213
375.674540	2696.409849
376.060841	2707.258412
376.447079	2717.998590
376.833254	2731.297154
377.219367	2745.707292
377.605417	2767.134717
377.991404	2787.543828
378.377329	2814.708085
378.763191	2833.577124
379.148991	2867.960314
379.534727	2900.261507
379.920402	2934.095211
380.306013	2961.259469
380.691563	3014.844414
381.077049	3045.121584
381.462474	3082.690783
381.847835	3136.552991
382.233134	3187.612318
382.618371	3222.141701
383.003545	3286.030764
383.388657	3324.857731
383.773706	3384.398799
384.158693	3424.259203
384.543618	3464.132209
384.928480	3531.093856
385.313280	3595.267744
385.698017	3628.869555
386.082692	3721.838514
386.467305	3738.325608
386.851856	3781.311527
387.236344	3866.791852
387.620770	3904.716452
388.005133	3960.738795
388.389435	4013.718801
388.773674	4031.196482
389.157851	4113.876446
389.541965	4187.419319
389.926018	4157.817663
390.310008	4262.451853
390.693936	4320.508301
391.077802	4358.700083
391.461606	4361.321483
391.845348	4429.863531
392.229027	4492.058766
392.612645	4494.269312
392.996200	4602.031538
393.379694	4658.926000
393.763125	4763.439201
394.146494	4792.808964
394.529801	4852.395402
394.913047	4932.839615
395.296230	4883.070823
395.679351	4995.118029
396.062410	5050.563160
396.445408	5015.633005
396.828343	5080.200103
397.211217	5133.958968
397.594028	5016.847923
397.976778	5137.487776
398.359466	5184.678017
398.742092	5206.188620
399.124656	5124.148883
399.507158	5239.782869
399.889598	5302.822498
400.271977	5430.842600
400.654294	5423.762300
401.036549	5468.232838
401.418742	5386.424994
401.800874	5591.224389
402.182944	5652.940715
402.564952	5755.787815
402.946898	5818.782074
403.328783	5650.470550
403.710606	5674.353016
404.092367	5993.289176
404.474067	6019.392271
404.855705	5921.172950
405.237282	5859.663311
405.618797	6106.894098
406.000250	6085.323001
406.381642	6289.086440
406.762972	6314.120810
407.144240	6370.591815
407.525447	6348.360327
407.906593	6373.712289
408.287677	6531.812956
408.668700	6448.618794
409.049661	6559.627523
409.430560	6587.527788
409.811399	6452.182890
410.192176	6718.315484
410.572891	6729.617751
410.953545	6928.735766
411.334138	6657.685527
411.714669	6824.779612
412.095139	6626.269056
412.475547	6866.064141
412.855894	6937.020902
413.236180	7114.761905
413.616405	6786.033303
413.996568	7003.299472
414.376670	7053.658079
414.756711	6944.499454
415.136691	7043.540483
415.516609	7252.758450
415.896466	7230.017805
416.276262	7438.015813
416.655997	7416.323728
417.035670	7599.741069
417.415283	7939.456865
417.794834	8000.719487
418.174324	7861.755040
418.553753	7779.889223
418.933121	8083.686797
419.312428	8188.550359
419.691674	7963.374620
420.070859	8445.132487
420.449983	8123.766491
420.829045	8486.371646
421.208047	8261.987368
421.586988	8566.372237
421.965867	8587.814785
422.344686	8683.586626
422.723444	8746.785051
423.102141	8093.766584
423.480777	8853.145835
423.859352	8373.971559
424.237866	8994.519954
424.616319	8859.550621
424.994712	9290.286970
425.373044	8832.146909
425.751314	9310.887646
426.129524	9192.453298
426.507673	9281.278428
426.885762	9438.633005
427.263789	9358.760963
427.641756	9291.615314
428.019662	9377.506494
428.397508	9647.422473
428.775292	9306.358169
429.153016	9691.217497
429.530679	9523.228607
429.908282	9540.214775
430.285824	9267.218650
430.663305	9953.160892
431.040726	9405.764682
431.418086	9386.900684
431.795385	9727.778466
432.172624	9813.669645
432.549802	9723.276715
432.926920	9793.542838
433.303977	9667.597171
433.680974	9869.084529
434.057910	9975.064706
434.434786	10042.916116
434.811601	9857.295790
435.188355	10428.269478
435.565050	10170.134675
435.941683	10094.706410
436.318257	10571.776004
436.694770	10737.945038
437.071222	10788.873295
437.447614	10618.424322
437.823946	10549.985617
438.200218	10643.173866
438.576429	10486.010854
438.952580	10727.598070
439.328670	10750.631102
439.704700	10558.832842
440.080670	10547.220544
440.456580	11069.340410
440.832429	10847.590134
441.208218	10447.990472
441.583947	10758.734757
441.959616	10928.477968
442.335224	10746.121790
442.710773	10854.481392
443.086261	11080.524209
443.461689	10349.579587
443.837057	11037.112313
444.212365	11264.879206
444.587612	10912.948694
444.962800	11127.258226
445.337927	10872.185924
445.712995	10530.070539
446.088002	11575.200033
446.462949	11265.592529
446.837837	11233.997097
447.212664	11167.075780
447.587431	11750.319636
447.962139	12504.393072
448.336786	14794.501044
448.711374	15280.828718
449.085901	13107.695679
449.460369	12749.148653
449.834776	12192.932943
450.209124	13121.268986
450.583412	13542.326320
450.957640	14470.501045
451.331808	13522.759081
451.705917	12589.344076
452.079965	11841.231804
452.453954	12751.840629
452.827883	12411.976119
453.201752	12699.659646
453.575562	12244.733320
453.949311	12658.188594
454.323001	12631.760345
454.696632	12882.285526
455.070202	13149.582627
455.443713	13348.801465
455.817164	13843.890663
456.190556	13804.065548
456.563888	14177.103371
456.937160	14323.533767
457.310373	13682.127598
457.683526	13790.419145
458.056619	13315.136639
458.429653	13519.757074
458.802628	12874.378476
459.175542	13292.816931
459.548398	14247.387138
459.921194	14601.931488
460.293930	14683.726730
460.666607	15520.976684
461.039224	16587.785661
461.411782	17304.345351
461.784280	17101.718692
462.156719	17197.228393
462.529099	16875.610340
462.901419	15830.153170
463.273680	15586.811633
463.645882	15485.534852
464.018024	15208.994796
464.390106	15427.135605
464.762130	16154.916903
465.134094	16953.231506
465.505999	19004.653446
465.877845	22285.748921
466.249631	25084.206847
466.621358	24694.520613
466.993026	23271.516309
467.364634	22689.056352
467.736184	21217.263760
468.107674	20417.923283
468.479105	20554.296577
468.850477	20012.692652
469.221790	19618.474421
469.593043	18920.509027
469.964238	18348.648096
470.335373	17974.997773
470.706449	18492.560436
471.077467	18073.464111
471.448425	19941.453586
471.819324	24084.477984
472.190164	25928.012822
472.560945	22249.820618
472.931667	19956.544280
473.302330	19350.078349
473.672934	18975.303849
474.043479	19192.093629
474.413965	19011.781638
474.784393	18608.363301
475.154761	19377.968533
475.525070	19296.924423
475.895321	19002.962139
476.265513	19621.690677
476.635645	20208.213804
477.005719	19957.038313
477.375734	20141.206787
477.745691	20634.430758
478.115588	21180.060045
478.485427	21740.742217
478.855207	22832.953568
479.224928	24622.535457
479.594591	26864.487807
479.964194	26769.714115
480.333739	26990.824164
480.703226	26579.319816
481.072653	26281.732943
481.442022	26916.530159
481.811333	27845.861829
482.180584	27718.371048
482.549777	26770.402232
482.918912	26444.723529
483.287988	26574.944095
483.657005	26204.154627
484.025964	25997.883214
484.394864	25858.903644
484.763706	25520.044844
485.132489	24986.945345
485.501213	25167.365721
485.869879	25074.414406
486.238487	24922.035448
486.607036	25044.056577
486.975527	24799.326202
487.343959	25086.906385
487.712333	25002.068807
488.080648	24654.622401
488.448905	25163.337839
488.817104	24932.609268
489.185244	25632.001309
489.553326	25572.314047
489.921350	26635.090101
490.289315	28978.825868
490.657222	30694.829596
491.025070	31211.648688
491.392861	30956.130244
491.760593	30093.253584
492.128267	29177.515385
492.495883	28121.199570
492.863440	27251.509791
493.230939	26386.205815
493.598380	26218.116102
493.965763	25828.434910
494.333088	25331.021739
494.700354	25316.919111
495.067563	25145.414016
495.434713	24897.442179
495.801805	25084.544604
496.168839	24851.106414
496.535815	24729.866664
496.902733	24954.021569
497.269593	24645.480269
497.636395	24812.425640
498.003139	24730.305244
498.369825	24473.715554
498.736453	24697.835172
499.103023	24568.398506
499.469535	24563.034718
499.835989	24792.071982
500.202385	24811.987060
500.568723	24349.214178
500.935003	24528.278483
501.301226	24210.607653
501.667390	25065.849485
502.033497	25251.318576
502.399546	24996.203424
502.765537	24529.069944
503.131470	24910.019858
503.497345	25060.997375
503.863163	24300.607372
504.228923	24847.610373
504.594625	25085.636014
504.960269	24649.364478
505.325856	25123.122034
505.691385	24520.010991
506.056856	25126.517251
506.422270	25113.805982
506.787625	24635.549196
507.152924	25073.297790
507.518164	25113.914367
507.883347	24935.434835
508.248472	24608.195895
508.613540	25376.896239
508.978550	25184.782907
509.343503	25192.702560
509.708398	25395.034311
510.073236	25560.674023
510.438016	25783.740040
510.802738	25437.231289
511.167403	25692.127151
511.532010	25447.472393
511.896561	26180.614959
512.261053	26150.259651
512.625488	25977.799257
512.989866	25882.604628
513.354186	25689.984661
513.718449	25836.788102
514.082655	26196.726486
514.446803	25928.867297
514.810894	26433.012929
515.174927	25903.722022
515.538904	25935.655211
515.902822	26436.025018
516.266684	26187.579313
516.630488	26093.718069
516.994235	26039.744956
517.357925	26383.675156
517.721558	26541.090226
518.085133	26662.619843
518.448651	26533.435234
518.812112	26306.215307
519.175516	26542.753807
519.538863	26673.957398
519.902152	26479.482285
520.265385	26724.822640
520.628560	26527.209409
520.991678	26508.501687
521.354739	26567.926809
521.717743	26668.949011
522.080690	26443.299403
522.443580	26771.498683
522.806413	26735.605668
523.169189	26861.372374
523.531908	26900.103559
523.894569	26523.650354
524.257174	26621.012679
524.619722	26759.319256
524.982213	26467.186911
525.344647	26493.718503
525.707025	26665.465574
526.069345	26618.134180
526.431608	26588.807268
526.793815	26758.860511
527.155964	26261.207885
527.518057	26433.869925
527.880093	26338.135893
528.242072	26565.925471
528.603995	26290.065970
528.965860	26069.578504
529.327669	26115.798323
529.689421	26108.450841
530.051117	25963.903317
530.412755	26127.024973
530.774337	25902.464254
531.135862	25789.978468
531.497331	25981.330585
531.858743	25585.237045
532.220098	26033.352773
532.581396	25724.332562
532.942638	25618.410358
533.303824	25739.970222
533.664953	25735.213893
534.026025	25393.794187
534.387040	25645.284749
534.747999	25685.477869
535.108902	25851.467942
535.469748	25344.373235
535.830537	25509.710478
536.191270	25658.177500
536.551947	25476.574974
536.912567	25086.984523
537.273131	25542.924121
537.633638	25213.842639
537.994089	25432.351452
538.354483	24925.838999
538.714821	25434.098212
539.075103	25484.822302
539.435328	25251.321097
539.795497	24848.147256
540.155609	25183.197464
540.515665	25507.663770
540.875665	24709.878489
541.235609	25068.521297
541.595496	24983.769418
541.955328	25366.151020
542.315102	25283.092969
542.674821	24783.829695
543.034483	24670.668394
543.394090	24842.856565
543.753640	24664.029194
544.113134	25278.591219
544.472571	24869.839341
544.831953	25171.514590
545.191278	24813.413706
545.550548	24712.651123
545.909761	24906.503653
546.268918	25151.125644
546.628019	25123.535409
546.987064	24804.430370
547.346053	24533.405337
547.704986	24640.744105
548.063863	24802.630678
548.422684	24830.601520
548.781449	24327.166692
549.140158	24732.586366
549.498811	24321.876001
549.857408	24083.240380
550.215949	24459.728873
550.574434	24163.669469
550.932864	24359.858574
551.291237	24552.271855
551.649555	24393.838472
552.007817	24457.656959
552.366022	24308.945441
552.724173	24315.524147
553.082267	24298.870695
553.440305	24775.476503
553.798288	24013.543908
554.156215	24498.933927
554.514086	24639.294773
554.871902	24031.089644
555.229661	24299.110150
555.587365	24139.504698
555.945014	24046.243352
556.302606	24260.946095
556.660143	24249.666513
557.017625	24483.203006
557.375050	23993.555733
557.732421	24389.908892
558.089735	24214.799372
558.446994	24264.570684
558.804197	24303.231293
559.161345	24199.315468
559.518437	24002.365149
559.875474	24159.134952
560.232455	24346.383570
560.589381	24149.637418
560.946251	24165.885057
561.303065	24447.108344
561.659825	24551.800507
562.016528	24149.778570
562.373177	23884.618919
562.729770	24255.544498
563.086307	24108.398259
563.442789	24279.376553
563.799216	24119.597182
564.155587	24106.018834
564.511904	24088.778088
564.868164	24035.306569
565.224370	24011.562734
565.580520	23963.722184
565.936615	24066.743204
566.292654	23778.419451
566.648638	24012.548280
567.004567	23843.349513
567.360441	23791.276914
567.716260	23502.595239
568.072023	23811.207116
568.427732	23598.891360
568.783385	23360.182643
569.138982	23619.401294
569.494525	23646.757116
569.850013	23407.246855
570.205445	23504.982226
570.560823	23327.417664
570.916145	23102.935083
571.271412	23285.119862
571.626625	23027.842055
571.981782	23135.049753
572.336884	22933.088528
572.691931	23074.941556
573.046923	22817.199962
573.401860	22699.176468
573.756743	22722.451476
574.111570	22620.277370
574.466342	22534.418958
574.821059	22613.623047
575.175722	22327.691321
575.530330	22280.982510
575.884882	22292.874592
576.239380	22211.555739
576.593823	22102.767639
576.948211	22085.254671
577.302544	21939.288061
577.656823	21795.826905
578.011047	21898.106875
578.365216	21768.985281
578.719330	21645.134214
579.073389	21532.298067
579.427394	21687.663908
579.781344	21443.609048
580.135239	21335.753561
580.489080	21285.672218
580.842866	21057.625542
581.196597	21276.393974
581.550273	21228.659289
581.903895	21108.677307
582.257463	21423.036099
582.610975	20958.345058
582.964434	21286.153648
583.317837	20953.553441
583.671186	21036.830782
584.024481	21029.014473
584.377721	20784.092534
584.730906	20889.946682
585.084037	20859.457784
585.437113	20794.315994
585.790135	21000.801655
586.143103	20450.557192
586.496016	20474.835389
586.848874	20707.177129
587.201679	20619.758480
587.554428	20325.811320
587.907124	20654.686115
588.259765	20408.541696
588.612352	20491.904736
588.964884	20055.323169
589.317362	20221.955989
589.669786	20293.331166
590.022155	20276.302148
590.374470	20532.168432
590.726731	20281.789444
591.078937	20085.323076
591.431090	20165.164870
591.783188	19927.061092
592.135232	19881.274812
592.487222	19980.154524
592.839157	19994.599951
593.191038	19870.055724
593.542866	19761.660834
593.894639	19464.825093
594.246358	19690.008394
594.598022	19570.704447
594.949633	19326.674792
595.301190	19315.400252
595.652692	19482.529625
596.004141	19704.965498
596.355535	19023.330921
596.706876	19049.108862
597.058162	18944.688921
597.409395	19190.969451
597.760573	19235.495443
598.111698	19001.273353
598.462768	18953.067319
598.813785	18926.971786
599.164748	18728.856961
599.515657	18787.969531
599.866511	18580.349609
600.217312	18931.528989
600.568060	18444.067056
600.918753	18746.869003
601.269392	18656.952463
601.619978	18452.387481
601.970510	18640.384711
602.320988	18577.834074
602.671412	18786.285785
603.021783	18725.406291
603.372100	18427.040559
603.722363	18579.285926
604.072572	18520.755609
604.422728	18679.131019
604.772830	18419.357841
605.122878	18386.837357
605.472872	18359.579838
605.822813	18350.402418
606.172701	18334.575715
606.522534	18507.396552
606.872314	18537.872847
607.222041	18375.731695
607.571714	18591.339325
607.921333	18402.306138
608.270899	18492.041197
608.620411	18648.236308
608.969870	18447.895813
609.319276	18431.292772
609.668627	18467.178226
610.017926	18590.754551
610.367171	18708.773004
610.716362	18769.186191
611.065500	18573.866686
611.414585	18728.123473
611.763616	18706.673363
612.112594	18640.803126
612.461518	18615.163818
612.810389	18799.349935
613.159207	18666.356735
613.507971	18576.780472
613.856682	18828.281117
614.205340	18751.045599
614.553945	18900.319206
614.902496	18649.869642
615.250994	18853.837247
615.599439	18814.906936
615.947830	18801.426891
616.296169	18874.909270
616.644454	18826.317588
616.992686	18805.180030
617.340864	19019.164408
617.688990	18760.580942
618.037063	18949.243604
618.385082	18801.847827
618.733048	19077.712368
619.080961	18960.654256
619.428821	18987.473194
619.776628	18861.295634
620.124382	18799.115522
620.472083	18861.446868
620.819731	18859.929481
621.167326	18554.329694
621.514868	18590.656248
621.862357	18378.612715
622.209793	18369.427732
622.557176	18206.308597
622.904506	18035.325261
623.251783	17973.215725
623.599007	17717.185604
623.946179	17653.596489
624.293297	17588.835306
624.640363	17316.739028
624.987376	17338.879775
625.334336	17145.533881
625.681243	16991.534193
626.028097	17004.353847
626.374899	16923.569357
626.721647	16793.608411
627.068343	16636.074873
627.414987	16567.812609
627.761577	16528.481527
628.108115	16550.095474
628.454600	16281.656552
628.801032	16396.279788
629.147412	16324.410578
629.493739	16339.491190
629.840014	16141.716642
630.186236	16246.615492
630.532405	16009.766961
630.878521	16198.041454
631.224585	16112.964421
631.570597	15932.705362
631.916556	15962.659899
632.262462	15927.049188
632.608316	15848.019019
632.954117	15794.108920
633.299866	15775.993533
633.645562	15703.259766
633.991206	15469.660258
634.336797	15335.981461
634.682336	15308.398788
635.027823	15171.813766
635.373257	15043.828952
635.718639	14968.015039
636.063968	14897.718669
