Dividing Wavelength (nm)	Blue Motor Position (mm)	Red Motor Position (mm)	
385.000000	43.300242	0.000000
385.100000	43.300164	0.000000
385.200000	43.300087	0.000000
385.300000	43.300010	0.000000
385.400000	43.298969	0.000000
385.500000	43.295562	0.000000
385.600000	43.290067	0.000000
385.700000	43.282788	0.000000
385.800000	43.274027	0.000000
385.900000	43.264086	0.000000
386.000000	43.253268	0.000000
386.100000	43.241874	0.000000
386.200000	43.230209	0.000000
386.300000	43.218573	0.000000
386.400000	43.207269	0.000000
386.500000	43.196487	0.000000
386.600000	43.184983	0.000000
386.700000	43.172530	0.000000
386.800000	43.159378	0.000000
386.900000	43.145776	0.000000
387.000000	43.131974	0.000000
387.100000	43.118221	0.000000
387.200000	43.104767	0.000000
387.300000	43.091721	0.000000
387.400000	43.078715	0.000000
387.500000	43.065709	0.000000
387.600000	43.052702	0.000000
387.700000	43.039694	0.000000
387.800000	43.026686	0.000000
387.900000	43.013677	0.000000
388.000000	43.000668	0.000000
388.100000	42.988172	0.000000
388.200000	42.976493	0.000000
388.300000	42.965126	0.000000
388.400000	42.953562	0.000000
388.500000	42.941292	0.000000
388.600000	42.927808	0.000000
388.700000	42.912602	0.000000
388.800000	42.894843	0.000000
388.900000	42.869445	0.000000
389.000000	42.839763	0.000000
389.100000	42.812309	0.000000
389.200000	42.792738	0.000000
389.300000	42.777844	0.000000
389.400000	42.765412	0.000000
389.500000	42.754425	0.000000
389.600000	42.743865	0.000000
389.700000	42.732713	0.000000
389.800000	42.719951	0.000000
389.900000	42.704561	0.000000
390.000000	42.684599	0.000000
390.100000	42.658863	0.000000
390.200000	42.630452	0.000000
390.300000	42.602627	0.000000
390.400000	42.575267	0.000000
390.500000	42.546710	0.000000
390.600000	42.520174	0.000000
390.700000	42.498914	0.000000
390.800000	42.482871	0.000000
390.900000	42.469662	0.000000
391.000000	42.458266	0.000000
391.100000	42.447663	0.000000
391.200000	42.436833	0.000000
391.300000	42.424755	0.000000
391.400000	42.410409	0.000000
391.500000	42.392489	0.000000
391.600000	42.368474	0.000000
391.700000	42.340621	0.000000
391.800000	42.312197	0.000000
391.900000	42.285757	0.000000
392.000000	42.259694	0.000000
392.100000	42.233631	0.000000
392.200000	42.207566	0.000000
392.300000	42.180642	0.000000
392.400000	42.152046	0.000000
392.500000	42.124858	0.000000
392.600000	42.102348	0.000000
392.700000	42.085616	0.000000
392.800000	42.071946	0.000000
392.900000	42.060282	0.000000
393.000000	42.049600	0.000000
393.100000	42.038879	0.000000
393.200000	42.027096	0.000000
393.300000	42.013228	0.000000
393.400000	41.996166	0.000000
393.500000	41.973172	0.000000
393.600000	41.945745	0.000000
393.700000	41.917161	0.000000
393.800000	41.890382	0.000000
393.900000	41.864299	0.000000
394.000000	41.838214	0.000000
394.100000	41.812129	0.000000
394.200000	41.786042	0.000000
394.300000	41.759954	0.000000
394.400000	41.733865	0.000000
394.500000	41.707775	0.000000
394.600000	41.680841	0.000000
394.700000	41.652219	0.000000
394.800000	41.624988	0.000000
394.900000	41.602427	0.000000
395.000000	41.585663	0.000000
395.100000	41.571973	0.000000
395.200000	41.560295	0.000000
395.300000	41.549603	0.000000
395.400000	41.538871	0.000000
395.500000	41.527075	0.000000
395.600000	41.513187	0.000000
395.700000	41.496095	0.000000
395.800000	41.473054	0.000000
395.900000	41.445586	0.000000
396.000000	41.416977	0.000000
396.100000	41.390186	0.000000
396.200000	41.364077	0.000000
396.300000	41.337968	0.000000
396.400000	41.311857	0.000000
396.500000	41.285745	0.000000
396.600000	41.259632	0.000000
396.700000	41.233517	0.000000
396.800000	41.207402	0.000000
396.900000	41.181286	0.000000
397.000000	41.155168	0.000000
397.100000	41.129050	0.000000
397.200000	41.102930	0.000000
397.300000	41.076809	0.000000
397.400000	41.050687	0.000000
397.500000	41.024564	0.000000
397.600000	40.998440	0.000000
397.700000	40.972315	0.000000
397.800000	40.946188	0.000000
397.900000	40.920061	0.000000
398.000000	40.893826	0.000000
398.100000	40.865640	0.000000
398.200000	40.837310	0.000000
398.300000	40.812129	0.000000
398.400000	40.792978	0.000000
398.500000	40.777988	0.000000
398.600000	40.765491	0.000000
398.700000	40.754456	0.000000
398.800000	40.743854	0.000000
398.900000	40.732655	0.000000
399.000000	40.719829	0.000000
399.100000	40.704345	0.000000
399.200000	40.684212	0.000000
399.300000	40.658298	0.000000
399.400000	40.629755	0.000000
399.500000	40.601882	0.000000
399.600000	40.575725	0.000000
399.700000	40.549578	0.000000
399.800000	40.523429	0.000000
399.900000	40.497280	0.000000
400.000000	40.471129	0.000000
400.100000	40.444978	0.000000
400.200000	40.418825	0.000000
400.300000	40.392671	0.000000
400.400000	40.366516	0.000000
400.500000	40.340360	0.000000
400.600000	40.314202	0.000000
400.700000	40.288044	0.000000
400.800000	40.261884	0.000000
400.900000	40.235724	0.000000
401.000000	40.209562	0.000000
401.100000	40.183399	0.000000
401.200000	40.157235	0.000000
401.300000	40.131070	0.000000
401.400000	40.104904	0.000000
401.500000	40.078737	0.000000
401.600000	40.052569	0.000000
401.700000	40.026399	0.000000
401.800000	40.000229	0.000000
401.900000	39.974057	0.000000
402.000000	39.947884	0.000000
402.100000	39.921710	0.000000
402.200000	39.895536	0.000000
402.300000	39.869359	0.000000
402.400000	39.843182	0.000000
402.500000	39.817004	0.000000
402.600000	39.790825	0.000000
402.700000	39.764644	0.000000
402.800000	39.738462	0.000000
402.900000	39.712280	0.000000
403.000000	39.686096	0.000000
403.100000	39.659911	0.000000
403.200000	39.633725	0.000000
403.300000	39.607538	0.000000
403.400000	39.581349	0.000000
403.500000	39.555160	0.000000
403.600000	39.528970	0.000000
403.700000	39.502778	0.000000
403.800000	39.475293	0.000000
403.900000	39.446576	0.000000
404.000000	39.419919	0.000000
404.100000	39.398627	0.000000
404.200000	39.382557	0.000000
404.300000	39.369329	0.000000
404.400000	39.357907	0.000000
404.500000	39.347253	0.000000
404.600000	39.336329	0.000000
404.700000	39.324098	0.000000
404.800000	39.309521	0.000000
404.900000	39.291183	0.000000
405.000000	39.266686	0.000000
405.100000	39.238529	0.000000
405.200000	39.210036	0.000000
405.300000	39.183562	0.000000
405.400000	39.157352	0.000000
405.500000	39.131140	0.000000
405.600000	39.104927	0.000000
405.700000	39.078714	0.000000
405.800000	39.052499	0.000000
405.900000	39.026283	0.000000
406.000000	39.000066	0.000000
406.100000	38.973847	0.000000
406.200000	38.947628	0.000000
406.300000	38.921408	0.000000
406.400000	38.895186	0.000000
406.500000	38.868964	0.000000
406.600000	38.842740	0.000000
406.700000	38.816515	0.000000
406.800000	38.790289	0.000000
406.900000	38.764062	0.000000
407.000000	38.737834	0.000000
407.100000	38.711604	0.000000
407.200000	38.685374	0.000000
407.300000	38.659142	0.000000
407.400000	38.632910	0.000000
407.500000	38.606676	0.000000
407.600000	38.580441	0.000000
407.700000	38.554205	0.000000
407.800000	38.527968	0.000000
407.900000	38.501730	0.000000
408.000000	38.475491	0.000000
408.100000	38.449250	0.000000
408.200000	38.423009	0.000000
408.300000	38.396735	0.000000
408.400000	38.368637	0.000000
408.500000	38.340047	0.000000
408.600000	38.314304	0.000000
408.700000	38.294501	0.000000
408.800000	38.279173	0.000000
408.900000	38.266449	0.000000
409.000000	38.255286	0.000000
409.100000	38.244641	0.000000
409.200000	38.233470	0.000000
409.300000	38.220729	0.000000
409.400000	38.205374	0.000000
409.500000	38.185519	0.000000
409.600000	38.159729	0.000000
409.700000	38.131115	0.000000
409.800000	38.103020	0.000000
409.900000	38.076733	0.000000
410.000000	38.050471	0.000000
410.100000	38.024209	0.000000
410.200000	37.997945	0.000000
410.300000	37.971680	0.000000
410.400000	37.945414	0.000000
410.500000	37.919147	0.000000
410.600000	37.892879	0.000000
410.700000	37.866610	0.000000
410.800000	37.840339	0.000000
410.900000	37.814068	0.000000
411.000000	37.787795	0.000000
411.100000	37.761521	0.000000
411.200000	37.735246	0.000000
411.300000	37.708970	0.000000
411.400000	37.682693	0.000000
411.500000	37.656415	0.000000
411.600000	37.630136	0.000000
411.700000	37.603855	0.000000
411.800000	37.576373	0.000000
411.900000	37.547547	0.000000
412.000000	37.520680	0.000000
412.100000	37.499120	0.000000
412.200000	37.482907	0.000000
412.300000	37.469582	0.000000
412.400000	37.458096	0.000000
412.500000	37.447402	0.000000
412.600000	37.436450	0.000000
412.700000	37.424193	0.000000
412.800000	37.409582	0.000000
412.900000	37.391192	0.000000
413.000000	37.366605	0.000000
413.100000	37.338345	0.000000
413.200000	37.309767	0.000000
413.300000	37.283216	0.000000
413.400000	37.256917	0.000000
413.500000	37.230616	0.000000
413.600000	37.204315	0.000000
413.700000	37.178012	0.000000
413.800000	37.151708	0.000000
413.900000	37.125403	0.000000
414.000000	37.099095	0.000000
414.100000	37.071132	0.000000
414.200000	37.042385	0.000000
414.300000	37.016217	0.000000
414.400000	36.995857	0.000000
414.500000	36.980243	0.000000
414.600000	36.967328	0.000000
414.700000	36.956059	0.000000
414.800000	36.945386	0.000000
414.900000	36.934256	0.000000
415.000000	36.921620	0.000000
415.100000	36.906425	0.000000
415.200000	36.886898	0.000000
415.300000	36.861316	0.000000
415.400000	36.832704	0.000000
415.500000	36.804428	0.000000
415.600000	36.778048	0.000000
415.700000	36.751723	0.000000
415.800000	36.725397	0.000000
415.900000	36.699067	0.000000
416.000000	36.671078	0.000000
416.100000	36.642311	0.000000
416.200000	36.616135	0.000000
416.300000	36.595783	0.000000
416.400000	36.580172	0.000000
416.500000	36.567258	0.000000
416.600000	36.555987	0.000000
416.700000	36.545305	0.000000
416.800000	36.534159	0.000000
416.900000	36.521495	0.000000
417.000000	36.506258	0.000000
417.100000	36.486652	0.000000
417.200000	36.460997	0.000000
417.300000	36.432346	0.000000
417.400000	36.404074	0.000000
417.500000	36.377681	0.000000
417.600000	36.351335	0.000000
417.700000	36.324987	0.000000
417.800000	36.298633	0.000000
417.900000	36.270581	0.000000
418.000000	36.241807	0.000000
418.100000	36.215690	0.000000
418.200000	36.195444	0.000000
418.300000	36.179885	0.000000
418.400000	36.167005	0.000000
418.500000	36.155749	0.000000
418.600000	36.145060	0.000000
418.700000	36.133882	0.000000
418.800000	36.121157	0.000000
418.900000	36.105831	0.000000
419.000000	36.086050	0.000000
419.100000	36.060252	0.000000
419.200000	36.031544	0.000000
419.300000	36.003309	0.000000
419.400000	35.976910	0.000000
419.500000	35.950543	0.000000
419.600000	35.924174	0.000000
419.700000	35.897790	0.000000
419.800000	35.869640	0.000000
419.900000	35.840877	0.000000
420.000000	35.814887	0.000000
420.100000	35.794845	0.000000
420.200000	35.779385	0.000000
420.300000	35.766572	0.000000
420.400000	35.755347	0.000000
420.500000	35.744650	0.000000
420.600000	35.733422	0.000000
420.700000	35.720605	0.000000
420.800000	35.705140	0.000000
420.900000	35.685085	0.000000
421.000000	35.659078	0.000000
421.100000	35.630298	0.000000
421.200000	35.602137	0.000000
421.300000	35.574364	0.000000
421.400000	35.545451	0.000000
421.500000	35.518765	0.000000
421.600000	35.497656	0.000000
421.700000	35.481662	0.000000
421.800000	35.468487	0.000000
421.900000	35.457072	0.000000
422.000000	35.446355	0.000000
422.100000	35.435275	0.000000
422.200000	35.422770	0.000000
422.300000	35.407781	0.000000
422.400000	35.388674	0.000000
422.500000	35.363387	0.000000
422.600000	35.334797	0.000000
422.700000	35.306301	0.000000
422.800000	35.278782	0.000000
422.900000	35.249810	0.000000
423.000000	35.222548	0.000000
423.100000	35.200393	0.000000
423.200000	35.183869	0.000000
423.300000	35.170329	0.000000
423.400000	35.158710	0.000000
423.500000	35.147949	0.000000
423.600000	35.136982	0.000000
423.700000	35.124748	0.000000
423.800000	35.110182	0.000000
423.900000	35.091895	0.000000
424.000000	35.067359	0.000000
424.100000	35.039020	0.000000
424.200000	35.010282	0.000000
424.300000	34.982890	0.000000
424.400000	34.953933	0.000000
424.500000	34.926200	0.000000
424.600000	34.903098	0.000000
424.700000	34.885997	0.000000
424.800000	34.872092	0.000000
424.900000	34.860260	0.000000
425.000000	34.849436	0.000000
425.100000	34.838555	0.000000
425.200000	34.826551	0.000000
425.300000	34.812361	0.000000
425.400000	34.794766	0.000000
425.500000	34.770998	0.000000
425.600000	34.742958	0.000000
425.700000	34.714056	0.000000
425.800000	34.686684	0.000000
425.900000	34.657803	0.000000
426.000000	34.629693	0.000000
426.100000	34.605765	0.000000
426.200000	34.588037	0.000000
426.300000	34.573772	0.000000
426.400000	34.561722	0.000000
426.500000	34.550820	0.000000
426.600000	34.539999	0.000000
426.700000	34.528192	0.000000
426.800000	34.514332	0.000000
426.900000	34.497307	0.000000
427.000000	34.474310	0.000000
427.100000	34.446603	0.000000
427.200000	34.417604	0.000000
427.300000	34.390165	0.000000
427.400000	34.361408	0.000000
427.500000	34.333000	0.000000
427.600000	34.308359	0.000000
427.700000	34.289980	0.000000
427.800000	34.275363	0.000000
427.900000	34.263094	0.000000
428.000000	34.252103	0.000000
428.100000	34.241322	0.000000
428.200000	34.229681	0.000000
428.300000	34.216111	0.000000
428.400000	34.199541	0.000000
428.500000	34.177305	0.000000
428.600000	34.149953	0.000000
428.700000	34.120910	0.000000
428.800000	34.093336	0.000000
428.900000	34.064740	0.000000
429.000000	34.036101	0.000000
429.100000	34.010845	0.000000
429.200000	33.991815	0.000000
429.300000	33.976859	0.000000
429.400000	33.964373	0.000000
429.500000	33.953286	0.000000
429.600000	33.942527	0.000000
429.700000	33.931025	0.000000
429.800000	33.917708	0.000000
429.900000	33.901505	0.000000
430.000000	33.879992	0.000000
430.100000	33.853007	0.000000
430.200000	33.823962	0.000000
430.300000	33.796203	0.000000
430.400000	33.767791	0.000000
430.500000	33.738979	0.000000
430.600000	33.713197	0.000000
430.700000	33.693533	0.000000
430.800000	33.678254	0.000000
430.900000	33.665557	0.000000
431.000000	33.654370	0.000000
431.100000	33.643620	0.000000
431.200000	33.632233	0.000000
431.300000	33.619135	0.000000
431.400000	33.603253	0.000000
431.500000	33.581250	0.000000
431.600000	33.552062	0.000000
431.700000	33.522409	0.000000
431.800000	33.499157	0.000000
431.900000	33.482815	0.000000
432.000000	33.469402	0.000000
432.100000	33.457844	0.000000
432.200000	33.447066	0.000000
432.300000	33.435992	0.000000
432.400000	33.423549	0.000000
432.500000	33.408661	0.000000
432.600000	33.389768	0.000000
432.700000	33.364611	0.000000
432.800000	33.335969	0.000000
432.900000	33.307284	0.000000
433.000000	33.279688	0.000000
433.100000	33.250592	0.000000
433.200000	33.223127	0.000000
433.300000	33.200737	0.000000
433.400000	33.184080	0.000000
433.500000	33.170451	0.000000
433.600000	33.158770	0.000000
433.700000	33.147961	0.000000
433.800000	33.136946	0.000000
433.900000	33.124648	0.000000
434.000000	33.109990	0.000000
434.100000	33.091204	0.000000
434.200000	33.064078	0.000000
434.300000	33.033754	0.000000
434.400000	33.007129	0.000000
434.500000	32.988833	0.000000
434.600000	32.974381	0.000000
434.700000	32.962211	0.000000
434.800000	32.951244	0.000000
434.900000	32.940401	0.000000
435.000000	32.928604	0.000000
435.100000	32.914774	0.000000
435.200000	32.897774	0.000000
435.300000	32.872977	0.000000
435.400000	32.842881	0.000000
435.500000	32.814392	0.000000
435.600000	32.793817	0.000000
435.700000	32.778456	0.000000
435.800000	32.765705	0.000000
435.900000	32.754483	0.000000
436.000000	32.743711	0.000000
436.100000	32.732308	0.000000
436.200000	32.719194	0.000000
436.300000	32.703290	0.000000
436.400000	32.682385	0.000000
436.500000	32.655707	0.000000
436.600000	32.626631	0.000000
436.700000	32.598605	0.000000
436.800000	32.570316	0.000000
436.900000	32.541326	0.000000
437.000000	32.515094	0.000000
437.100000	32.494817	0.000000
437.200000	32.478373	0.000000
437.300000	32.463946	0.000000
437.400000	32.450996	0.000000
437.500000	32.438982	0.000000
437.600000	32.427363	0.000000
437.700000	32.415597	0.000000
437.800000	32.403144	0.000000
437.900000	32.390248	0.000000
438.000000	32.378219	0.000000
438.100000	32.366595	0.000000
438.200000	32.354834	0.000000
438.300000	32.342394	0.000000
438.400000	32.328734	0.000000
438.500000	32.313311	0.000000
438.600000	32.295428	0.000000
438.700000	32.271708	0.000000
438.800000	32.243575	0.000000
438.900000	32.214497	0.000000
439.000000	32.186965	0.000000
439.100000	32.157929	0.000000
439.200000	32.129659	0.000000
439.300000	32.105622	0.000000
439.400000	32.087840	0.000000
439.500000	32.073536	0.000000
439.600000	32.061453	0.000000
439.700000	32.050505	0.000000
439.800000	32.039608	0.000000
439.900000	32.027675	0.000000
440.000000	32.013622	0.000000
440.100000	31.996205	0.000000
440.200000	31.970692	0.000000
440.300000	31.940408	0.000000
440.400000	31.912303	0.000000
440.500000	31.892252	0.000000
440.600000	31.876116	0.000000
440.700000	31.861924	0.000000
440.800000	31.849131	0.000000
440.900000	31.837195	0.000000
441.000000	31.825571	0.000000
441.100000	31.813717	0.000000
441.200000	31.801089	0.000000
441.300000	31.788291	0.000000
441.400000	31.776346	0.000000
441.500000	31.764719	0.000000
441.600000	31.752868	0.000000
441.700000	31.740247	0.000000
441.800000	31.726313	0.000000
441.900000	31.710522	0.000000
442.000000	31.691567	0.000000
442.100000	31.664446	0.000000
442.200000	31.634019	0.000000
442.300000	31.607254	0.000000
442.400000	31.588607	0.000000
442.500000	31.572921	0.000000
442.600000	31.559065	0.000000
442.700000	31.546493	0.000000
442.800000	31.534661	0.000000
442.900000	31.523024	0.000000
443.000000	31.511038	0.000000
443.100000	31.498183	0.000000
443.200000	31.485602	0.000000
443.300000	31.473765	0.000000
443.400000	31.462126	0.000000
443.500000	31.450140	0.000000
443.600000	31.437263	0.000000
443.700000	31.422949	0.000000
443.800000	31.406652	0.000000
443.900000	31.386085	0.000000
444.000000	31.357582	0.000000
444.100000	31.327352	0.000000
444.200000	31.302379	0.000000
444.300000	31.284820	0.000000
444.400000	31.269590	0.000000
444.500000	31.256068	0.000000
444.600000	31.243706	0.000000
444.700000	31.231958	0.000000
444.800000	31.220279	0.000000
444.900000	31.208123	0.000000
445.000000	31.195132	0.000000
445.100000	31.182765	0.000000
445.200000	31.171014	0.000000
445.300000	31.159333	0.000000
445.400000	31.147176	0.000000
445.500000	31.133994	0.000000
445.600000	31.119243	0.000000
445.700000	31.102376	0.000000
445.800000	31.079739	0.000000
445.900000	31.050156	0.000000
446.000000	31.020536	0.000000
446.100000	30.997804	0.000000
446.200000	30.980909	0.000000
446.300000	30.966136	0.000000
446.400000	30.952938	0.000000
446.500000	30.940769	0.000000
446.600000	30.929080	0.000000
446.700000	30.917324	0.000000
446.800000	30.904954	0.000000
446.900000	30.891708	0.000000
447.000000	30.878369	0.000000
447.100000	30.865030	0.000000
447.200000	30.851689	0.000000
447.300000	30.838349	0.000000
447.400000	30.825007	0.000000
447.500000	30.811665	0.000000
447.600000	30.798334	0.000000
447.700000	30.785717	0.000000
447.800000	30.773853	0.000000
447.900000	30.762193	0.000000
448.000000	30.750187	0.000000
448.100000	30.737288	0.000000
448.200000	30.722948	0.000000
448.300000	30.706617	0.000000
448.400000	30.685985	0.000000
448.500000	30.657403	0.000000
448.600000	30.627129	0.000000
448.700000	30.602186	0.000000
448.800000	30.584631	0.000000
448.900000	30.569397	0.000000
449.000000	30.555869	0.000000
449.100000	30.543498	0.000000
449.200000	30.531734	0.000000
449.300000	30.520028	0.000000
449.400000	30.507831	0.000000
449.500000	30.494708	0.000000
449.600000	30.481354	0.000000
449.700000	30.468000	0.000000
449.800000	30.454645	0.000000
449.900000	30.441289	0.000000
450.000000	30.427933	0.000000
450.100000	30.414576	0.000000
450.200000	30.401219	0.000000
450.300000	30.387861	0.000000
450.400000	30.374502	0.000000
450.500000	30.361143	0.000000
450.600000	30.347784	0.000000
450.700000	30.334424	0.000000
450.800000	30.321063	0.000000
450.900000	30.307702	0.000000
451.000000	30.294456	0.000000
451.100000	30.282105	0.000000
451.200000	30.270342	0.000000
451.300000	30.258618	0.000000
