Dividing Wavelength (nm)	Counts (n)	Blue Motor Position (mm): 32.400000	Red Motor Position (mm): 0.000000	
326.493990	2219.609956
326.888308	2219.609956
327.282561	2219.609956
327.676750	2179.066476
328.070874	2179.517660
328.464933	2177.652433
328.858929	2180.515808
329.252859	2186.638289
329.646726	2193.829495
330.040528	2206.639067
330.434265	2217.653988
330.827938	2239.588049
331.221547	2252.475759
331.615091	2271.831269
332.008571	2291.378343
332.401986	2309.135807
332.795338	2328.130875
333.188625	2348.817250
333.581847	2364.102028
333.975006	2384.775800
334.368100	2406.258677
334.761129	2421.538415
335.154095	2439.033739
335.546996	2464.569704
335.939833	2504.200735
336.332606	2519.430061
336.725315	2531.614529
337.117960	2543.332692
337.510540	2554.455997
337.903056	2566.358162
338.295508	2575.676735
338.687896	2582.734350
339.080220	2592.194075
339.472480	2597.530137
339.864676	2604.670931
340.256807	2608.514811
340.648875	2615.096037
341.040879	2615.927827
341.432818	2618.682818
341.824694	2622.866976
342.216506	2622.909826
342.608253	2624.275978
342.999937	2624.139867
343.391557	2620.989146
343.783113	2625.337141
344.174605	2622.317490
344.566033	2619.401182
344.957397	2621.939403
345.348697	2619.703652
345.739934	2615.504371
346.131106	2616.943620
346.522215	2613.611417
346.913260	2612.028495
347.304241	2612.807353
347.695159	2608.600510
348.086012	2607.430963
348.476802	2609.772579
348.867528	2598.072061
349.258191	2597.441916
349.648789	2596.663058
350.039324	2595.402770
350.429796	2598.182966
350.820203	2596.098449
351.210548	2594.492841
351.600828	2590.868252
351.991045	2594.172728
352.381198	2594.089549
352.771288	2590.172572
353.161314	2588.884558
353.551276	2588.405648
353.941175	2590.011256
354.331010	2589.292891
354.720782	2588.819023
355.110490	2587.515884
355.500135	2587.440267
355.889717	2588.594691
356.279235	2589.383632
356.668689	2588.501430
357.058080	2589.605443
357.447408	2585.701069
357.836672	2590.202819
358.225873	2593.126689
358.615010	2589.481934
359.004084	2590.941348
359.393095	2590.921184
359.782043	2595.375043
360.170927	2594.641555
360.559748	2593.280444
360.948505	2594.631473
361.337199	2594.828078
361.725830	2594.268510
362.114398	2596.211875
362.502903	2594.384457
362.891344	2598.976948
363.279722	2595.165835
363.668037	2595.841350
364.056289	2595.818665
364.444478	2598.682040
364.832603	2599.705394
365.220665	2598.702205
365.608665	2600.330497
365.996601	2599.281937
366.384474	2601.207658
366.772284	2601.646239
367.160031	2600.978286
367.547715	2601.313522
367.935336	2602.049531
368.322893	2599.743203
368.710388	2600.181783
369.097820	2599.985178
369.485189	2599.019797
369.872495	2602.520879
370.259738	2605.918617
370.646918	2602.886362
371.034035	2604.915427
371.421090	2605.066662
371.808081	2604.978441
372.195010	2608.610593
372.581875	2604.756631
372.968678	2605.785026
373.355418	2606.596652
373.742096	2604.552464
374.128710	2608.333329
374.515262	2606.432814
374.901751	2607.047835
375.288177	2608.792074
375.674540	2607.841817
376.060841	2608.499687
376.447079	2608.277877
376.833254	2608.262753
377.219367	2609.913731
377.605417	2609.555809
377.991404	2610.034719
378.377329	2610.259050
378.763191	2612.512446
379.148991	2610.642178
379.534727	2611.952878
379.920402	2609.744852
380.306013	2612.436828
380.691563	2614.523866
381.077049	2609.782661
381.462474	2610.667383
381.847835	2614.748197
382.233134	2615.262395
382.618371	2612.943464
383.003545	2615.020420
383.388657	2611.927672
383.773706	2618.037550
384.158693	2617.606532
384.543618	2615.138887
384.928480	2615.915225
385.313280	2616.734412
385.698017	2615.832046
386.082692	2617.485544
386.467305	2617.813219
386.851856	2616.905811
387.236344	2617.520832
387.620770	2614.904473
388.005133	2615.824484
388.389435	2619.045781
388.773674	2615.562344
389.157851	2619.408744
389.541965	2619.315483
389.926018	2621.571399
390.310008	2620.288426
390.693936	2620.658950
391.077802	2621.543673
391.461606	2622.388066
391.845348	2624.180196
392.229027	2621.967130
392.612645	2625.211112
392.996200	2626.022738
393.379694	2625.306894
393.763125	2628.865949
394.146494	2629.821247
394.529801	2626.700773
394.913047	2625.997532
395.296230	2629.551546
395.679351	2625.967285
396.062410	2633.720580
396.445408	2630.905096
396.828343	2631.676392
397.211217	2631.988944
397.594028	2632.692185
397.976778	2631.600775
398.359466	2633.161012
398.742092	2633.143368
399.124656	2631.913326
399.507158	2633.687812
399.889598	2637.710653
400.271977	2636.767957
400.654294	2638.146713
401.036549	2637.304840
401.418742	2638.149234
401.800874	2640.720222
402.182944	2638.534882
402.564952	2641.047897
402.946898	2641.819194
403.328783	2639.911117
403.710606	2640.957156
404.092367	2642.035963
404.474067	2640.788278
404.855705	2644.425470
405.237282	2643.316416
405.618797	2644.173412
406.000250	2647.556027
406.381642	2646.273053
406.762972	2647.298928
407.144240	2645.156438
407.525447	2645.713485
407.906593	2645.116108
408.287677	2649.091058
408.668700	2650.810092
409.049661	2651.578867
409.430560	2652.773621
409.811399	2654.853097
410.192176	2655.223622
410.572891	2654.918632
410.953545	2658.553304
411.334138	2659.248983
411.714669	2660.509272
412.095139	2662.989519
412.475547	2665.333656
412.855894	2670.047135
413.236180	2677.997034
413.616405	2681.843435
413.996568	2690.345341
414.376670	2699.830272
414.756711	2709.995758
415.136691	2721.325752
415.516609	2738.097670
415.896466	2756.180289
416.276262	2775.528238
416.655997	2805.676858
417.035670	2837.282372
417.415283	2878.589587
417.794834	2916.612490
418.174324	2943.968311
418.553753	2986.480362
418.933121	3049.426729
419.312428	3105.814555
419.691674	3137.132724
420.070859	3249.840321
420.449983	3281.488685
420.829045	3389.313924
421.208047	3436.695729
421.586988	3556.826425
421.965867	3636.834578
422.344686	3739.384250
422.723444	3834.785566
423.102141	3789.463073
423.480777	4031.549362
423.859352	4016.125952
424.237866	4270.026186
424.616319	4332.317204
424.994712	4539.122979
425.373044	4527.409858
425.751314	4770.937918
426.129524	4834.688349
426.507673	4997.073997
426.885762	5163.124563
427.263789	5240.143312
427.641756	5315.140558
428.019662	5480.326566
428.397508	5695.972004
428.775292	5664.260626
429.153016	5978.972299
429.530679	6016.249111
429.908282	6144.828781
430.285824	6111.834429
430.663305	6586.486790
431.040726	6411.011787
431.418086	6510.259503
431.795385	6808.274874
432.172624	6968.265974
432.549802	7027.877618
432.926920	7199.702826
433.303977	7220.290899
433.680974	7456.902496
434.057910	7635.407233
434.434786	7778.618852
434.811601	7789.545553
435.188355	8284.657437
435.565050	8191.159156
435.941683	8238.298986
436.318257	8716.550731
436.694770	8897.850787
437.071222	9060.052433
437.447614	9037.276500
437.823946	9037.702477
438.200218	9256.123071
438.576429	9174.589969
438.952580	9448.435528
439.328670	9582.169778
439.704700	9457.373494
440.080670	9517.539665
440.456580	10097.098438
440.832429	9921.900697
441.208218	9624.134863
441.583947	9982.369338
441.959616	10159.737295
442.335224	10034.978819
442.710773	10223.747346
443.086261	10450.626995
443.461689	9823.686418
443.837057	10461.672163
444.212365	10778.929619
444.587612	10470.317742
444.962800	10731.762063
445.337927	10558.973994
445.712995	10143.746755
446.088002	11239.897768
446.462949	10913.115052
446.837837	10910.375185
447.212664	10949.371030
447.587431	11440.016452
447.962139	12139.562248
448.336786	14357.553993
448.711374	14953.887205
449.085901	12865.347249
449.460369	12482.774084
449.834776	11951.262549
450.209124	12792.482412
450.583412	13200.669680
450.957640	14165.659952
451.331808	13372.517573
451.705917	12335.096003
452.079965	11677.749706
452.453954	12571.047208
452.827883	12201.505426
453.201752	12485.521513
453.575562	12005.457473
453.949311	12423.243098
454.323001	12374.815254
454.696632	12596.200045
455.070202	12893.129048
455.443713	13153.645797
455.817164	13595.018980
456.190556	13605.365949
456.563888	13976.538545
456.937160	14150.327282
457.310373	13484.582423
457.683526	13558.067323
458.056619	13122.781332
458.429653	13255.648503
458.802628	12715.871997
459.175542	13070.421388
459.548398	14012.643288
459.921194	14334.820910
460.293930	14397.091763
460.666607	15300.136337
461.039224	16314.867674
461.411782	17010.655289
461.784280	16920.731187
462.156719	16960.919266
462.529099	16655.964746
462.901419	15570.833695
463.273680	15379.224479
463.645882	15237.792387
464.018024	14976.058200
464.390106	15190.143401
464.762130	15922.852427
465.134094	16661.815005
465.505999	18625.790570
465.877845	21880.851006
466.249631	24733.521500
466.621358	24447.635145
466.993026	22995.505574
467.364634	22446.012243
467.736184	20989.877475
468.107674	20182.730771
468.479105	20319.298149
468.850477	19775.506363
469.221790	19363.139979
469.593043	18690.655097
469.964238	18133.181619
470.335373	17792.896173
470.706449	18208.067960
471.077467	17766.929189
471.448425	19576.950437
471.819324	23567.878182
472.190164	25658.671533
472.560945	22151.951657
472.931667	19749.519215
473.302330	19103.472665
473.672934	18602.381972
474.043479	18960.843299
474.413965	18768.359442
474.784393	18405.845028
475.154761	19084.069263
475.525070	19086.398277
475.895321	18735.281911
476.265513	19318.485438
476.635645	19906.934285
477.005719	19694.157264
477.375734	19881.741119
477.745691	20354.568582
478.115588	20878.646936
478.485427	21390.341695
478.855207	22440.945883
479.224928	24192.530075
479.594591	26424.528667
479.964194	26484.573850
480.333739	26686.222525
480.703226	26246.974187
481.072653	25916.408086
481.442022	26485.047719
481.811333	27392.982212
482.180584	27325.450915
482.549777	26378.772634
482.918912	26014.513981
483.287988	26132.282896
483.657005	25823.308056
484.025964	25544.703648
484.394864	25474.238399
484.763706	25180.450036
485.132489	24594.108391
485.501213	24771.128508
485.869879	24689.968452
486.238487	24476.168076
486.607036	24640.847448
486.975527	24320.870290
487.343959	24660.008874
487.712333	24608.619352
488.080648	24271.277939
488.448905	24741.473920
488.817104	24486.114272
489.185244	25173.639437
489.553326	25126.968434
489.921350	26110.190039
490.289315	28381.418890
490.657222	30174.837098
491.025070	30690.957990
491.392861	30471.544289
491.760593	29619.082653
492.128267	28729.434946
492.495883	27686.679835
492.863440	26807.928582
493.230939	25937.669152
493.598380	25792.519209
493.965763	25377.100406
494.333088	24938.847696
494.700354	24866.431521
495.067563	24750.346351
495.434713	24493.706250
495.801805	24643.922552
496.168839	24455.713594
496.535815	24281.670278
496.902733	24495.107691
497.269593	24172.983001
497.636395	24373.305852
498.003139	24336.666746
498.369825	24091.207924
498.736453	24283.782522
499.103023	24165.413709
499.469535	24177.144474
499.835989	24391.822010
500.202385	24414.212295
500.568723	23914.739813
500.935003	24176.184134
501.301226	23777.544811
501.667390	24600.828249
502.033497	24852.603636
502.399546	24582.221350
502.765537	24150.688498
503.131470	24540.208374
503.497345	24666.953064
503.863163	23887.898189
504.228923	24490.517720
504.594625	24691.374933
504.960269	24210.499268
505.325856	24709.470155
505.691385	24116.010401
506.056856	24727.003288
506.422270	24691.180849
506.787625	24267.098823
507.152924	24669.380379
507.518164	24699.405492
507.883347	24516.681309
508.248472	24190.569066
508.613540	24967.521779
508.978550	24764.438897
509.343503	24750.452215
509.708398	25013.209757
510.073236	25172.671535
510.438016	25385.060388
510.802738	25060.372272
511.167403	25300.074096
511.532010	24997.574618
511.896561	25803.700488
512.261053	25756.106955
512.625488	25587.906336
512.989866	25476.058256
513.354186	25330.825134
513.718449	25426.463384
514.082655	25808.739122
514.446803	25551.819237
514.810894	26017.717634
515.174927	25495.058365
515.538904	25524.085329
515.902822	26028.011670
516.266684	25775.951457
516.630488	25677.054101
516.994235	25655.823282
517.357925	25951.393693
517.721558	26137.051828
518.085133	26231.462557
518.448651	26144.449721
518.812112	25880.605811
519.175516	26079.615441
519.538863	26250.787820
519.902152	26012.212694
520.265385	26300.773381
520.628560	26085.720279
520.991678	26099.376764
521.354739	26162.645766
521.717743	26233.781488
522.080690	26038.290583
522.443580	26366.671344
522.806413	26362.373761
523.169189	26453.449767
523.531908	26492.914439
523.894569	26108.045028
524.257174	26174.779823
524.619722	26356.624325
524.982213	26052.582254
525.344647	26120.960465
525.707025	26265.765088
526.069345	26249.600628
526.431608	26193.784973
526.793815	26387.650106
527.155964	25835.104356
527.518057	26011.159093
527.880093	25922.588540
528.242072	26164.458061
528.603995	25876.393927
528.965860	25674.447824
529.327669	25720.224022
529.689421	25712.034667
530.051117	25545.016199
530.412755	25706.471754
530.774337	25510.181826
531.135862	25385.526695
531.497331	25588.652427
531.858743	25153.051364
532.220098	25626.070392
532.581396	25313.707896
532.942638	25239.086217
533.303824	25333.365876
533.664953	25354.974782
534.026025	25012.274623
534.387040	25250.227167
534.747999	25320.268958
535.108902	25484.718958
535.469748	24968.633354
535.830537	25154.793083
536.191270	25271.551247
536.551947	25146.802854
536.912567	24790.766323
537.273131	25135.402285
537.633638	24849.785631
537.994089	25060.266407
538.354483	24598.748773
538.714821	25094.631953
539.075103	25135.901359
539.435328	24921.450674
539.795497	24483.326514
540.155609	24881.179417
540.515665	25177.619428
540.875665	24407.913373
541.235609	24711.922677
541.595496	24662.494163
541.955328	25020.496745
542.315102	24942.953716
542.674821	24494.328832
543.034483	24372.257292
543.394090	24541.521594
543.753640	24319.831813
544.113134	24956.285047
544.472571	24562.386930
544.831953	24847.963254
545.191278	24473.624814
545.550548	24386.513675
545.909761	24590.773667
546.268918	24835.993034
546.628019	24791.116683
546.987064	24491.042000
547.346053	24242.402210
547.704986	24369.104050
548.063863	24526.153637
548.422684	24528.250757
548.781449	24061.323964
549.140158	24469.327230
549.498811	24035.293966
549.857408	23794.228510
550.215949	24220.984868
550.574434	23894.124014
550.932864	24122.967193
551.291237	24276.019145
551.649555	24128.290652
552.007817	24180.343086
552.366022	24062.788419
552.724173	24099.765283
553.082267	24035.979563
553.440305	24520.749520
553.798288	23768.858903
554.156215	24279.547952
554.514086	24368.453742
554.871902	23764.969653
555.229661	24041.822260
555.587365	23907.377208
555.945014	23759.396657
556.302606	24018.451471
556.660143	23954.683396
557.017625	24219.359096
557.375050	23728.849786
557.732421	24145.302025
558.089735	23949.765750
558.446994	24008.986705
558.804197	24030.116701
559.161345	23977.633248
559.518437	23739.489141
559.875474	23928.887811
560.232455	24108.370532
560.589381	23930.974849
560.946251	23909.381067
561.303065	24233.439039
561.659825	24324.232740
562.016528	23931.461320
562.373177	23669.076824
562.729770	24020.026832
563.086307	23894.852461
563.442789	24056.096287
563.799216	23892.873808
564.155587	23892.185691
564.511904	23868.991342
564.868164	23809.498165
565.224370	23785.754330
565.580520	23695.492471
565.936615	23836.070087
566.292654	23514.593185
566.648638	23806.818792
567.004567	23636.281598
567.360441	23585.988527
567.716260	23317.048010
568.072023	23633.090548
568.427732	23408.998656
568.783385	23185.115973
569.138982	23417.311519
569.494525	23455.281490
569.850013	23203.735475
570.205445	23295.872643
570.560823	23109.170990
570.916145	22871.150391
571.271412	23041.642214
571.626625	22801.330410
571.981782	22910.824272
572.336884	22717.896793
572.691931	22859.086910
573.046923	22574.329773
573.401860	22457.238892
573.756743	22479.603972
574.111570	22378.259135
574.466342	22306.513434
574.821059	22401.645048
575.175722	22116.698868
575.530330	22090.172316
575.884882	22111.947580
576.239380	22025.789220
576.593823	21912.459040
576.948211	21882.386037
577.302544	21733.976988
577.656823	21596.532449
578.011047	21706.500179
578.365216	21554.804298
578.719330	21452.761262
579.073389	21346.140858
579.427394	21495.346409
579.781344	21260.481572
580.135239	21148.227679
580.489080	21109.680496
580.842866	20881.676669
581.196597	21080.633368
581.550273	21044.271525
581.903895	20943.413160
582.257463	21260.864700
582.610975	20782.199581
582.964434	21098.700863
583.317837	20798.817744
583.671186	20882.064838
584.024481	20860.307218
584.377721	20634.312291
584.730906	20696.333607
585.084037	20714.146524
585.437113	20619.587081
585.790135	20831.721355
586.143103	20293.568100
586.496016	20304.928340
586.848874	20551.103006
587.201679	20469.794236
587.554428	20147.777931
587.907124	20485.552883
588.259765	20253.357336
588.612352	20332.105201
588.964884	19905.714326
589.317362	20067.623585
589.669786	20129.269334
590.022155	20161.600775
590.374470	20357.033706
590.726731	20148.498816
591.078937	19919.257386
591.431090	20005.072948
591.783188	19761.013046
592.135232	19729.485670
592.487222	19832.383182
592.839157	19848.466983
593.191038	19728.469877
593.542866	19620.148084
593.894639	19338.289611
594.246358	19557.231963
594.598022	19458.921902
594.949633	19212.908553
595.301190	19167.659156
595.652692	19346.637762
596.004141	19584.055943
596.355535	18915.455270
596.706876	18919.526002
597.058162	18816.547832
597.409395	19043.906391
597.760573	19106.056256
598.111698	18891.983658
598.462768	18823.040838
598.813785	18797.338515
599.164748	18616.998798
599.515657	18657.297782
599.866511	18442.383311
600.217312	18798.825655
600.568060	18325.708326
600.918753	18633.478330
601.269392	18536.970481
601.619978	18321.183890
601.970510	18524.052524
602.320988	18474.770204
602.671412	18689.082257
603.021783	18579.361543
603.372100	18317.619794
603.722363	18452.495866
604.072572	18398.326147
604.422728	18544.176810
604.772830	18301.740160
605.122878	18248.656810
605.472872	18234.637361
605.822813	18229.669304
606.172701	18199.636630
606.522534	18395.046876
606.872314	18415.440864
607.222041	18246.804186
607.571714	18469.373649
607.921333	18295.887380
608.270899	18367.708699
608.620411	18548.199651
608.969870	18322.902924
609.319276	18309.558989
609.668627	18347.463425
610.017926	18481.356471
610.367171	18596.004913
610.716362	18646.600453
611.065500	18466.061611
611.414585	18603.223845
611.763616	18575.308456
612.112594	18526.671403
612.461518	18484.267738
612.810389	18684.968675
613.159207	18537.313279
613.507971	18452.742882
613.856682	18728.420901
614.205340	18666.581067
614.553945	18802.152817
614.902496	18542.868631
615.250994	18775.928735
615.599439	18726.598524
615.947830	18708.596563
616.296169	18752.378984
616.644454	18720.526454
616.992686	18684.164611
617.340864	18904.707530
617.688990	18663.556374
618.037063	18841.622531
618.385082	18682.410290
618.733048	18973.204208
619.080961	18834.431325
619.428821	18877.815495
619.776628	18764.601262
620.124382	18688.747020
620.472083	18734.329133
620.819731	18748.232635
621.167326	18444.067056
621.514868	18486.266555
621.862357	18256.420187
622.209793	18251.489938
622.557176	18089.250484
622.904506	17917.526099
623.251783	17837.142380
623.599007	17590.556860
623.946179	17533.533849
624.293297	17468.109754
624.640363	17236.125936
624.987376	17248.509531
625.334336	17036.498765
625.681243	16889.102988
626.028097	16903.495482
626.374899	16820.097153
626.721647	16686.877101
627.068343	16522.220414
627.414987	16457.406299
627.761577	16428.701969
628.108115	16470.755274
628.454600	16186.822366
628.801032	16289.926565
629.147412	16216.976028
629.493739	16233.092597
629.840014	16041.117897
630.186236	16142.838299
630.532405	15904.611012
630.878521	16102.559480
631.224585	16004.380488
631.570597	15823.493806
631.916556	15857.519073
632.262462	15834.665002
632.608316	15746.459934
632.954117	15690.508167
633.299866	15681.371076
633.645562	15606.996412
633.991206	15366.707294
634.336797	15237.416821
634.682336	15205.463467
635.027823	15090.719244
635.373257	14965.807014
635.718639	14866.221540
636.063968	14808.661645
636.409245	14575.480554
