Dividing Wavelength (nm)	Counts (n)	Blue Motor Position (mm): 3.100000	Red Motor Position (mm): 0.000000	
326.493990	2159.983188
326.888308	2159.983188
327.282561	2159.983188
327.676750	2122.166973
328.070874	2116.750253
328.464933	2117.395521
328.858929	2123.853239
329.252859	2127.228291
329.646726	2134.752213
330.040528	2147.183699
330.434265	2162.160967
330.827938	2177.077741
331.221547	2195.266224
331.615091	2212.159131
332.008571	2230.259394
332.401986	2249.869482
332.795338	2269.025867
333.188625	2288.005811
333.581847	2307.331074
333.975006	2323.614001
334.368100	2341.532783
334.761129	2360.802593
335.154095	2377.216590
335.546996	2394.119579
335.939833	2410.120201
336.332606	2425.316759
336.725315	2440.803184
337.117960	2448.165789
337.510540	2463.332101
337.903056	2473.248050
338.295508	2479.531848
338.687896	2493.636997
339.080220	2497.344766
339.472480	2504.596465
339.864676	2513.050480
340.256807	2515.192971
340.648875	2523.165556
341.040879	2521.270082
341.432818	2524.844260
341.824694	2526.848118
342.216506	2529.567821
342.608253	2526.961544
342.999937	2530.119827
343.391557	2527.357275
343.783113	2530.921371
344.174605	2528.700742
344.566033	2530.366844
344.957397	2529.351051
345.348697	2525.867614
345.739934	2528.426000
346.131106	2524.680422
346.522215	2520.813857
346.913260	2517.426202
347.304241	2518.154649
347.695159	2511.412105
348.086012	2510.817249
348.476802	2511.361694
348.867528	2506.640653
349.258191	2505.844151
349.648789	2506.101250
350.039324	2497.097749
350.429796	2504.966990
350.820203	2501.773419
351.210548	2501.909530
351.600828	2497.816113
351.991045	2498.453819
352.381198	2496.195382
352.771288	2496.553304
353.161314	2499.913233
353.551276	2497.279231
353.941175	2493.344610
354.331010	2497.478356
354.720782	2495.298057
355.110490	2496.633963
355.500135	2494.030207
355.889717	2493.513489
356.279235	2492.240597
356.668689	2496.061792
357.058080	2496.276041
357.447408	2496.351658
357.836672	2497.067502
358.225873	2497.894251
358.615010	2498.405928
359.004084	2498.849550
359.393095	2497.314519
359.782043	2497.848881
360.170927	2497.223778
360.559748	2501.559170
360.948505	2500.314005
361.337199	2501.992709
361.725830	2498.841988
362.114398	2500.825682
362.502903	2501.584376
362.891344	2499.691423
363.279722	2502.882473
363.668037	2501.291989
364.056289	2505.710560
364.444478	2504.374655
364.832603	2504.765344
365.220665	2504.929182
365.608665	2507.777433
365.996601	2505.597134
366.384474	2505.234171
366.772284	2508.508401
367.160031	2504.291476
367.547715	2508.142917
367.935336	2509.027640
368.322893	2503.878101
368.710388	2503.429438
369.097820	2503.870539
369.485189	2503.386588
369.872495	2509.743483
370.259738	2507.999244
370.646918	2510.809688
371.034035	2509.007475
371.421090	2508.500839
371.808081	2510.076200
372.195010	2512.712723
372.581875	2509.229286
372.968678	2513.231962
373.355418	2512.984945
373.742096	2513.710872
374.128710	2513.872188
374.515262	2515.772703
374.901751	2511.606190
375.288177	2513.136180
375.674540	2511.099554
376.060841	2507.701816
376.447079	2514.164575
376.833254	2514.487209
377.219367	2511.124760
377.605417	2514.542662
377.991404	2513.723474
378.377329	2509.488905
378.763191	2516.765811
379.148991	2514.036026
379.534727	2516.483506
379.920402	2513.168948
380.306013	2516.929648
380.691563	2515.979391
381.077049	2516.188599
381.462474	2512.218690
381.847835	2518.046264
382.233134	2517.612725
382.618371	2515.107271
383.003545	2518.696573
383.388657	2516.612056
383.773706	2515.455111
384.158693	2517.395955
384.543618	2518.764628
384.928480	2516.453259
385.313280	2516.508712
385.698017	2519.528363
386.082692	2516.841428
386.467305	2517.045595
386.851856	2518.729340
387.236344	2517.446367
387.620770	2518.666326
388.005133	2515.649195
388.389435	2516.612056
388.773674	2514.124246
389.157851	2517.053157
389.541965	2519.906450
389.926018	2521.295288
390.310008	2520.400483
390.693936	2520.256810
391.077802	2519.104906
391.461606	2522.618590
391.845348	2522.868128
392.229027	2521.680936
392.612645	2522.195133
392.996200	2523.405010
393.379694	2521.181862
393.763125	2522.124557
394.146494	2519.389731
394.529801	2521.338137
394.913047	2522.031296
395.296230	2522.081708
395.679351	2523.092459
396.062410	2526.074301
396.445408	2521.701100
396.828343	2524.380474
397.211217	2524.866945
397.594028	2525.761750
397.976778	2523.841070
398.359466	2523.710000
398.742092	2524.468694
399.124656	2528.720907
399.507158	2523.805782
399.889598	2523.626821
400.271977	2524.317459
400.654294	2527.911802
401.036549	2528.592358
401.418742	2525.529857
401.800874	2524.695546
402.182944	2526.822913
402.564952	2523.866276
402.946898	2526.288550
403.328783	2524.763601
403.710606	2528.365506
404.092367	2525.547501
404.474067	2525.290402
404.855705	2527.722759
405.237282	2526.911133
405.618797	2526.054137
406.000250	2527.546318
406.381642	2529.524971
406.762972	2526.104548
407.144240	2522.414424
407.525447	2524.004908
407.906593	2523.621780
408.287677	2530.064375
408.668700	2528.005063
409.049661	2524.995494
409.430560	2526.762419
409.811399	2531.226361
410.192176	2527.725279
410.572891	2529.605630
410.953545	2528.486493
411.334138	2531.738038
411.714669	2533.590662
412.095139	2531.589324
412.475547	2530.019004
412.855894	2529.124199
413.236180	2531.241484
413.616405	2528.594878
413.996568	2531.261649
414.376670	2533.326001
414.756711	2530.994468
415.136691	2533.179808
415.516609	2532.660569
415.896466	2533.905734
416.276262	2530.833151
416.655997	2528.836854
417.035670	2531.876669
417.415283	2529.850126
417.794834	2533.825075
418.174324	2532.171577
418.553753	2533.943543
418.933121	2535.155940
419.312428	2532.380785
419.691674	2533.628470
420.070859	2534.059489
420.449983	2535.924716
420.829045	2533.935981
421.208047	2532.902544
421.586988	2533.078985
421.965867	2532.597554
422.344686	2536.779192
422.723444	2534.729962
423.102141	2534.046886
423.480777	2534.119983
423.859352	2530.881042
424.237866	2536.559901
424.616319	2533.958666
424.994712	2536.857329
425.373044	2536.368337
425.751314	2530.820548
426.129524	2530.253418
426.507673	2532.194262
426.885762	2529.933305
427.263789	2535.120652
427.641756	2535.733152
428.019662	2536.701054
428.397508	2536.196938
428.775292	2535.690302
429.153016	2537.026208
429.530679	2534.775333
429.908282	2535.334901
430.285824	2537.633667
430.663305	2535.917154
431.040726	2537.447144
431.418086	2534.321629
431.795385	2537.825231
432.172624	2536.297761
432.549802	2536.494366
432.926920	2537.484953
433.303977	2539.186343
433.680974	2539.103163
434.057910	2538.848585
434.434786	2539.123328
434.811601	2538.709953
435.188355	2539.264480
435.565050	2538.490663
435.941683	2535.871784
436.318257	2536.348173
436.694770	2539.251878
437.071222	2538.460416
437.447614	2541.722043
437.823946	2540.161806
438.200218	2537.840354
438.576429	2538.788091
438.952580	2539.115766
439.328670	2539.178781
439.704700	2540.514687
440.080670	2540.335726
440.456580	2538.392361
440.832429	2537.737011
441.208218	2540.754141
441.583947	2540.544933
441.959616	2539.272042
442.335224	2545.276056
442.710773	2540.234903
443.086261	2540.711292
443.461689	2540.880170
443.837057	2541.948895
444.212365	2539.355221
444.587612	2537.114428
444.962800	2536.295241
445.337927	2539.100643
445.712995	2534.666948
446.088002	2539.705581
446.462949	2538.679707
446.837837	2540.746580
447.212664	2539.584594
447.587431	2539.841692
447.962139	2540.023174
448.336786	2541.356559
448.711374	2539.657690
449.085901	2539.617361
449.460369	2539.733308
449.834776	2542.712630
450.209124	2542.700027
450.583412	2541.381765
450.957640	2540.239944
451.331808	2542.639533
451.705917	2542.591642
452.079965	2541.044008
452.453954	2544.492157
452.827883	2542.389996
453.201752	2542.271529
453.575562	2539.539223
453.949311	2540.471837
454.323001	2541.737166
454.696632	2543.491488
455.070202	2542.521066
455.443713	2543.912424
455.817164	2541.953936
456.190556	2541.041487
456.563888	2543.955274
456.937160	2542.881508
457.310373	2544.051056
457.683526	2542.173226
458.056619	2543.771272
458.429653	2544.424101
458.802628	2543.367980
459.175542	2541.263298
459.548398	2543.710778
459.921194	2543.428473
460.293930	2547.584905
460.666607	2543.678011
461.039224	2542.127856
461.411782	2543.814122
461.784280	2541.308668
462.156719	2542.059800
462.529099	2545.066848
462.901419	2540.827238
463.273680	2543.592311
463.645882	2540.759182
464.018024	2540.933102
464.390106	2538.914120
464.762130	2543.869574
465.134094	2544.169523
465.505999	2548.409133
465.877845	2545.790254
466.249631	2542.039636
466.621358	2544.799667
466.993026	2545.928886
467.364634	2548.663712
467.736184	2543.783875
468.107674	2542.848741
468.479105	2545.666746
468.850477	2546.208670
469.221790	2546.251520
469.593043	2546.433001
469.964238	2544.330840
470.335373	2543.783875
470.706449	2545.018958
471.077467	2545.840666
471.448425	2546.548948
471.819324	2543.829245
472.190164	2546.165820
472.560945	2545.747404
472.931667	2546.478372
473.302330	2544.754297
473.672934	2545.447456
474.043479	2547.879812
474.413965	2545.548279
474.784393	2546.518701
475.154761	2547.010213
475.525070	2544.109029
475.895321	2547.892415
476.265513	2547.320244
476.635645	2547.010213
477.005719	2547.279915
477.375734	2545.384441
477.745691	2546.589277
478.115588	2548.784699
478.485427	2547.040460
478.855207	2547.862168
479.224928	2547.065666
479.594591	2545.956612
479.964194	2545.838145
480.333739	2545.407126
480.703226	2544.900490
481.072653	2547.075748
481.442022	2543.771272
481.811333	2543.672969
482.180584	2541.684234
482.549777	2545.588608
482.918912	2542.674821
483.287988	2544.015768
483.657005	2547.615152
484.025964	2548.159596
484.394864	2547.307641
484.763706	2548.648588
485.132489	2549.152704
485.501213	2546.569112
485.869879	2545.245809
486.238487	2547.715975
486.607036	2549.218239
486.975527	2550.604556
487.343959	2548.202446
487.712333	2547.804195
488.080648	2549.268650
488.448905	2547.854607
488.817104	2545.548279
489.185244	2548.401572
489.553326	2546.763197
489.921350	2547.090872
490.289315	2550.246634
490.657222	2545.286139
491.025070	2548.741850
491.392861	2547.736139
491.760593	2547.254709
492.128267	2547.320244
492.495883	2548.797302
492.863440	2549.941644
493.230939	2548.005841
493.598380	2548.119267
493.965763	2549.619010
494.333088	2550.854093
494.700354	2548.411654
495.067563	2547.834442
495.434713	2550.564227
495.801805	2547.998279
496.168839	2548.394010
496.535815	2549.523228
496.902733	2549.288815
497.269593	2548.661191
497.636395	2547.776469
498.003139	2550.087838
498.369825	2549.528270
498.736453	2550.072714
499.103023	2548.699000
499.469535	2550.596994
499.835989	2549.082127
500.202385	2547.733619
500.568723	2544.076262
500.935003	2547.824360
501.301226	2544.345963
501.667390	2548.325954
502.033497	2551.690925
502.399546	2552.089176
502.765537	2547.501726
503.131470	2550.743188
503.497345	2549.858465
503.863163	2553.702345
504.228923	2552.069011
504.594625	2549.913918
504.960269	2550.208825
505.325856	2549.694628
505.691385	2549.162786
506.056856	2548.900646
506.422270	2550.844011
506.787625	2552.182437
507.152924	2553.185627
507.518164	2550.536500
507.883347	2549.626572
508.248472	2550.433157
508.613540	2548.522559
508.978550	2550.745708
509.343503	2549.729916
509.708398	2552.280740
510.073236	2547.441232
510.438016	2548.782179
510.802738	2549.666901
511.167403	2551.847200
511.532010	2550.735626
511.896561	2548.696479
512.261053	2551.816953
512.625488	2550.188661
512.989866	2552.074052
513.354186	2550.183620
513.718449	2551.247303
514.082655	2549.344267
514.446803	2549.745039
514.810894	2550.627241
515.174927	2552.174875
515.538904	2551.736295
515.902822	2553.399876
516.266684	2551.534649
516.630488	2549.581202
516.994235	2550.833928
517.357925	2552.247972
517.721558	2551.582540
518.085133	2548.441901
518.448651	2550.803682
518.812112	2547.998279
519.175516	2544.517363
519.538863	2547.534493
519.902152	2549.954247
520.265385	2550.859134
520.628560	2552.807540
520.991678	2550.773435
521.354739	2549.321582
521.717743	2550.733105
522.080690	2552.958775
522.443580	2547.955430
522.806413	2552.169834
523.169189	2548.482230
523.531908	2553.646892
523.894569	2547.804195
524.257174	2550.314690
524.619722	2550.014741
524.982213	2551.484237
525.344647	2551.380894
525.707025	2553.571275
526.069345	2551.501881
526.431608	2552.217725
526.793815	2549.366953
527.155964	2553.084804
527.518057	2552.469783
527.880093	2554.135884
528.242072	2551.519525
528.603995	2550.934752
528.965860	2552.958775
529.327669	2547.758825
529.689421	2550.786037
530.051117	2553.165462
530.412755	2552.467262
530.774337	2551.045657
531.135862	2550.355019
531.497331	2552.437015
531.858743	2552.069011
532.220098	2552.802499
532.581396	2549.687066
532.942638	2550.738147
533.303824	2548.341078
533.664953	2553.745195
534.026025	2553.578837
534.387040	2553.117571
534.747999	2552.114382
535.108902	2556.041440
535.469748	2548.323434
535.830537	2552.598332
536.191270	2549.339226
536.551947	2550.483568
536.912567	2547.378217
537.273131	2549.094730
537.633638	2547.000131
537.994089	2552.240410
538.354483	2555.058415
538.714821	2553.180586
539.075103	2552.449618
539.435328	2552.179917
539.795497	2553.520863
540.155609	2552.787376
540.515665	2551.179248
540.875665	2552.588250
541.235609	2550.859134
541.595496	2552.321069
541.955328	2553.215874
542.315102	2554.496327
542.674821	2552.525236
543.034483	2554.062787
543.394090	2555.577654
543.753640	2552.391645
544.113134	2553.689742
544.472571	2554.138405
544.831953	2552.484906
545.191278	2552.348795
545.550548	2553.692263
545.909761	2552.031202
546.268918	2555.834753
546.628019	2552.275698
546.987064	2550.670091
547.346053	2551.166645
547.704986	2551.834597
548.063863	2553.218394
548.422684	2551.910215
548.781449	2555.335679
549.140158	2551.269988
549.498811	2553.437684
549.857408	2549.984494
550.215949	2556.003632
550.574434	2552.686552
550.932864	2553.566234
551.291237	2552.938610
551.649555	2553.195709
552.007817	2552.522715
552.366022	2552.081614
552.724173	2551.723692
553.082267	2552.406768
553.440305	2553.372149
553.798288	2554.680329
554.156215	2551.607746
554.514086	2550.672612
554.871902	2549.019113
555.229661	2549.699669
555.587365	2548.628424
555.945014	2554.128322
556.302606	2552.192519
556.660143	2551.360729
557.017625	2552.242931
557.375050	2552.573127
557.732421	2554.435833
558.089735	2554.282078
558.446994	2554.140925
558.804197	2552.787376
559.161345	2551.196892
559.518437	2553.238559
559.875474	2553.016748
560.232455	2555.789383
560.589381	2552.119423
560.946251	2554.448436
561.303065	2553.132695
561.659825	2552.575647
562.016528	2554.990360
562.373177	2553.548590
562.729770	2552.391645
563.086307	2551.925338
563.442789	2554.914742
563.799216	2554.405586
564.155587	2552.631100
564.511904	2551.196892
564.868164	2550.455842
565.224370	2551.310318
565.580520	2554.297201
565.936615	2553.135215
566.292654	2552.573127
566.648638	2552.497509
567.004567	2552.517674
567.360441	2552.784855
567.716260	2553.301573
568.072023	2552.966337
568.427732	2551.448949
568.783385	2554.614794
569.138982	2552.558003
569.494525	2552.106820
569.850013	2551.275029
570.205445	2553.110009
570.560823	2555.917932
570.916145	2551.257385
571.271412	2552.820143
571.626625	2553.311656
571.981782	2553.344423
572.336884	2549.661860
572.691931	2550.090358
573.046923	2550.914587
573.401860	2548.888043
573.756743	2556.230484
574.111570	2552.852911
574.466342	2552.573127
574.821059	2554.335010
575.175722	2554.070349
575.530330	2553.241079
575.884882	2552.537838
576.239380	2552.658826
576.593823	2551.748898
576.948211	2554.503888
577.302544	2553.024310
577.656823	2553.926676
578.011047	2553.906512
578.365216	2550.476007
578.719330	2553.790565
579.073389	2553.281409
579.427394	2552.598332
579.781344	2552.673950
580.135239	2552.933569
580.489080	2554.055226
580.842866	2554.398024
581.196597	2557.788200
581.550273	2553.369629
581.903895	2553.573796
582.257463	2555.093703
582.610975	2556.525391
582.964434	2551.874927
583.317837	2553.830894
583.671186	2554.077911
584.024481	2553.626728
584.377721	2554.760987
584.730906	2554.342572
585.084037	2552.157231
585.437113	2554.055226
585.790135	2551.940462
586.143103	2551.411141
586.496016	2555.118909
586.848874	2555.824671
587.201679	2554.887016
587.554428	2551.814433
587.907124	2555.401214
588.259765	2552.053888
588.612352	2556.147305
588.964884	2556.721996
589.317362	2556.565720
589.669786	2554.118240
590.022155	2550.831408
590.374470	2550.657488
590.726731	2550.319731
591.078937	2550.105482
591.431090	2553.931718
591.783188	2554.405586
592.135232	2554.662685
592.487222	2555.509599
592.839157	2554.380380
593.191038	2554.529094
593.542866	2554.012376
593.894639	2552.401727
594.246358	2554.342572
594.598022	2556.008673
594.949633	2552.862993
595.301190	2553.372149
595.652692	2554.166131
596.004141	2551.574978
596.355535	2553.099927
596.706876	2551.363250
597.058162	2551.393497
597.409395	2552.313507
597.760573	2555.439022
598.111698	2556.202757
598.462768	2556.457336
598.813785	2553.228477
599.164748	2553.483055
599.515657	2552.273178
599.866511	2551.922818
600.217312	2555.980947
600.568060	2553.798127
600.918753	2557.984805
601.269392	2552.799978
601.619978	2554.123281
601.970510	2553.722510
602.320988	2554.191337
602.671412	2554.944989
603.021783	2553.916594
603.372100	2551.809392
603.722363	2554.491286
604.072572	2554.962633
604.422728	2556.318704
604.772830	2554.171172
605.122878	2552.391645
605.472872	2551.643034
605.822813	2552.638662
606.172701	2555.310473
606.522534	2552.812581
606.872314	2553.714948
607.222041	2553.399876
607.571714	2552.875596
607.921333	2550.428116
608.270899	2550.211346
608.620411	2550.554144
608.969870	2553.712427
609.319276	2558.987995
609.668627	2560.984292
610.017926	2567.787329
610.367171	2569.839078
610.716362	2568.732545
611.065500	2563.953531
611.414585	2562.967986
611.763616	2562.058057
612.112594	2559.678633
612.461518	2559.451781
612.810389	2558.375495
613.159207	2558.307439
613.507971	2556.117058
613.856682	2556.727037
614.205340	2558.859445
614.553945	2558.186451
614.902496	2554.589588
615.250994	2555.262582
615.599439	2555.386090
615.947830	2553.548590
616.296169	2552.479865
616.644454	2554.254351
616.992686	2554.387942
617.340864	2551.625390
617.688990	2555.774259
618.037063	2552.681511
618.385082	2553.364588
618.733048	2554.551779
619.080961	2554.574465
619.428821	2553.384752
619.776628	2551.953065
620.124382	2554.955072
620.472083	2553.029351
620.819731	2557.110165
621.167326	2553.357026
621.514868	2555.582695
621.862357	2551.189330
622.209793	2555.822150
622.557176	2552.986501
622.904506	2556.588406
623.251783	2554.587067
623.599007	2556.406924
623.946179	2554.458518
624.293297	2556.664023
624.640363	2553.851059
624.987376	2551.980791
625.334336	2549.440049
625.681243	2549.646737
626.028097	2549.765204
626.374899	2553.336861
626.721647	2553.357026
627.068343	2552.195040
627.414987	2550.831408
627.761577	2552.716799
628.108115	2551.678322
628.454600	2556.227963
628.801032	2552.825184
629.147412	2554.637479
629.493739	2555.711245
629.840014	2554.055226
630.186236	2554.241748
630.532405	2555.053374
630.878521	2555.239897
631.224585	2558.372974
631.570597	2553.407437
631.916556	2553.732592
632.262462	2552.684032
632.608316	2551.269988
632.954117	2556.227963
633.299866	2555.315514
633.645562	2552.353836
633.991206	2552.245452
634.336797	2551.338044
634.682336	2554.559341
635.027823	2553.672098
635.373257	2552.038764
635.718639	2553.321738
636.063968	2555.600339
636.409245	2552.540359
636.754470	2555.486913
637.099642	2552.374001
637.444762	2553.248641
637.789829	2551.658157
638.134845	2553.856100
638.479808	2551.796789
638.824719	2555.726368
639.169577	2552.666388
639.514383	2554.433312
639.859137	2551.935421
640.203839	2551.227138
640.548489	2555.118909
640.893086	2552.663867
641.237632	2553.949362
641.582125	2552.593291
641.926566	2553.046995
642.270955	2552.021120
642.615292	2549.538352
642.959576	2549.790410
643.303809	2547.897456
643.647990	2553.246121
643.992118	2554.970195
644.336195	2553.861141
