Dividing Wavelength (nm)	Counts (n)	Blue Motor Position (mm): 15.900000	Red Motor Position (mm): 0.000000	
326.493990	2173.163285
326.888308	2173.163285
327.282561	2173.163285
327.676750	2132.163581
328.070874	2130.734414
328.464933	2128.942284
328.858929	2133.625516
329.252859	2140.002575
329.646726	2147.350057
330.040528	2161.215751
330.434265	2171.993738
330.827938	2191.434947
331.221547	2209.837679
331.615091	2227.171687
332.008571	2244.203225
332.401986	2263.596544
332.795338	2283.491458
333.188625	2299.673562
333.581847	2317.022693
333.975006	2336.902483
334.368100	2353.790348
334.761129	2375.111908
335.154095	2391.283930
335.546996	2412.849986
335.939833	2438.660694
336.332606	2451.659309
336.725315	2465.038531
337.117960	2480.290542
337.510540	2494.675475
337.903056	2504.528410
338.295508	2512.765655
338.687896	2519.553569
339.080220	2525.426513
339.472480	2534.651825
339.864676	2538.483102
340.256807	2544.111550
340.648875	2548.804864
341.040879	2549.432488
341.432818	2557.578992
341.824694	2556.356513
342.216506	2557.962120
342.608253	2558.950186
342.999937	2560.885989
343.391557	2560.366750
343.783113	2560.933880
344.174605	2560.999415
344.566033	2560.482697
344.957397	2557.047151
345.348697	2553.346944
345.739934	2552.154711
346.131106	2551.418702
346.522215	2550.755791
346.913260	2545.591128
347.304241	2545.757487
347.695159	2544.721529
348.086012	2542.679862
348.476802	2542.379913
348.867528	2535.743234
349.258191	2532.647966
349.648789	2533.210055
350.039324	2529.512368
350.429796	2532.524458
350.820203	2529.277955
351.210548	2529.378778
351.600828	2527.833664
351.991045	2526.989271
352.381198	2525.217305
352.771288	2525.353416
353.161314	2522.512726
353.551276	2526.107069
353.941175	2522.517767
354.331010	2523.173117
354.720782	2524.234280
355.110490	2521.040709
355.500135	2523.001718
355.889717	2524.236801
356.279235	2523.299146
356.668689	2522.273271
357.058080	2524.564476
357.447408	2522.089269
357.836672	2522.996677
358.225873	2524.952645
358.615010	2526.026410
359.004084	2525.242511
359.393095	2527.311905
359.782043	2527.400125
360.170927	2527.551359
360.559748	2529.156967
360.948505	2524.521626
361.337199	2527.311905
361.725830	2527.926925
362.114398	2528.670496
362.502903	2531.130579
362.891344	2530.155115
363.279722	2530.298788
363.668037	2531.496062
364.056289	2531.727955
364.444478	2534.891279
364.832603	2533.820034
365.220665	2534.321629
365.608665	2534.167874
365.996601	2535.907072
366.384474	2536.927906
366.772284	2533.784746
367.160031	2534.994623
367.547715	2538.571322
367.935336	2536.738862
368.322893	2534.341794
368.710388	2531.294416
369.097820	2535.428162
369.485189	2534.067051
369.872495	2534.815662
370.259738	2539.682896
370.646918	2539.330015
371.034035	2539.019984
371.421090	2538.846065
371.808081	2540.645757
372.195010	2539.030067
372.581875	2541.296065
372.968678	2543.126004
373.355418	2540.524769
373.742096	2540.492001
374.128710	2542.765562
374.515262	2541.482588
374.901751	2539.597197
375.288177	2544.381252
375.674540	2541.401930
376.060841	2545.661705
376.447079	2544.784544
376.833254	2546.173382
377.219367	2545.392003
377.605417	2541.764893
377.991404	2544.827394
378.377329	2544.499719
378.763191	2546.438042
379.148991	2543.317568
379.534727	2544.446787
379.920402	2544.361087
380.306013	2545.908721
380.691563	2545.384441
381.077049	2543.816642
381.462474	2545.167672
381.847835	2545.825542
382.233134	2543.269677
382.618371	2543.990562
383.003545	2547.436191
383.388657	2546.037271
383.773706	2543.637681
384.158693	2549.230842
384.543618	2548.449463
384.928480	2545.686910
385.313280	2546.813608
385.698017	2548.714123
386.082692	2548.625903
386.467305	2548.832590
386.851856	2552.084135
387.236344	2547.022816
387.620770	2546.682538
388.005133	2548.779658
388.389435	2545.807898
388.773674	2546.987528
389.157851	2552.472303
389.541965	2549.830739
389.926018	2549.412323
390.310008	2550.423074
390.693936	2549.661860
391.077802	2547.257230
391.461606	2550.599515
391.845348	2551.166645
392.229027	2550.365101
392.612645	2550.753270
392.996200	2551.758980
393.379694	2550.216387
393.763125	2552.893240
394.146494	2551.033054
394.529801	2552.885678
394.913047	2556.371636
395.296230	2551.002807
395.679351	2551.837118
396.062410	2552.187478
396.445408	2552.071532
396.828343	2555.270144
397.211217	2554.017417
397.594028	2554.965154
397.976778	2553.762839
398.359466	2552.663867
398.742092	2552.923487
399.124656	2554.340051
399.507158	2553.140256
399.889598	2552.018600
400.271977	2555.580175
400.654294	2555.726368
401.036549	2555.408776
401.418742	2555.514640
401.800874	2555.912891
402.182944	2557.430278
402.564952	2555.103786
402.946898	2556.679146
403.328783	2558.788869
403.710606	2557.160577
404.092367	2557.846173
404.474067	2558.108313
404.855705	2556.101934
405.237282	2556.646379
405.618797	2559.514795
406.000250	2559.156873
406.381642	2556.389280
406.762972	2556.754764
407.144240	2553.077242
407.525447	2559.209806
407.906593	2552.747046
408.287677	2559.300546
408.668700	2559.212326
409.049661	2560.759960
409.430560	2560.767522
409.811399	2561.374981
410.192176	2559.212326
410.572891	2562.912533
410.953545	2561.256514
411.334138	2562.176525
411.714669	2559.547563
412.095139	2562.413459
412.475547	2559.850032
412.855894	2559.776935
413.236180	2561.667368
413.616405	2562.494117
413.996568	2562.695763
414.376670	2562.751216
414.756711	2560.845660
415.136691	2562.254663
415.516609	2561.163253
415.896466	2562.138716
416.276262	2561.097718
416.655997	2562.194169
417.035670	2562.022769
417.415283	2564.477811
417.794834	2561.753068
418.174324	2562.620146
418.553753	2564.681978
418.933121	2566.332956
419.312428	2565.163408
419.691674	2564.389591
420.070859	2563.877914
420.449983	2563.545198
420.829045	2564.639128
421.208047	2564.200548
421.586988	2562.857080
421.965867	2565.753223
422.344686	2564.853377
422.723444	2563.547718
423.102141	2562.927657
423.480777	2565.077709
423.859352	2569.541650
424.237866	2565.077709
424.616319	2564.850857
424.994712	2567.129458
425.373044	2565.362534
425.751314	2565.203738
426.129524	2560.843139
426.507673	2562.904971
426.885762	2562.078222
427.263789	2565.944787
427.641756	2565.516289
428.019662	2567.994016
428.397508	2566.406053
428.775292	2569.350087
429.153016	2567.300857
429.530679	2566.360682
429.908282	2568.203224
430.285824	2566.532082
430.663305	2567.326063
431.040726	2569.476115
431.418086	2569.755899
431.795385	2568.233471
432.172624	2568.750189
432.549802	2568.465364
432.926920	2569.047617
433.303977	2567.149623
433.680974	2569.423183
434.057910	2569.072823
434.434786	2567.363872
434.811601	2567.482339
435.188355	2569.536609
435.565050	2569.748338
435.941683	2569.047617
436.318257	2569.730694
436.694770	2569.256825
437.071222	2568.142730
437.447614	2570.713719
437.823946	2572.178174
438.200218	2567.885631
438.576429	2572.160530
438.952580	2569.755899
439.328670	2570.925447
439.704700	2571.127093
440.080670	2568.402350
440.456580	2571.966445
440.832429	2570.186918
441.208218	2570.501990
441.583947	2570.955694
441.959616	2572.299162
442.335224	2569.823955
442.710773	2571.212793
443.086261	2568.634243
443.461689	2572.142886
443.837057	2573.735890
444.212365	2573.506518
444.587612	2568.097360
444.962800	2566.680796
445.337927	2571.399316
445.712995	2566.592575
446.088002	2571.021229
446.462949	2570.902762
446.837837	2570.141548
447.212664	2572.352094
447.587431	2576.463155
447.962139	2571.976528
448.336786	2575.275963
448.711374	2574.020716
449.085901	2575.840572
449.460369	2574.292938
449.834776	2572.926785
450.209124	2576.402661
450.583412	2575.457444
450.957640	2573.937537
451.331808	2574.310582
451.705917	2574.088771
452.079965	2573.239337
452.453954	2576.420305
452.827883	2574.696230
453.201752	2575.210428
453.575562	2572.838565
453.949311	2575.089440
454.323001	2578.661098
454.696632	2576.314441
455.070202	2576.745459
455.443713	2577.970460
455.817164	2575.606158
456.190556	2575.953998
456.563888	2576.090109
456.937160	2578.204873
457.310373	2575.175140
457.683526	2575.933833
458.056619	2577.662949
458.429653	2577.136149
458.802628	2577.098340
459.175542	2579.692014
459.548398	2578.237641
459.921194	2579.001376
460.293930	2579.888619
460.666607	2580.155800
461.039224	2579.823084
461.411782	2582.885585
461.784280	2578.870306
462.156719	2580.244020
462.529099	2581.930286
462.901419	2580.468351
463.273680	2578.870306
463.645882	2576.533731
464.018024	2576.899214
464.390106	2576.432908
464.762130	2580.768300
465.134094	2580.428022
465.505999	2584.299628
465.877845	2584.518918
466.249631	2586.739547
466.621358	2585.471697
466.993026	2588.057808
467.364634	2591.397573
467.736184	2584.304669
468.107674	2585.882551
468.479105	2584.579412
468.850477	2588.604774
469.221790	2584.493713
469.593043	2585.388517
469.964238	2583.349371
470.335373	2584.032447
470.706449	2583.982036
471.077467	2584.634865
471.448425	2587.561255
471.819324	2588.604774
472.190164	2591.132912
472.560945	2588.796337
472.931667	2586.147211
473.302330	2588.425813
473.672934	2585.136460
474.043479	2586.333734
474.413965	2587.755339
474.784393	2584.602098
475.154761	2587.780545
475.525070	2587.699887
475.895321	2587.198292
476.265513	2589.355906
476.635645	2588.337592
477.005719	2589.499578
477.375734	2586.321131
477.745691	2591.382449
478.115588	2590.182655
478.485427	2588.393045
478.855207	2589.862542
479.224928	2591.384970
479.594591	2594.964189
479.964194	2595.059971
480.333739	2596.758840
480.703226	2595.664910
481.072653	2593.484611
481.442022	2591.687439
481.811333	2593.038468
482.180584	2590.573344
482.549777	2590.623756
482.918912	2590.689291
483.287988	2597.525095
483.657005	2596.179107
484.025964	2595.463263
484.394864	2595.102821
484.763706	2595.763212
485.132489	2592.879672
485.501213	2596.824375
485.869879	2596.093408
486.238487	2598.959304
486.607036	2595.745568
486.975527	2595.884200
487.343959	2593.681216
487.712333	2596.857142
488.080648	2596.461412
488.448905	2597.197420
488.817104	2596.290013
489.185244	2597.527616
489.553326	2598.850919
489.921350	2597.540219
490.289315	2599.740682
490.657222	2602.495673
491.025070	2603.130858
491.392861	2602.162957
491.760593	2602.561208
492.128267	2602.515838
492.495883	2602.397371
492.863440	2600.345621
493.230939	2599.634818
493.598380	2602.145313
493.965763	2601.898296
494.333088	2599.546598
494.700354	2600.948039
495.067563	2603.158585
495.434713	2600.297730
495.801805	2602.321753
496.168839	2598.878645
496.535815	2601.716815
496.902733	2602.508276
497.269593	2603.153544
497.636395	2603.826538
498.003139	2604.865015
498.369825	2601.457195
498.736453	2605.046497
499.103023	2604.068513
499.469535	2603.682865
499.835989	2604.461723
500.202385	2601.164808
500.568723	2600.537185
500.935003	2600.950559
501.301226	2594.770105
501.667390	2608.434152
502.033497	2608.403905
502.399546	2608.315685
502.765537	2605.941302
503.131470	2608.252671
503.497345	2610.062445
503.863163	2609.757455
504.228923	2609.699482
504.594625	2609.596138
504.960269	2608.600510
505.325856	2612.789709
505.691385	2610.816097
506.056856	2615.030502
506.422270	2612.262909
506.787625	2612.577981
507.152924	2615.506891
507.518164	2616.391614
507.883347	2616.096706
508.248472	2617.896398
508.613540	2617.941768
508.978550	2621.271451
509.343503	2621.977212
509.708398	2619.557458
510.073236	2621.639455
510.438016	2624.888478
510.802738	2622.889661
511.167403	2627.610702
511.532010	2626.700773
511.896561	2631.215127
512.261053	2632.989613
512.625488	2632.094808
512.989866	2631.575569
513.354186	2632.258645
513.718449	2633.186218
514.082655	2640.079996
514.446803	2638.083699
514.810894	2641.113432
515.174927	2642.509832
515.538904	2645.617703
515.902822	2646.651140
516.266684	2646.232724
516.630488	2648.503764
516.994235	2649.890081
517.357925	2651.538538
517.721558	2657.925680
518.085133	2655.770587
518.448651	2657.688746
518.812112	2655.684887
519.175516	2662.835764
519.538863	2661.545229
519.902152	2667.549243
520.265385	2674.508556
520.628560	2674.221210
520.991678	2678.100378
521.354739	2683.149093
521.717743	2684.033816
522.080690	2689.460618
522.443580	2689.689991
522.806413	2699.560570
523.169189	2697.702905
523.531908	2705.584749
523.894569	2702.862526
524.257174	2709.305120
524.619722	2713.030533
524.982213	2719.639486
525.344647	2722.185268
525.707025	2731.962586
526.069345	2737.167577
526.431608	2736.499625
526.793815	2746.851634
527.155964	2751.146697
527.518057	2756.134919
527.880093	2763.351331
528.242072	2768.866353
528.603995	2772.127979
528.965860	2779.788013
529.327669	2786.517953
529.689421	2794.036834
530.051117	2802.072433
530.412755	2809.629123
530.774337	2820.429795
531.135862	2825.435661
531.497331	2838.734225
531.858743	2846.588342
532.220098	2858.351875
532.581396	2864.817155
532.942638	2875.554812
533.303824	2888.974364
533.664953	2905.975655
534.026025	2911.795667
534.387040	2931.166301
534.747999	2946.738425
535.108902	2960.180662
535.469748	2968.251549
535.830537	2983.228817
536.191270	3006.176150
536.551947	3020.056967
536.912567	3025.950076
537.273131	3052.834549
537.633638	3063.761250
537.994089	3095.946497
538.354483	3100.327259
538.714821	3139.335708
539.075103	3166.497445
539.435328	3180.385824
539.795497	3191.529294
540.155609	3226.068760
540.515665	3259.821805
540.875665	3263.012856
541.235609	3295.772794
541.595496	3329.871159
541.955328	3368.282230
542.315102	3399.076119
542.674821	3410.753952
543.034483	3432.632559
543.394090	3468.613795
543.753640	3488.692711
544.113134	3545.156154
544.472571	3572.295206
544.831953	3630.298722
545.191278	3642.523520
545.550548	3680.493491
545.909761	3708.691185
546.268918	3767.158487
546.628019	3804.349600
546.987064	3851.617979
547.346053	3872.695043
547.704986	3918.758586
548.063863	3978.423163
548.422684	3999.200278
548.781449	4040.373902
549.140158	4107.224643
549.498811	4146.976662
549.857408	4156.683404
550.215949	4240.351434
550.574434	4268.483593
550.932864	4341.053523
551.291237	4391.223087
551.649555	4452.107622
552.007817	4511.600799
552.366022	4559.501843
552.724173	4606.510603
553.082267	4667.652237
553.440305	4770.494296
553.798288	4767.945993
554.156215	4877.001274
554.514086	4950.897028
554.871902	4944.237663
555.229661	5029.786044
555.587365	5105.514257
555.945014	5140.005832
556.302606	5255.662504
556.660143	5290.290190
557.017625	5413.322070
557.375050	5434.933497
557.732421	5527.680645
558.089735	5597.198157
558.446994	5657.208052
558.804197	5756.997692
559.161345	5838.155228
559.518437	5835.306976
559.875474	5969.678932
560.232455	6037.522780
560.589381	6127.610720
560.946251	6181.782959
561.303065	6321.717828
561.659825	6416.171407
562.016528	6438.475993
562.373177	6487.803683
562.729770	6603.435149
563.086307	6710.761315
563.442789	6814.788045
563.799216	6870.412137
564.155587	6936.378155
564.511904	7047.646503
564.868164	7094.496466
565.224370	7215.421144
565.580520	7247.951710
565.936615	7394.984523
566.292654	7391.536374
566.648638	7591.871828
567.004567	7615.071218
567.360441	7702.177315
567.716260	7728.638332
568.072023	7921.099503
568.427732	7959.107283
568.783385	7986.334555
569.138982	8130.937532
569.494525	8262.471318
569.850013	8312.426633
570.205445	8408.170747
570.560823	8429.535157
570.916145	8505.265891
571.271412	8606.388916
571.626625	8683.924383
571.981782	8779.028271
572.336884	8802.189852
572.691931	8948.647974
573.046923	8934.220192
573.401860	9038.506542
573.756743	9151.120877
574.111570	9202.240698
574.466342	9261.771684
574.821059	9402.059433
575.175722	9378.597903
575.530330	9515.182926
575.884882	9590.820398
576.239380	9689.720275
576.593823	9734.238704
576.948211	9797.124578
577.302544	9828.941821
577.656823	9891.363908
578.011047	10033.534529
578.365216	10076.908617
578.719330	10127.410896
579.073389	10170.769860
579.427394	10354.401451
579.781344	10314.268825
580.135239	10409.173587
580.489080	10472.182969
580.842866	10437.693915
581.196597	10659.925621
581.550273	10678.393888
581.903895	10793.944696
582.257463	10988.482823
582.610975	10899.493854
582.964434	11111.945721
583.317837	11089.285735
583.671186	11222.168030
584.024481	11309.579117
584.377721	11264.208732
584.730906	11388.374872
585.084037	11507.704025
585.437113	11543.886906
585.790135	11706.149046
586.143103	11561.828373
586.496016	11624.552930
586.848874	11886.395502
587.201679	11911.770149
587.554428	11827.915596
587.907124	12084.782549
588.259765	12052.577138
588.612352	12211.759133
588.964884	12064.610372
589.317362	12236.516239
589.669786	12340.187568
590.022155	12453.288375
590.374470	12651.899754
590.726731	12633.832259
591.078937	12565.151579
591.431090	12703.501005
591.783188	12627.475364
592.135232	12683.255731
592.487222	12876.911656
592.839157	12951.866052
593.191038	12992.308709
593.542866	12971.105616
593.894639	12915.166452
594.246358	13120.870735
594.598022	13127.885500
594.949633	13072.962129
595.301190	13098.916510
595.652692	13297.074185
596.004141	13528.145554
596.355535	13178.065146
596.706876	13252.228081
597.058162	13271.923869
597.409395	13461.080564
597.760573	13620.350778
598.111698	13554.697311
598.462768	13574.332606
598.813785	13613.484727
599.164748	13567.292634
599.515657	13647.199964
599.866511	13595.301285
600.217312	13886.236356
600.568060	13639.716371
600.918753	13927.936780
601.269392	13943.307258
601.619978	13820.353516
601.970510	14070.145210
602.320988	14067.939705
602.671412	14279.847128
603.021783	14274.687507
603.372100	14158.461184
603.722363	14317.892716
604.072572	14335.420807
604.422728	14467.274707
604.772830	14396.542277
605.122878	14377.169123
605.472872	14455.506133
605.822813	14516.289846
606.172701	14526.546073
606.522534	14744.119753
606.872314	14814.184229
607.222041	14720.549838
607.571714	14952.979798
607.921333	14888.246341
608.270899	14995.983361
608.620411	15228.317538
608.969870	15055.300097
609.319276	15118.911897
609.668627	15217.007710
610.017926	15365.396594
610.367171	15503.073026
610.716362	15609.179232
611.065500	15483.609131
611.414585	15637.664272
611.763616	15681.308061
612.112594	15701.523088
612.461518	15695.715679
612.810389	15918.096099
613.159207	15816.778989
613.507971	15793.597243
613.856682	16108.702126
614.205340	16069.623101
614.553945	16251.376862
614.902496	16050.459155
615.250994	16326.144735
615.599439	16309.324925
615.947830	16323.472923
616.296169	16381.052983
616.644454	16419.809373
616.992686	16400.113585
617.340864	16628.263606
617.688990	16466.379553
618.037063	16650.114487
618.385082	16551.771658
618.733048	16815.935681
619.080961	16727.473513
619.428821	16810.508879
619.776628	16767.971623
620.124382	16716.977831
620.472083	16783.886545
620.819731	16848.705702
621.167326	16612.580576
621.514868	16697.143411
621.862357	16516.281935
622.209793	16573.683033
622.557176	16472.421376
622.904506	16339.758371
623.251783	16299.875282
623.599007	16145.373999
623.946179	16126.197450
624.293297	16108.510562
624.640363	15923.028868
624.987376	15947.102898
625.334336	15790.743950
625.681243	15670.371278
626.028097	15692.096131
626.374899	15676.120714
626.721647	15565.613581
627.068343	15422.427167
627.414987	15389.722682
627.761577	15392.306273
628.108115	15466.955679
628.454600	15198.761253
628.801032	15311.612523
629.147412	15259.628145
629.493739	15296.862107
629.840014	15142.522141
630.186236	15247.078193
630.532405	15052.645930
630.878521	15242.389919
631.224585	15151.946578
631.570597	15006.479043
631.916556	15046.722574
632.262462	15033.366037
632.608316	14969.345904
632.954117	14929.868628
633.299866	14945.609631
633.645562	14893.292536
633.991206	14660.262679
634.336797	14545.026943
634.682336	14543.247416
635.027823	14450.775010
635.373257	14362.597668
635.718639	14265.900775
636.063968	14227.091452
636.409245	14016.429195
636.754470	14051.440008
637.099642	13908.266198
637.444762	13709.150703
637.789829	13766.783695
638.134845	13624.461839
638.479808	13640.931289
638.824719	13614.467752
639.169577	13475.246206
639.514383	13523.732024
639.859137	13351.811034
640.203839	13441.031895
640.548489	13280.778655
640.893086	13286.197896
641.237632	13157.842557
641.582125	13317.856342
