Dividing Wavelength (nm)	Counts (n)	Blue Motor Position (mm): 24.800000	Red Motor Position (mm): 0.000000	
326.493990	2197.449044
326.888308	2197.449044
327.282561	2197.449044
327.676750	2158.274237
328.070874	2154.689977
328.464933	2155.436068
328.858929	2157.964206
329.252859	2163.776657
329.646726	2174.872236
330.040528	2184.352126
330.434265	2196.715556
330.827938	2218.256406
331.221547	2232.641339
331.615091	2250.794534
332.008571	2267.140475
332.401986	2286.874072
332.795338	2305.377627
333.188625	2322.620894
333.581847	2340.849706
333.975006	2362.191431
334.368100	2378.587784
334.761129	2400.478994
335.154095	2417.061870
335.546996	2441.703030
335.939833	2475.289717
336.332606	2490.889568
336.725315	2503.041269
337.117960	2515.739936
337.510540	2529.794673
337.903056	2538.329346
338.295508	2551.113713
338.687896	2558.332645
339.080220	2564.404715
339.472480	2572.984758
339.864676	2578.862744
340.256807	2580.836356
340.648875	2585.754001
341.040879	2587.684763
341.432818	2591.064857
341.824694	2595.077615
342.216506	2596.809252
342.608253	2592.811617
342.999937	2595.226329
343.391557	2598.566094
343.783113	2596.121134
344.174605	2594.933942
344.566033	2593.774477
344.957397	2594.727255
345.348697	2593.595516
345.739934	2589.751636
346.131106	2588.756008
346.522215	2587.553693
346.913260	2585.275092
347.304241	2581.363156
347.695159	2580.901891
348.086012	2580.619586
348.476802	2578.003227
348.867528	2571.802608
349.258191	2570.534758
349.648789	2572.430232
350.039324	2564.646690
350.429796	2569.009809
350.820203	2567.908317
351.210548	2566.786660
351.600828	2566.317832
351.991045	2564.392112
352.381198	2561.463201
352.771288	2565.075188
353.161314	2559.219888
353.551276	2563.898079
353.941175	2562.834395
354.331010	2561.087635
354.720782	2558.841801
355.110490	2565.591906
355.500135	2560.180228
355.889717	2562.219374
356.279235	2561.538819
356.668689	2561.790876
357.058080	2561.695094
357.447408	2562.272307
357.836672	2562.864642
358.225873	2560.081925
358.615010	2564.140054
359.004084	2563.585527
359.393095	2563.552760
359.782043	2565.193655
360.170927	2568.427555
360.559748	2565.551577
360.948505	2564.813048
361.337199	2565.566701
361.725830	2567.661300
362.114398	2563.925805
362.502903	2566.378326
362.891344	2566.786660
363.279722	2565.891855
363.668037	2567.373954
364.056289	2569.153482
364.444478	2570.716239
364.832603	2572.248750
365.220665	2570.451579
365.608665	2574.441652
365.996601	2571.132134
366.384474	2574.779409
366.772284	2571.739593
367.160031	2574.106415
367.547715	2573.887125
367.935336	2572.553740
368.322893	2573.645150
368.710388	2568.979562
369.097820	2573.219172
369.485189	2572.261353
369.872495	2576.808474
370.259738	2574.161868
370.646918	2575.313772
371.034035	2577.189081
371.421090	2575.487691
371.808081	2575.843093
372.195010	2577.332754
372.581875	2577.161354
372.968678	2579.467682
373.355418	2576.634554
373.742096	2576.944585
374.128710	2579.528176
374.515262	2579.283680
374.901751	2579.223186
375.288177	2581.181675
375.674540	2580.455748
376.060841	2580.244020
376.447079	2580.140676
376.833254	2580.372569
377.219367	2579.248392
377.605417	2582.003383
377.991404	2579.545820
378.377329	2581.952971
378.763191	2580.788465
379.148991	2580.917014
379.534727	2581.406006
379.920402	2579.124884
380.306013	2582.966243
380.691563	2582.636047
381.077049	2580.617065
381.462474	2584.413054
381.847835	2585.075966
382.233134	2585.259968
382.618371	2584.503795
383.003545	2584.980184
383.388657	2583.183013
383.773706	2585.194433
384.158693	2584.783579
384.543618	2584.259299
384.928480	2586.306007
385.313280	2585.968250
385.698017	2586.114444
386.082692	2586.991604
386.467305	2584.932293
386.851856	2590.147367
387.236344	2588.859352
387.620770	2585.265009
388.005133	2584.264340
388.389435	2584.660071
388.773674	2583.961871
389.157851	2589.791965
389.541965	2588.687953
389.926018	2587.704928
390.310008	2588.733323
390.693936	2591.218612
391.077802	2591.117789
391.461606	2591.193406
391.845348	2589.575196
392.229027	2591.813468
392.612645	2589.686101
392.996200	2590.560741
393.379694	2591.866400
393.763125	2592.085690
394.146494	2593.330855
394.529801	2590.200299
394.913047	2593.590475
395.296230	2593.426637
395.679351	2594.603747
396.062410	2593.255238
396.445408	2594.112234
396.828343	2594.797831
397.211217	2595.153232
397.594028	2593.771956
397.976778	2594.510485
398.359466	2596.317739
398.742092	2591.737851
399.124656	2594.666761
399.507158	2597.031062
399.889598	2596.844540
400.271977	2593.310691
400.654294	2597.257914
401.036549	2597.020980
401.418742	2598.480394
401.800874	2596.524426
402.182944	2595.448140
402.564952	2598.061978
402.946898	2598.374530
403.328783	2599.559201
403.710606	2598.901330
404.092367	2599.533995
404.474067	2600.496856
404.855705	2600.247318
405.237282	2601.883173
405.618797	2600.330497
406.000250	2605.154882
406.381642	2599.637339
406.762972	2598.704725
407.144240	2599.050044
407.525447	2598.124993
407.906593	2593.625763
408.287677	2600.907710
408.668700	2600.726228
409.049661	2602.137751
409.430560	2603.503904
409.811399	2601.868049
410.192176	2603.748400
410.572891	2602.213368
410.953545	2603.740838
411.334138	2602.233533
411.714669	2604.817124
412.095139	2605.860643
412.475547	2607.683020
412.855894	2604.456682
413.236180	2604.098760
413.616405	2606.362238
413.996568	2605.631271
414.376670	2603.118256
414.756711	2604.313009
415.136691	2604.802001
415.516609	2607.360387
415.896466	2607.309975
416.276262	2605.200252
416.655997	2606.183277
417.035670	2606.679831
417.415283	2609.001282
417.794834	2609.391972
418.174324	2606.379882
418.553753	2609.097064
418.933121	2607.466251
419.312428	2609.777620
419.691674	2610.589246
420.070859	2608.552619
420.449983	2610.619492
420.829045	2610.158227
421.208047	2611.985645
421.586988	2611.325254
421.965867	2611.877260
422.344686	2612.951026
422.723444	2611.889863
423.102141	2609.686879
423.480777	2613.371962
423.859352	2611.451283
424.237866	2615.050667
424.616319	2614.216356
424.994712	2613.467744
425.373044	2610.712754
425.751314	2611.050511
426.129524	2612.101592
426.507673	2614.082765
426.885762	2612.875409
427.263789	2615.118722
427.641756	2612.557816
428.019662	2616.908332
428.397508	2614.602004
428.775292	2616.973867
429.153016	2617.480503
429.530679	2620.270782
429.908282	2618.178703
430.285824	2617.422530
430.663305	2619.542335
431.040726	2618.481172
431.418086	2616.779782
431.795385	2620.812706
432.172624	2618.753394
432.549802	2616.671398
432.926920	2618.266923
433.303977	2618.642489
433.680974	2617.011676
434.057910	2619.812037
434.434786	2620.033847
434.811601	2620.268261
435.188355	2623.003087
435.565050	2620.676594
435.941683	2623.318159
436.318257	2623.073663
436.694770	2623.676081
437.071222	2624.091976
437.447614	2626.962913
437.823946	2626.463839
438.200218	2625.332100
438.576429	2625.964765
438.952580	2627.214971
439.328670	2626.708335
439.704700	2628.807976
440.080670	2627.262862
440.456580	2630.857205
440.832429	2629.745630
441.208218	2628.124899
441.583947	2632.767802
441.959616	2631.862915
442.335224	2633.879376
442.710773	2634.007926
443.086261	2632.329222
443.461689	2632.505662
443.837057	2636.203348
444.212365	2637.304840
444.587612	2635.701753
444.962800	2634.708646
445.337927	2636.571352
445.712995	2635.300982
446.088002	2639.643936
446.462949	2642.875315
446.837837	2641.191570
447.212664	2643.777682
447.587431	2648.990235
447.962139	2651.404948
448.336786	2659.070022
448.711374	2661.295692
449.085901	2658.442398
449.460369	2658.225629
449.834776	2662.233346
450.209124	2667.314829
450.583412	2675.957887
450.957640	2681.666994
451.331808	2685.127746
451.705917	2686.231759
452.079965	2690.007583
452.453954	2701.226671
452.827883	2703.585931
453.201752	2717.854917
453.575562	2719.347099
453.949311	2731.445868
454.323001	2750.025040
454.696632	2764.435179
455.070202	2780.647529
455.443713	2801.999337
455.817164	2825.833912
456.190556	2853.081348
456.563888	2880.553116
456.937160	2911.674680
457.310373	2921.278078
457.683526	2944.313630
458.056619	2961.062864
458.429653	2997.480159
458.802628	3014.562109
459.175542	3060.413924
459.548398	3138.670276
459.921194	3205.165615
460.293930	3266.765995
460.666607	3375.423025
461.039224	3519.020292
461.411782	3643.826658
461.784280	3698.258517
462.156719	3769.051441
462.529099	3804.319353
462.901419	3789.994914
463.273680	3844.903162
463.645882	3901.464908
464.018024	3954.076910
464.390106	4059.376532
464.762130	4246.095829
465.134094	4432.893264
465.505999	4837.350078
465.877845	5492.629502
466.249631	6088.156130
466.621358	6153.363455
466.993026	6047.957969
467.364634	6064.014044
467.736184	5981.538246
468.107674	5963.188446
468.479105	6123.829855
468.850477	6187.587848
469.221790	6230.636781
469.593043	6219.596654
469.964238	6251.837354
470.335373	6303.115971
470.706449	6542.386776
471.077467	6553.588220
471.448425	7174.552510
471.819324	8474.792116
472.190164	9272.337942
472.560945	8487.924321
472.931667	7931.612830
473.302330	7894.978765
473.672934	7878.050570
474.043479	8185.460132
474.413965	8287.878734
474.784393	8334.595107
475.154761	8745.454186
475.525070	8925.060415
475.895321	8942.172612
476.265513	9341.164816
476.635645	9742.138193
477.005719	9859.743271
477.375734	10124.456780
477.745691	10544.445389
478.115588	10918.524210
478.485427	11385.065354
478.855207	12045.953062
479.224928	13078.545207
479.594591	14420.339044
479.964194	14675.171892
480.333739	15133.982427
480.703226	15087.941568
481.072653	15199.915678
481.442022	15751.518732
481.811333	16463.576671
482.180584	16711.727469
482.549777	16387.397275
482.918912	16482.785988
483.287988	16767.228052
483.657005	16822.804253
484.025964	16874.836522
484.394864	17087.749655
484.763706	17138.937531
485.132489	17036.720575
485.501213	17322.274214
485.869879	17537.531484
486.238487	17513.601126
486.607036	17936.569058
486.975527	17885.232467
487.343959	18331.266198
487.712333	18552.943377
488.080648	18451.313715
488.448905	19024.727321
488.817104	19017.523512
489.185244	19698.046514
489.553326	19910.314379
489.921350	20769.291706
490.289315	22679.329446
490.657222	24308.617766
491.025070	24928.089874
491.392861	24974.029909
491.760593	24505.661346
492.128267	24056.461771
492.495883	23367.366287
492.863440	22839.529753
493.230939	22239.471129
493.598380	22263.025920
493.965763	22058.506308
494.333088	21822.204743
494.700354	21886.895349
495.067563	21934.461156
495.434713	21825.670536
495.801805	22038.364378
496.168839	22038.255993
496.535815	21982.470585
496.902733	22273.866921
497.269593	22050.637067
497.636395	22342.567766
498.003139	22419.052152
498.369825	22294.931383
498.736453	22535.447353
499.103023	22514.793746
499.469535	22603.306325
499.835989	22873.625597
500.202385	22983.842864
500.568723	22573.951686
500.935003	22885.895766
501.301226	22556.690776
501.667390	23381.874728
502.033497	23695.048849
502.399546	23480.590603
502.765537	23157.815604
503.131470	23556.946439
503.497345	23732.539910
503.863163	23008.312625
504.228923	23680.918495
504.594625	23873.906467
504.960269	23437.246762
505.325856	23970.590757
505.691385	23435.535290
506.056856	24045.598085
506.422270	24044.554566
506.787625	23683.602909
507.152924	24093.080713
507.518164	24138.539317
507.883347	23957.839158
508.248472	23688.074413
508.613540	24475.674043
508.978550	24269.193422
509.343503	24274.985708
509.708398	24573.928652
510.073236	24733.077879
510.438016	24945.048316
510.802738	24653.989737
511.167403	24905.538272
511.532010	24617.050682
511.896561	25409.958647
512.261053	25387.911160
512.625488	25235.242337
512.989866	25134.550330
513.354186	25002.058724
513.718449	25095.204124
514.082655	25471.876619
514.446803	25237.548665
514.810894	25685.513157
515.174927	25180.281157
515.538904	25216.559821
515.902822	25709.564502
516.266684	25469.834952
516.630488	25373.506063
516.994235	25370.955239
517.357925	25655.546018
517.721558	25861.116710
518.085133	25943.000172
518.448651	25869.061569
518.812112	25588.128147
519.175516	25777.252075
519.538863	25955.000639
519.902152	25737.053914
520.265385	26041.834514
520.628560	25826.325187
520.991678	25837.299779
521.354739	25919.316831
521.717743	25976.042415
522.080690	25767.477278
522.443580	26102.426663
522.806413	26100.019512
523.169189	26198.044748
523.531908	26252.496771
523.894569	25841.776323
524.257174	25918.714413
524.619722	26141.916541
524.982213	25819.277654
525.344647	25882.574382
525.707025	26004.908062
526.069345	26007.645408
526.431608	25953.395031
526.793815	26154.161504
527.155964	25583.432312
527.518057	25771.469871
527.880093	25684.925863
528.242072	25927.730517
528.603995	25631.071216
528.965860	25425.883652
529.327669	25479.829039
529.689421	25461.159126
530.051117	25298.962521
530.412755	25479.841642
530.774337	25291.105883
531.135862	25150.934080
531.497331	25360.522572
531.858743	24892.385902
532.220098	25384.760439
532.581396	25064.014505
532.942638	25033.316399
533.303824	25101.876091
533.664953	25126.476922
534.026025	24795.192456
534.387040	25014.444839
534.747999	25100.560350
535.108902	25253.342600
535.469748	24738.968467
535.830537	24937.650422
536.191270	25044.001124
536.551947	24952.015190
536.912567	24601.377734
537.273131	24907.695886
537.633638	24644.860207
537.994089	24841.409754
538.354483	24405.836418
538.714821	24895.612240
539.075103	24931.409474
539.435328	24738.434105
539.795497	24276.745071
540.155609	24682.147101
540.515665	24961.739576
540.875665	24217.919847
541.235609	24482.958510
541.595496	24456.046310
541.955328	24816.647607
542.315102	24743.255968
542.674821	24294.903307
543.034483	24179.092880
543.394090	24346.461708
543.753640	24127.416012
544.113134	24772.499702
544.472571	24360.657597
544.831953	24655.882690
545.191278	24260.318471
545.550548	24204.154976
545.909761	24421.584983
546.268918	24631.160871
546.628019	24595.169553
546.987064	24305.701458
547.346053	24069.616662
547.704986	24194.685168
548.063863	24351.044117
548.422684	24337.740512
548.781449	23908.004832
549.140158	24294.361383
549.498811	23868.673749
549.857408	23598.755249
550.215949	24057.286000
550.574434	23724.075813
550.932864	23948.928918
551.291237	24084.772891
551.649555	23966.946002
552.007817	24018.176728
552.366022	23883.681264
552.724173	23929.558285
553.082267	23872.822619
553.440305	24337.697662
553.798288	23621.319453
554.156215	24136.328772
554.514086	24225.030394
554.871902	23591.226286
555.229661	23874.168607
555.587365	23744.691612
555.945014	23580.095418
556.302606	23850.828065
556.660143	23784.960348
557.017625	24039.644482
557.375050	23580.206323
557.732421	23966.411640
558.089735	23782.263331
558.446994	23840.536549
558.804197	23857.053890
559.161345	23815.240039
559.518437	23557.874012
559.875474	23772.612042
560.232455	23943.731489
560.589381	23769.753708
560.946251	23741.815633
561.303065	24069.014244
561.659825	24147.205061
562.016528	23748.215378
562.373177	23506.086238
562.729770	23844.887065
563.086307	23722.187901
563.442789	23880.487693
563.799216	23719.289237
564.155587	23739.892433
564.511904	23720.206727
564.868164	23648.544205
565.224370	23644.617146
565.580520	23536.275188
565.936615	23668.524818
566.292654	23342.236135
566.648638	23650.472446
567.004567	23475.461229
567.360441	23428.495319
567.716260	23158.412981
568.072023	23488.734587
568.427732	23245.990426
568.783385	23019.587166
569.138982	23255.976952
569.494525	23297.571512
569.850013	23051.641342
570.205445	23143.486124
570.560823	22938.202778
570.916145	22710.705587
571.271412	22885.159757
571.626625	22644.497593
571.981782	22760.154265
572.336884	22556.705899
572.691931	22690.377134
573.046923	22426.765117
573.401860	22309.848157
573.756743	22311.035349
574.111570	22230.381928
574.466342	22162.454901
574.821059	22249.346749
575.175722	21958.106688
575.530330	21931.779263
575.884882	21958.646092
576.239380	21864.058922
576.593823	21761.620156
576.948211	21738.834140
577.302544	21580.191549
577.656823	21446.976538
578.011047	21545.742824
578.365216	21424.208167
578.719330	21305.985547
579.073389	21210.243954
579.427394	21357.238959
579.781344	21125.479472
580.135239	21013.175168
580.489080	20990.961323
580.842866	20742.198025
581.196597	20930.192734
581.550273	20919.805437
581.903895	20824.084007
582.257463	21127.027107
582.610975	20656.163173
582.964434	20963.625666
583.317837	20671.435348
583.671186	20766.012436
584.024481	20727.026672
584.377721	20506.400574
584.730906	20554.672143
585.084037	20588.314283
585.437113	20489.966413
585.790135	20697.636745
586.143103	20169.011271
586.496016	20165.391722
586.848874	20417.409085
587.201679	20357.835250
587.554428	20011.482775
587.907124	20348.622541
588.259765	20132.772936
588.612352	20206.318330
588.964884	19776.426374
589.317362	19946.630851
589.669786	20005.997999
590.022155	20058.451205
590.374470	20230.115097
590.726731	20037.419511
591.078937	19783.874679
591.431090	19881.531911
591.783188	19633.058479
592.135232	19597.442727
592.487222	19712.393638
592.839157	19728.898375
593.191038	19613.985273
593.542866	19502.386730
593.894639	19218.824347
594.246358	19449.275654
594.598022	19345.155662
594.949633	19102.966029
595.301190	19061.129493
595.652692	19228.790708
596.004141	19471.043356
596.355535	18801.053845
596.706876	18807.708168
597.058162	18703.142035
597.409395	18920.055323
597.760573	19006.942130
598.111698	18785.476680
598.462768	18718.711638
598.813785	18679.753602
599.164748	18501.425305
599.515657	18550.760557
599.866511	18323.127255
600.217312	18691.471764
600.568060	18221.237974
600.918753	18529.741466
601.269392	18426.140713
601.619978	18198.081434
601.970510	18410.964320
602.320988	18356.940794
602.671412	18574.738805
603.021783	18467.049677
603.372100	18214.994505
603.722363	18343.339761
604.072572	18286.435217
604.422728	18413.575637
604.772830	18195.911217
605.122878	18127.686762
605.472872	18126.161813
605.822813	18111.991129
606.172701	18078.651458
606.522534	18275.374925
606.872314	18295.524417
607.222041	18133.186660
607.571714	18340.368001
607.921333	18179.761881
608.270899	18248.651769
608.620411	18433.526004
608.969870	18202.033698
609.319276	18203.145273
609.668627	18238.009893
610.017926	18371.562661
610.367171	18480.650710
610.716362	18517.173869
611.065500	18346.243466
611.414585	18474.044278
611.763616	18455.134910
612.112594	18411.912057
612.461518	18376.382004
612.810389	18571.850224
613.159207	18427.295137
613.507971	18333.426332
613.856682	18610.099979
614.205340	18541.948620
614.553945	18681.049178
614.902496	18424.847657
615.250994	18671.438218
615.599439	18608.176779
615.947830	18597.489532
616.296169	18641.176172
616.644454	18606.430019
616.992686	18577.302232
617.340864	18783.026679
617.688990	18543.213950
618.037063	18722.764726
618.385082	18576.011697
618.733048	18857.088791
619.080961	18724.829079
619.428821	18762.839379
619.776628	18646.025762
620.124382	18574.469103
620.472083	18601.678731
620.819731	18624.374006
621.167326	18328.667483
621.514868	18367.234831
621.862357	18126.590311
622.209793	18138.666395
622.557176	17970.972412
622.904506	17798.265002
623.251783	17709.182772
623.599007	17468.961709
623.946179	17423.634174
624.293297	17358.741921
624.640363	17113.116741
624.987376	17137.374774
625.334336	16927.619924
625.681243	16771.691994
626.028097	16775.059485
626.374899	16709.290071
626.721647	16580.176039
627.068343	16411.403249
627.414987	16341.726942
627.761577	16312.732745
628.108115	16360.500198
628.454600	16077.313381
628.801032	16172.757547
629.147412	16113.327384
629.493739	16128.874303
629.840014	15939.755416
630.186236	16033.931732
630.532405	15802.323480
630.878521	16001.885117
631.224585	15894.402676
631.570597	15714.448607
631.916556	15749.855151
632.262462	15724.230966
632.608316	15645.636857
632.954117	15591.706593
633.299866	15578.594552
633.645562	15505.598644
633.991206	15260.578402
634.336797	15130.738444
634.682336	15098.767446
635.027823	14992.968751
635.373257	14878.038005
635.718639	14761.640283
636.063968	14711.513570
636.409245	14476.321058
636.754470	14495.525333
637.099642	14343.630327
637.444762	14115.936531
637.789829	14156.908509
