Dividing Wavelength (nm)	Counts (n)	Blue Motor Position (mm): 2.300000	Red Motor Position (mm): 0.000000	
326.493990	2163.428817
326.888308	2163.428817
327.282561	2163.428817
327.676750	2123.772580
328.070874	2118.912908
328.464933	2121.320059
328.858929	2124.193517
329.252859	2129.363220
329.646726	2137.280352
330.040528	2149.613535
330.434265	2160.991419
330.827938	2182.955727
331.221547	2198.122038
331.615091	2217.046529
332.008571	2235.108984
332.401986	2250.910480
332.795338	2271.672473
333.188625	2290.622170
333.581847	2307.290745
333.975006	2324.191213
334.368100	2344.101250
334.761129	2363.265197
335.154095	2378.096271
335.546996	2394.543036
335.939833	2411.514080
336.332606	2426.955134
336.725315	2438.527103
337.117960	2452.609566
337.510540	2462.616257
337.903056	2475.544296
338.295508	2485.656850
338.687896	2492.601040
339.080220	2500.190497
339.472480	2507.351456
339.864676	2510.073679
340.256807	2519.651871
340.648875	2520.639937
341.040879	2523.004239
341.432818	2528.133613
341.824694	2531.949766
342.216506	2531.506145
342.608253	2531.813655
342.999937	2535.077802
343.391557	2531.881711
343.783113	2531.692667
344.174605	2532.655528
344.566033	2528.400794
344.957397	2525.597912
345.348697	2527.019518
345.739934	2522.936183
346.131106	2524.035155
346.522215	2524.161183
346.913260	2520.715555
347.304241	2519.104906
347.695159	2516.140708
348.086012	2514.998886
348.476802	2515.434946
348.867528	2509.579646
349.258191	2503.794922
349.648789	2506.416322
350.039324	2505.062772
350.429796	2504.881291
350.820203	2504.125118
351.210548	2502.237205
351.600828	2503.535303
351.991045	2501.624705
352.381198	2501.591938
352.771288	2499.285610
353.161314	2497.904334
353.551276	2499.283089
353.941175	2499.288130
354.331010	2497.120434
354.720782	2496.006339
355.110490	2495.643376
355.500135	2496.523058
355.889717	2495.673623
356.279235	2496.036586
356.668689	2495.678664
357.058080	2495.981133
357.447408	2495.338386
357.836672	2498.892400
358.225873	2498.204282
358.615010	2499.782163
359.004084	2499.693943
359.393095	2497.914416
359.782043	2497.808552
360.170927	2500.089674
360.559748	2498.567245
360.948505	2498.179077
361.337199	2503.517658
361.725830	2501.450785
362.114398	2503.144613
362.502903	2500.087153
362.891344	2504.336846
363.279722	2500.624036
363.668037	2504.057062
364.056289	2505.430776
364.444478	2507.258195
364.832603	2506.209635
365.220665	2507.422032
365.608665	2507.646363
365.996601	2504.835920
366.384474	2507.800119
366.772284	2507.303565
367.160031	2510.386231
367.547715	2509.027640
367.935336	2511.626354
368.322893	2506.534789
368.710388	2505.521517
369.097820	2509.806498
369.485189	2505.899604
369.872495	2511.805315
370.259738	2508.679800
370.646918	2512.924452
371.034035	2509.912362
371.421090	2509.488905
371.808081	2512.122908
372.195010	2515.220697
372.581875	2512.203567
372.968678	2511.643998
373.355418	2513.322703
373.742096	2512.223731
374.128710	2511.906138
374.515262	2512.034688
374.901751	2514.179699
375.288177	2514.532580
375.674540	2514.905625
376.060841	2514.076355
376.447079	2512.301869
376.833254	2517.229597
377.219367	2517.055677
377.605417	2516.412930
377.991404	2517.148938
378.377329	2514.489730
378.763191	2515.316479
379.148991	2516.954854
379.534727	2516.501150
379.920402	2514.640964
380.306013	2515.636592
380.691563	2517.164062
381.077049	2515.709689
381.462474	2518.263033
381.847835	2518.371418
382.233134	2519.205729
382.618371	2518.802437
383.003545	2518.265554
383.388657	2517.718589
383.773706	2518.328568
384.158693	2517.610204
384.543618	2519.137674
384.928480	2521.254958
385.313280	2518.973836
385.698017	2519.235976
386.082692	2518.860410
386.467305	2520.324865
386.851856	2522.053981
387.236344	2519.233456
387.620770	2518.215143
388.005133	2517.380832
388.389435	2519.588857
388.773674	2518.628517
389.157851	2524.773684
389.541965	2519.145235
389.926018	2520.163548
390.310008	2521.779238
390.693936	2520.972654
391.077802	2522.779907
391.461606	2524.907274
391.845348	2521.050792
392.229027	2523.682274
392.612645	2524.236801
392.996200	2522.152284
393.379694	2523.457942
393.763125	2524.687984
394.146494	2526.275948
394.529801	2526.752337
394.913047	2525.981040
395.296230	2526.913653
395.679351	2525.113962
396.062410	2524.985412
396.445408	2525.396266
396.828343	2524.884589
397.211217	2525.169414
397.594028	2522.384177
397.976778	2526.207892
398.359466	2527.490866
398.742092	2524.624970
399.124656	2526.966586
399.507158	2525.764270
399.889598	2526.981709
400.271977	2526.533046
400.654294	2526.908612
401.036549	2525.088756
401.418742	2526.916174
401.800874	2527.435413
402.182944	2527.934487
402.564952	2527.442975
402.946898	2529.003212
403.328783	2528.569673
403.710606	2529.023376
404.092367	2528.975485
404.474067	2524.708149
404.855705	2528.426000
405.237282	2526.346524
405.618797	2530.197965
406.000250	2528.085722
406.381642	2528.403314
406.762972	2527.400125
407.144240	2525.313087
407.525447	2526.593540
407.906593	2525.151770
408.287677	2529.189734
408.668700	2526.787625
409.049661	2532.448840
409.430560	2530.248377
409.811399	2533.205013
410.192176	2532.194262
410.572891	2532.486649
410.953545	2532.733666
411.334138	2532.242153
411.714669	2530.054292
412.095139	2533.212575
412.475547	2531.584283
412.855894	2529.837523
413.236180	2530.419776
413.616405	2532.103521
413.996568	2533.114273
414.376670	2533.303316
414.756711	2531.591844
415.136691	2533.744417
415.516609	2537.121990
415.896466	2531.526309
416.276262	2533.159643
416.655997	2533.638553
417.035670	2531.543953
417.415283	2534.321629
417.794834	2533.567977
418.174324	2538.316743
418.553753	2531.387677
418.933121	2532.383305
419.312428	2536.106197
419.691674	2535.244160
420.070859	2535.344983
420.449983	2534.682072
420.829045	2534.538399
421.208047	2536.456558
421.586988	2535.660055
421.965867	2532.161495
422.344686	2534.001516
422.723444	2536.648122
423.102141	2533.746937
423.480777	2536.748945
423.859352	2539.377906
424.237866	2536.567463
424.616319	2535.695343
424.994712	2536.542257
425.373044	2535.808769
425.751314	2533.741896
426.129524	2531.198634
426.507673	2534.840868
426.885762	2532.605116
427.263789	2535.861702
427.641756	2538.485622
428.019662	2534.540919
428.397508	2539.115766
428.775292	2538.415046
429.153016	2537.737011
429.530679	2538.636857
429.908282	2534.798018
430.285824	2538.289017
430.663305	2537.253060
431.040726	2537.555529
431.418086	2538.410005
431.795385	2542.269008
432.172624	2540.592824
432.549802	2536.948070
432.926920	2536.144006
433.303977	2540.658359
433.680974	2538.183153
434.057910	2537.855478
434.434786	2542.919317
434.811601	2541.013761
435.188355	2538.808256
435.565050	2537.363965
435.941683	2536.572504
436.318257	2540.817156
436.694770	2537.679038
437.071222	2538.220962
437.447614	2538.568801
437.823946	2542.616848
438.200218	2537.351363
438.576429	2539.655170
438.952580	2537.915972
439.328670	2540.106353
439.704700	2540.388658
440.080670	2539.229192
440.456580	2539.297248
440.832429	2540.912938
441.208218	2540.338246
441.583947	2540.262629
441.959616	2542.158103
442.335224	2543.909904
442.710773	2542.805891
443.086261	2540.244985
443.461689	2542.067362
443.837057	2541.810263
444.212365	2541.568288
444.587612	2540.562577
444.962800	2538.556198
445.337927	2539.430838
445.712995	2537.046373
446.088002	2541.958977
446.462949	2542.221117
446.837837	2542.034594
447.212664	2541.843031
447.587431	2545.402085
447.962139	2544.348484
448.336786	2545.311344
448.711374	2542.180788
449.085901	2544.552651
449.460369	2541.321271
449.834776	2547.095913
450.209124	2541.860675
450.583412	2545.931406
450.957640	2546.062476
451.331808	2543.607434
451.705917	2544.575336
452.079965	2543.370500
452.453954	2545.956612
452.827883	2543.819163
453.201752	2543.718340
453.575562	2542.732794
453.949311	2544.383772
454.323001	2542.722712
454.696632	2542.478216
455.070202	2545.563402
455.443713	2544.426622
455.817164	2543.272198
456.190556	2546.412837
456.563888	2543.176416
456.937160	2546.206149
457.310373	2542.140459
457.683526	2543.874616
458.056619	2546.680018
458.429653	2544.537527
458.802628	2546.853938
459.175542	2547.491643
459.548398	2545.260933
459.921194	2544.839997
460.293930	2545.389482
460.666607	2546.180943
461.039224	2544.366128
461.411782	2543.312527
461.784280	2545.689431
462.156719	2545.843186
462.529099	2548.255378
462.901419	2543.798998
463.273680	2543.246992
463.645882	2541.971580
464.018024	2543.874616
464.390106	2541.510314
464.762130	2546.594318
465.134094	2546.206149
465.505999	2545.512991
465.877845	2548.250337
466.249631	2546.004503
466.621358	2544.847558
466.993026	2547.703372
467.364634	2552.452139
467.736184	2545.497867
468.107674	2548.789741
468.479105	2545.076931
468.850477	2544.766900
469.221790	2549.997097
469.593043	2544.966025
469.964238	2548.124308
470.335373	2547.784030
470.706449	2547.937786
471.077467	2547.032898
471.448425	2549.109854
471.819324	2545.886036
472.190164	2545.656663
472.560945	2549.924000
472.931667	2546.841335
473.302330	2548.210008
473.672934	2549.760163
474.043479	2546.375028
474.413965	2546.886705
474.784393	2546.614483
475.154761	2550.720502
475.525070	2548.076417
475.895321	2547.834442
476.265513	2545.860830
476.635645	2548.600697
477.005719	2547.778989
477.375734	2551.476676
477.745691	2547.224462
478.115588	2547.108516
478.485427	2545.918803
478.855207	2548.920811
479.224928	2548.068856
479.594591	2549.951727
479.964194	2548.777138
480.333739	2546.160779
480.703226	2547.237065
481.072653	2549.939124
481.442022	2549.863506
481.811333	2547.479041
482.180584	2547.257230
482.549777	2546.380069
482.918912	2542.878988
483.287988	2549.775286
483.657005	2549.180430
484.025964	2548.131870
484.394864	2547.264792
484.763706	2549.205636
485.132489	2547.970553
485.501213	2550.022303
485.869879	2551.428785
486.238487	2550.269319
486.607036	2548.356201
486.975527	2549.319062
487.343959	2547.650440
487.712333	2547.279915
488.080648	2548.623382
488.448905	2550.221428
488.817104	2549.732436
489.185244	2546.551468
489.553326	2552.212684
489.921350	2551.398538
490.289315	2549.906356
490.657222	2550.526418
491.025070	2549.883671
491.392861	2553.472973
491.760593	2551.461552
492.128267	2550.067673
492.495883	2550.637323
492.863440	2550.521377
493.230939	2548.550286
493.598380	2551.408620
493.965763	2550.773435
494.333088	2550.964998
494.700354	2548.845193
495.067563	2547.353012
495.434713	2550.639844
495.801805	2552.565565
496.168839	2551.766542
496.535815	2549.079607
496.902733	2553.664536
497.269593	2547.148845
497.636395	2551.423743
498.003139	2549.757642
498.369825	2551.209494
498.736453	2551.048177
499.103023	2551.199412
499.469535	2552.676470
499.835989	2551.456511
500.202385	2549.036757
500.568723	2546.969884
500.935003	2549.072045
501.301226	2548.010882
501.667390	2550.687735
502.033497	2549.603887
502.399546	2551.418702
502.765537	2552.283260
503.131470	2552.222766
503.497345	2549.288815
503.863163	2553.500699
504.228923	2552.943651
504.594625	2550.695297
504.960269	2548.701520
505.325856	2552.063970
505.691385	2550.818805
506.056856	2551.272509
506.422270	2549.959288
506.787625	2552.812581
507.152924	2550.087838
507.518164	2553.435164
507.883347	2551.569937
508.248472	2551.635472
508.613540	2552.437015
508.978550	2554.977757
509.343503	2551.390976
509.708398	2553.457849
510.073236	2550.070194
510.438016	2553.203271
510.802738	2548.915769
511.167403	2553.256203
511.532010	2548.542724
511.896561	2554.501368
512.261053	2550.536500
512.625488	2555.043292
512.989866	2550.934752
513.354186	2555.449105
513.718449	2551.280071
514.082655	2553.057077
514.446803	2553.099927
514.810894	2552.172355
515.174927	2553.253682
515.538904	2551.239741
515.902822	2551.360729
516.266684	2552.658826
516.630488	2552.729402
516.994235	2552.391645
517.357925	2552.142108
517.721558	2555.171841
518.085133	2551.592622
518.448651	2549.142621
518.812112	2547.572302
519.175516	2551.580019
519.538863	2549.757642
519.902152	2555.244938
520.265385	2550.730585
520.628560	2553.528425
520.991678	2552.701676
521.354739	2551.350647
521.717743	2550.473486
522.080690	2552.331151
522.443580	2552.285781
522.806413	2554.851728
523.169189	2552.542880
523.531908	2553.873744
523.894569	2552.926007
524.257174	2554.740823
524.619722	2551.133877
524.982213	2553.498178
525.344647	2553.906512
525.707025	2552.661347
526.069345	2553.044474
526.431608	2552.018600
526.793815	2551.113713
527.155964	2551.406099
527.518057	2552.225287
527.880093	2552.956254
528.242072	2555.635628
528.603995	2553.409958
528.965860	2552.883158
529.327669	2551.640513
529.689421	2553.863662
530.051117	2555.444064
530.412755	2553.533466
530.774337	2554.546738
531.135862	2552.835267
531.497331	2553.752757
531.858743	2552.205122
532.220098	2553.596481
532.581396	2552.868034
532.942638	2554.178734
533.303824	2552.983981
533.664953	2555.612942
534.026025	2555.260062
534.387040	2553.619166
534.747999	2553.097407
535.108902	2554.277037
535.469748	2553.127653
535.830537	2556.285936
536.191270	2554.453477
536.551947	2549.790410
536.912567	2547.952909
537.273131	2551.990873
537.633638	2549.165307
537.994089	2555.875082
538.354483	2552.731923
538.714821	2553.175544
539.075103	2552.983981
539.435328	2552.928528
539.795497	2556.432130
540.155609	2550.561706
540.515665	2553.049516
540.875665	2554.728220
541.235609	2552.535318
541.595496	2552.994063
541.955328	2553.851059
542.315102	2557.528581
542.674821	2554.816440
543.034483	2556.328786
543.394090	2550.130687
543.753640	2556.371636
544.113134	2554.110678
544.472571	2551.771583
544.831953	2552.845349
545.191278	2555.181924
545.550548	2554.115720
545.909761	2553.200750
546.268918	2552.956254
546.628019	2556.230484
546.987064	2553.503219
547.346053	2552.976419
547.704986	2553.435164
548.063863	2554.345092
548.422684	2554.609753
548.781449	2552.885678
549.140158	2553.467931
549.498811	2555.360885
549.857408	2552.598332
550.215949	2555.328117
550.574434	2553.004145
550.932864	2553.467931
551.291237	2554.939948
551.649555	2553.820812
552.007817	2554.302242
552.366022	2555.277706
552.724173	2552.807540
553.082267	2555.348282
553.440305	2554.443395
553.798288	2552.736964
554.156215	2555.988508
554.514086	2552.626059
554.871902	2552.648744
555.229661	2551.494320
555.587365	2547.479041
555.945014	2552.084135
556.302606	2554.997922
556.660143	2551.953065
557.017625	2554.897098
557.375050	2552.774773
557.732421	2556.086811
558.089735	2556.873231
558.446994	2554.329969
558.804197	2555.968344
559.161345	2555.098745
559.518437	2554.750905
559.875474	2553.851059
560.232455	2556.686708
560.589381	2552.885678
560.946251	2553.810730
561.303065	2553.911553
561.659825	2553.530946
562.016528	2556.081770
562.373177	2554.960113
562.729770	2556.699311
563.086307	2554.486244
563.442789	2555.461708
563.799216	2555.436502
564.155587	2555.154197
564.511904	2554.335010
564.868164	2550.637323
565.224370	2555.799465
565.580520	2553.324258
565.936615	2555.537325
566.292654	2554.123281
566.648638	2554.435833
567.004567	2553.364588
567.360441	2552.883157
567.716260	2555.038251
568.072023	2554.826522
568.427732	2552.789896
568.783385	2557.261400
569.138982	2555.121430
569.494525	2552.643703
569.850013	2556.442212
570.205445	2552.668908
570.560823	2556.548076
570.916145	2555.580175
571.271412	2553.543549
571.626625	2555.630586
571.981782	2553.130174
572.336884	2553.135215
572.691931	2547.562220
573.046923	2554.241748
573.401860	2548.572971
573.756743	2553.823333
574.111570	2555.570092
574.466342	2553.286450
574.821059	2555.870041
575.175722	2554.065308
575.530330	2555.741492
575.884882	2554.619835
576.239380	2555.297870
576.593823	2554.186296
576.948211	2554.652602
577.302544	2557.659651
577.656823	2556.190154
578.011047	2554.637479
578.365216	2555.680998
578.719330	2556.187634
579.073389	2556.699311
579.427394	2555.244938
579.781344	2555.809547
580.135239	2553.737633
580.489080	2554.390462
580.842866	2553.967006
581.196597	2556.001111
581.550273	2551.116233
581.903895	2555.786862
582.257463	2556.500185
582.610975	2557.599157
582.964434	2556.911039
583.317837	2555.930535
583.671186	2556.167469
584.024481	2556.684187
584.377721	2557.364743
584.730906	2554.758467
585.084037	2558.100752
585.437113	2556.477500
585.790135	2555.149156
586.143103	2555.378529
586.496016	2557.420196
586.848874	2557.140412
587.201679	2557.147974
587.554428	2556.888354
587.907124	2558.040258
588.259765	2556.129661
588.612352	2556.457336
588.964884	2554.594629
589.317362	2558.655279
589.669786	2553.919115
590.022155	2553.167983
590.374470	2553.813250
590.726731	2552.310987
591.078937	2552.704197
591.431090	2556.606050
591.783188	2555.471790
592.135232	2556.936245
592.487222	2552.908363
592.839157	2555.996070
593.191038	2556.298539
593.542866	2555.847356
593.894639	2553.848538
594.246358	2557.578992
594.598022	2556.061605
594.949633	2555.572613
595.301190	2555.428940
595.652692	2555.257541
596.004141	2556.580844
596.355535	2554.012376
596.706876	2557.274003
597.058162	2556.238045
597.409395	2556.371636
597.760573	2556.555638
598.111698	2556.890875
598.462768	2554.357695
598.813785	2554.519012
599.164748	2555.552448
599.515657	2553.662016
599.866511	2557.762994
600.217312	2555.282747
600.568060	2553.788045
600.918753	2559.910526
601.269392	2555.693601
601.619978	2557.261400
601.970510	2555.587737
602.320988	2556.936245
602.671412	2554.221584
603.021783	2557.309291
603.372100	2556.225443
603.722363	2555.260062
604.072572	2557.795762
604.422728	2555.744012
604.772830	2556.409445
605.122878	2555.859959
605.472872	2557.581513
605.822813	2555.121430
606.172701	2556.553118
606.522534	2555.128992
606.872314	2556.764846
607.222041	2557.785680
607.571714	2552.701676
607.921333	2552.323589
608.270899	2551.277550
608.620411	2552.084135
608.969870	2558.241904
609.319276	2559.066133
609.668627	2564.008984
610.017926	2567.033676
610.367171	2568.235992
610.716362	2571.474933
611.065500	2567.409242
611.414585	2566.048131
611.763616	2565.521330
612.112594	2564.276165
612.461518	2561.299364
612.810389	2561.924467
613.159207	2559.572769
613.507971	2559.058571
613.856682	2556.991698
614.205340	2558.473797
614.553945	2559.076215
614.902496	2556.981616
615.250994	2556.790052
615.599439	2557.049671
615.947830	2555.128992
616.296169	2557.818447
616.644454	2555.875082
616.992686	2554.282078
617.340864	2556.018755
617.688990	2556.369115
618.037063	2557.034548
618.385082	2557.352140
618.733048	2554.889537
619.080961	2555.895247
619.428821	2557.145453
619.776628	2555.176883
620.124382	2557.851215
620.472083	2554.455997
620.819731	2554.695452
621.167326	2554.304763
621.514868	2555.333158
621.862357	2556.953889
622.209793	2557.319373
622.557176	2555.617983
622.904506	2554.866852
623.251783	2556.404403
623.599007	2556.411965
623.946179	2556.444733
624.293297	2556.595967
624.640363	2556.868190
624.987376	2554.337530
625.334336	2550.919628
625.681243	2553.823333
626.028097	2550.644885
626.374899	2555.479352
626.721647	2556.056564
627.068343	2557.699980
627.414987	2557.815927
627.761577	2554.922304
628.108115	2552.787376
628.454600	2557.833571
628.801032	2556.422047
629.147412	2554.614794
629.493739	2553.762839
629.840014	2558.728375
630.186236	2556.638817
630.532405	2558.173848
630.878521	2557.142932
631.224585	2554.345092
631.570597	2554.332489
631.916556	2556.343910
632.262462	2553.977088
632.608316	2556.217881
632.954117	2555.718807
633.299866	2556.938766
633.645562	2554.849208
633.991206	2554.607232
634.336797	2553.692263
634.682336	2553.110009
635.027823	2553.639331
635.373257	2553.561193
635.718639	2555.045812
636.063968	2553.866182
636.409245	2552.046326
636.754470	2555.958261
637.099642	2553.432643
637.444762	2556.013714
637.789829	2552.474824
638.134845	2553.480534
638.479808	2556.719476
638.824719	2554.024979
639.169577	2556.661502
639.514383	2555.005483
639.859137	2555.260062
640.203839	2555.708724
640.548489	2554.176213
640.893086	2556.109496
641.237632	2554.652603
641.582125	2557.389949
641.926566	2553.772921
642.270955	2554.413148
642.615292	2548.278063
642.959576	2550.173537
643.303809	2550.728064
643.647990	2554.695452
643.992118	2553.205791
644.336195	2553.984650
