Dividing Wavelength (nm)	Counts (n)	Blue Motor Position (mm): 32.800000	Red Motor Position (mm): 0.000000	
326.493990	2223.272354
326.888308	2223.272354
327.282561	2223.272354
327.676750	2181.846673
328.070874	2178.625375
328.464933	2177.218893
328.858929	2181.574450
329.252859	2186.900429
329.646726	2195.795545
330.040528	2208.151413
330.434265	2219.350337
330.827938	2241.284397
331.221547	2256.773342
331.615091	2273.262957
332.008571	2290.107972
332.401986	2309.760910
332.795338	2331.342090
333.188625	2348.585357
333.581847	2369.488501
333.975006	2384.755636
334.368100	2405.910838
334.761129	2423.476738
335.154095	2440.518359
335.546996	2466.898717
335.939833	2506.731394
336.332606	2521.592716
336.725315	2533.620909
337.117960	2546.445604
337.510540	2555.360885
337.903056	2565.924622
338.295508	2578.434246
338.687896	2588.587130
339.080220	2595.599375
339.472480	2602.195724
339.864676	2607.194028
340.256807	2612.081427
340.648875	2614.901953
341.040879	2615.330451
341.432818	2624.036523
341.824694	2621.470576
342.216506	2623.839918
342.608253	2624.028962
342.999937	2624.633900
343.391557	2625.868983
343.783113	2624.467542
344.174605	2624.026441
344.566033	2622.438478
344.957397	2621.447891
345.348697	2624.059209
345.739934	2619.287757
346.131106	2618.952520
346.522215	2616.086624
346.913260	2613.865996
347.304241	2610.440532
347.695159	2609.661673
348.086012	2610.251488
348.476802	2608.101436
348.867528	2604.439038
349.258191	2601.258070
349.648789	2597.802359
350.039324	2596.025352
350.429796	2599.501228
350.820203	2597.651124
351.210548	2598.455188
351.600828	2598.288830
351.991045	2596.448809
352.381198	2593.381267
352.771288	2594.114755
353.161314	2593.686257
353.551276	2594.949066
353.941175	2593.197265
354.331010	2591.354723
354.720782	2592.020155
355.110490	2590.137284
355.500135	2591.866400
355.889717	2592.783890
356.279235	2591.337079
356.668689	2591.581575
357.058080	2590.023858
357.447408	2592.751123
357.836672	2592.181472
358.225873	2593.663572
358.615010	2593.230032
359.004084	2592.446133
359.393095	2593.456884
359.782043	2597.121803
360.170927	2594.749940
360.559748	2593.620722
360.948505	2595.753130
361.337199	2596.466453
361.725830	2598.871083
362.114398	2596.713470
362.502903	2597.565425
362.891344	2596.806731
363.279722	2598.210692
363.668037	2599.173553
364.056289	2597.940991
364.444478	2603.304778
364.832603	2601.623553
365.220665	2602.760334
365.608665	2602.054572
365.996601	2604.065992
366.384474	2602.848554
366.772284	2603.009871
367.160031	2604.249995
367.547715	2607.105808
367.935336	2603.181270
368.322893	2605.535489
368.710388	2601.825200
369.097820	2605.109511
369.485189	2600.133892
369.872495	2607.630088
370.259738	2607.554471
370.646918	2607.186467
371.034035	2607.400716
371.421090	2608.451796
371.808081	2607.279728
372.195010	2608.570263
372.581875	2609.094543
372.968678	2607.236878
373.355418	2609.144955
373.742096	2608.711416
374.128710	2609.376848
374.515262	2611.582353
374.901751	2610.785851
375.288177	2611.657970
375.674540	2609.661673
376.060841	2610.629575
376.447079	2609.770058
376.833254	2612.940944
377.219367	2611.496653
377.605417	2613.739967
377.991404	2614.067642
378.377329	2614.486057
378.763191	2610.687548
379.148991	2614.488578
379.534727	2611.915069
379.920402	2612.925820
380.306013	2613.397168
380.691563	2616.767180
381.077049	2612.953547
381.462474	2612.197374
381.847835	2614.685183
382.233134	2615.239710
382.618371	2613.845831
383.003545	2614.279370
383.388657	2614.783486
383.773706	2615.882457
384.158693	2618.274485
384.543618	2619.197016
384.928480	2616.547889
385.313280	2620.878241
385.698017	2618.975205
386.082692	2622.682974
386.467305	2619.774228
386.851856	2619.716255
387.236344	2622.370422
387.620770	2620.701800
388.005133	2616.409258
388.389435	2620.492592
388.773674	2618.186264
389.157851	2623.333283
389.541965	2624.865793
389.926018	2623.643313
390.310008	2622.937552
390.693936	2625.279168
391.077802	2626.486524
391.461606	2625.349744
391.845348	2625.248921
392.229027	2624.858232
392.612645	2626.489045
392.996200	2626.655403
393.379694	2627.837553
393.763125	2629.987606
394.146494	2629.365023
394.529801	2631.809983
394.913047	2628.966772
395.296230	2630.826958
395.679351	2632.273769
396.062410	2634.209572
396.445408	2635.036321
396.828343	2634.675879
397.211217	2634.320477
397.594028	2635.089253
397.976778	2635.643780
398.359466	2638.890283
398.742092	2635.154788
399.124656	2635.933647
399.507158	2635.868112
399.889598	2640.064872
400.271977	2640.349697
400.654294	2640.193422
401.036549	2639.916158
401.418742	2640.495891
401.800874	2642.320788
402.182944	2639.603607
402.564952	2641.375572
402.946898	2644.458238
403.328783	2644.228865
403.710606	2644.649802
404.092367	2647.024185
404.474067	2647.699700
404.855705	2646.368835
405.237282	2645.141314
405.618797	2647.709782
406.000250	2648.972591
406.381642	2651.944351
406.762972	2648.181130
407.144240	2648.284473
407.525447	2652.244300
407.906593	2647.319092
408.287677	2654.001142
408.668700	2652.463590
409.049661	2658.724703
409.430560	2659.619508
409.811399	2661.366268
410.192176	2664.698470
410.572891	2668.686023
410.953545	2670.619306
411.334138	2672.426559
411.714669	2680.061387
412.095139	2682.697910
412.475547	2694.209385
412.855894	2703.729604
413.236180	2714.736963
413.616405	2723.541339
413.996568	2741.414750
414.376670	2757.296905
414.756711	2775.031684
415.136691	2803.640232
415.516609	2831.709377
415.896466	2861.300950
416.276262	2903.170253
416.655997	2943.212138
417.035670	2995.133502
417.415283	3068.759554
417.794834	3124.741568
418.174324	3168.783608
418.553753	3223.021382
418.933121	3320.655929
419.312428	3398.556880
419.691674	3442.004064
420.070859	3588.699121
420.449983	3624.519039
420.829045	3770.107562
421.208047	3817.882577
421.586988	3972.976196
421.965867	4067.069333
422.344686	4186.499308
422.723444	4299.698418
423.102141	4215.922003
423.480777	4527.135115
423.859352	4486.531141
424.237866	4795.553872
424.616319	4853.232234
424.994712	5106.000729
425.373044	5062.114964
425.751314	5354.181774
426.129524	5411.857615
426.507673	5589.901086
426.885762	5774.089724
427.263789	5847.960272
427.641756	5918.291930
428.019662	6099.604590
428.397508	6336.180899
428.775292	6281.219719
429.153016	6623.294775
429.530679	6638.859338
429.908282	6780.354444
430.285824	6710.332817
430.663305	7244.957264
431.040726	7011.261975
431.418086	7101.949812
431.795385	7424.011487
432.172624	7586.681960
432.549802	7636.259188
432.926920	7798.513765
433.303977	7803.159189
433.680974	8047.052732
434.057910	8205.743214
434.434786	8347.802930
434.811601	8330.806679
435.188355	8856.399900
435.565050	8717.271616
435.941683	8748.882171
436.318257	9245.100588
436.694770	9413.926310
437.071222	9565.720493
437.447614	9517.668215
437.823946	9479.131114
438.200218	9694.995842
438.576429	9584.249254
438.952580	9846.043935
439.328670	9964.942069
439.704700	9816.165016
440.080670	9860.791831
440.456580	10440.625346
440.832429	10243.405325
441.208218	9909.577597
441.583947	10261.465259
441.959616	10425.005331
442.335224	10274.405901
442.710773	10455.617737
443.086261	10671.283340
443.461689	10010.960242
443.837057	10645.346604
444.212365	10958.659356
444.587612	10631.160797
444.962800	10876.160874
445.337927	10684.907058
445.712995	10259.335371
446.088002	11353.195180
446.462949	11013.469302
446.837837	11010.537871
447.212664	11033.212981
447.587431	11524.120542
447.962139	12221.513765
448.336786	14454.180310
448.711374	15045.837852
449.085901	12935.038681
449.460369	12531.832072
449.834776	11998.301555
450.209124	12844.464269
450.583412	13246.831525
450.957640	14210.984966
451.331808	13401.708374
451.705917	12362.416536
452.079965	11703.351205
452.453954	12594.859098
452.827883	12220.747510
453.201752	12511.584278
453.575562	12018.330059
453.949311	12442.081890
454.323001	12392.335784
454.696632	12616.586472
455.070202	12905.948702
455.443713	13161.071416
455.817164	13610.069345
456.190556	13625.795225
456.563888	13982.940810
456.937160	14161.022090
457.310373	13494.377385
457.683526	13567.958067
458.056619	13134.270122
458.429653	13262.081016
458.802628	12718.642111
459.175542	13077.448756
459.548398	14025.805741
459.921194	14351.756667
460.293930	14418.050360
460.666607	15305.792511
461.039224	16333.749316
461.411782	17025.821601
461.784280	16934.700224
462.156719	16970.663816
462.529099	16663.055129
462.901419	15589.412868
463.273680	15380.399068
463.645882	15234.664351
464.018024	14973.741790
464.390106	15194.819071
464.762130	15916.515697
465.134094	16669.679205
465.505999	18636.934041
465.877845	21900.314901
466.249631	24741.468879
466.621358	24451.607574
466.993026	22998.623527
467.364634	22445.170370
467.736184	20991.757825
468.107674	20184.117088
468.479105	20317.319496
468.850477	19775.934861
469.221790	19365.030411
469.593043	18690.680303
469.964238	18138.081621
470.335373	17793.115463
470.706449	18222.233602
471.077467	17772.875230
471.448425	19590.243959
471.819324	23587.584052
472.190164	25662.568345
472.560945	22150.794712
472.931667	19751.366798
473.302330	19108.299569
473.672934	18601.998845
474.043479	18963.867991
474.413965	18788.864335
474.784393	18404.899812
475.154761	19090.211909
475.525070	19087.656044
475.895321	18743.952696
476.265513	19320.327980
476.635645	19909.996786
477.005719	19687.613846
477.375734	19880.173320
477.745691	20370.995182
478.115588	20872.295082
478.485427	21385.005634
478.855207	22448.497532
479.224928	24206.854514
479.594591	26414.826966
479.964194	26497.917785
480.333739	26688.518770
480.703226	26261.379284
481.072653	25927.324704
481.442022	26483.653840
481.811333	27392.631852
482.180584	27330.545001
482.549777	26377.058642
482.918912	26026.196855
483.287988	26138.380172
483.657005	25823.373591
484.025964	25543.234152
484.394864	25488.308260
484.763706	25179.890468
485.132489	24600.550985
485.501213	24764.229689
485.869879	24686.303533
486.238487	24496.181457
486.607036	24640.124043
486.975527	24332.049049
487.343959	24664.603886
487.712333	24615.475321
488.080648	24277.246666
488.448905	24750.336269
488.817104	24492.380427
489.185244	25159.889690
489.553326	25157.074205
489.921350	26122.223274
490.289315	28397.006138
490.657222	30182.386225
491.025070	30685.458091
491.392861	30466.054473
491.760593	29638.475972
492.128267	28726.637106
492.495883	27697.979581
492.863440	26824.791241
493.230939	25946.523939
493.598380	25789.063498
493.965763	25389.093311
494.333088	24939.291318
494.700354	24861.924730
495.067563	24746.714200
495.434713	24496.118442
495.801805	24636.872499
496.168839	24462.314985
496.535815	24295.233502
496.902733	24505.734443
497.269593	24173.439226
497.636395	24353.116031
498.003139	24344.067160
498.369825	24088.468057
498.736453	24289.854591
499.103023	24165.388503
499.469535	24178.979454
499.835989	24392.389140
500.202385	24408.747684
500.568723	23925.142234
500.935003	24164.302134
501.301226	23775.505664
501.667390	24610.144301
502.033497	24854.836867
502.399546	24578.770680
502.765537	24148.997191
503.131470	24539.490009
503.497345	24671.956409
503.863163	23881.362333
504.228923	24493.693647
504.594625	24695.397774
504.960269	24207.245203
505.325856	24713.059457
505.691385	24116.219609
506.056856	24710.246493
506.422270	24693.136817
506.787625	24259.862247
507.152924	24670.504557
507.518164	24703.274577
507.883347	24508.116388
508.248472	24197.737587
508.613540	24973.518232
508.978550	24766.160451
509.343503	24753.827268
509.708398	25018.374419
510.073236	25169.888818
510.438016	25387.480142
510.802738	25059.054010
511.167403	25319.848022
511.532010	25003.750032
511.896561	25785.834639
512.261053	25758.418324
512.625488	25587.283754
512.989866	25480.736447
513.354186	25336.945095
513.718449	25423.264772
514.082655	25812.351108
514.446803	25564.936319
514.810894	26006.758165
515.174927	25506.521949
515.538904	25536.549582
515.902822	26026.330445
516.266684	25779.450018
516.630488	25677.376735
516.994235	25658.331256
517.357925	25954.093231
517.721558	26144.190102
518.085133	26245.161893
518.448651	26147.577757
518.812112	25877.545831
519.175516	26070.332157
519.538863	26233.602527
519.902152	26024.813058
520.265385	26303.561139
520.628560	26094.020538
520.991678	26105.849606
521.354739	26178.169999
521.717743	26242.336326
522.080690	26032.193307
522.443580	26367.442641
522.806413	26360.329573
523.169189	26453.245600
523.531908	26496.022311
523.894569	26106.958660
524.257174	26183.390114
524.619722	26371.135286
524.982213	26065.795118
525.344647	26122.117409
525.707025	26261.142350
526.069345	26242.911017
526.431608	26191.077873
526.793815	26381.353705
527.155964	25835.492525
527.518057	26007.965522
527.880093	25931.513903
528.242072	26166.386302
528.603995	25881.518260
528.965860	25673.195098
529.327669	25715.724792
529.689421	25700.729880
530.051117	25545.467383
530.412755	25723.639404
530.774337	25515.527970
531.135862	25392.700257
531.497331	25602.326557
531.858743	25153.258052
532.220098	25622.322294
532.581396	25301.478057
532.942638	25248.117444
533.303824	25341.202349
533.664953	25357.497879
534.026025	25019.024728
534.387040	25252.220943
534.747999	25313.065149
535.108902	25472.423584
535.469748	24973.480423
535.830537	25159.226778
536.191270	25271.120229
536.551947	25137.925382
536.912567	24777.684528
537.273131	25143.412678
537.633638	24836.502191
537.994089	25054.232146
538.354483	24588.616053
538.714821	25098.881646
539.075103	25137.335567
539.435328	24919.474542
539.795497	24472.692200
540.155609	24874.628438
540.515665	25176.699417
540.875665	24399.461879
541.235609	24702.762900
541.595496	24674.116543
541.955328	25028.862539
542.315102	24948.458656
542.674821	24480.372398
543.034483	24372.161510
543.394090	24533.879205
543.753640	24335.471993
544.113134	24955.531395
544.472571	24549.952924
544.831953	24850.995508
545.191278	24469.221366
545.550548	24387.169025
545.909761	24592.129738
546.268918	24824.342928
546.628019	24790.254646
546.987064	24493.373534
547.346053	24249.560649
547.704986	24363.354614
548.063863	24525.125241
548.422684	24539.989083
548.781449	24063.925199
549.140158	24463.597959
549.498811	24040.420820
549.857408	23791.773468
550.215949	24223.596186
550.574434	23893.700558
550.932864	24115.791111
551.291237	24268.321303
551.649555	24139.391273
552.007817	24189.485218
552.366022	24048.070771
552.724173	24091.417132
553.082267	24038.716910
553.440305	24519.254818
553.798288	23770.484675
554.156215	24284.213540
554.514086	24381.737182
554.871902	23751.451799
555.229661	24036.221538
555.587365	23895.225507
555.945014	23758.486729
556.302606	24007.953268
556.660143	23968.775941
557.017625	24204.429719
557.375050	23745.815789
557.732421	24127.980621
558.089735	23941.475572
558.446994	24008.376725
558.804197	24035.820767
559.161345	23966.502381
559.518437	23739.141301
559.875474	23930.768162
560.232455	24099.893832
560.589381	23937.639254
560.946251	23915.584206
561.303065	24227.757658
561.659825	24312.126409
562.016528	23918.886162
562.373177	23670.037164
562.729770	24031.092164
563.086307	23882.670513
563.442789	24061.422267
563.799216	23890.166709
564.155587	23887.797366
564.511904	23875.635583
564.868164	23809.966992
565.224370	23789.041163
565.580520	23698.101268
565.936615	23824.772861
566.292654	23517.721221
566.648638	23802.566578
567.004567	23647.445233
567.360441	23587.868877
567.716260	23314.812258
568.072023	23631.303459
568.427732	23408.524788
568.783385	23183.086908
569.138982	23418.609616
569.494525	23446.134316
569.850013	23194.056459
570.205445	23294.594711
570.560823	23096.736984
570.916145	22874.659034
571.271412	23038.824209
571.626625	22800.387714
571.981782	22912.578593
572.336884	22728.410120
572.691931	22855.487526
573.046923	22582.040218
573.401860	22466.512095
573.756743	22490.311382
574.111570	22374.319473
574.466342	22315.824445
574.821059	22405.670409
575.175722	22100.277309
575.530330	22090.338674
575.884882	22115.088219
576.239380	22024.992718
576.593823	21904.599882
576.948211	21885.163713
577.302544	21739.781877
577.656823	21607.761620
578.011047	21704.478677
578.365216	21587.717992
578.719330	21457.731840
579.073389	21346.269408
579.427394	21495.157366
579.781344	21272.086308
580.135239	21150.397896
580.489080	21117.141404
580.842866	20885.132380
581.196597	21083.073286
581.550273	21062.218033
581.903895	20937.197417
582.257463	21263.720514
582.610975	20785.998090
582.964434	21096.235739
583.317837	20806.807973
583.671186	20885.752442
584.024481	20860.062722
584.377721	20629.336673
584.730906	20700.674041
585.084037	20713.896987
585.437113	20624.232504
585.790135	20835.068682
586.143103	20288.045516
586.496016	20301.936415
586.848874	20546.482788
587.201679	20483.286884
587.554428	20140.453134
587.907124	20489.273254
588.259765	20256.586195
588.612352	20330.000519
588.964884	19900.564787
589.317362	20086.215360
589.669786	20130.834613
590.022155	20158.155146
590.374470	20358.452791
590.726731	20150.333796
591.078937	19923.312994
591.431090	20003.923565
591.783188	19760.521533
592.135232	19732.021370
592.487222	19833.066258
592.839157	19851.819350
593.191038	19735.514890
593.542866	19625.164032
593.894639	19332.083950
594.246358	19557.872190
594.598022	19456.146747
594.949633	19212.379232
595.301190	19173.126287
595.652692	19344.346557
596.004141	19583.072918
596.355535	18910.633407
596.706876	18929.499925
597.058162	18817.523295
597.409395	19042.383962
597.760573	19115.326938
598.111698	18894.032887
598.462768	18841.478858
598.813785	18798.608886
599.164748	18607.836501
599.515657	18652.904416
599.866511	18448.334393
600.217312	18810.705134
600.568060	18332.617227
600.918753	18637.836407
601.269392	18537.230100
601.619978	18327.787802
601.970510	18526.626033
602.320988	18471.072518
602.671412	18680.300567
603.021783	18596.176312
603.372100	18314.353127
603.722363	18475.150811
604.072572	18400.826559
604.422728	18539.226397
604.772830	18299.378379
605.122878	18259.180218
605.472872	18238.587105
605.822813	18227.239468
606.172701	18201.484213
606.522534	18390.282986
606.872314	18424.852698
607.222041	18256.407584
607.571714	18476.837077
607.921333	18295.000137
608.270899	18380.941728
608.620411	18553.089570
608.969870	18320.578952
609.319276	18319.174990
609.668627	18357.596144
610.017926	18490.758223
610.367171	18602.462631
610.716362	18646.101379
611.065500	18461.970714
611.414585	18600.673021
611.763616	18582.121575
612.112594	18534.444863
612.461518	18488.404004
612.810389	18691.413790
613.159207	18545.578251
613.507971	18449.060319
613.856682	18736.930368
614.205340	18653.688316
614.553945	18802.087282
614.902496	18554.496052
615.250994	18784.768398
615.599439	18725.141630
615.947830	18702.834524
616.296169	18764.807949
616.644454	18728.849399
616.992686	18699.275470
617.340864	18905.635103
617.688990	18670.301438
618.037063	18838.595318
618.385082	18690.486218
618.733048	18969.551892
619.080961	18844.967337
619.428821	18870.236120
619.776628	18766.958001
620.124382	18691.703657
620.472083	18736.401047
620.819731	18747.705835
621.167326	18444.848435
621.514868	18483.017532
621.862357	18254.746524
622.209793	18263.908821
622.557176	18090.654445
622.904506	17919.915606
623.251783	17845.228391
623.599007	17585.422445
623.946179	17535.661216
624.293297	17471.361298
624.640363	17222.678658
624.987376	17250.851147
625.334336	17047.191052
625.681243	16884.601237
626.028097	16897.733443
626.374899	16825.034964
626.721647	16690.746187
627.068343	16526.679314
627.414987	16462.079448
627.761577	16432.475272
628.108115	16466.099769
628.454600	16196.929880
628.801032	16295.373532
629.147412	16217.573405
629.493739	16241.362610
629.840014	16053.738425
630.186236	16147.970193
630.532405	15907.822227
630.878521	16105.158194
631.224585	16008.161353
631.570597	15823.639999
631.916556	15858.023189
632.262462	15828.645865
632.608316	15753.283135
632.954117	15698.342120
633.299866	15686.061869
633.645562	15610.159737
633.991206	15359.082549
634.336797	15238.861112
634.682336	15199.613208
635.027823	15092.400469
635.373257	14967.016891
635.718639	14871.534916
636.063968	14813.410412
636.409245	14563.371702
