Dividing Wavelength (nm)	Counts (n)	Blue Motor Position (mm): 36.900000	Red Motor Position (mm): 0.000000	
326.493990	2234.534292
326.888308	2234.534292
327.282561	2234.534292
327.676750	2197.328056
328.070874	2191.644155
328.464933	2192.438137
328.858929	2197.736390
329.252859	2201.129086
329.646726	2210.780375
330.040528	2223.920143
330.434265	2237.175857
330.827938	2254.189751
331.221547	2270.954108
331.615091	2288.787190
332.008571	2306.443831
332.401986	2329.771771
332.795338	2345.565706
333.188625	2364.865763
333.581847	2384.150697
333.975006	2402.371948
334.368100	2420.971285
334.761129	2436.808070
335.154095	2455.871193
335.546996	2482.748105
335.939833	2522.958868
336.332606	2536.897659
336.725315	2551.617828
337.117960	2561.856411
337.510540	2575.439800
337.903056	2585.469176
338.295508	2595.334714
338.687896	2603.014912
339.080220	2611.098402
339.472480	2617.598970
339.864676	2626.642800
340.256807	2627.358644
340.648875	2631.711680
341.040879	2633.607154
341.432818	2634.844757
341.824694	2639.255767
342.216506	2641.604945
342.608253	2640.664769
342.999937	2641.521766
343.391557	2641.814152
343.783113	2642.666107
344.174605	2642.514873
344.566033	2637.337608
344.957397	2637.914820
345.348697	2639.364152
345.739934	2637.899697
346.131106	2634.575056
346.522215	2632.278810
346.913260	2626.748664
347.304241	2629.712863
347.695159	2625.775722
348.086012	2627.235136
348.476802	2624.853190
348.867528	2621.926801
349.258191	2617.626696
349.648789	2617.873713
350.039324	2611.645367
350.429796	2615.716099
350.820203	2616.290791
351.210548	2613.780296
351.600828	2613.225769
351.991045	2612.141921
352.381198	2609.659153
352.771288	2610.425408
353.161314	2609.613782
353.551276	2608.451796
353.941175	2607.672938
354.331010	2609.606221
354.720782	2609.525562
355.110490	2609.223093
355.500135	2609.155037
355.889717	2611.022785
356.279235	2607.773761
356.668689	2609.081941
357.058080	2608.661004
357.447408	2608.895418
357.836672	2609.336519
358.225873	2608.537496
358.615010	2608.008175
359.004084	2610.183433
359.393095	2610.869030
359.782043	2612.172168
360.170927	2613.984463
360.559748	2612.759462
360.948505	2612.923300
361.337199	2617.077211
361.725830	2613.704679
362.114398	2613.003958
362.502903	2614.972529
362.891344	2613.876078
363.279722	2614.987652
363.668037	2616.331120
364.056289	2617.692231
364.444478	2619.151645
364.832603	2614.985132
365.220665	2620.142232
365.608665	2618.539145
365.996601	2620.802623
366.384474	2619.930504
366.772284	2622.173817
367.160031	2619.524691
367.547715	2622.932511
367.935336	2622.461163
368.322893	2622.015021
368.710388	2620.255658
369.097820	2619.302880
369.485189	2618.148456
369.872495	2623.177007
370.259738	2625.611884
370.646918	2622.730865
371.034035	2625.248921
371.421090	2625.538787
371.808081	2625.868983
372.195010	2628.288737
372.581875	2625.523664
372.968678	2627.484673
373.355418	2628.255969
373.742096	2628.210599
374.128710	2628.555918
374.515262	2627.640948
374.901751	2628.155146
375.288177	2631.764612
375.674540	2631.106742
376.060841	2628.939046
376.447079	2631.326032
376.833254	2632.636732
377.219367	2633.508852
377.605417	2631.444499
377.991404	2634.108749
378.377329	2634.817031
378.763191	2633.728142
379.148991	2637.062865
379.534727	2634.759058
379.920402	2634.600261
380.306013	2635.598410
380.691563	2637.113277
381.077049	2638.585293
381.462474	2638.335756
381.847835	2638.103863
382.233134	2638.494553
382.618371	2637.645118
383.003545	2640.853813
383.388657	2641.277270
383.773706	2643.649132
384.158693	2644.107877
384.543618	2641.405819
384.928480	2644.327168
385.313280	2644.959832
385.698017	2646.376397
386.082692	2645.121149
386.467305	2645.058135
386.851856	2647.888743
387.236344	2647.079638
387.620770	2645.426139
388.005133	2644.536376
388.389435	2647.992087
388.773674	2642.640902
389.157851	2647.583753
389.541965	2650.157262
389.926018	2650.527787
390.310008	2653.796975
390.693936	2652.327479
391.077802	2654.777480
391.461606	2655.994918
391.845348	2655.533653
392.229027	2654.918632
392.612645	2653.454177
392.996200	2655.808396
393.379694	2655.531132
393.763125	2659.717810
394.146494	2661.371309
394.529801	2658.868376
394.913047	2661.273006
395.296230	2660.237049
395.679351	2661.973727
396.062410	2668.489418
396.445408	2667.718122
396.828343	2672.880263
397.211217	2679.945440
397.594028	2680.620955
397.976778	2690.052954
398.359466	2698.093594
398.742092	2709.905017
399.124656	2717.975905
399.507158	2738.430387
399.889598	2760.268665
400.271977	2787.611883
400.654294	2819.421564
401.036549	2850.832994
401.418742	2873.606406
401.800874	2932.991199
402.182944	2984.773931
402.564952	3048.327758
402.946898	3109.116511
403.328783	3145.420381
403.710606	3203.557487
404.092367	3329.319152
404.474067	3404.228178
404.855705	3455.242134
405.237282	3507.410515
405.618797	3644.615599
406.000250	3722.254409
406.381642	3856.686859
406.762972	3950.016261
407.144240	4048.792629
407.525447	4126.930514
407.906593	4226.062284
408.287677	4379.449472
408.668700	4425.213066
409.049661	4567.900405
409.430560	4667.453112
409.811399	4672.955531
410.192176	4903.452208
410.572891	4992.846989
410.953545	5207.960586
411.334138	5134.266478
411.714669	5322.193132
412.095139	5268.714051
412.475547	5513.489797
412.855894	5631.084793
413.236180	5835.433005
413.616405	5686.565211
413.996568	5926.269556
414.376670	6006.653275
414.756711	5997.556513
415.136691	6137.032637
415.516609	6360.320464
415.896466	6423.914620
416.276262	6637.936806
416.655997	6677.207395
417.035670	6899.376086
417.415283	7239.240596
417.794834	7328.872311
418.174324	7261.036025
418.553753	7236.125163
418.933121	7579.357164
419.312428	7712.947741
419.691674	7541.092285
420.070859	8025.806789
420.449983	7757.345182
420.829045	8133.667317
421.208047	7956.780790
421.586988	8260.447295
421.965867	8296.138664
422.344686	8434.349459
422.723444	8475.981828
423.102141	7891.444916
423.480777	8632.847412
423.859352	8175.375303
424.237866	8796.624418
424.616319	8686.129888
424.994712	9089.931352
425.373044	8682.596039
425.751314	9132.892065
426.129524	9007.866408
426.507673	9145.880598
426.885762	9308.626688
427.263789	9216.912976
427.641756	9145.154672
428.019662	9247.842976
428.397508	9488.288370
428.775292	9189.847021
429.153016	9564.729906
429.530679	9395.725224
429.908282	9445.352863
430.285824	9161.072115
430.663305	9843.306588
431.040726	9296.487590
431.418086	9289.440057
431.795385	9605.754816
432.172624	9690.854534
432.549802	9614.599521
432.926920	9702.842398
433.303977	9571.981606
433.680974	9785.335840
434.057910	9865.154949
434.434786	9919.579246
434.811601	9780.813925
435.188355	10337.909316
435.565050	10066.841432
435.941683	9997.691925
436.318257	10496.400672
436.694770	10615.681934
437.071222	10682.187356
437.447614	10537.992712
437.823946	10426.923490
438.200218	10574.843547
438.576429	10387.657942
438.952580	10620.276946
439.328670	10685.643067
439.704700	10457.762748
440.080670	10453.994486
440.456580	11012.609785
440.832429	10757.444221
441.208218	10362.363953
441.583947	10704.020593
441.959616	10844.300781
442.335224	10648.245267
442.710773	10794.542072
443.086261	10990.532052
443.461689	10275.676272
443.837057	10921.488408
444.212365	11208.115813
444.587612	10848.358910
444.962800	11079.054713
445.337927	10849.830927
445.712995	10439.400346
446.088002	11521.176508
446.462949	11178.493993
446.837837	11146.885959
447.212664	11145.028293
447.587431	11646.769295
447.962139	12369.819470
448.336786	14632.322084
448.711374	15183.897411
449.085901	13034.609031
449.460369	12652.734065
449.834776	12100.866351
450.209124	12971.193836
450.583412	13387.472156
450.957640	14337.084388
451.331808	13474.916011
451.705917	12461.326495
452.079965	11775.268306
452.453954	12674.128722
452.827883	12297.393213
453.201752	12596.804984
453.575562	12107.122423
453.949311	12525.417204
454.323001	12496.125580
454.696632	12713.870658
455.070202	13004.195750
455.443713	13242.226431
455.817164	13702.357749
456.190556	13689.500286
456.563888	14062.429724
456.937160	14228.830651
457.310373	13566.856574
457.683526	13650.101148
458.056619	13204.760576
458.429653	13360.633053
458.802628	12786.836319
459.175542	13152.186383
459.548398	14100.717287
459.921194	14442.008444
460.293930	14504.647301
460.666607	15384.245468
461.039224	16425.339519
461.411782	17123.378010
461.784280	16989.190056
462.156719	17059.090696
462.529099	16742.077736
462.901419	15672.327246
463.273680	15465.796214
463.645882	15323.933103
464.018024	15062.778649
464.390106	15281.642864
464.762130	15999.752709
465.134094	16768.989936
465.505999	18755.827134
465.877845	22022.625896
466.249631	24854.834347
466.621358	24529.690006
466.993026	23099.895267
467.364634	22547.629302
467.736184	21078.523645
468.107674	20272.314595
468.479105	20404.821324
468.850477	19870.635457
469.221790	19445.666188
469.593043	18778.527449
469.964238	18205.489409
470.335373	17866.769241
470.706449	18307.915573
471.077467	17867.580867
471.448425	19705.459531
471.819324	23744.144646
472.190164	25755.670895
472.560945	22188.462213
472.931667	19821.184258
473.302330	19196.842396
473.672934	18729.199759
474.043479	19044.476041
474.413965	18852.821454
474.784393	18477.207602
475.154761	19178.757256
475.525070	19158.975768
475.895321	18826.695674
476.265513	19420.145346
476.635645	20001.760910
477.005719	19780.431571
477.375734	19970.117587
477.745691	20460.231167
478.115588	20988.891929
478.485427	21501.713387
478.855207	22571.196696
479.224928	24328.936137
479.594591	26564.324904
479.964194	26579.024909
480.333739	26786.549048
480.703226	26360.432916
481.072653	26040.175974
481.442022	26618.502185
481.811333	27536.035034
482.180584	27455.976470
482.549777	26495.586251
482.918912	26153.692677
483.287988	26277.947037
483.657005	25935.844254
484.025964	25703.608379
484.394864	25603.307061
484.763706	25291.730986
485.132489	24723.895417
485.501213	24899.456120
485.869879	24807.596215
486.238487	24628.884790
486.607036	24768.466779
486.975527	24485.597554
487.343959	24804.253930
487.712333	24728.445058
488.080648	24407.411778
488.448905	24894.291458
488.817104	24636.005420
489.185244	25328.274310
489.553326	25290.773167
489.921350	26281.843848
490.289315	28582.260980
490.657222	30348.721617
491.025070	30856.854801
491.392861	30633.093106
491.760593	29771.680901
492.128267	28885.846827
492.495883	27826.682759
492.863440	26958.840563
493.230939	26082.859424
493.598380	25932.764109
493.965763	25539.188626
494.333088	25078.701907
494.700354	25024.333063
495.067563	24893.540326
495.434713	24633.721777
495.801805	24796.241016
496.168839	24598.307672
496.535815	24437.394041
496.902733	24664.193032
497.269593	24327.837165
497.636395	24510.624362
498.003139	24476.800741
498.369825	24210.532036
498.736453	24421.640435
499.103023	24293.408605
499.469535	24297.988493
499.835989	24514.158211
500.202385	24541.115781
500.568723	24045.628332
500.935003	24275.794813
501.301226	23920.673251
501.667390	24759.675006
502.033497	24980.689273
502.399546	24714.826381
502.765537	24287.558346
503.131470	24662.229503
503.497345	24792.155161
503.863163	24026.356000
504.228923	24609.967861
504.594625	24817.958307
504.960269	24350.194682
505.325856	24841.613921
505.691385	24242.654268
506.056856	24857.523802
506.422270	24833.795091
506.787625	24398.677979
507.152924	24807.467665
507.518164	24818.379243
507.883347	24643.133612
508.248472	24318.511030
508.613540	25111.494613
508.978550	24896.224741
509.343503	24897.162395
509.708398	25129.428518
510.073236	25302.408150
510.438016	25512.997311
510.802738	25175.660939
511.167403	25423.778970
511.532010	25157.331304
511.896561	25914.787355
512.261053	25875.320161
512.625488	25722.484979
512.989866	25607.609686
513.354186	25445.617248
513.718449	25560.825258
514.082655	25943.408506
514.446803	25669.958677
514.810894	26158.885065
515.174927	25627.605423
515.538904	25670.941702
515.902822	26158.864900
516.266684	25915.432622
516.630488	25825.667316
516.994235	25781.524453
517.357925	26096.982216
517.721558	26269.616530
518.085133	26375.218621
518.448651	26280.268488
518.812112	26024.326587
519.175516	26233.605047
519.538863	26382.296401
519.902152	26171.641705
520.265385	26449.875588
520.628560	26233.342907
520.991678	26247.332109
521.354739	26301.559801
521.717743	26368.113114
522.080690	26158.091083
522.443580	26490.114078
522.806413	26479.358777
523.169189	26587.509171
523.531908	26631.629349
523.894569	26235.384575
524.257174	26328.875293
524.619722	26506.449937
524.982213	26196.416455
525.344647	26245.907983
525.707025	26393.374336
526.069345	26361.607505
526.431608	26325.737175
526.793815	26517.293459
527.155964	25971.225592
527.518057	26132.207279
527.880093	26059.355044
528.242072	26308.108260
528.603995	26013.137746
528.965860	25814.980070
529.327669	25856.340217
529.689421	25841.735994
530.051117	25670.863564
530.412755	25840.536200
530.774337	25640.914069
531.135862	25515.328844
531.497331	25721.575051
531.858743	25291.370544
532.220098	25762.173984
532.581396	25452.647137
532.942638	25365.115063
533.303824	25477.467258
533.664953	25483.206612
534.026025	25137.660722
534.387040	25376.697114
534.747999	25439.530055
535.108902	25599.125424
535.469748	25102.707882
535.830537	25264.312150
536.191270	25404.181484
536.551947	25264.168478
536.912567	24885.928184
537.273131	25280.106085
537.633638	24974.811288
537.994089	25182.726117
538.354483	24710.354878
538.714821	25209.229983
539.075103	25253.458546
539.435328	25030.513517
539.795497	24606.481903
540.155609	24982.577185
540.515665	25291.662931
540.875665	24518.707852
541.235609	24822.966693
541.595496	24780.235352
541.955328	25133.385823
542.315102	25062.214813
542.674821	24585.152781
543.034483	24467.343536
543.394090	24636.837211
543.753640	24433.250213
544.113134	25063.036521
544.472571	24655.590303
544.831953	24972.051256
545.191278	24601.407981
545.550548	24496.998123
545.909761	24703.700555
546.268918	24939.127480
546.628019	24904.323354
546.987064	24595.966056
547.346053	24360.256825
547.704986	24457.634274
548.063863	24619.014211
548.422684	24635.823939
548.781449	24163.185519
549.140158	24569.517642
549.498811	24135.610407
549.857408	23896.233737
550.215949	24301.255161
550.574434	23990.372244
550.932864	24206.607497
551.291237	24363.397464
551.649555	24220.881524
552.007817	24275.560400
552.366022	24134.508915
552.724173	24167.893956
553.082267	24133.515808
553.440305	24603.263126
553.798288	23855.178580
554.156215	24362.497618
554.514086	24469.090296
554.871902	23859.035063
555.229661	24136.837928
555.587365	23990.152954
555.945014	23866.480847
556.302606	24107.969761
556.660143	24059.431011
557.017625	24310.740092
557.375050	23838.341127
557.732421	24224.339756
558.089735	24024.957080
558.446994	24094.126752
558.804197	24125.248315
559.161345	24050.881214
559.518437	23824.656914
559.875474	24004.658874
560.232455	24195.239695
560.589381	24005.646940
560.946251	24000.913297
561.303065	24321.674354
561.659825	24404.122426
562.016528	24009.173227
562.373177	23741.160283
562.729770	24105.088741
563.086307	23955.338746
563.442789	24130.932216
563.799216	23965.973060
564.155587	23969.378359
564.511904	23957.234219
564.868164	23904.327310
565.224370	23865.490261
565.580520	23797.893429
565.936615	23914.215533
566.292654	23603.788841
566.648638	23882.710842
567.004567	23712.017373
567.360441	23657.701461
567.716260	23381.128637
568.072023	23701.458676
568.427732	23482.120593
568.783385	23248.747937
569.138982	23478.828719
569.494525	23527.773282
569.850013	23278.014356
570.205445	23371.479869
570.560823	23187.586138
570.916145	22945.648562
571.271412	23127.271253
571.626625	22881.162122
571.981782	22992.551458
572.336884	22799.313948
572.691931	22933.340585
573.046923	22672.115555
573.401860	22541.963045
573.756743	22579.184404
574.111570	22470.640800
574.466342	22406.492117
574.821059	22485.696206
575.175722	22186.276873
575.530330	22158.621103
575.884882	22173.921005
576.239380	22087.989497
576.593823	21978.674596
576.948211	21954.555196
577.302544	21810.103453
577.656823	21671.857370
578.011047	21781.784771
578.365216	21643.982310
578.719330	21520.219463
579.073389	21410.284500
579.427394	21571.871125
579.781344	21320.284780
580.135239	21214.838965
580.489080	21172.011843
580.842866	20949.618820
581.196597	21138.677213
581.550273	21114.817432
581.903895	21010.223572
582.257463	21308.579221
582.610975	20853.650375
582.964434	21174.880259
583.317837	20859.682115
583.671186	20945.535486
584.024481	20915.565826
584.377721	20686.891526
584.730906	20767.043352
585.084037	20772.424783
585.437113	20674.974238
585.790135	20883.448635
586.143103	20345.345791
586.496016	20360.620487
586.848874	20596.675037
587.201679	20528.800941
587.554428	20214.409382
587.907124	20540.191428
588.259765	20308.323557
588.612352	20388.407327
588.964884	19947.205543
589.317362	20119.136615
589.669786	20181.654485
590.022155	20189.145639
590.374470	20419.400341
590.726731	20192.429951
591.078937	19970.886363
591.431090	20062.647966
591.783188	19825.832202
592.135232	19790.128230
592.487222	19885.431243
592.839157	19900.627802
593.191038	19783.705800
593.542866	19685.357930
593.894639	19377.960971
594.246358	19601.026987
594.598022	19504.362862
594.949633	19260.698691
595.301190	19232.614423
595.652692	19393.971676
596.004141	19624.004567
596.355535	18956.661662
596.706876	18981.754005
597.058162	18865.376448
597.409395	19096.011757
597.760573	19168.266615
598.111698	18934.011757
598.462768	18876.829949
598.813785	18852.314818
599.164748	18653.030445
599.515657	18704.596408
599.866511	18496.933637
600.217312	18849.393470
600.568060	18361.243419
600.918753	18675.287139
601.269392	18575.573116
601.619978	18365.029326
601.970510	18559.937977
602.320988	18509.264299
602.671412	18720.223985
603.021783	18638.194329
603.372100	18353.969034
603.722363	18507.270523
604.072572	18440.500440
604.422728	18587.129961
604.772830	18342.434874
605.122878	18292.056103
605.472872	18280.116130
605.822813	18269.882588
606.172701	18252.896420
606.522534	18440.941541
606.872314	18461.126321
607.222041	18295.257236
607.571714	18520.669910
607.921333	18342.525615
608.270899	18418.899096
608.620411	18587.946628
608.969870	18370.539307
609.319276	18360.633440
609.668627	18379.570534
610.017926	18516.911729
610.367171	18634.665522
610.716362	18684.136885
611.065500	18496.202669
611.414585	18638.945461
611.763616	18621.901320
612.112594	18563.330674
612.461518	18530.666518
612.810389	18726.936281
613.159207	18589.635415
613.507971	18492.893152
613.856682	18762.978010
614.205340	18692.737093
614.553945	18836.258743
614.902496	18584.324559
615.250994	18803.869330
615.599439	18747.836905
615.947830	18735.017251
616.296169	18806.233631
616.644454	18758.849305
616.992686	18727.100118
617.340864	18945.997101
617.688990	18703.237817
618.037063	18872.355925
618.385082	18731.198577
618.733048	18998.001644
619.080961	18879.902533
619.428821	18912.879241
619.776628	18793.431621
620.124382	18722.613492
620.472083	18769.947406
620.819731	18785.189334
621.167326	18482.014342
621.514868	18518.847532
621.862357	18293.369324
622.209793	18301.533473
622.557176	18129.768758
622.904506	17962.488150
623.251783	17884.340183
623.599007	17631.528838
623.946179	17575.675374
624.293297	17507.869334
624.640363	17248.900220
624.987376	17281.193852
625.334336	17074.536791
625.681243	16923.647495
626.028097	16943.086184
626.374899	16855.186105
626.721647	16715.825927
627.068343	16549.661935
627.414987	16482.576780
627.761577	16458.394365
628.108115	16496.656723
628.454600	16217.149948
628.801032	16321.133828
629.147412	16247.311171
629.493739	16276.459123
629.840014	16077.159626
630.186236	16178.542271
630.532405	15942.220540
630.878521	16136.504089
631.224585	16044.215686
631.570597	15856.959505
631.916556	15892.895371
632.262462	15864.092738
632.608316	15788.054494
632.954117	15728.450412
633.299866	15719.509925
633.645562	15639.481608
633.991206	15394.877262
634.336797	15260.354071
634.682336	15239.738272
635.027823	15112.413850
635.373257	14984.789478
635.718639	14905.958435
636.063968	14848.617831
