Dividing Wavelength (nm)	Counts (n)	Blue Motor Position (mm): 9.200000	Red Motor Position (mm): 0.000000	
326.493990	2161.072078
326.888308	2161.072078
327.282561	2161.072078
327.676750	2120.934411
328.070874	2116.878803
328.464933	2116.243617
328.858929	2120.198402
329.252859	2123.898609
329.646726	2131.664507
330.040528	2145.038688
330.434265	2158.518733
330.827938	2177.843997
331.221547	2193.353106
331.615091	2210.203163
332.008571	2226.899465
332.401986	2248.215984
332.795338	2264.957656
333.188625	2285.369288
333.581847	2304.094653
333.975006	2321.350523
334.368100	2341.920951
334.761129	2359.212109
335.154095	2373.642412
335.546996	2393.020607
335.939833	2413.079358
336.332606	2429.034610
336.725315	2443.767383
337.117960	2455.057047
337.510540	2465.431741
337.903056	2478.127887
338.295508	2488.605925
338.687896	2495.101452
339.080220	2502.345590
339.472480	2509.085613
339.864676	2512.138032
340.256807	2520.932324
340.648875	2524.584640
341.040879	2526.822913
341.432818	2529.461957
341.824694	2531.579241
342.216506	2534.629139
342.608253	2533.837678
342.999937	2532.731145
343.391557	2535.823893
343.783113	2532.257277
344.174605	2533.847761
344.566033	2531.659900
344.957397	2533.910775
345.348697	2530.203006
345.739934	2529.136802
346.131106	2525.366019
346.522215	2524.756040
346.913260	2521.433919
347.304241	2517.363187
347.695159	2517.597601
348.086012	2519.495596
348.476802	2514.288084
348.867528	2513.584843
349.258191	2510.345901
349.648789	2508.654594
350.039324	2504.364572
350.429796	2507.875736
350.820203	2503.802484
351.210548	2505.261898
351.600828	2500.929026
351.991045	2502.610251
352.381198	2500.445075
352.771288	2500.808038
353.161314	2503.971362
353.551276	2501.304592
353.941175	2499.177225
354.331010	2500.576145
354.720782	2499.232678
355.110490	2500.273676
355.500135	2500.613954
355.889717	2499.199910
356.279235	2499.187307
356.668689	2499.804849
357.058080	2499.847698
357.447408	2500.855929
357.836672	2501.118069
358.225873	2501.856598
358.615010	2499.419200
359.004084	2500.911382
359.393095	2501.891886
359.782043	2500.992040
360.170927	2502.847185
360.559748	2500.157729
360.948505	2504.508245
361.337199	2508.039573
361.725830	2506.013030
362.114398	2503.137051
362.502903	2503.540344
362.891344	2505.985303
363.279722	2505.050169
363.668037	2506.141579
364.056289	2506.524707
364.444478	2507.815242
364.832603	2507.487567
365.220665	2510.784482
365.608665	2507.890859
365.996601	2509.869512
366.384474	2509.806498
366.772284	2508.284069
367.160031	2510.182064
367.547715	2510.368587
367.935336	2513.045439
368.322893	2507.898421
368.710388	2506.295334
369.097820	2510.242558
369.485189	2506.222237
369.872495	2511.971673
370.259738	2512.780779
370.646918	2515.868485
371.034035	2512.100223
371.421090	2515.724813
371.808081	2513.053001
372.195010	2514.860255
372.581875	2512.032167
372.968678	2516.571726
373.355418	2515.354288
373.742096	2514.774555
374.128710	2513.489061
374.515262	2517.191788
374.901751	2513.605007
375.288177	2517.194309
375.674540	2516.332272
376.060841	2517.035512
376.447079	2514.535100
376.833254	2518.353774
377.219367	2516.584329
377.605417	2519.135153
377.991404	2518.996521
378.377329	2517.617766
378.763191	2519.238497
379.148991	2517.287570
379.534727	2520.186234
379.920402	2520.733199
380.306013	2522.827798
380.691563	2518.094155
381.077049	2520.443332
381.462474	2518.847807
381.847835	2520.375277
382.233134	2521.222191
382.618371	2516.687673
383.003545	2520.352592
383.388657	2520.471059
383.773706	2520.571882
384.158693	2521.441481
384.543618	2519.228414
384.928480	2523.210926
385.313280	2522.951307
385.698017	2522.580782
386.082692	2522.106913
386.467305	2521.532222
386.851856	2524.594723
387.236344	2522.989115
387.620770	2522.109434
388.005133	2519.389731
388.389435	2518.971316
388.773674	2521.736388
389.157851	2523.329393
389.541965	2524.531708
389.926018	2524.496420
390.310008	2523.336955
390.693936	2526.543129
391.077802	2525.933149
391.461606	2523.735206
391.845348	2524.927439
392.229027	2526.558252
392.612645	2523.445340
392.996200	2526.502799
393.379694	2527.233767
393.763125	2527.143026
394.146494	2525.965917
394.529801	2525.391225
394.913047	2526.265865
395.296230	2527.521113
395.679351	2528.259642
396.062410	2528.433561
396.445408	2524.602284
396.828343	2528.375588
397.211217	2527.750485
397.594028	2527.873993
397.976778	2528.370547
398.359466	2530.318953
398.742092	2528.610002
399.124656	2529.978675
399.507158	2529.862728
399.889598	2531.304498
400.271977	2529.330887
400.654294	2529.051103
401.036549	2528.620084
401.418742	2527.924405
401.800874	2528.824251
402.182944	2533.192411
402.564952	2529.719056
402.946898	2528.892306
403.328783	2530.200486
403.710606	2530.056813
404.092367	2532.423635
404.474067	2528.184024
404.855705	2531.995137
405.237282	2530.497914
405.618797	2531.554036
406.000250	2531.788449
406.381642	2532.272400
406.762972	2532.486649
407.144240	2526.515402
407.525447	2531.193593
407.906593	2524.783766
408.287677	2531.019673
408.668700	2531.236443
409.049661	2532.373223
409.430560	2532.330373
409.811399	2530.432379
410.192176	2533.880528
410.572891	2532.640404
410.953545	2533.336083
411.334138	2533.590662
411.714669	2532.048069
412.095139	2534.631660
412.475547	2532.229550
412.855894	2537.515200
413.236180	2533.474715
413.616405	2536.471681
413.996568	2534.568646
414.376670	2534.142668
414.756711	2534.253573
415.136691	2533.310878
415.516609	2535.715508
415.896466	2535.045035
416.276262	2534.979500
416.655997	2534.210724
417.035670	2535.178625
417.415283	2536.509490
417.794834	2536.728780
418.174324	2535.057638
418.553753	2534.137627
418.933121	2535.375230
419.312428	2536.416228
419.691674	2537.457227
420.070859	2538.687268
420.449983	2534.314067
420.829045	2536.517052
421.208047	2534.598892
421.586988	2537.532844
421.965867	2538.057124
422.344686	2537.875642
422.723444	2538.546116
423.102141	2537.026208
423.480777	2536.600231
423.859352	2535.992772
424.237866	2539.133410
424.616319	2536.774150
424.994712	2539.120807
425.373044	2538.188194
425.751314	2535.355066
426.129524	2537.351362
426.507673	2536.229706
426.885762	2534.084695
427.263789	2541.737166
427.641756	2539.342618
428.019662	2538.430169
428.397508	2538.851106
428.775292	2538.503266
429.153016	2537.043852
429.530679	2539.839172
429.908282	2539.146013
430.285824	2539.433359
430.663305	2538.105015
431.040726	2540.681045
431.418086	2538.848585
431.795385	2541.285983
432.172624	2539.821528
432.549802	2540.227341
432.926920	2539.201466
433.303977	2539.559388
433.680974	2541.535520
434.057910	2541.767413
434.434786	2541.921168
434.811601	2541.560726
435.188355	2538.800694
435.565050	2540.101312
435.941683	2542.105171
436.318257	2541.028884
436.694770	2541.031405
437.071222	2540.038297
437.447614	2540.323123
437.823946	2539.808925
438.200218	2542.639533
438.576429	2542.238761
438.952580	2543.393185
439.328670	2541.827907
439.704700	2541.512835
440.080670	2546.221273
440.456580	2543.965356
440.832429	2544.691283
441.208218	2539.382948
441.583947	2544.658515
441.959616	2541.238092
442.335224	2543.680531
442.710773	2543.874616
443.086261	2543.957795
443.461689	2542.805891
443.837057	2543.927548
444.212365	2543.241951
444.587612	2541.482588
444.962800	2541.142310
445.337927	2542.052238
445.712995	2540.751621
446.088002	2543.965356
446.462949	2545.238248
446.837837	2546.574153
447.212664	2541.452341
447.587431	2542.148020
447.962139	2543.559543
448.336786	2545.525593
448.711374	2545.102137
449.085901	2545.644061
449.460369	2543.355377
449.834776	2542.795809
450.209124	2540.968390
450.583412	2544.650953
450.957640	2545.749925
451.331808	2544.151879
451.705917	2545.034081
452.079965	2545.815460
452.453954	2544.305634
452.827883	2546.233876
453.201752	2546.788402
453.575562	2548.288146
453.949311	2546.493495
454.323001	2546.180943
454.696632	2547.315203
455.070202	2546.599359
455.443713	2546.213711
455.817164	2546.826211
456.190556	2546.725388
456.563888	2550.037426
456.937160	2548.484751
457.310373	2548.441901
457.683526	2545.739842
458.056619	2548.089020
458.429653	2546.707744
458.802628	2548.323434
459.175542	2545.066848
459.548398	2548.608259
459.921194	2544.149358
460.293930	2546.972405
460.666607	2546.793444
461.039224	2545.540717
461.411782	2548.051212
461.784280	2547.819318
462.156719	2550.191181
462.529099	2545.875954
462.901419	2549.215718
463.273680	2546.745553
463.645882	2542.382434
464.018024	2545.112219
464.390106	2545.873433
464.762130	2548.315872
465.134094	2548.383928
465.505999	2544.988711
465.877845	2548.542724
466.249631	2549.465255
466.621358	2549.619010
466.993026	2549.828218
467.364634	2552.671429
467.736184	2549.074566
468.107674	2548.867878
468.479105	2547.758825
468.850477	2546.896787
469.221790	2549.684545
469.593043	2547.778989
469.964238	2548.346119
470.335373	2549.278732
470.706449	2551.259906
471.077467	2550.954916
471.448425	2546.208670
471.819324	2549.845862
472.190164	2550.506253
472.560945	2548.590615
472.931667	2550.591953
473.302330	2549.447611
473.672934	2550.554144
474.043479	2548.333516
474.413965	2547.463917
474.784393	2550.780996
475.154761	2551.252344
475.525070	2549.669422
475.895321	2548.711603
476.265513	2550.760832
476.635645	2551.174206
477.005719	2549.487940
477.375734	2550.032385
477.745691	2548.086500
478.115588	2551.632951
478.485427	2551.048177
478.855207	2553.407438
479.224928	2549.757642
479.594591	2553.309135
479.964194	2552.898281
480.333739	2551.206974
480.703226	2553.472973
481.072653	2552.860472
481.442022	2550.259237
481.811333	2551.920297
482.180584	2547.189174
482.549777	2548.754452
482.918912	2548.928372
483.287988	2552.089176
483.657005	2552.731923
484.025964	2552.510112
484.394864	2554.768549
484.763706	2554.798796
485.132489	2554.423230
485.501213	2555.045813
485.869879	2551.375852
486.238487	2552.973898
486.607036	2552.338713
486.975527	2554.657644
487.343959	2551.403579
487.712333	2554.536656
488.080648	2553.742674
488.448905	2554.944989
488.817104	2554.133364
489.185244	2554.234187
489.553326	2557.458005
489.921350	2553.334341
490.289315	2556.227963
490.657222	2554.738302
491.025070	2556.190154
491.392861	2554.539177
491.760593	2554.907181
492.128267	2558.554456
492.495883	2556.658982
492.863440	2554.045143
493.230939	2553.664536
493.598380	2555.733930
493.965763	2553.571275
494.333088	2555.917932
494.700354	2556.853066
495.067563	2557.190823
495.434713	2553.846018
495.801805	2556.807696
496.168839	2555.161759
496.535815	2555.262582
496.902733	2553.722510
497.269593	2555.076059
497.636395	2554.118240
498.003139	2553.472972
498.369825	2554.350133
498.736453	2555.504558
499.103023	2558.095711
499.469535	2556.963972
499.835989	2552.656306
500.202385	2552.810061
500.568723	2549.485420
500.935003	2552.941131
501.301226	2549.240924
501.667390	2555.842315
502.033497	2557.170659
502.399546	2559.131668
502.765537	2553.127653
503.131470	2556.903478
503.497345	2557.896585
503.863163	2552.719320
504.228923	2553.452808
504.594625	2557.987326
504.960269	2555.491955
505.325856	2555.996070
505.691385	2555.159238
506.056856	2555.948179
506.422270	2555.002963
506.787625	2556.081770
507.152924	2556.384239
507.518164	2555.897768
507.883347	2555.875082
508.248472	2558.035217
508.613540	2556.956410
508.978550	2556.800134
509.343503	2558.839281
509.708398	2557.034548
510.073236	2559.933211
510.438016	2555.779300
510.802738	2557.521019
511.167403	2557.498334
511.532010	2554.660164
511.896561	2557.004301
512.261053	2556.996739
512.625488	2557.054712
512.989866	2556.535473
513.354186	2559.018242
513.718449	2559.837429
514.082655	2560.419683
514.446803	2558.985474
514.810894	2559.696277
515.174927	2560.621329
515.538904	2561.720300
515.902822	2556.974054
516.266684	2557.379867
516.630488	2557.861297
516.994235	2561.080074
517.357925	2556.648899
517.721558	2559.900444
518.085133	2559.718962
518.448651	2556.575803
518.812112	2557.949517
519.175516	2557.689898
519.538863	2554.140925
519.902152	2556.684187
520.265385	2559.008159
520.628560	2556.868190
520.991678	2556.797613
521.354739	2558.814075
521.717743	2559.953376
522.080690	2560.701987
522.443580	2560.666699
522.806413	2563.315825
523.169189	2561.138047
523.531908	2563.434292
523.894569	2559.781977
524.257174	2560.986812
524.619722	2559.471946
524.982213	2563.076371
525.344647	2562.085784
525.707025	2561.513613
526.069345	2561.420352
526.431608	2561.251473
526.793815	2564.480332
527.155964	2563.202399
527.518057	2564.908830
527.880093	2564.122410
528.242072	2563.590568
528.603995	2563.588048
528.965860	2565.954869
529.327669	2564.543346
529.689421	2565.654921
530.051117	2565.632236
530.412755	2565.838923
530.774337	2566.491752
531.135862	2565.884293
531.497331	2566.910168
531.858743	2568.387226
532.220098	2569.329922
532.581396	2571.275807
532.942638	2567.981413
533.303824	2570.822103
533.664953	2571.235478
534.026025	2571.318657
534.387040	2570.048286
534.747999	2575.744790
535.108902	2572.704974
535.469748	2571.656414
535.830537	2575.918710
536.191270	2574.154306
536.551947	2573.322516
536.912567	2575.064234
537.273131	2575.787640
537.633638	2572.374779
537.994089	2578.530028
538.354483	2579.926427
538.714821	2581.726119
539.075103	2581.852148
539.435328	2582.973805
539.795497	2581.645461
540.155609	2581.612693
540.515665	2580.002045
540.875665	2582.056315
541.235609	2584.619742
541.595496	2583.707293
541.955328	2581.423650
542.315102	2584.884402
542.674821	2585.081007
543.034483	2584.836511
543.394090	2584.155955
543.753640	2588.952613
544.113134	2588.629979
544.472571	2586.074114
544.831953	2591.765577
545.191278	2590.835484
545.550548	2591.188365
545.909761	2592.037799
546.268918	2591.586616
546.628019	2592.166349
546.987064	2592.615012
547.346053	2592.032758
547.704986	2592.151225
548.063863	2593.766915
548.422684	2594.109714
548.781449	2593.232553
549.140158	2592.799014
549.498811	2595.952255
549.857408	2595.702718
550.215949	2595.395208
550.574434	2594.795311
550.932864	2596.708428
551.291237	2597.310846
551.649555	2599.808738
552.007817	2596.993254
552.366022	2599.488625
552.724173	2595.937132
553.082267	2598.258583
553.440305	2598.455188
553.798288	2598.976948
554.156215	2601.270673
554.514086	2595.669951
554.871902	2593.620722
555.229661	2596.332862
555.587365	2593.240115
555.945014	2599.826382
556.302606	2600.569952
556.660143	2601.898296
557.017625	2602.823348
557.375050	2604.212186
557.732421	2602.415015
558.089735	2600.564911
558.446994	2602.225971
558.804197	2603.622371
559.161345	2602.954418
559.518437	2598.944180
559.875474	2597.779674
560.232455	2598.553491
560.589381	2603.080447
560.946251	2600.706063
561.303065	2601.633636
561.659825	2603.715632
562.016528	2602.679675
562.373177	2603.647577
562.729770	2600.607761
563.086307	2602.225971
563.442789	2602.641867
563.799216	2603.292175
564.155587	2600.683378
564.511904	2603.450972
564.868164	2602.079778
565.224370	2602.120107
565.580520	2600.592637
565.936615	2605.661518
566.292654	2598.830754
566.648638	2599.115579
567.004567	2600.206989
567.360441	2601.311002
567.716260	2602.152875
568.072023	2601.184973
568.427732	2601.379057
568.783385	2599.851588
569.138982	2597.973758
569.494525	2599.123141
569.850013	2598.440065
570.205445	2599.428131
570.560823	2597.719180
570.916145	2600.514500
571.271412	2600.703543
571.626625	2600.774119
571.981782	2599.889397
572.336884	2597.204982
572.691931	2595.717842
573.046923	2592.977975
573.401860	2593.159456
573.756743	2598.223295
574.111570	2597.144488
574.466342	2598.437544
574.821059	2597.560383
575.175722	2592.070567
575.530330	2596.710949
575.884882	2597.222626
576.239380	2596.247163
576.593823	2597.199941
576.948211	2596.970568
577.302544	2594.255907
577.656823	2594.631473
578.011047	2596.811772
578.365216	2595.924529
578.719330	2596.947883
579.073389	2596.249683
579.427394	2595.992585
579.781344	2593.018304
580.135239	2595.790938
580.489080	2594.434868
580.842866	2592.655341
581.196597	2600.214551
581.550273	2592.383118
581.903895	2592.617532
582.257463	2596.516865
582.610975	2593.529981
582.964434	2593.903026
583.317837	2594.185331
583.671186	2592.136102
584.024481	2592.234404
584.377721	2593.673654
584.730906	2594.147522
585.084037	2592.746082
585.437113	2593.908067
585.790135	2592.834302
586.143103	2594.147522
586.496016	2593.076277
586.848874	2594.084508
587.201679	2594.795311
587.554428	2590.510330
587.907124	2591.707604
588.259765	2594.011411
588.612352	2594.142481
588.964884	2594.553335
589.317362	2594.051740
589.669786	2592.350351
590.022155	2590.928746
590.374470	2591.785742
590.726731	2591.435382
591.078937	2589.819692
591.431090	2594.155084
591.783188	2592.544435
592.135232	2593.787080
592.487222	2594.323963
592.839157	2593.787080
593.191038	2595.122986
593.542866	2591.911771
593.894639	2594.313880
594.246358	2596.526947
594.598022	2591.929415
594.949633	2591.942017
595.301190	2594.848243
595.652692	2592.229363
596.004141	2593.056112
596.355535	2590.646441
596.706876	2593.918150
597.058162	2593.598037
597.409395	2593.620722
597.760573	2596.108531
598.111698	2595.183479
598.462768	2595.914447
598.813785	2596.189190
599.164748	2595.261617
599.515657	2595.231370
599.866511	2597.131885
600.217312	2595.395208
600.568060	2592.642738
600.918753	2597.721700
601.269392	2597.169694
601.619978	2595.117944
601.970510	2598.011567
602.320988	2599.382761
602.671412	2599.332349
603.021783	2597.872935
603.372100	2598.596341
603.722363	2600.191866
604.072572	2601.621033
604.422728	2599.213882
604.772830	2600.259921
605.122878	2599.390322
605.472872	2604.035746
605.822813	2603.304778
606.172701	2602.450303
606.522534	2603.559357
606.872314	2602.967021
607.222041	2602.311671
607.571714	2603.942484
607.921333	2600.789242
608.270899	2606.153030
608.620411	2604.310488
608.969870	2608.968515
609.319276	2612.714092
609.668627	2614.717951
610.017926	2619.645678
610.367171	2626.138685
610.716362	2625.178345
611.065500	2623.209774
611.414585	2620.757253
611.763616	2624.371760
612.112594	2622.239352
612.461518	2618.029989
612.810389	2620.016203
613.159207	2618.594598
613.507971	2620.457304
613.856682	2622.872017
614.205340	2623.696246
614.553945	2624.505351
614.902496	2623.615587
615.250994	2626.310084
615.599439	2625.195989
615.947830	2625.876545
616.296169	2627.479632
616.644454	2629.342338
616.992686	2627.008284
617.340864	2632.861063
617.688990	2635.021198
618.037063	2637.113277
618.385082	2635.847947
618.733048	2638.575211
619.080961	2639.868267
619.428821	2643.802888
619.776628	2646.114257
620.124382	2645.824390
620.472083	2645.910090
620.819731	2652.115750
621.167326	2647.031747
621.514868	2648.740698
621.862357	2647.760193
622.209793	2648.556696
622.557176	2653.423930
622.904506	2649.461583
623.251783	2648.269350
623.599007	2650.646254
623.946179	2649.161634
624.293297	2652.430822
624.640363	2653.580206
624.987376	2649.456542
625.334336	2648.685245
625.681243	2652.934938
626.028097	2648.886891
626.374899	2655.836122
626.721647	2657.567758
627.068343	2657.272851
627.414987	2658.863335
627.761577	2663.602019
628.108115	2663.533964
628.454600	2663.717966
628.801032	2666.173008
629.147412	2667.786177
629.493739	2671.262053
629.840014	2672.812207
630.186236	2674.634585
630.532405	2676.502332
630.878521	2678.566685
631.224585	2682.312262
631.570597	2683.973322
631.916556	2687.350895
632.262462	2690.776359
632.608316	2696.283820
632.954117	2697.203830
633.299866	2703.122145
633.645562	2702.779347
633.991206	2703.653987
634.336797	2701.398070
634.682336	2706.240099
635.027823	2701.415714
635.373257	2705.274718
635.718639	2704.140458
636.063968	2706.998792
636.409245	2705.572146
636.754470	2710.484750
637.099642	2709.748742
637.444762	2708.944678
637.789829	2715.848538
638.134845	2716.090513
638.479808	2717.527242
638.824719	2720.105792
639.169577	2722.223077
639.514383	2724.020248
639.859137	2725.721638
640.203839	2730.561145
640.548489	2731.854201
640.893086	2737.291086
641.237632	2734.067268
641.582125	2747.295256
641.926566	2745.926582
642.270955	2745.687127
642.615292	2748.099320
642.959576	2754.007552
643.303809	2755.865217
643.647990	2763.094232
643.992118	2767.936260
644.336195	2767.555653
