Dividing Wavelength (nm)	Counts (n)	Blue Motor Position (mm): 14.300000	Red Motor Position (mm): 0.000000	
326.493990	2171.416525
326.888308	2171.416525
327.282561	2171.416525
327.676750	2129.121245
328.070874	2128.269290
328.464933	2127.863477
328.858929	2131.488066
329.252859	2133.290279
329.646726	2143.516259
330.040528	2154.846253
330.434265	2170.544406
330.827938	2185.398166
331.221547	2204.514221
331.615091	2223.927704
332.008571	2240.707185
332.401986	2260.576893
332.795338	2277.268153
333.188625	2297.379837
333.581847	2313.854327
333.975006	2330.908551
334.368100	2349.984277
334.761129	2373.841538
335.154095	2386.532642
335.546996	2407.718091
335.939833	2431.252718
336.332606	2448.427929
336.725315	2465.056175
337.117960	2475.763586
337.510540	2486.481079
337.903056	2495.799652
338.295508	2505.070334
338.687896	2514.051149
339.080220	2522.300998
339.472480	2527.372398
339.864676	2534.997144
340.256807	2537.376568
340.648875	2544.141797
341.040879	2545.001313
341.432818	2551.136398
341.824694	2554.241748
342.216506	2549.369473
342.608253	2557.747871
342.999937	2553.924156
343.391557	2553.145298
343.783113	2552.366439
344.174605	2550.065152
344.566033	2548.986346
344.957397	2552.255534
345.348697	2548.081458
345.739934	2548.910728
346.131106	2547.111036
346.522215	2544.015768
346.913260	2541.152393
347.304241	2540.812115
347.695159	2536.159130
348.086012	2536.512010
348.476802	2535.629808
348.867528	2530.848274
349.258191	2526.170083
349.648789	2527.042203
350.039324	2526.457429
350.429796	2527.314425
350.820203	2524.360309
351.210548	2524.088087
351.600828	2522.356450
351.991045	2522.789990
352.381198	2522.237983
352.771288	2522.827798
353.161314	2519.442663
353.551276	2519.210770
353.941175	2518.472241
354.331010	2519.432581
354.720782	2519.813188
355.110490	2519.117509
355.500135	2518.782272
355.889717	2517.453928
356.279235	2517.700945
356.668689	2519.167921
357.058080	2519.190606
357.447408	2519.339320
357.836672	2521.285205
358.225873	2522.797551
358.615010	2519.916532
359.004084	2521.398631
359.393095	2524.171266
359.782043	2520.113137
360.170927	2522.006090
360.559748	2524.325021
360.948505	2521.701100
361.337199	2525.484486
361.725830	2523.949455
362.114398	2523.946934
362.502903	2523.147912
362.891344	2526.142357
363.279722	2523.276461
363.668037	2526.706966
364.056289	2525.955834
364.444478	2526.540608
364.832603	2526.676719
365.220665	2529.865249
365.608665	2528.332738
365.996601	2529.716535
366.384474	2530.003881
366.772284	2528.851977
367.160031	2530.424817
367.547715	2529.497245
367.935336	2528.720907
368.322893	2529.807276
368.710388	2525.973478
369.097820	2528.942718
369.485189	2528.390712
369.872495	2533.351207
370.259738	2531.140661
370.646918	2533.792308
371.034035	2531.448171
371.421090	2535.039993
371.808081	2532.302647
372.195010	2533.961187
372.581875	2531.460774
372.968678	2535.566794
373.355418	2534.238450
373.742096	2535.788605
374.128710	2536.171733
374.515262	2535.841537
374.901751	2537.361445
375.288177	2535.110570
375.674540	2539.216589
376.060841	2536.136444
376.447079	2535.735673
376.833254	2536.408667
377.219367	2534.576207
377.605417	2538.135262
377.991404	2536.774150
378.377329	2538.551157
378.763191	2539.607279
379.148991	2537.149716
379.534727	2539.554347
379.920402	2541.374203
380.306013	2541.217928
380.691563	2539.140972
381.077049	2540.171888
381.462474	2538.924203
381.847835	2539.934954
382.233134	2539.292207
382.618371	2540.393699
383.003545	2541.109543
383.388657	2541.008720
383.773706	2543.834286
384.158693	2540.960829
384.543618	2541.437218
384.928480	2541.981662
385.313280	2542.183308
385.698017	2541.606096
386.082692	2540.444110
386.467305	2543.052907
386.851856	2545.195398
387.236344	2544.325799
387.620770	2539.806404
388.005133	2540.030736
388.389435	2542.387475
388.773674	2539.400592
389.157851	2543.539379
389.541965	2544.237579
389.926018	2546.095244
390.310008	2544.187167
390.693936	2545.593649
391.077802	2546.435522
391.461606	2546.498536
391.845348	2547.519370
392.229027	2545.381921
392.612645	2544.550130
392.996200	2546.906870
393.379694	2545.402085
393.763125	2545.830583
394.146494	2543.713299
394.529801	2545.762528
394.913047	2548.078938
395.296230	2547.678166
395.679351	2545.414688
396.062410	2544.300593
396.445408	2548.618341
396.828343	2549.838301
397.211217	2547.544576
397.594028	2547.693290
397.976778	2549.266130
398.359466	2548.968702
398.742092	2550.922149
399.124656	2546.851417
399.507158	2548.315872
399.889598	2548.199926
400.271977	2547.723537
400.654294	2551.201933
401.036549	2550.579350
401.418742	2550.609597
401.800874	2547.748742
402.182944	2555.103786
402.564952	2550.372663
402.946898	2552.973898
403.328783	2550.758311
403.710606	2549.727395
404.092367	2552.416851
404.474067	2550.886861
404.855705	2552.000956
405.237282	2554.723179
405.618797	2551.703528
406.000250	2553.896429
406.381642	2552.333672
406.762972	2548.310831
407.144240	2549.712272
407.525447	2549.069525
407.906593	2550.100441
408.287677	2550.859134
408.668700	2551.690925
409.049661	2553.478014
409.430560	2555.965823
409.811399	2554.909701
410.192176	2556.787531
410.572891	2554.445915
410.953545	2553.833415
411.334138	2556.633776
411.714669	2553.722510
412.095139	2554.599670
412.475547	2555.615463
412.855894	2554.410627
413.236180	2551.161603
413.616405	2556.366595
413.996568	2556.348951
414.376670	2554.660164
414.756711	2553.525905
415.136691	2555.693601
415.516609	2556.258210
415.896466	2555.922973
416.276262	2554.887016
416.655997	2555.323076
417.035670	2558.491441
417.415283	2555.617983
417.794834	2555.335679
418.174324	2557.299208
418.553753	2555.595298
418.933121	2557.369784
419.312428	2557.213509
419.691674	2557.541184
420.070859	2559.144271
420.449983	2557.236194
420.829045	2555.718807
421.208047	2558.015052
421.586988	2559.005639
421.965867	2558.456153
422.344686	2559.098900
422.723444	2558.526729
423.102141	2560.943963
423.480777	2558.123437
423.859352	2559.918088
424.237866	2559.189641
424.616319	2561.319528
424.994712	2562.400856
425.373044	2558.257027
425.751314	2560.825495
426.129524	2557.253838
426.507673	2557.344579
426.885762	2556.638817
427.263789	2560.253324
427.641756	2560.245763
428.019662	2560.805331
428.397508	2562.529405
428.775292	2560.061761
429.153016	2561.276679
429.530679	2559.479507
429.908282	2562.952862
430.285824	2562.988150
430.663305	2557.543704
431.040726	2559.045968
431.418086	2560.243242
431.795385	2559.784497
432.172624	2561.243911
432.549802	2563.053685
432.926920	2562.907492
433.303977	2561.075032
433.680974	2563.880435
434.057910	2560.704508
434.434786	2559.484548
434.811601	2562.736093
435.188355	2562.844477
435.565050	2561.753068
435.941683	2560.228119
436.318257	2561.538819
436.694770	2564.578634
437.071222	2560.112172
437.447614	2564.392112
437.823946	2561.838767
438.200218	2562.995712
438.576429	2563.449416
438.952580	2563.018397
439.328670	2565.755744
439.704700	2564.946639
440.080670	2562.799107
440.456580	2564.208110
440.832429	2562.748696
441.208218	2563.555280
441.583947	2561.851370
441.959616	2559.560166
442.335224	2564.520661
442.710773	2562.819272
443.086261	2564.273645
443.461689	2564.094684
443.837057	2563.547718
444.212365	2564.583676
444.587612	2561.314487
444.962800	2559.114024
445.337927	2562.806669
445.712995	2560.502862
446.088002	2563.373799
446.462949	2565.503686
446.837837	2566.148954
447.212664	2565.841443
447.587431	2565.314643
447.962139	2566.945456
448.336786	2565.561659
448.711374	2567.318502
449.085901	2566.789180
449.460369	2567.348748
449.834776	2567.421845
450.209124	2567.537792
450.583412	2567.704150
450.957640	2570.565005
451.331808	2567.530230
451.705917	2567.694067
452.079965	2566.947977
452.453954	2567.023594
452.827883	2569.029973
453.201752	2567.739438
453.575562	2567.421845
453.949311	2566.648028
454.323001	2566.143913
454.696632	2567.031156
455.070202	2570.479305
455.443713	2570.910324
455.817164	2568.934191
456.190556	2569.884449
456.563888	2568.667010
456.937160	2570.562484
457.310373	2566.779098
457.683526	2567.633574
458.056619	2568.546022
458.429653	2566.524520
458.802628	2568.677092
459.175542	2568.581311
459.548398	2570.809501
459.921194	2573.680438
460.293930	2572.215982
460.666607	2573.672876
461.039224	2573.070458
461.411782	2574.048442
461.784280	2570.292782
462.156719	2572.846127
462.529099	2571.641291
462.901419	2571.903431
463.273680	2568.921588
463.645882	2569.413101
464.018024	2568.556105
464.390106	2568.876218
464.762130	2574.154306
465.134094	2574.623133
465.505999	2574.194635
465.877845	2578.424163
466.249631	2577.526838
466.621358	2576.385017
466.993026	2573.806467
467.364634	2580.874164
467.736184	2576.800912
468.107674	2578.129256
468.479105	2575.772517
468.850477	2574.643298
469.221790	2575.767475
469.593043	2576.097671
469.964238	2576.450552
470.335373	2575.502815
470.706449	2576.813515
471.077467	2577.131107
471.448425	2576.944585
471.819324	2575.495253
472.190164	2582.441963
472.560945	2576.624472
472.931667	2578.759400
473.302330	2579.223186
473.672934	2574.870150
474.043479	2575.298648
474.413965	2579.271077
474.784393	2579.807960
475.154761	2577.274780
475.525070	2578.837538
475.895321	2578.300655
476.265513	2576.727815
476.635645	2577.854513
477.005719	2576.947105
477.375734	2579.344174
477.745691	2579.344174
478.115588	2581.073290
478.485427	2583.573702
478.855207	2580.380131
479.224928	2582.391552
479.594591	2583.621593
479.964194	2584.017324
480.333739	2584.783579
480.703226	2584.229052
481.072653	2585.166707
481.442022	2585.459094
481.811333	2584.145873
482.180584	2579.298804
482.549777	2582.741912
482.918912	2580.458269
483.287988	2585.597725
483.657005	2582.835173
484.025964	2583.394741
484.394864	2583.044381
484.763706	2583.525811
485.132489	2582.202508
485.501213	2585.194433
485.869879	2582.631006
486.238487	2583.598908
486.607036	2582.507498
486.975527	2584.763414
487.343959	2583.543455
487.712333	2584.299628
488.080648	2583.840883
488.448905	2584.748291
488.817104	2587.833477
489.185244	2587.347006
489.553326	2586.328693
489.921350	2584.894484
490.289315	2589.217274
490.657222	2591.102665
491.025070	2591.306832
491.392861	2590.757346
491.760593	2589.416399
492.128267	2588.403127
492.495883	2589.552511
492.863440	2587.246183
493.230939	2589.567634
493.598380	2587.601584
493.965763	2587.445308
494.333088	2587.457911
494.700354	2589.126533
495.067563	2588.914805
495.434713	2589.706266
495.801805	2588.146029
496.168839	2588.410689
496.535815	2588.350195
496.902733	2589.060998
497.269593	2587.389856
497.636395	2589.063519
498.003139	2589.549990
498.369825	2588.829105
498.736453	2591.435382
499.103023	2587.200812
499.469535	2589.234918
499.835989	2588.564444
500.202385	2589.116451
500.568723	2584.836511
500.935003	2588.902202
501.301226	2587.079825
501.667390	2593.149374
502.033497	2590.827922
502.399546	2591.105186
502.765537	2589.481934
503.131470	2591.473190
503.497345	2591.722727
503.863163	2592.572162
504.228923	2591.873962
504.594625	2589.055957
504.960269	2592.441092
505.325856	2593.035948
505.691385	2592.431009
506.056856	2593.850094
506.422270	2596.085846
506.787625	2596.317739
507.152924	2593.391349
507.518164	2597.880497
507.883347	2596.474015
508.248472	2599.400405
508.613540	2598.742534
508.978550	2599.617174
509.343503	2600.620364
509.708398	2598.941660
510.073236	2600.080960
510.438016	2601.368975
510.802738	2602.664552
511.167403	2598.548450
511.532010	2601.888214
511.896561	2603.352669
512.261053	2603.571959
512.625488	2604.436517
512.989866	2604.980962
513.354186	2606.773092
513.718449	2605.422063
514.082655	2607.902311
514.446803	2606.266456
514.810894	2610.576643
515.174927	2611.675614
515.538904	2610.944647
515.902822	2613.213166
516.266684	2612.043618
516.630488	2615.859772
516.994235	2615.186778
517.357925	2615.068311
517.721558	2618.040071
518.085133	2619.257510
518.448651	2615.993362
518.812112	2615.358177
519.175516	2615.033023
519.538863	2616.212653
519.902152	2622.672891
520.265385	2623.686163
520.628560	2622.627521
520.991678	2626.970475
521.354739	2627.842595
521.717743	2630.143881
522.080690	2628.238325
522.443580	2629.085239
522.806413	2632.503141
523.169189	2631.031124
523.531908	2636.074799
523.894569	2631.099180
524.257174	2634.814510
524.619722	2637.607310
524.982213	2636.465488
525.344647	2637.052783
525.707025	2639.974131
526.069345	2639.964049
526.431608	2640.558905
526.793815	2641.559574
527.155964	2645.012765
527.518057	2643.356746
527.880093	2645.874802
528.242072	2647.364463
528.603995	2649.527118
528.965860	2648.947385
529.327669	2648.791109
529.689421	2650.169865
530.051117	2653.534835
530.412755	2651.150369
530.774337	2654.142294
531.135862	2653.365957
531.497331	2658.545742
531.858743	2657.482059
532.220098	2662.130002
532.581396	2663.634787
532.942638	2661.141936
533.303824	2665.782318
533.664953	2669.268276
534.026025	2665.852895
534.387040	2670.851199
534.747999	2672.787002
535.108902	2677.465192
535.469748	2674.322033
535.830537	2675.814215
536.191270	2684.028775
536.551947	2675.814215
536.912567	2682.440811
537.273131	2684.016172
537.633638	2683.040709
537.994089	2690.549507
538.354483	2692.318952
538.714821	2699.164839
539.075103	2696.465301
539.435328	2700.314222
539.795497	2701.945036
540.155609	2705.806559
540.515665	2708.105326
540.875665	2710.250337
541.235609	2711.745039
541.595496	2716.599670
541.955328	2718.626214
542.315102	2725.522512
542.674821	2725.202399
543.034483	2727.140722
543.394090	2734.959552
543.753640	2738.115314
544.113134	2742.705285
544.472571	2746.420615
544.831953	2752.820360
545.191278	2753.490834
545.550548	2756.626431
545.909761	2762.075919
546.268918	2769.801487
546.628019	2776.211314
546.987064	2780.476130
547.346053	2786.835546
547.704986	2787.306894
548.063863	2796.005405
548.422684	2798.896506
548.781449	2803.458751
549.140158	2811.159113
549.498811	2819.557675
549.857408	2823.099086
550.215949	2831.842967
550.574434	2834.280365
550.932864	2847.646985
551.291237	2852.123529
551.649555	2862.107534
552.007817	2874.085316
552.366022	2878.440873
552.724173	2880.792571
553.082267	2894.375960
553.440305	2913.169382
553.798288	2913.151738
554.156215	2930.178235
554.514086	2939.567384
554.871902	2935.332815
555.229661	2950.037860
555.587365	2964.127885
555.945014	2979.168168
556.302606	2996.676095
556.660143	3004.991478
557.017625	3031.089532
557.375050	3036.158412
557.732421	3052.262378
558.089735	3069.104873
558.446994	3080.354208
558.804197	3102.696602
559.161345	3119.370218
559.518437	3118.402317
559.875474	3146.030360
560.232455	3162.519974
560.589381	3180.879857
560.946251	3197.840819
561.303065	3226.151939
561.659825	3254.337030
562.016528	3262.281888
562.373177	3274.710853
562.729770	3296.894451
563.086307	3329.321673
563.442789	3354.156917
563.799216	3375.115514
564.155587	3397.987229
564.511904	3429.779266
564.868164	3441.648663
565.224370	3478.602841
565.580520	3486.668687
565.936615	3530.718290
566.292654	3536.082077
566.648638	3589.772886
567.004567	3602.741255
567.360441	3637.139568
567.716260	3649.588697
568.072023	3704.721276
568.427732	3727.608115
568.783385	3742.187132
569.138982	3788.565747
569.494525	3838.876462
569.850013	3868.173128
570.205445	3893.109196
570.560823	3909.616454
570.916145	3952.241930
571.271412	3981.591528
571.626625	4030.495761
571.981782	4065.771235
572.336884	4087.412909
572.691931	4133.700783
573.046923	4137.741268
573.401860	4189.627344
573.756743	4243.257659
574.111570	4272.251856
574.466342	4301.402328
574.821059	4357.240668
575.175722	4372.215416
575.530330	4431.025517
575.884882	4467.281495
576.239380	4516.894011
576.593823	4548.363414
576.948211	4579.414401
577.302544	4603.969861
577.656823	4643.953773
578.011047	4711.169998
578.365216	4743.103187
578.719330	4789.456596
579.073389	4818.576822
579.427394	4906.179473
579.781344	4907.596037
580.135239	4967.671467
580.489080	5002.354606
580.842866	5015.380947
581.196597	5125.799860
581.550273	5142.241584
581.903895	5221.982555
582.257463	5301.562210
582.610975	5305.827026
582.964434	5394.823556
583.317837	5424.911683
583.671186	5496.402806
584.024481	5561.836983
584.377721	5564.309669
584.730906	5632.806347
585.084037	5705.809816
585.437113	5746.083594
585.790135	5824.498742
586.143103	5814.590354
586.496016	5850.576631
586.848874	5982.977496
587.201679	6016.622157
587.554428	6020.463516
587.907124	6140.309387
588.259765	6168.018089
588.612352	6262.953098
588.964884	6244.399131
589.317362	6332.173182
589.669786	6403.782772
590.022155	6466.966074
590.374470	6582.930256
590.726731	6608.897240
591.078937	6621.124558
591.431090	6695.317740
591.783188	6693.386978
592.135232	6739.700058
592.487222	6855.182811
592.839157	6912.200781
593.191038	6968.780172
593.542866	6976.127653
593.894639	6997.567681
594.246358	7114.711493
594.598022	7138.178064
594.949633	7157.619274
595.301190	7190.953904
595.652692	7301.428270
596.004141	7423.260355
596.355535	7314.058881
596.706876	7377.113633
597.058162	7426.471570
597.409395	7526.518310
597.760573	7637.801781
598.111698	7646.291084
598.462768	7686.983278
598.813785	7734.884322
599.164748	7751.121878
599.515657	7820.099986
599.866511	7822.693660
600.217312	7995.844692
600.568060	7906.321361
600.918753	8093.597706
601.269392	8148.236252
601.619978	8109.351312
601.970510	8278.744163
602.320988	8302.959346
602.671412	8440.151827
603.021783	8481.766552
603.372100	8449.566182
603.722363	8583.555010
604.072572	8626.861042
604.422728	8711.373466
604.772830	8744.355215
605.122878	8735.548319
605.472872	8827.327566
605.822813	8896.235098
606.172701	8943.652191
606.522534	9096.026107
606.872314	9168.301130
607.222041	9141.814907
607.571714	9303.603178
607.921333	9317.816712
608.270899	9406.745186
608.620411	9579.782792
608.969870	9505.934929
609.319276	9582.484850
609.668627	9695.409217
610.017926	9813.215941
610.367171	9920.960522
610.716362	10043.339573
611.065500	9989.066511
611.414585	10122.871337
611.763616	10192.194764
612.112594	10246.755172
612.461518	10270.108317
612.810389	10433.600498
613.159207	10407.832640
613.507971	10435.193503
613.856682	10685.154075
614.205340	10700.837105
614.553945	10870.310615
614.902496	10757.217369
615.250994	10994.229738
615.599439	11021.086485
615.947830	11058.993441
616.296169	11122.277566
616.644454	11205.378467
616.992686	11216.053110
617.340864	11417.842937
617.688990	11364.225224
618.037063	11522.028463
618.385082	11509.745692
618.733048	11708.437730
619.080961	11698.937675
619.428821	11796.143724
619.776628	11824.248157
620.124382	11820.240440
620.472083	11909.816702
620.819731	12001.497647
621.167326	11882.158412
621.514868	11952.394288
621.862357	11893.445555
622.209793	11963.797378
622.557176	11934.992225
622.904506	11856.488856
623.251783	11871.367822
623.599007	11826.050369
623.946179	11850.338649
624.293297	11877.828061
624.640363	11787.445213
624.987376	11832.805516
625.334336	11755.295255
625.681243	11720.604554
626.028097	11761.473189
626.374899	11822.536685
626.721647	11745.202865
627.068343	11690.304699
627.414987	11698.178982
627.761577	11753.644277
628.108115	11838.938079
628.454600	11675.783656
628.801032	11770.945517
629.147412	11779.008842
629.493739	11848.486025
629.840014	11772.286464
630.186236	11873.399407
630.532405	11759.812128
630.878521	11941.782659
631.224585	11902.529714
631.570597	11857.489525
631.916556	11887.320553
632.262462	11913.123699
632.608316	11920.151068
632.954117	11908.543811
633.299866	11955.519803
633.645562	11948.235336
633.991206	11791.609206
634.336797	11730.923796
634.682336	11766.595001
635.027823	11721.839637
635.373257	11704.976978
635.718639	11639.313428
636.063968	11645.173769
636.409245	11521.375634
636.754470	11576.319170
637.099642	11498.118271
637.444762	11352.179387
637.789829	11451.575818
638.134845	11354.901610
638.479808	11400.138404
638.824719	11410.689539
639.169577	11317.067751
639.514383	11395.974411
639.859137	11286.147834
640.203839	11381.029911
640.548489	11273.638210
640.893086	11313.891824
641.237632	11211.188397
641.582125	11385.209027
641.926566	11287.529110
642.270955	11319.132103
642.615292	11314.955507
642.959576	11356.071158
