Dividing Wavelength (nm)	Counts (n)	Blue Motor Position (mm): 18.700000	Red Motor Position (mm): 0.000000	
326.493990	2181.337516
326.888308	2181.337516
327.282561	2181.337516
327.676750	2139.576598
328.070874	2135.624333
328.464933	2138.326392
328.858929	2143.291928
329.252859	2146.641775
329.646726	2155.791469
330.040528	2169.074909
330.434265	2181.692918
330.827938	2198.485001
331.221547	2215.846735
331.615091	2233.019425
332.008571	2250.824781
332.401986	2268.410846
332.795338	2289.979423
333.188625	2305.639767
333.581847	2326.129537
333.975006	2342.367093
334.368100	2362.125896
334.761129	2381.592312
335.154095	2397.015722
335.546996	2417.623959
335.939833	2451.603856
336.332606	2467.538943
336.725315	2476.728967
337.117960	2492.777480
337.510540	2504.500683
337.903056	2516.546521
338.295508	2519.616583
338.687896	2531.271731
339.080220	2537.409336
339.472480	2545.177754
339.864676	2554.080432
340.256807	2556.961451
340.648875	2560.596123
341.040879	2561.637121
341.432818	2569.188770
341.824694	2568.777916
342.216506	2571.716908
342.608253	2569.793708
342.999937	2571.174984
343.391557	2570.948132
343.783113	2569.040056
344.174605	2572.551219
344.566033	2566.774057
344.957397	2567.598286
345.348697	2566.206927
345.739934	2562.743654
346.131106	2560.830537
346.522215	2560.797769
346.913260	2559.812223
347.304241	2557.153015
347.695159	2555.736451
348.086012	2555.791903
348.476802	2552.943651
348.867528	2548.512477
349.258191	2543.249512
349.648789	2543.141128
350.039324	2539.937474
350.429796	2543.070552
350.820203	2541.066693
351.210548	2540.691127
351.600828	2542.548792
351.991045	2538.117618
352.381198	2539.589635
352.771288	2537.716846
353.161314	2534.959335
353.551276	2537.459747
353.941175	2535.002185
354.331010	2535.425642
354.720782	2534.054448
355.110490	2534.344314
355.500135	2534.724921
355.889717	2536.640560
356.279235	2533.920857
356.668689	2535.476053
357.058080	2537.968904
357.447408	2536.799356
357.836672	2536.275076
358.225873	2535.702905
358.615010	2536.869932
359.004084	2536.312885
359.393095	2537.517721
359.782043	2537.164840
360.170927	2540.794471
360.559748	2540.665921
360.948505	2539.166178
361.337199	2543.678011
361.725830	2542.034594
362.114398	2543.824204
362.502903	2543.894780
362.891344	2542.745397
363.279722	2545.986859
363.668037	2542.115253
364.056289	2542.415202
364.444478	2546.130532
364.832603	2545.858310
365.220665	2545.737322
365.608665	2547.836962
365.996601	2547.854607
366.384474	2547.489123
366.772284	2546.410316
367.160031	2547.042981
367.547715	2548.966181
367.935336	2548.046170
368.322893	2545.462579
368.710388	2546.725388
369.097820	2544.192208
369.485189	2543.620037
369.872495	2549.003990
370.259738	2550.009700
370.646918	2551.010369
371.034035	2550.128167
371.421090	2548.898125
371.808081	2553.183106
372.195010	2550.279402
372.581875	2552.550441
372.968678	2550.680173
373.355418	2552.842828
373.742096	2553.772921
374.128710	2552.762170
374.515262	2552.578168
374.901751	2551.275029
375.288177	2553.253682
375.674540	2551.741336
376.060841	2555.310473
376.447079	2554.471121
376.833254	2555.045812
377.219367	2552.379042
377.605417	2557.450443
377.991404	2552.258054
378.377329	2555.648230
378.763191	2555.396173
379.148991	2557.402552
379.534727	2553.707386
379.920402	2555.388611
380.306013	2558.194013
380.691563	2559.504713
381.077049	2553.866183
381.462474	2558.347768
381.847835	2556.139743
382.233134	2559.330793
382.618371	2555.905329
383.003545	2556.366595
383.388657	2557.284085
383.773706	2557.838612
384.158693	2558.526729
384.543618	2559.981102
384.928480	2556.240566
385.313280	2561.599312
385.698017	2556.895916
386.082692	2557.936914
386.467305	2560.613767
386.851856	2560.782646
387.236344	2556.754764
387.620770	2559.315670
388.005133	2555.940617
388.389435	2559.431616
388.773674	2555.567572
389.157851	2563.371278
389.541965	2560.265927
389.926018	2561.024621
390.310008	2559.754250
390.693936	2562.151319
391.077802	2562.869683
391.461606	2563.633418
391.845348	2563.572924
392.229027	2562.058058
392.612645	2562.990671
392.996200	2564.560990
393.379694	2563.381360
393.763125	2562.536967
394.146494	2563.593089
394.529801	2562.612584
394.913047	2565.415466
395.296230	2563.275496
395.679351	2563.041082
396.062410	2566.443861
396.445408	2563.877914
396.828343	2565.806155
397.211217	2565.430589
397.594028	2564.409756
397.976778	2564.810527
398.359466	2568.107442
398.742092	2567.310940
399.124656	2568.563667
399.507158	2566.038048
399.889598	2568.314129
400.271977	2567.101732
400.654294	2566.910168
401.036549	2566.645507
401.418742	2565.901937
401.800874	2571.147258
402.182944	2567.444530
402.564952	2567.590724
402.946898	2568.203224
403.328783	2570.055848
403.710606	2566.758933
404.092367	2567.101732
404.474067	2572.016857
404.855705	2572.079871
405.237282	2565.969993
405.618797	2570.257494
406.000250	2572.105077
406.381642	2569.791187
406.762972	2568.619119
407.144240	2565.334807
407.525447	2569.634912
407.906593	2567.013512
408.287677	2568.871177
408.668700	2571.931157
409.049661	2572.546178
409.430560	2570.565005
409.811399	2570.600293
410.192176	2570.234809
410.572891	2570.728842
410.953545	2572.647001
411.334138	2573.619944
411.714669	2571.245560
412.095139	2574.426528
412.475547	2574.333267
412.855894	2572.737742
413.236180	2573.869481
413.616405	2572.614234
413.996568	2573.690520
414.376670	2573.735890
414.756711	2573.992989
415.136691	2578.106571
415.516609	2575.490212
415.896466	2574.028277
416.276262	2574.292938
416.655997	2576.289235
417.035670	2576.299317
417.415283	2577.761252
417.794834	2575.389389
418.174324	2576.579101
418.553753	2573.632547
418.933121	2580.261664
419.312428	2578.373752
419.691674	2575.165057
420.070859	2579.021540
420.449983	2577.390727
420.829045	2576.511046
421.208047	2577.955336
421.586988	2578.759400
421.965867	2576.538772
422.344686	2576.407702
422.723444	2578.204873
423.102141	2579.208063
423.480777	2578.121694
423.859352	2578.056159
424.237866	2578.439287
424.616319	2579.757549
424.994712	2579.918866
425.373044	2577.292424
425.751314	2577.743608
426.129524	2574.464337
426.507673	2574.761765
426.885762	2574.345870
427.263789	2577.630182
427.641756	2581.383321
428.019662	2579.134966
428.397508	2579.331571
428.775292	2579.775193
429.153016	2579.109760
429.530679	2580.261664
429.908282	2579.505491
430.285824	2579.681931
430.663305	2578.918197
431.040726	2578.338464
431.418086	2581.738722
431.795385	2583.062025
432.172624	2578.739236
432.549802	2582.021027
432.926920	2583.956830
433.303977	2580.060018
433.680974	2580.226376
434.057910	2581.804257
434.434786	2581.892477
434.811601	2583.858527
435.188355	2584.614700
435.565050	2581.937848
435.941683	2579.505491
436.318257	2583.177972
436.694770	2584.113106
437.071222	2583.898857
437.447614	2583.737540
437.823946	2585.136460
438.200218	2582.036150
438.576429	2585.186871
438.952580	2585.524629
439.328670	2582.691500
439.704700	2586.737026
440.080670	2583.455235
440.456580	2586.699217
440.832429	2586.444639
441.208218	2584.738209
441.583947	2587.488158
441.959616	2583.934145
442.335224	2587.740216
442.710773	2585.212077
443.086261	2586.679053
443.461689	2585.711151
443.837057	2587.740216
444.212365	2589.723910
444.587612	2583.319124
444.962800	2582.368866
445.337927	2586.502612
445.712995	2583.183013
446.088002	2587.281471
446.462949	2586.109402
446.837837	2585.569999
447.212664	2584.322313
447.587431	2590.558221
447.962139	2587.223498
448.336786	2590.898499
448.711374	2591.117789
449.085901	2588.309866
449.460369	2588.398086
449.834776	2589.718869
450.209124	2589.827253
450.583412	2589.512181
450.957640	2591.710124
451.331808	2590.515371
451.705917	2588.529156
452.079965	2590.858169
452.453954	2589.287850
452.827883	2591.150556
453.201752	2591.024527
453.575562	2593.724065
453.949311	2591.092583
454.323001	2591.584096
454.696632	2590.810278
455.070202	2593.288006
455.443713	2591.505958
455.817164	2592.718355
456.190556	2591.072418
456.563888	2596.221957
456.937160	2594.192893
457.310373	2591.231215
457.683526	2593.482090
458.056619	2592.824219
458.429653	2598.437544
458.802628	2593.330855
459.175542	2593.824888
459.548398	2597.174735
459.921194	2593.472008
460.293930	2596.244642
460.666607	2596.524426
461.039224	2595.846391
461.411782	2596.496700
461.784280	2598.543408
462.156719	2598.031731
462.529099	2598.276227
462.901419	2599.334870
463.273680	2598.561052
463.645882	2593.625763
464.018024	2597.366299
464.390106	2593.908067
464.762130	2598.924016
465.134094	2602.886363
465.505999	2601.711774
465.877845	2602.543564
466.249631	2606.354676
466.621358	2606.339553
466.993026	2608.172012
467.364634	2610.044801
467.736184	2608.401385
468.107674	2605.681682
468.479105	2604.769233
468.850477	2604.582711
469.221790	2604.849892
469.593043	2601.542895
469.964238	2603.929881
470.335373	2604.257556
470.706449	2603.105653
471.077467	2604.189501
471.448425	2605.313678
471.819324	2609.213011
472.190164	2613.356839
472.560945	2611.070676
472.931667	2605.908534
473.302330	2606.493308
473.672934	2607.632609
474.043479	2608.071189
474.413965	2604.330653
474.784393	2607.320057
475.154761	2609.510439
475.525070	2609.422218
475.895321	2605.958946
476.265513	2607.814090
476.635645	2609.918772
477.005719	2609.293669
477.375734	2611.211828
477.745691	2610.995058
478.115588	2612.620831
478.485427	2615.953033
478.855207	2616.510081
479.224928	2617.036881
479.594591	2621.024434
479.964194	2621.226080
480.333739	2622.430916
480.703226	2623.451750
481.072653	2623.781945
481.442022	2624.790176
481.811333	2625.458129
482.180584	2623.250103
482.549777	2624.243211
482.918912	2622.095679
483.287988	2627.174642
483.657005	2628.134982
484.025964	2626.940228
484.394864	2628.823099
484.763706	2630.027935
485.132489	2627.361164
485.501213	2628.815537
485.869879	2628.994498
486.238487	2628.659262
486.607036	2629.458284
486.975527	2633.196300
487.343959	2632.858543
487.712333	2632.606485
488.080648	2631.731845
488.448905	2636.765437
488.817104	2638.668472
489.185244	2641.025212
489.553326	2640.657208
489.921350	2642.068731
490.289315	2651.059629
490.657222	2656.201606
491.025070	2656.138591
491.392861	2661.242759
491.760593	2660.957934
492.128267	2659.112872
492.495883	2658.114723
492.863440	2658.510454
493.230939	2660.647903
493.598380	2664.227122
493.965763	2663.261742
494.333088	2663.395332
494.700354	2667.115704
495.067563	2669.096877
495.434713	2671.932526
495.801805	2676.799760
496.168839	2680.106757
496.535815	2680.865451
496.902733	2686.166224
497.269593	2691.898016
497.636395	2697.415559
498.003139	2703.205324
498.369825	2703.553164
498.736453	2712.042467
499.103023	2719.279043
499.469535	2726.427399
499.835989	2732.212123
500.202385	2738.067423
500.568723	2739.068092
500.935003	2754.932604
501.301226	2758.552152
501.667390	2783.026954
502.033497	2795.932308
502.399546	2802.659728
502.765537	2807.544606
503.131470	2825.866679
503.497345	2838.787157
503.863163	2847.899042
504.228923	2868.320757
504.594625	2887.678787
504.960269	2898.093811
505.325856	2919.619538
505.691385	2934.193514
506.056856	2962.640745
506.422270	2986.046822
506.787625	3006.778568
507.152924	3033.390819
507.518164	3056.585168
507.883347	3076.162488
508.248472	3100.213833
508.613540	3143.333343
508.978550	3177.908097
509.343503	3211.666183
509.708398	3252.199581
510.073236	3292.155766
510.438016	3336.787622
510.802738	3369.514793
511.167403	3419.061773
511.532010	3446.967080
511.896561	3527.844832
512.261053	3580.522369
512.625488	3620.407978
512.989866	3662.983043
513.354186	3703.503838
513.718449	3771.579579
514.082655	3839.015094
514.446803	3893.520050
514.810894	3978.647494
515.174927	4009.131351
515.538904	4075.326742
515.902822	4166.909384
516.266684	4229.454980
516.630488	4280.968011
516.994235	4349.991489
517.357925	4446.945481
517.721558	4545.696643
518.085133	4623.383345
518.448651	4695.451680
518.812112	4759.723871
519.175516	4848.430535
519.538863	4966.333041
519.902152	5026.063152
520.265385	5151.391278
520.628560	5221.274273
520.991678	5319.743131
521.354739	5423.956384
521.717743	5530.319689
522.080690	5600.429536
522.443580	5759.367035
522.806413	5834.376883
523.169189	5971.203881
523.531908	6056.303599
523.894569	6134.388552
524.257174	6255.532520
524.619722	6386.136213
524.982213	6435.796619
525.344647	6585.546615
525.707025	6701.883843
526.069345	6834.680438
526.431608	6948.098838
526.793815	7118.295753
527.155964	7106.973322
527.518057	7267.912158
527.880093	7385.376084
528.242072	7515.692432
528.603995	7593.227898
528.965860	7677.175713
529.327669	7866.448355
529.689421	7959.843291
530.051117	8051.867034
530.412755	8255.567458
530.774337	8306.445303
531.135862	8417.559896
531.497331	8600.165612
531.858743	8624.277451
532.220098	8907.227334
532.581396	8907.285307
532.942638	9091.436136
533.303824	9218.742915
533.664953	9370.975679
534.026025	9438.176780
534.387040	9605.159960
534.747999	9816.984204
535.108902	9967.999529
535.469748	9967.749992
535.830537	10177.494759
536.191270	10319.909876
536.551947	10484.586728
536.912567	10463.048398
537.273131	10718.413088
537.633638	10746.386450
537.994089	11003.097128
538.354483	10961.124481
538.714821	11286.798142
539.075103	11486.609316
539.435328	11535.894157
539.795497	11499.897798
540.155609	11820.457209
540.515665	12078.420613
540.875665	11907.084397
541.235609	12162.552430
541.595496	12332.093995
541.955328	12627.293882
542.315102	12747.563210
542.674821	12726.849109
543.034483	12803.257878
543.394090	13005.158610
543.753640	13058.330180
544.113134	13495.705729
544.472571	13488.360768
544.831953	13819.574658
545.191278	13721.743506
545.550548	13876.902659
545.909761	14054.515112
546.268918	14351.302963
546.628019	14464.431496
546.987064	14516.879661
547.346053	14524.988357
547.704986	14701.375809
548.063863	14955.971723
548.422684	15030.777404
548.781449	14985.805271
549.140158	15337.435834
549.498811	15273.725732
549.857408	15208.999837
550.215949	15620.504184
550.574434	15556.231993
550.932864	15823.357694
551.291237	16020.739032
551.649555	16104.742299
552.007817	16271.735562
552.366022	16327.583984
552.724173	16458.142307
553.082267	16552.863067
553.440305	16986.177967
553.798288	16642.293137
554.156215	17127.476468
554.514086	17300.325031
554.871902	17003.892582
555.229661	17314.843554
555.587365	17373.338582
555.945014	17355.369389
556.302606	17700.423767
556.660143	17731.005927
557.017625	18072.738185
557.375050	17865.456021
557.732421	18235.287670
558.089735	18249.125637
558.446994	18380.016676
558.804197	18534.848155
559.161345	18630.131004
559.518437	18491.610178
559.875474	18814.027255
560.232455	19015.489407
560.589381	19032.886428
560.946251	19069.608714
561.303065	19444.045457
561.659825	19613.720613
562.016528	19411.202339
562.373177	19326.576490
562.729770	19668.265897
563.086307	19712.209636
563.442789	19937.619789
563.799216	19891.720083
564.155587	19969.948708
564.511904	20073.786395
564.868164	20070.383616
565.224370	20192.719817
565.580520	20158.777728
565.936615	20385.032275
566.292654	20164.857360
566.648638	20548.337933
567.004567	20444.419588
567.360441	20490.775518
567.716260	20327.873152
568.072023	20708.709640
568.427732	20560.524922
568.783385	20445.206008
569.138982	20703.986079
569.494525	20827.882517
569.850013	20674.412150
570.205445	20823.131229
570.560823	20695.191786
570.916145	20579.658622
571.271412	20766.135944
571.626625	20625.099583
571.981782	20761.654358
572.336884	20643.066255
572.691931	20824.336065
573.046923	20622.722679
573.401860	20585.014848
573.756743	20635.096191
574.111570	20602.338773
574.466342	20593.294943
574.821059	20735.841130
575.175722	20489.636217
575.530330	20548.574867
575.884882	20604.801377
576.239380	20564.807383
576.593823	20498.939667
576.948211	20507.645739
577.302544	20405.713608
577.656823	20332.253915
578.011047	20461.572114
578.365216	20366.788339
578.719330	20296.532298
579.073389	20232.529809
579.427394	20394.875128
579.781344	20211.447704
580.135239	20140.493463
580.489080	20152.950155
580.842866	19943.129770
581.196597	20138.479522
581.550273	20142.141921
581.903895	20079.331664
582.257463	20395.215406
582.610975	19961.721545
582.964434	20275.457755
583.317837	20031.750734
583.671186	20124.064343
584.024481	20109.664287
584.377721	19923.496996
584.730906	19980.293156
585.084037	20040.713905
585.437113	19955.740216
585.790135	20173.364307
586.143103	19681.539256
586.496016	19698.787563
586.848874	19947.959195
587.201679	19909.621220
587.554428	19583.103165
587.907124	19930.418500
588.259765	19724.457119
588.612352	19813.289811
588.964884	19409.866434
589.317362	19583.597198
589.669786	19642.699686
590.022155	19717.802796
590.374470	19887.959382
590.726731	19715.050326
591.078937	19464.603282
591.431090	19587.733465
591.783188	19326.296706
592.135232	19316.668102
592.487222	19413.601929
592.839157	19469.573860
593.191038	19359.437251
593.542866	19247.740405
593.894639	18982.452205
594.246358	19195.977838
594.598022	19121.600654
594.949633	18879.116113
595.301190	18841.705710
595.652692	19003.867026
596.004141	19261.112066
596.355535	18595.483153
596.706876	18610.097458
597.058162	18505.632148
597.409395	18735.289473
597.760573	18828.611313
598.111698	18614.226163
598.462768	18550.735351
598.813785	18517.385598
599.164748	18353.681688
599.515657	18379.638590
599.866511	18168.719233
600.217312	18538.636582
600.568060	18070.930931
600.918753	18376.008959
601.269392	18287.922357
601.619978	18061.309889
601.970510	18277.968599
602.320988	18230.566629
602.671412	18429.417463
603.021783	18328.632195
603.372100	18082.767560
603.722363	18215.808651
604.072572	18152.562335
604.422728	18278.230739
604.772830	18050.257159
605.122878	17995.280856
605.472872	17995.331267
605.822813	17988.729876
606.172701	17937.688194
606.522534	18159.108273
606.872314	18165.054314
607.222041	17993.637440
607.571714	18224.355928
607.921333	18056.646822
608.270899	18123.394219
608.620411	18324.914344
608.969870	18068.238955
609.319276	18083.775791
609.668627	18117.463302
610.017926	18244.109689
610.367171	18367.905304
610.716362	18409.366274
611.065500	18230.186022
611.414585	18358.153192
611.763616	18349.978961
612.112594	18303.499522
612.461518	18263.969315
612.810389	18460.254201
613.159207	18305.780645
613.507971	18221.361482
613.856682	18504.510491
614.205340	18430.992824
614.553945	18577.695442
614.902496	18318.406214
615.250994	18559.622905
615.599439	18498.219131
615.947830	18481.225401
616.296169	18522.547739
616.644454	18497.629316
616.992686	18473.298187
617.340864	18679.131019
617.688990	18442.138815
618.037063	18618.221278
618.385082	18470.812898
618.733048	18746.458149
619.080961	18613.333879
619.428821	18656.047576
619.776628	18552.025887
620.124382	18464.697978
620.472083	18504.024020
620.819731	18537.721613
621.167326	18220.454075
621.514868	18265.506867
621.862357	18016.176438
622.209793	18035.841980
622.557176	17881.658289
622.904506	17707.546918
623.251783	17607.346423
623.599007	17389.863485
623.946179	17322.617013
624.293297	17265.800688
624.640363	17025.103236
624.987376	17050.382102
625.334336	16841.322932
625.681243	16686.294848
626.028097	16693.662494
626.374899	16628.245962
626.721647	16497.506157
627.068343	16320.874209
627.414987	16251.374341
627.761577	16227.935496
628.108115	16285.858354
628.454600	15996.591905
628.801032	16091.015237
629.147412	16032.850404
629.493739	16051.984104
629.840014	15854.635533
630.186236	15964.159642
630.532405	15716.155037
630.878521	15918.161634
631.224585	15811.518545
631.570597	15637.853315
631.916556	15670.983778
632.262462	15655.018444
632.608316	15566.173149
632.954117	15508.371279
633.299866	15511.527041
633.645562	15440.658500
633.991206	15184.462021
634.336797	15053.644078
634.682336	15025.103586
635.027823	14924.406538
635.373257	14805.899093
635.718639	14689.261917
636.063968	14646.288601
636.409245	14398.843564
636.754470	14438.280511
637.099642	14285.808292
637.444762	14050.421695
637.789829	14094.577162
638.134845	13934.044138
638.479808	13953.634062
638.824719	13913.952620
639.169577	13763.577521
639.514383	13807.039829
639.859137	13618.609060
640.203839	13704.810270
