Dividing Wavelength (nm)	Counts (n)	Blue Motor Position (mm): 13.400000	Red Motor Position (mm): 0.000000	
326.493990	2166.761020
326.888308	2166.761020
327.282561	2166.761020
327.676750	2128.407921
328.070874	2124.773249
328.464933	2125.552108
328.858929	2127.707201
329.252859	2132.249281
329.646726	2140.758748
330.040528	2156.535039
330.434265	2166.587100
330.827938	2185.609894
331.221547	2204.136134
331.615091	2221.633979
332.008571	2238.237020
332.401986	2256.848960
332.795338	2277.671446
333.188625	2291.307767
333.581847	2311.648823
333.975006	2331.521051
334.368100	2351.317662
334.761129	2366.375589
335.154095	2384.985008
335.546996	2404.033008
335.939833	2430.204158
336.332606	2445.120932
336.725315	2458.391770
337.117960	2471.695375
337.510540	2480.993783
337.903056	2492.109527
338.295508	2502.980776
338.687896	2514.071314
339.080220	2516.722961
339.472480	2525.658406
339.864676	2532.355579
340.256807	2536.358255
340.648875	2540.396219
341.040879	2543.224307
341.432818	2547.768907
341.824694	2550.695297
342.216506	2548.008362
342.608253	2550.975081
342.999937	2548.923331
343.391557	2551.554813
343.783113	2549.687066
344.174605	2549.775286
344.566033	2548.532642
344.957397	2546.559030
345.348697	2545.933927
345.739934	2544.822352
346.131106	2543.282280
346.522215	2543.340253
346.913260	2537.832793
347.304241	2537.305992
347.695159	2533.368851
348.086012	2532.557225
348.476802	2534.208203
348.867528	2528.103366
349.258191	2524.400638
349.648789	2521.791841
350.039324	2517.786644
350.429796	2525.537418
350.820203	2522.295957
351.210548	2522.669002
351.600828	2516.959895
351.991045	2519.803106
352.381198	2518.794875
352.771288	2521.398631
353.161314	2517.958044
353.551276	2517.479134
353.941175	2514.860255
354.331010	2514.139370
354.720782	2516.039885
355.110490	2514.837569
355.500135	2516.112981
355.889717	2515.301356
356.279235	2515.863444
356.668689	2516.591891
357.058080	2513.536952
357.447408	2517.317817
357.836672	2514.562827
358.225873	2517.955523
358.615010	2516.808661
359.004084	2516.334792
359.393095	2515.450070
359.782043	2519.535925
360.170927	2518.270595
360.559748	2519.914011
360.948505	2519.198167
361.337199	2518.910822
361.725830	2519.301511
362.114398	2523.001718
362.502903	2518.681449
362.891344	2523.089938
363.279722	2520.927283
363.668037	2524.909795
364.056289	2525.665968
364.444478	2525.837367
364.832603	2525.086235
365.220665	2528.209230
365.608665	2526.061698
365.996601	2525.166894
366.384474	2525.363499
366.772284	2527.667306
367.160031	2529.232584
367.547715	2528.983047
367.935336	2525.209743
368.322893	2524.448529
368.710388	2521.796882
369.097820	2526.134795
369.485189	2525.305525
369.872495	2527.352234
370.259738	2527.863911
370.646918	2528.957841
371.034035	2531.261649
371.421090	2530.021525
371.808081	2533.141999
372.195010	2529.003212
372.581875	2532.756351
372.968678	2531.405322
373.355418	2531.072605
373.742096	2533.998995
374.128710	2530.036648
374.515262	2533.497400
374.901751	2533.278110
375.288177	2533.686444
375.674540	2532.758871
376.060841	2532.020342
376.447079	2533.777184
376.833254	2533.734335
377.219367	2533.767102
377.605417	2535.440765
377.991404	2532.821886
378.377329	2535.428162
378.763191	2535.034952
379.148991	2533.706608
379.534727	2534.150230
379.920402	2535.332380
380.306013	2537.031249
380.691563	2533.910775
381.077049	2533.711649
381.462474	2533.535209
381.847835	2536.862371
382.233134	2536.312885
382.618371	2536.368338
383.003545	2538.190715
383.388657	2539.506456
383.773706	2536.975797
384.158693	2537.305992
384.543618	2539.130890
384.928480	2538.049562
385.313280	2538.016795
385.698017	2538.747762
386.082692	2538.755324
386.467305	2538.024357
386.851856	2539.040149
387.236344	2539.070396
387.620770	2535.919675
388.005133	2536.257432
388.389435	2536.249870
388.773674	2536.207021
389.157851	2536.993441
389.541965	2540.229861
389.926018	2540.270191
390.310008	2540.794471
390.693936	2544.063659
391.077802	2540.771785
391.461606	2539.937474
391.845348	2542.347146
392.229027	2544.550130
392.612645	2539.589635
392.996200	2542.090047
393.379694	2543.337733
393.763125	2542.082485
394.146494	2542.516025
394.529801	2541.825387
394.913047	2541.076775
395.296230	2542.062321
395.679351	2544.202291
396.062410	2544.146838
396.445408	2544.043494
396.828343	2545.094575
397.211217	2545.848227
397.594028	2543.811601
397.976778	2545.684390
398.359466	2543.458720
398.742092	2544.139276
399.124656	2544.046015
399.507158	2548.502395
399.889598	2545.777651
400.271977	2547.589946
400.654294	2544.983669
401.036549	2547.587425
401.418742	2545.379400
401.800874	2544.761859
402.182944	2545.553320
402.564952	2547.095913
402.946898	2548.565409
403.328783	2547.116077
403.710606	2547.683207
404.092367	2547.408464
404.474067	2546.614483
404.855705	2547.315203
405.237282	2548.358722
405.618797	2549.893753
406.000250	2551.136398
406.381642	2549.029195
406.762972	2545.283618
407.144240	2544.114070
407.525447	2547.310162
407.906593	2546.168341
408.287677	2548.676315
408.668700	2547.400903
409.049661	2548.852755
409.430560	2550.385266
409.811399	2548.124308
410.192176	2550.576830
410.572891	2548.562889
410.953545	2550.811243
411.334138	2550.085317
411.714669	2551.585060
412.095139	2550.740667
412.475547	2551.320400
412.855894	2552.696635
413.236180	2552.492468
413.616405	2551.632951
413.996568	2548.749411
414.376670	2549.104813
414.756711	2552.628579
415.136691	2553.553631
415.516609	2552.205122
415.896466	2554.967675
416.276262	2551.088507
416.655997	2554.075390
417.035670	2554.786193
417.415283	2556.583364
417.794834	2555.159238
418.174324	2553.599001
418.553753	2554.110678
418.933121	2554.420709
419.312428	2554.816440
419.691674	2554.072870
420.070859	2555.630586
420.449983	2554.987839
420.829045	2555.123950
421.208047	2554.511450
421.586988	2554.607232
421.965867	2554.524053
422.344686	2555.370967
422.723444	2557.357182
423.102141	2556.739640
423.480777	2555.849877
423.859352	2554.332489
424.237866	2556.979095
424.616319	2555.149156
424.994712	2556.036399
425.373044	2558.612429
425.751314	2554.539177
426.129524	2550.980122
426.507673	2554.113199
426.885762	2552.419371
427.263789	2556.785011
427.641756	2555.469269
428.019662	2557.889023
428.397508	2554.297201
428.775292	2557.074877
429.153016	2557.697459
429.530679	2555.673436
429.908282	2556.613611
430.285824	2559.474466
430.663305	2555.998591
431.040726	2556.351471
431.418086	2556.306101
431.795385	2557.785680
432.172624	2555.325597
432.549802	2559.144271
432.926920	2557.251317
433.303977	2558.713252
433.680974	2558.471277
434.057910	2558.239383
434.434786	2556.238045
434.811601	2554.657644
435.188355	2557.909188
435.565050	2558.443550
435.941683	2559.030845
436.318257	2557.805844
436.694770	2558.156204
437.071222	2559.083777
437.447614	2557.886503
437.823946	2563.809858
438.200218	2559.406411
438.576429	2561.750547
438.952580	2560.318859
439.328670	2559.923129
439.704700	2558.856925
440.080670	2560.298695
440.456580	2559.396328
440.832429	2560.119734
441.208218	2557.483210
441.583947	2562.519323
441.959616	2561.407749
442.335224	2558.163766
442.710773	2561.289282
443.086261	2560.676781
443.461689	2560.465053
443.837057	2562.249621
444.212365	2561.669889
444.587612	2561.720300
444.962800	2556.989177
445.337927	2557.153015
445.712995	2557.720145
446.088002	2560.560835
446.462949	2560.704508
446.837837	2561.523695
447.212664	2561.841288
447.587431	2562.743654
447.962139	2564.404715
448.336786	2563.910682
448.711374	2564.331618
449.085901	2560.732234
449.460369	2561.932029
449.834776	2563.207441
450.209124	2563.913202
450.583412	2563.487225
450.957640	2561.440516
451.331808	2565.483522
451.705917	2562.078222
452.079965	2561.856411
452.453954	2561.717780
452.827883	2561.742985
453.201752	2564.543346
453.575562	2563.588048
453.949311	2561.165773
454.323001	2566.070816
454.696632	2562.809189
455.070202	2563.993861
455.443713	2564.646690
455.817164	2567.497463
456.190556	2564.830692
456.563888	2569.866805
456.937160	2566.153995
457.310373	2564.029149
457.683526	2564.800445
458.056619	2564.722307
458.429653	2563.492266
458.802628	2565.612071
459.175542	2563.489745
459.548398	2564.654252
459.921194	2566.378326
460.293930	2567.023594
460.666607	2566.572411
461.039224	2568.051989
461.411782	2566.859757
461.784280	2565.836402
462.156719	2568.278841
462.529099	2567.005950
462.901419	2568.823286
463.273680	2566.385888
463.645882	2564.805486
464.018024	2567.368913
464.390106	2563.794735
464.762130	2566.761454
465.134094	2569.599624
465.505999	2570.081054
465.877845	2569.854202
466.249631	2568.770354
466.621358	2571.222875
466.993026	2569.612227
467.364634	2575.003741
467.736184	2572.508369
468.107674	2571.845458
468.479105	2568.815724
468.850477	2570.018039
469.221790	2569.723132
469.593043	2571.585838
469.964238	2571.583318
470.335373	2567.429407
470.706449	2568.719942
471.077467	2569.967628
471.448425	2573.209090
471.819324	2571.520303
472.190164	2577.352918
472.560945	2571.628688
472.931667	2571.059038
473.302330	2570.244891
473.672934	2575.555747
474.043479	2575.013823
474.413965	2573.945098
474.784393	2572.291600
475.154761	2572.147927
475.525070	2572.589028
475.895321	2573.090623
476.265513	2574.366035
476.635645	2573.940057
477.005719	2573.141034
477.375734	2573.181363
477.745691	2573.783781
478.115588	2573.733370
478.485427	2575.807805
478.855207	2574.676066
479.224928	2577.055490
479.594591	2579.006417
479.964194	2575.775037
480.333739	2578.867785
480.703226	2579.676890
481.072653	2577.327712
481.442022	2578.958526
481.811333	2575.676735
482.180584	2576.057342
482.549777	2575.969122
482.918912	2575.638926
483.287988	2579.092116
483.657005	2578.509863
484.025964	2580.816191
484.394864	2575.681776
484.763706	2580.511201
485.132489	2577.557085
485.501213	2576.725295
485.869879	2575.787640
486.238487	2580.730491
486.607036	2579.442477
486.975527	2578.807291
487.343959	2577.194122
487.712333	2579.787796
488.080648	2579.089596
488.448905	2578.603124
488.817104	2578.444328
489.185244	2579.765110
489.553326	2579.623958
489.921350	2580.085224
490.289315	2580.899370
490.657222	2582.320975
491.025070	2580.695203
491.392861	2583.747622
491.760593	2582.764597
492.128267	2583.808116
492.495883	2581.532035
492.863440	2580.894329
493.230939	2583.755184
493.598380	2582.754515
493.965763	2580.884247
494.333088	2583.654361
494.700354	2581.443815
495.067563	2578.419122
495.434713	2579.308886
495.801805	2581.138825
496.168839	2579.639082
496.535815	2581.476582
496.902733	2582.464648
497.269593	2581.252251
497.636395	2582.570512
498.003139	2582.918352
498.369825	2580.899370
498.736453	2582.351222
499.103023	2582.890626
499.469535	2583.228383
499.835989	2583.006572
500.202385	2581.254771
500.568723	2577.867116
500.935003	2579.497929
501.301226	2579.807960
501.667390	2586.144691
502.033497	2584.322313
502.399546	2581.857189
502.765537	2582.638568
503.131470	2583.440112
503.497345	2580.818712
503.863163	2584.410534
504.228923	2585.663260
504.594625	2584.251737
504.960269	2583.611511
505.325856	2587.099989
505.691385	2584.186202
506.056856	2588.042685
506.422270	2585.325503
506.787625	2585.670822
507.152924	2585.726275
507.518164	2585.648137
507.883347	2585.305338
508.248472	2587.732654
508.613540	2588.181317
508.978550	2588.748447
509.343503	2590.376739
509.708398	2589.716348
510.073236	2590.422110
510.438016	2589.602922
510.802738	2594.785228
511.167403	2591.848756
511.532010	2593.991247
511.896561	2594.230701
512.261053	2593.562748
512.625488	2594.601226
512.989866	2593.953438
513.354186	2595.614498
513.718449	2594.228181
514.082655	2601.709253
514.446803	2598.840837
514.810894	2600.758996
515.174927	2602.977103
515.538904	2599.707915
515.902822	2602.528441
516.266684	2600.635487
516.630488	2604.403750
516.994235	2601.623553
517.357925	2603.728235
517.721558	2608.587907
518.085133	2606.957094
518.448651	2602.941815
518.812112	2600.471650
519.175516	2604.567587
519.538863	2605.038935
519.902152	2606.805860
520.265385	2612.930862
520.628560	2612.119236
520.991678	2610.803495
521.354739	2611.625203
521.717743	2613.339195
522.080690	2613.830707
522.443580	2615.703496
522.806413	2616.925976
523.169189	2617.551079
523.531908	2620.759773
523.894569	2616.994032
524.257174	2620.389249
524.619722	2620.444701
524.982213	2622.859414
525.344647	2624.538118
525.707025	2623.481997
526.069345	2623.396297
526.431608	2621.712552
526.793815	2623.562655
527.155964	2623.996194
527.518057	2626.173973
527.880093	2629.312091
528.242072	2628.074488
528.603995	2630.577421
528.965860	2630.862246
529.327669	2630.973151
529.689421	2631.643625
530.051117	2633.813841
530.412755	2635.449696
530.774337	2635.386681
531.135862	2633.463481
531.497331	2638.055972
531.858743	2635.648821
532.220098	2638.615540
532.581396	2640.200983
532.942638	2638.507156
533.303824	2642.900521
533.664953	2643.467651
534.026025	2640.846251
534.387040	2643.356746
534.747999	2645.486633
535.108902	2646.051242
535.469748	2646.847745
535.830537	2646.336067
536.191270	2651.188178
536.551947	2647.203146
536.912567	2647.182981
537.273131	2651.415030
537.633638	2648.372694
537.994089	2652.249341
538.354483	2654.953920
538.714821	2659.775784
539.075103	2656.715803
539.435328	2657.086328
539.795497	2661.330980
540.155609	2662.692091
540.515665	2665.502534
540.875665	2662.465239
541.235609	2661.683860
541.595496	2664.980775
541.955328	2664.461536
542.315102	2670.326919
542.674821	2667.750889
543.034483	2670.226096
543.394090	2673.417146
543.753640	2672.449244
544.113134	2677.503001
544.472571	2678.024761
544.831953	2679.675738
545.191278	2678.622137
545.550548	2680.694052
545.909761	2684.474917
546.268918	2685.200843
546.628019	2688.356605
546.987064	2692.757533
547.346053	2689.329548
547.704986	2690.552028
548.063863	2696.924046
548.422684	2695.759540
548.781449	2696.578727
549.140158	2697.229036
549.498811	2701.289686
549.857408	2700.525951
550.215949	2705.362938
550.574434	2705.947712
550.932864	2710.031046
551.291237	2712.080275
551.649555	2717.993549
552.007817	2717.527242
552.366022	2717.549927
552.724173	2716.816439
553.082267	2719.989846
553.440305	2726.676936
553.798288	2727.344889
554.156215	2734.427710
554.514086	2737.291086
554.871902	2732.839747
555.229661	2741.762589
555.587365	2740.020871
555.945014	2747.824577
556.302606	2753.480751
556.660143	2754.171389
557.017625	2763.951228
557.375050	2761.907040
557.732421	2766.741507
558.089735	2771.215531
558.446994	2776.662497
558.804197	2784.539300
559.161345	2791.042389
559.518437	2784.917387
559.875474	2794.740075
560.232455	2799.962710
560.589381	2803.826755
560.946251	2805.933957
561.303065	2818.728406
561.659825	2827.676454
562.016528	2828.198213
562.373177	2830.353306
562.729770	2837.186590
563.086307	2848.115812
563.442789	2857.762060
563.799216	2861.885724
564.155587	2869.986858
564.511904	2881.901625
564.868164	2881.044629
565.224370	2894.330590
565.580520	2894.749006
565.936615	2912.128383
566.292654	2910.928589
566.648638	2927.763522
567.004567	2931.229315
567.360441	2942.115687
567.716260	2948.860751
568.072023	2967.976806
568.427732	2974.502580
568.783385	2981.073724
569.138982	2997.462515
569.494525	3011.761748
569.850013	3024.820857
570.205445	3031.568442
570.560823	3035.598844
570.916145	3053.663819
571.271412	3060.348389
571.626625	3082.456369
571.981782	3095.608739
572.336884	3102.847836
572.691931	3117.240331
573.046923	3120.842235
573.401860	3142.229330
573.756743	3169.368382
574.111570	3181.086544
574.466342	3194.135571
574.821059	3215.111812
575.175722	3218.905280
575.530330	3242.898652
575.884882	3259.325252
576.239380	3281.299641
576.593823	3294.373874
576.948211	3308.247129
577.302544	3321.651557
577.656823	3330.730675
578.011047	3359.533308
578.365216	3378.014178
578.719330	3399.474370
579.073389	3412.604055
579.427394	3453.714665
579.781344	3454.498564
580.135239	3479.119559
580.489080	3494.719410
580.842866	3505.459588
581.196597	3561.570151
581.550273	3566.165163
581.903895	3607.477419
582.257463	3643.471257
582.610975	3653.223369
582.964434	3698.306408
583.317837	3715.073286
583.671186	3749.980756
584.024481	3788.391827
584.377721	3795.489772
584.730906	3828.405986
585.084037	3863.583158
585.437113	3889.834966
585.790135	3927.504988
586.143103	3933.418262
586.496016	3951.309317
586.848874	4016.924975
587.201679	4038.934653
587.554428	4052.507960
587.907124	4112.807721
588.259765	4135.873521
588.612352	4192.934341
588.964884	4189.095503
589.317362	4238.962596
589.669786	4280.942805
590.022155	4317.932271
590.374470	4378.889904
590.726731	4401.459149
591.078937	4412.413577
591.431090	4462.315959
591.783188	4467.248728
592.135232	4494.798633
592.487222	4567.996187
592.839157	4594.273202
593.191038	4639.681395
593.542866	4643.321108
593.894639	4670.003935
594.246358	4733.358636
594.598022	4754.660032
594.949633	4774.194503
595.301190	4799.352381
595.652692	4865.842680
596.004141	4927.427936
596.355535	4889.707502
596.706876	4933.575623
597.058162	4967.711796
597.409395	5020.414539
597.760573	5087.386268
598.111698	5098.108802
598.462768	5135.375532
598.813785	5173.988250
599.164748	5189.938461
599.515657	5234.958485
599.866511	5248.831741
600.217312	5347.255228
600.568060	5315.117873
600.918753	5425.980407
601.269392	5467.706038
601.619978	5460.666066
601.970510	5564.171037
602.320988	5587.761117
602.671412	5674.015259
603.021783	5704.715886
603.372100	5707.246545
603.722363	5784.948370
604.072572	5827.586449
604.422728	5886.822527
604.772830	5918.758237
605.122878	5926.168733
605.472872	5999.981308
605.822813	6056.943826
606.172701	6099.108036
606.522534	6191.701430
606.872314	6250.723259
607.222041	6243.363174
607.571714	6357.593200
607.921333	6383.978599
608.270899	6453.317150
608.620411	6563.055507
608.969870	6534.951074
609.319276	6599.934068
609.668627	6679.077663
610.017926	6764.522700
610.367171	6842.113619
610.716362	6936.499143
611.065500	6924.191166
611.414585	7025.818307
611.763616	7074.707417
612.112594	7132.123638
612.461518	7162.478946
612.810389	7275.390710
613.159207	7280.283150
613.507971	7316.173645
613.856682	7496.490677
614.205340	7529.936212
614.553945	7660.786922
614.902496	7595.816531
615.250994	7772.398068
615.599439	7805.377296
615.947830	7856.300512
616.296169	7913.532732
616.644454	7989.165163
616.992686	8009.183585
617.340864	8161.174373
617.688990	8155.394690
618.037063	8293.018190
618.385082	8298.918861
618.733048	8447.612735
619.080961	8456.212943
619.428821	8553.436636
619.776628	8590.287471
620.124382	8604.362372
620.472083	8696.025673
620.819731	8771.078371
621.167326	8704.792239
621.514868	8762.987319
621.862357	8742.197601
622.209793	8803.387126
622.557176	8794.010580
622.904506	8758.377184
623.251783	8778.745966
623.599007	8772.179863
623.946179	8806.863002
624.293297	8834.599430
624.640363	8799.016446
624.987376	8835.090943
625.334336	8803.959297
625.681243	8797.672978
626.028097	8835.302671
626.374899	8908.759844
626.721647	8857.239252
627.068343	8845.364814
627.414987	8865.090849
627.761577	8938.162374
628.108115	9012.872274
628.454600	8911.454341
628.801032	8986.436463
629.147412	9013.789764
629.493739	9076.854599
629.840014	9051.936175
630.186236	9131.677147
630.532405	9071.548784
630.878521	9222.906908
631.224585	9211.339981
631.570597	9198.164925
631.916556	9230.294719
632.262462	9270.487839
632.608316	9307.041245
632.954117	9309.796236
633.299866	9368.684474
633.645562	9382.993790
633.991206	9287.216908
634.336797	9243.142100
634.682336	9307.527717
635.027823	9278.931771
635.373257	9287.632803
635.718639	9248.631916
636.063968	9259.031817
636.409245	9188.712762
636.754470	9240.712263
637.099642	9207.980052
637.444762	9110.408519
637.789829	9195.488072
638.134845	9145.689034
638.479808	9197.307929
638.824719	9214.157986
639.169577	9164.709308
639.514383	9233.919309
639.859137	9164.656375
640.203839	9252.627031
640.548489	9184.904170
640.893086	9245.602183
641.237632	9166.186366
641.582125	9328.720727
641.926566	9270.069423
642.270955	9297.420203
642.615292	9315.278491
642.959576	9356.731899
643.303809	9434.620246
643.647990	9402.364423
643.992118	9501.039969
644.336195	9373.536585
