Dividing Wavelength (nm)	Counts (n)	Blue Motor Position (mm): 12.600000	Red Motor Position (mm): 0.000000	
326.493990	2166.438386
326.888308	2166.438386
327.282561	2166.438386
327.676750	2124.367437
328.070874	2121.178907
328.464933	2123.439864
328.858929	2124.770729
329.252859	2131.921606
329.646726	2138.858233
330.040528	2152.431540
330.434265	2164.807573
330.827938	2181.556806
331.221547	2198.613550
331.615091	2215.584595
332.008571	2234.035218
332.401986	2252.758063
332.795338	2275.639861
333.188625	2291.506892
333.581847	2308.954326
333.975006	2327.203303
334.368100	2345.956395
334.761129	2361.452902
335.154095	2378.285315
335.546996	2400.030332
335.939833	2426.118303
336.332606	2440.530962
336.725315	2452.906994
337.117960	2465.275465
337.510540	2476.239975
337.903056	2486.886892
338.295508	2497.395177
338.687896	2508.175685
339.080220	2515.059380
339.472480	2522.855525
339.864676	2527.574045
340.256807	2531.760723
340.648875	2534.399767
341.040879	2539.221631
341.432818	2541.275901
341.824694	2544.837476
342.216506	2542.553833
342.608253	2542.291693
342.999937	2546.972405
343.391557	2545.414688
343.783113	2544.466951
344.174605	2545.583567
344.566033	2544.282949
344.957397	2542.896632
345.348697	2541.502753
345.739934	2538.737680
346.131106	2537.694161
346.522215	2537.905889
346.913260	2537.144675
347.304241	2536.295241
347.695159	2530.263500
348.086012	2532.037986
348.476802	2527.745444
348.867528	2521.378467
349.258191	2518.510050
349.648789	2519.389731
350.039324	2516.365039
350.429796	2518.401665
350.820203	2520.057684
351.210548	2517.277488
351.600828	2515.639113
351.991045	2513.451252
352.381198	2511.293638
352.771288	2513.022754
353.161314	2511.359173
353.551276	2514.182219
353.941175	2511.369256
354.331010	2511.643998
354.720782	2511.028978
355.110490	2509.786333
355.500135	2510.187105
355.889717	2512.029647
356.279235	2509.446055
356.668689	2510.751714
357.058080	2509.546878
357.447408	2509.433453
357.836672	2509.927486
358.225873	2511.787671
358.615010	2512.493433
359.004084	2513.698269
359.393095	2511.918741
359.782043	2512.884122
360.170927	2513.055522
360.559748	2514.318331
360.948505	2513.327744
361.337199	2517.148938
361.725830	2515.989473
362.114398	2518.510050
362.502903	2517.562313
362.891344	2518.694052
363.279722	2518.174813
363.668037	2520.304701
364.056289	2520.309742
364.444478	2520.014834
364.832603	2522.545494
365.220665	2521.101203
365.608665	2519.324196
365.996601	2518.845287
366.384474	2521.254958
366.772284	2522.106913
367.160031	2522.643796
367.547715	2521.862417
367.935336	2522.588343
368.322893	2521.854856
368.710388	2517.186747
369.097820	2521.035668
369.485189	2518.444515
369.872495	2523.536080
370.259738	2525.534898
370.646918	2525.411390
371.034035	2525.744106
371.421090	2523.523477
371.808081	2525.202182
372.195010	2525.108920
372.581875	2528.695701
372.968678	2527.639580
373.355418	2528.211751
373.742096	2527.629497
374.128710	2529.535053
374.515262	2529.565300
374.901751	2525.897861
375.288177	2527.160670
375.674540	2526.215454
376.060841	2528.302491
376.447079	2528.766278
376.833254	2527.168232
377.219367	2528.000022
377.605417	2529.595547
377.991404	2529.184693
378.377329	2530.389529
378.763191	2529.376257
379.148991	2531.042358
379.534727	2527.805938
379.920402	2531.748120
380.306013	2531.775846
380.691563	2530.079498
381.077049	2530.956659
381.462474	2531.881711
381.847835	2530.954138
382.233134	2533.283151
382.618371	2533.280631
383.003545	2534.760209
383.388657	2530.530681
383.773706	2533.295754
384.158693	2530.576052
384.543618	2533.431865
384.928480	2533.812472
385.313280	2532.957997
385.698017	2534.087215
386.082692	2535.889428
386.467305	2533.930940
386.851856	2536.607792
387.236344	2534.775333
387.620770	2530.944056
388.005133	2528.257121
388.389435	2533.273069
388.773674	2528.403314
389.157851	2534.470343
389.541965	2538.493184
389.926018	2537.016126
390.310008	2537.522762
390.693936	2534.760209
391.077802	2539.393030
391.461606	2536.859850
391.845348	2537.681558
392.229027	2538.210879
392.612645	2535.372710
392.996200	2539.796322
393.379694	2537.719367
393.763125	2536.091074
394.146494	2538.281455
394.529801	2535.750796
394.913047	2539.188863
395.296230	2539.698020
395.679351	2540.136600
396.062410	2540.960829
396.445408	2540.003009
396.828343	2537.958822
397.211217	2537.384130
397.594028	2541.429656
397.976778	2539.524100
398.359466	2540.330684
398.742092	2539.448483
399.124656	2540.577701
399.507158	2541.308668
399.889598	2541.122146
400.271977	2542.664739
400.654294	2543.158772
401.036549	2538.972093
401.418742	2540.567619
401.800874	2540.285314
402.182944	2541.686755
402.564952	2540.834800
402.946898	2545.155069
403.328783	2541.464944
403.710606	2540.570139
404.092367	2542.082485
404.474067	2541.767413
404.855705	2544.222455
405.237282	2543.539379
405.618797	2543.612476
406.000250	2543.700696
406.381642	2546.995090
406.762972	2541.621220
407.144240	2539.284645
407.525447	2542.238761
407.906593	2543.972918
408.287677	2548.696479
408.668700	2543.751107
409.049661	2543.257074
409.430560	2547.973074
409.811399	2545.490305
410.192176	2546.674977
410.572891	2547.342929
410.953545	2544.724050
411.334138	2548.671273
411.714669	2547.471479
412.095139	2543.970398
412.475547	2547.640357
412.855894	2547.410985
413.236180	2546.072559
413.616405	2543.801519
413.996568	2546.564071
414.376670	2548.018444
414.756711	2548.285625
415.136691	2548.656150
415.516609	2549.054401
415.896466	2547.796633
416.276262	2546.828732
416.655997	2548.449463
417.035670	2547.526932
417.415283	2549.724875
417.794834	2547.610111
418.174324	2546.901828
418.553753	2545.061807
418.933121	2550.435677
419.312428	2547.602549
419.691674	2550.854093
420.070859	2549.046839
420.449983	2549.702189
420.829045	2551.048178
421.208047	2550.798640
421.586988	2547.930224
421.965867	2552.469783
422.344686	2551.766542
422.723444	2548.817467
423.102141	2550.412992
423.480777	2551.897612
423.859352	2548.633465
424.237866	2551.504402
424.616319	2551.653116
424.994712	2551.554813
425.373044	2551.693445
425.751314	2550.866696
426.129524	2547.741181
426.507673	2549.835780
426.885762	2546.911911
427.263789	2551.486758
427.641756	2547.975594
428.019662	2552.799978
428.397508	2551.118754
428.775292	2551.249824
429.153016	2553.024310
429.530679	2549.954247
429.908282	2551.033054
430.285824	2552.321069
430.663305	2556.837943
431.040726	2551.726213
431.418086	2549.598846
431.795385	2555.839794
432.172624	2551.522046
432.549802	2553.115051
432.926920	2550.518856
433.303977	2552.898281
433.680974	2553.316697
434.057910	2553.127653
434.434786	2552.268137
434.811601	2554.269475
435.188355	2552.454659
435.565050	2552.159752
435.941683	2554.418189
436.318257	2554.221584
436.694770	2555.461708
437.071222	2552.217725
437.447614	2554.798796
437.823946	2551.030533
438.200218	2558.113355
438.576429	2554.642520
438.952580	2555.454146
439.328670	2551.804351
439.704700	2558.229301
440.080670	2554.796275
440.456580	2554.193857
440.832429	2555.529763
441.208218	2555.071018
441.583947	2557.463046
441.959616	2555.638148
442.335224	2553.896429
442.710773	2554.771070
443.086261	2555.794424
443.461689	2557.294167
443.837057	2554.743343
444.212365	2556.311142
444.587612	2554.839125
444.962800	2550.838970
445.337927	2553.230997
445.712995	2551.879968
446.088002	2555.834753
446.462949	2557.294167
446.837837	2556.243087
447.212664	2553.271326
447.587431	2558.347768
447.962139	2556.220401
448.336786	2559.038406
448.711374	2557.402552
449.085901	2560.535629
449.460369	2556.326266
449.834776	2556.613611
450.209124	2558.695608
450.583412	2559.817265
450.957640	2558.138560
451.331808	2557.609239
451.705917	2558.612429
452.079965	2557.954558
452.453954	2559.088818
452.827883	2559.045968
453.201752	2559.648386
453.575562	2556.353992
453.949311	2557.115206
454.323001	2558.864487
454.696632	2556.409445
455.070202	2557.768036
455.443713	2557.783159
455.817164	2559.277861
456.190556	2559.088818
456.563888	2560.049158
456.937160	2559.900444
457.310373	2560.220557
457.683526	2560.996895
458.056619	2559.870197
458.429653	2560.074363
458.802628	2557.505896
459.175542	2561.059909
459.548398	2561.488407
459.921194	2561.133006
460.293930	2560.409600
460.666607	2557.667212
461.039224	2560.054199
461.411782	2559.812223
461.784280	2560.606205
462.156719	2563.285578
462.529099	2565.365054
462.901419	2563.381360
463.273680	2558.957748
463.645882	2559.749209
464.018024	2558.990515
464.390106	2559.948335
464.762130	2561.725341
465.134094	2563.207441
465.505999	2560.959086
465.877845	2560.543191
466.249631	2565.125600
466.621358	2563.678788
466.993026	2565.360013
467.364634	2569.103070
467.736184	2564.155177
468.107674	2565.808676
468.479105	2562.272307
468.850477	2568.064592
469.221790	2566.960580
469.593043	2564.291289
469.964238	2564.056875
470.335373	2564.394632
470.706449	2565.561659
471.077467	2564.235836
471.448425	2565.269273
471.819324	2564.878583
472.190164	2567.051320
472.560945	2566.837071
472.931667	2566.784139
473.302330	2565.339849
473.672934	2565.289437
474.043479	2565.213820
474.413965	2566.756413
474.784393	2565.904458
475.154761	2567.210117
475.525070	2566.496793
475.895321	2568.364541
476.265513	2567.515107
476.635645	2566.567370
477.005719	2565.954869
477.375734	2569.594582
477.745691	2567.457133
478.115588	2570.222206
478.485427	2568.654407
478.855207	2567.837740
479.224928	2566.469067
479.594591	2570.411249
479.964194	2571.762279
480.333739	2571.298492
480.703226	2568.740107
481.072653	2573.151117
481.442022	2570.985941
481.811333	2569.445868
482.180584	2567.341187
482.549777	2567.560477
482.918912	2565.170970
483.287988	2569.929819
483.657005	2573.551888
484.025964	2571.548030
484.394864	2571.858061
484.763706	2568.886300
485.132489	2569.269428
485.501213	2573.506518
485.869879	2570.769171
486.238487	2571.837896
486.607036	2571.958884
486.975527	2572.568863
487.343959	2567.462174
487.712333	2573.672876
488.080648	2574.252609
488.448905	2572.354614
488.817104	2574.766806
489.185244	2572.261353
489.553326	2572.717577
489.921350	2574.234965
490.289315	2574.691189
490.657222	2574.388720
491.025070	2575.888463
491.392861	2577.519276
491.760593	2575.901066
492.128267	2576.130438
492.495883	2576.299317
492.863440	2573.556929
493.230939	2573.201528
493.598380	2577.879719
493.965763	2576.843762
494.333088	2573.839234
494.700354	2572.158009
495.067563	2573.776220
495.434713	2573.705643
495.801805	2574.492063
496.168839	2574.144224
496.535815	2573.617423
496.902733	2575.439800
497.269593	2576.760583
497.636395	2571.452248
498.003139	2575.371745
498.369825	2572.475602
498.736453	2575.109605
499.103023	2576.745459
499.469535	2578.207394
499.835989	2576.155644
500.202385	2572.485684
500.568723	2571.250602
500.935003	2572.636919
501.301226	2571.033832
501.667390	2574.857547
502.033497	2578.540110
502.399546	2575.331416
502.765537	2574.960891
503.131470	2577.040367
503.497345	2575.638926
503.863163	2576.891653
504.228923	2573.282187
504.594625	2578.451890
504.960269	2573.670355
505.325856	2577.839390
505.691385	2577.206725
506.056856	2577.090778
506.422270	2578.540110
506.787625	2576.894173
507.152924	2577.292424
507.518164	2580.642271
507.883347	2577.408371
508.248472	2575.752352
508.613540	2580.531366
508.978550	2579.528176
509.343503	2580.899370
509.708398	2583.432550
510.073236	2581.887436
510.438016	2580.332240
510.802738	2582.449525
511.167403	2579.581108
511.532010	2581.610173
511.896561	2585.965730
512.261053	2585.010431
512.625488	2583.152766
512.989866	2582.028588
513.354186	2586.495051
513.718449	2583.757704
514.082655	2588.231728
514.446803	2586.419433
514.810894	2586.192582
515.174927	2589.005545
515.538904	2588.844228
515.902822	2588.108220
516.266684	2591.226174
516.630488	2590.129723
516.994235	2593.308170
517.357925	2592.080649
517.721558	2594.336566
518.085133	2593.260279
518.448651	2591.861359
518.812112	2590.205340
519.175516	2593.782039
519.538863	2590.827922
519.902152	2595.813624
520.265385	2598.140116
520.628560	2599.365117
520.991678	2597.020980
521.354739	2602.039449
521.717743	2596.975610
522.080690	2601.520210
522.443580	2603.468616
522.806413	2603.947525
523.169189	2602.911568
523.531908	2606.059769
523.894569	2603.534151
524.257174	2603.329984
524.619722	2606.815942
524.982213	2609.565891
525.344647	2606.853751
525.707025	2611.456324
526.069345	2611.879781
526.431608	2609.631426
526.793815	2614.107971
527.155964	2613.578650
527.518057	2613.132508
527.880093	2611.133690
528.242072	2615.368259
528.603995	2617.102416
528.965860	2617.077211
529.327669	2615.136366
529.689421	2617.987139
530.051117	2618.403034
530.412755	2619.184413
530.774337	2623.587861
531.135862	2619.166769
531.497331	2621.909157
531.858743	2621.984774
532.220098	2623.698766
532.581396	2623.421503
532.942638	2623.605505
533.303824	2625.821092
533.664953	2626.352934
534.026025	2625.811010
534.387040	2628.850825
534.747999	2627.525002
535.108902	2628.533233
535.469748	2630.290075
535.830537	2629.657410
536.191270	2633.337452
536.551947	2629.559107
536.912567	2629.642287
537.273131	2632.339304
537.633638	2632.588841
537.994089	2634.456588
538.354483	2636.251239
538.714821	2636.689820
539.075103	2637.438431
539.435328	2639.969090
539.795497	2639.669142
540.155609	2639.346508
540.515665	2638.171919
540.875665	2642.015799
541.235609	2638.580252
541.595496	2642.262815
541.955328	2644.128042
542.315102	2645.748773
542.674821	2643.271046
543.034483	2644.952271
543.394090	2647.525780
543.753640	2648.924700
544.113134	2650.089207
544.472571	2650.210194
544.831953	2650.684063
545.191278	2654.772438
545.550548	2651.853610
545.909761	2652.473672
546.268918	2657.262768
546.628019	2657.023314
546.987064	2656.050371
547.346053	2655.707572
547.704986	2654.490134
548.063863	2658.334014
548.422684	2661.025990
548.781449	2658.480207
549.140158	2661.895589
549.498811	2662.578665
549.857408	2658.477687
550.215949	2660.937770
550.574434	2660.095897
550.932864	2664.257369
551.291237	2663.430620
551.649555	2667.302226
552.007817	2672.194666
552.366022	2667.927329
552.724173	2671.418328
553.082267	2673.147444
553.440305	2671.136024
553.798288	2672.547547
554.156215	2677.029133
554.514086	2675.332784
554.871902	2673.089471
555.229661	2675.010151
555.587365	2673.709533
555.945014	2679.973167
556.302606	2681.465348
556.660143	2683.776717
557.017625	2686.327541
557.375050	2686.516584
557.732421	2687.799558
558.089735	2687.151770
558.446994	2691.303160
558.804197	2692.946576
559.161345	2693.919519
559.518437	2693.440609
559.875474	2699.747092
560.232455	2696.034283
560.589381	2703.638863
560.946251	2702.335725
561.303065	2703.669110
561.659825	2709.141283
562.016528	2708.173381
562.373177	2709.295038
562.729770	2708.034749
563.086307	2712.854092
563.442789	2716.904660
563.799216	2721.146791
564.155587	2719.316852
564.511904	2725.025958
564.868164	2723.536297
565.224370	2729.517627
565.580520	2729.759602
565.936615	2733.537947
566.292654	2731.697926
566.648638	2741.238309
567.004567	2741.573546
567.360441	2744.741911
567.716260	2743.400964
568.072023	2752.956471
568.427732	2753.614342
568.783385	2753.475710
569.138982	2759.489807
569.494525	2765.377874
569.850013	2768.485746
570.205445	2771.661673
570.560823	2772.637136
570.916145	2774.850202
571.271412	2780.425719
571.626625	2787.203550
571.981782	2795.042544
572.336884	2792.174128
572.691931	2797.966413
573.046923	2797.404325
573.401860	2802.957156
573.756743	2817.374856
574.111570	2818.703200
574.466342	2823.101607
574.821059	2830.249963
575.175722	2832.974706
575.530330	2842.414267
575.884882	2846.981552
576.239380	2853.998838
576.593823	2862.057123
576.948211	2862.972092
577.302544	2867.173894
577.656823	2874.070193
578.011047	2880.054042
578.365216	2889.352450
578.719330	2898.424007
579.073389	2902.446848
579.427394	2920.816812
579.781344	2921.013417
580.135239	2927.561876
580.489080	2936.542692
580.842866	2937.180398
581.196597	2963.890951
581.550273	2964.566466
581.903895	2980.708240
582.257463	2995.735920
582.610975	2996.376147
582.964434	3016.399610
583.317837	3027.515354
583.671186	3043.455482
584.024481	3060.900395
584.377721	3061.510375
584.730906	3075.678538
585.084037	3087.633634
585.437113	3102.462188
585.790135	3116.635392
586.143103	3124.615539
586.496016	3126.135447
586.848874	3157.597288
587.201679	3166.971313
587.554428	3174.243178
587.907124	3203.577652
588.259765	3215.366390
588.612352	3244.108529
588.964884	3242.139958
589.317362	3264.444543
589.669786	3281.849127
590.022155	3302.873259
590.374470	3329.515757
590.726731	3342.763910
591.078937	3350.315558
591.431090	3371.508569
591.783188	3379.203890
592.135232	3393.641755
592.487222	3429.386056
592.839157	3442.558591
593.191038	3463.814616
593.542866	3472.319043
593.894639	3489.829491
594.246358	3524.235366
594.598022	3536.961759
594.949633	3548.629509
595.301190	3560.904719
595.652692	3593.379832
596.004141	3626.157414
596.355535	3614.784571
596.706876	3640.295330
597.058162	3657.707476
597.409395	3682.948533
597.760573	3719.295252
598.111698	3728.704566
598.462768	3754.850510
598.813785	3770.888941
599.164748	3783.552320
599.515657	3815.782937
599.866511	3824.786438
600.217312	3874.338459
600.568060	3861.662478
600.918753	3925.465842
601.269392	3951.929379
601.619978	3954.618834
601.970510	4010.507586
602.320988	4027.029968
602.671412	4072.944797
603.021783	4092.938013
603.372100	4102.659879
603.722363	4150.235768
604.072572	4178.793905
604.422728	4211.024522
604.772830	4236.709201
605.122878	4246.115994
605.472872	4294.448056
605.822813	4328.125484
606.172701	4357.099516
606.522534	4409.146909
606.872314	4443.635963
607.222041	4452.200883
607.571714	4513.256818
607.921333	4544.212023
608.270899	4581.093105
608.620411	4656.602028
608.969870	4644.029390
609.319276	4690.690310
609.668627	4743.027569
610.017926	4804.922856
610.367171	4850.507490
610.716362	4918.409312
611.065500	4916.826389
611.414585	4978.371316
611.763616	5018.831617
612.112594	5059.085230
612.461518	5083.053396
612.810389	5159.184902
613.159207	5165.919883
613.507971	5200.776942
613.856682	5314.674251
614.205340	5343.635680
614.553945	5433.640441
614.902496	5404.651285
615.250994	5519.261918
615.599439	5543.600609
615.947830	5589.409574
616.296169	5629.355677
616.644454	5685.209141
616.992686	5710.606474
617.340864	5813.640097
617.688990	5827.785575
618.037063	5928.812818
618.385082	5945.647752
618.733048	6046.914450
619.080961	6067.522687
619.428821	6141.433564
619.776628	6180.699111
620.124382	6201.196443
620.472083	6265.672801
620.819731	6330.804508
621.167326	6293.726822
621.514868	6340.949830
621.862357	6341.781621
622.209793	6380.555656
622.557176	6389.533951
622.904506	6371.622731
623.251783	6396.974694
623.599007	6410.195120
623.946179	6442.035047
624.293297	6462.620599
624.640363	6453.501152
624.987376	6486.109855
625.334336	6470.091589
625.681243	6478.845553
626.028097	6512.833012
626.374899	6577.561427
626.721647	6554.591410
627.068343	6556.018056
627.414987	6584.939156
627.761577	6648.447612
628.108115	6709.135543
628.454600	6658.401370
628.801032	6714.685853
629.147412	6742.399596
629.493739	6792.876670
629.840014	6806.162631
630.186236	6858.492328
630.532405	6835.378638
630.878521	6947.294774
631.224585	6952.172090
631.570597	6967.492157
631.916556	6995.770509
632.262462	7034.373145
632.608316	7076.091213
632.954117	7090.473625
633.299866	7137.994062
633.645562	7163.827455
633.991206	7111.825432
634.336797	7082.314518
634.682336	7134.646736
635.027823	7122.951259
635.373257	7144.580330
635.718639	7123.183152
636.063968	7150.541494
636.409245	7103.336129
636.754470	7154.196331
637.099642	7146.775752
637.444762	7083.153870
637.789829	7156.023749
638.134845	7133.489791
638.479808	7175.845566
638.824719	7202.054525
639.169577	7171.207704
639.514383	7233.617189
639.859137	7198.636622
640.203839	7266.316633
640.548489	7223.121507
640.893086	7280.842718
641.237632	7233.082827
641.582125	7362.849688
641.926566	7319.941907
642.270955	7358.428596
642.615292	7381.257462
642.959576	7415.197030
643.303809	7484.454922
643.647990	7473.162737
643.992118	7562.902838
644.336195	7472.441852
