Dividing Wavelength (nm)	Counts (n)	Blue Motor Position (mm): 0.000000	Red Motor Position (mm): 7.000000	
326.493990	2086.347054
326.888308	2086.347054
327.282561	2086.347054
327.676750	2062.449464
328.070874	2065.149002
328.464933	2072.375496
328.858929	2082.556107
329.252859	2095.862232
329.646726	2106.940168
330.040528	2123.785183
330.434265	2145.736888
330.827938	2162.546615
331.221547	2183.253155
331.615091	2203.516073
332.008571	2224.623384
332.401986	2246.844790
332.795338	2264.261976
333.188625	2285.880965
333.581847	2303.184725
333.975006	2322.600729
334.368100	2338.717298
334.761129	2355.554752
335.154095	2372.039325
335.546996	2389.428785
335.939833	2400.078223
336.332606	2413.172620
336.725315	2425.513364
337.117960	2431.522420
337.510540	2440.253698
337.903056	2452.362550
338.295508	2455.084773
338.687896	2464.678089
339.080220	2473.132104
339.472480	2477.361632
339.864676	2478.601756
340.256807	2484.036119
340.648875	2484.401603
341.040879	2488.532829
341.432818	2488.152222
341.824694	2490.241780
342.216506	2486.297077
342.608253	2486.314721
342.999937	2487.138950
343.391557	2487.650627
343.783113	2481.896150
344.174605	2483.189206
344.566033	2478.846252
344.957397	2478.440439
345.348697	2477.278453
345.739934	2476.484471
346.131106	2475.544296
346.522215	2474.435242
346.913260	2470.049438
347.304241	2473.280818
347.695159	2470.306537
348.086012	2466.974334
348.476802	2465.421659
348.867528	2465.361165
349.258191	2463.251442
349.648789	2463.294292
350.039324	2462.954014
350.429796	2460.388067
350.820203	2460.055351
351.210548	2459.082408
351.600828	2458.099383
351.991045	2456.168621
352.381198	2458.190124
352.771288	2459.803293
353.161314	2458.225412
353.551276	2459.248766
353.941175	2459.833540
354.331010	2460.125927
354.720782	2458.175000
355.110490	2457.234825
355.500135	2458.790021
355.889717	2460.067953
356.279235	2461.872687
356.668689	2461.232460
357.058080	2459.417645
357.447408	2460.622480
357.836672	2458.038889
358.225873	2458.742130
358.615010	2458.850515
359.004084	2465.295630
359.393095	2462.727162
359.782043	2464.927626
360.170927	2466.878552
360.559748	2466.077009
360.948505	2467.080198
361.337199	2466.031638
361.725830	2469.585652
362.114398	2466.959211
362.502903	2467.019705
362.891344	2469.247895
363.279722	2468.718573
363.668037	2468.469036
364.056289	2469.847792
364.444478	2468.499283
364.832603	2473.482464
365.220665	2472.794346
365.608665	2470.629171
365.996601	2471.949953
366.384474	2473.258133
366.772284	2473.235447
367.160031	2476.071096
367.547715	2474.573874
367.935336	2474.830972
368.322893	2477.064204
368.710388	2475.519090
369.097820	2477.790130
369.485189	2476.834831
369.872495	2475.771148
370.259738	2478.992445
370.646918	2478.216107
371.034035	2482.581747
371.421090	2483.156438
371.808081	2486.110554
372.195010	2492.485093
372.581875	2492.981647
372.968678	2497.087667
373.355418	2502.990858
373.742096	2512.125429
374.128710	2518.895698
374.515262	2531.652338
374.901751	2541.588452
375.288177	2558.012532
375.674540	2573.274625
376.060841	2592.297419
376.447079	2613.689555
376.833254	2637.955149
377.219367	2658.797800
377.605417	2690.428520
377.991404	2710.893084
378.377329	2748.376583
378.763191	2778.273146
379.148991	2822.698314
379.534727	2867.060468
379.920402	2908.317271
380.306013	2950.224383
380.691563	3006.229082
381.077049	3053.250444
381.462474	3101.310284
381.847835	3165.542146
382.233134	3221.274622
382.618371	3269.652055
383.003545	3338.360462
383.388657	3399.292888
383.773706	3469.546408
384.158693	3522.402906
384.543618	3585.641661
384.928480	3639.806338
385.313280	3707.987944
385.698017	3774.803397
386.082692	3850.042618
386.467305	3876.997668
386.851856	3950.356539
387.236344	4039.161505
387.620770	4059.401737
388.005133	4108.868060
388.389435	4181.069986
388.773674	4206.797514
389.157851	4262.656019
389.541965	4309.803411
389.926018	4290.125267
390.310008	4359.970453
390.693936	4393.973036
391.077802	4413.260491
391.461606	4444.107311
391.845348	4458.351091
392.229027	4469.943224
392.612645	4538.505437
392.996200	4540.842012
393.379694	4574.141354
393.763125	4618.846306
394.146494	4597.686063
394.529801	4597.940641
394.913047	4634.599912
395.296230	4562.627358
395.679351	4512.795553
396.062410	4544.937950
396.445408	4428.731792
396.828343	4412.441303
397.211217	4384.762848
397.594028	4266.941000
397.976778	4254.297786
398.359466	4237.949324
398.742092	4151.430522
399.124656	4121.271819
399.507158	4096.860031
399.889598	4025.799927
400.271977	4003.565917
400.654294	3934.514713
401.036549	3905.092018
401.418742	3835.287161
401.800874	3823.551355
402.182944	3766.498096
402.564952	3755.785644
402.946898	3653.934172
403.328783	3595.648351
403.710606	3550.633368
404.092367	3518.609438
404.474067	3498.293588
404.855705	3406.416039
405.237282	3338.065554
405.618797	3323.489058
406.000250	3288.954633
406.381642	3267.749020
406.762972	3203.708722
407.144240	3133.200624
407.525447	3100.859101
407.906593	3047.556461
408.287677	3019.031092
408.668700	2981.232520
409.049661	2940.202569
409.430560	2906.696540
409.811399	2870.740510
410.192176	2845.093640
410.572891	2815.623055
410.953545	2797.177473
411.334138	2753.682397
411.714669	2744.106726
412.095139	2708.826211
412.475547	2695.459591
412.855894	2676.076355
413.236180	2662.989519
413.616405	2643.838176
413.996568	2635.144706
414.376670	2620.359002
414.756711	2606.495829
415.136691	2602.987186
415.516609	2592.864549
415.896466	2589.920515
416.276262	2583.866089
416.655997	2575.275963
417.035670	2569.082905
417.415283	2570.219686
417.794834	2565.803635
418.174324	2560.396997
418.553753	2558.554456
418.933121	2557.528581
419.312428	2552.898281
419.691674	2552.074052
420.070859	2549.248486
420.449983	2547.486602
420.829045	2544.802188
421.208047	2543.186498
421.586988	2543.642723
421.965867	2540.514687
422.344686	2538.697351
422.723444	2542.483257
423.102141	2536.504449
423.480777	2538.563760
423.859352	2541.134748
424.237866	2539.027546
424.616319	2537.187525
424.994712	2539.566950
425.373044	2540.129038
425.751314	2537.056455
426.129524	2535.448327
426.507673	2535.261804
426.885762	2535.589479
427.263789	2538.828421
427.641756	2536.569984
428.019662	2535.299613
428.397508	2536.262473
428.775292	2535.602082
429.153016	2537.487474
429.530679	2536.998482
429.908282	2535.803728
430.285824	2535.929757
430.663305	2533.898172
431.040726	2536.048224
431.418086	2534.850950
431.795385	2535.788605
432.172624	2534.654345
432.549802	2539.453524
432.926920	2540.575180
433.303977	2537.863040
433.680974	2537.895807
434.057910	2538.200797
434.434786	2537.978986
434.811601	2537.759696
435.188355	2540.454193
435.565050	2539.766075
435.941683	2542.064841
436.318257	2539.851775
436.694770	2538.936805
437.071222	2540.696168
437.447614	2538.331867
437.823946	2538.019315
438.200218	2543.181457
438.576429	2542.465613
438.952580	2540.151723
439.328670	2542.034594
439.704700	2541.472506
440.080670	2543.201622
440.456580	2541.681714
440.832429	2544.598021
441.208218	2541.661549
441.583947	2542.115253
441.959616	2541.926210
442.335224	2542.269008
442.710773	2543.297403
443.086261	2544.971067
443.461689	2543.922507
443.837057	2545.265974
444.212365	2545.238248
444.587612	2546.974925
444.962800	2546.788402
445.337927	2544.197249
445.712995	2544.494678
446.088002	2550.365101
446.462949	2550.087838
446.837837	2549.775286
447.212664	2545.066848
447.587431	2556.220401
447.962139	2560.528067
448.336786	2566.350600
448.711374	2563.583007
449.085901	2556.056564
449.460369	2558.065464
449.834776	2555.169321
450.209124	2561.314487
450.583412	2558.196534
450.957640	2558.967830
451.331808	2558.294836
451.705917	2550.758311
452.079965	2554.143446
452.453954	2554.796275
452.827883	2554.380380
453.201752	2552.467262
453.575562	2552.953734
453.949311	2557.347099
454.323001	2555.706204
454.696632	2556.195196
455.070202	2560.570917
455.443713	2558.617470
455.817164	2559.295505
456.190556	2556.096893
456.563888	2556.953889
456.937160	2555.237376
457.310373	2557.982285
457.683526	2557.505896
458.056619	2558.556976
458.429653	2557.674774
458.802628	2559.156873
459.175542	2555.040771
459.548398	2558.531770
459.921194	2562.773901
460.293930	2566.748851
460.666607	2568.558625
461.039224	2574.655901
461.411782	2569.856722
461.784280	2571.011147
462.156719	2567.462174
462.529099	2568.596434
462.901419	2565.871690
463.273680	2562.859601
463.645882	2563.812379
464.018024	2563.335990
464.390106	2565.349931
464.762130	2571.109449
465.134094	2578.635892
465.505999	2588.718200
465.877845	2598.606423
466.249631	2599.851588
466.621358	2597.121803
466.993026	2595.496031
467.364634	2592.914960
467.736184	2585.910277
468.107674	2581.955492
468.479105	2581.905080
468.850477	2581.277457
469.221790	2577.562126
469.593043	2573.173802
469.964238	2571.127093
470.335373	2571.366548
470.706449	2573.821590
471.077467	2578.396437
471.448425	2589.197109
471.819324	2589.827253
472.190164	2587.921697
472.560945	2583.666963
472.931667	2574.948288
473.302330	2571.356466
473.672934	2569.171126
474.043479	2571.061558
474.413965	2568.147771
474.784393	2559.983623
475.154761	2564.172822
475.525070	2563.451937
475.895321	2560.417162
476.265513	2560.528067
476.635645	2565.665003
477.005719	2566.411094
477.375734	2566.917730
477.745691	2566.688357
478.115588	2567.931002
478.485427	2570.756568
478.855207	2572.543657
479.224928	2576.165727
479.594591	2579.603793
479.964194	2575.091961
480.333739	2578.870306
480.703226	2574.597928
481.072653	2576.450552
481.442022	2578.978690
481.811333	2576.672363
482.180584	2575.994327
482.549777	2574.187074
482.918912	2572.024419
483.287988	2573.602300
483.657005	2568.818245
484.025964	2568.528378
484.394864	2567.600806
484.763706	2568.770354
485.132489	2567.691547
485.501213	2566.937894
485.869879	2565.589386
486.238487	2562.894889
486.607036	2567.497462
486.975527	2566.277503
487.343959	2562.965465
487.712333	2563.552760
488.080648	2565.047462
488.448905	2561.695094
488.817104	2565.115517
489.185244	2564.407235
489.553326	2566.811866
489.921350	2568.409911
490.289315	2574.872671
490.657222	2573.713205
491.025070	2574.713874
491.392861	2573.592217
491.760593	2570.459140
492.128267	2569.342525
492.495883	2567.678944
492.863440	2569.846640
493.230939	2563.900599
493.598380	2563.217523
493.965763	2559.015721
494.333088	2556.563200
494.700354	2553.238559
495.067563	2554.093034
495.434713	2554.387942
495.801805	2560.898592
496.168839	2559.776935
496.535815	2558.269630
496.902733	2558.839281
497.269593	2560.800290
497.636395	2559.030845
498.003139	2556.936245
498.369825	2555.849877
498.736453	2558.657799
499.103023	2556.497665
499.469535	2557.165618
499.835989	2554.798796
500.202385	2553.835936
500.568723	2555.103786
500.935003	2556.220401
501.301226	2553.926676
501.667390	2556.046482
502.033497	2559.502192
502.399546	2554.657644
502.765537	2554.899619
503.131470	2553.155380
503.497345	2556.069167
503.863163	2553.074721
504.228923	2554.420709
504.594625	2553.364588
504.960269	2554.879454
505.325856	2555.209650
505.691385	2551.201933
506.056856	2552.873075
506.422270	2551.121274
506.787625	2553.561193
507.152924	2551.680842
507.518164	2554.907181
507.883347	2551.209494
508.248472	2555.996070
508.613540	2550.223949
508.978550	2553.173024
509.343503	2549.331665
509.708398	2554.206460
510.073236	2550.551624
510.438016	2552.250493
510.802738	2551.527087
511.167403	2553.475493
511.532010	2552.810061
511.896561	2548.963660
512.261053	2550.934752
512.625488	2546.375028
512.989866	2546.347302
513.354186	2550.095399
513.718449	2546.246478
514.082655	2547.360573
514.446803	2551.055739
514.810894	2550.173537
515.174927	2550.468445
515.538904	2550.234031
515.902822	2550.992725
516.266684	2549.684545
516.630488	2549.583722
516.994235	2550.186140
517.357925	2548.262940
517.721558	2550.985163
518.085133	2549.694628
518.448651	2550.077755
518.812112	2547.912580
519.175516	2547.375697
519.538863	2550.450801
519.902152	2549.772766
520.265385	2548.368804
520.628560	2548.704041
520.991678	2549.739998
521.354739	2548.845193
521.717743	2549.263609
522.080690	2549.639175
522.443580	2547.443752
522.806413	2552.563044
523.169189	2546.606921
523.531908	2549.558517
523.894569	2547.862168
524.257174	2549.762683
524.619722	2546.054915
524.982213	2549.855945
525.344647	2544.643392
525.707025	2546.201108
526.069345	2546.430481
526.431608	2549.044319
526.793815	2547.373176
527.155964	2548.152035
527.518057	2547.042981
527.880093	2548.242775
528.242072	2544.562733
528.603995	2547.156407
528.965860	2548.905687
529.327669	2546.591797
529.689421	2544.164482
530.051117	2547.350491
530.412755	2546.407795
530.774337	2545.301262
531.135862	2545.724719
531.497331	2541.822866
531.858743	2542.357228
532.220098	2543.131045
532.581396	2540.963349
532.942638	2541.696837
533.303824	2543.667928
533.664953	2545.349153
534.026025	2544.938299
534.387040	2543.806560
534.747999	2544.076262
535.108902	2544.615665
535.469748	2543.428473
535.830537	2543.718340
536.191270	2542.954605
536.551947	2544.151879
536.912567	2543.163813
537.273131	2544.015768
537.633638	2543.662887
537.994089	2542.074924
538.354483	2540.885211
538.714821	2544.000644
539.075103	2542.725232
539.435328	2541.747249
539.795497	2541.578370
540.155609	2543.199101
540.515665	2542.286652
540.875665	2541.487629
541.235609	2540.673483
541.595496	2541.074255
541.955328	2543.020140
542.315102	2541.999306
542.674821	2542.140459
543.034483	2539.466127
543.394090	2540.242464
543.753640	2541.275901
544.113134	2539.650129
544.472571	2538.752803
544.831953	2543.453679
545.191278	2540.431508
545.550548	2540.943185
545.909761	2540.358411
546.268918	2542.314378
546.628019	2539.062834
546.987064	2541.316230
547.346053	2540.474357
547.704986	2540.139121
548.063863	2537.585776
548.422684	2539.299768
548.781449	2541.059131
549.140158	2540.796991
549.498811	2540.285314
549.857408	2540.620551
550.215949	2535.387833
550.574434	2535.476053
550.932864	2536.290200
551.291237	2535.329860
551.649555	2543.189019
552.007817	2541.676673
552.366022	2538.092412
552.724173	2538.725077
553.082267	2538.165509
553.440305	2539.816487
553.798288	2539.773637
554.156215	2540.562578
554.514086	2541.230530
554.871902	2537.081661
555.229661	2538.946888
555.587365	2539.241795
555.945014	2539.909748
556.302606	2539.667773
556.660143	2537.467309
557.017625	2538.175591
557.375050	2539.438400
557.732421	2537.530323
558.089735	2539.587114
558.446994	2538.578883
558.804197	2536.885056
559.161345	2539.655170
559.518437	2537.121990
559.875474	2540.905376
560.232455	2540.917979
560.589381	2538.818338
560.946251	2539.241795
561.303065	2537.590817
561.659825	2537.081661
562.016528	2537.825231
562.373177	2536.514531
562.729770	2539.319933
563.086307	2537.789943
563.442789	2536.403626
563.799216	2536.219623
564.155587	2536.930426
564.511904	2539.939995
564.868164	2538.246167
565.224370	2537.729449
565.580520	2536.479243
565.936615	2536.562422
566.292654	2535.234078
566.648638	2539.128369
567.004567	2533.802390
567.360441	2539.143493
567.716260	2538.994779
568.072023	2538.490663
568.427732	2532.668131
568.783385	2536.229706
569.138982	2535.246681
569.494525	2532.935312
569.850013	2531.344828
570.205445	2539.907228
570.560823	2536.552340
570.916145	2536.138965
571.271412	2540.050900
571.626625	2535.891948
571.981782	2538.828421
572.336884	2535.869263
572.691931	2539.617361
573.046923	2532.673172
573.401860	2535.092926
573.756743	2535.765920
574.111570	2535.433203
574.466342	2537.800025
574.821059	2535.143337
575.175722	2536.892618
575.530330	2538.944367
575.884882	2537.752134
576.239380	2536.060827
576.593823	2534.387164
576.948211	2536.569984
577.302544	2533.880528
577.656823	2536.300282
578.011047	2538.374717
578.365216	2533.288193
578.719330	2534.087215
579.073389	2534.760209
579.427394	2534.934129
579.781344	2531.392719
580.135239	2534.417411
580.489080	2534.984541
580.842866	2530.266021
581.196597	2540.766744
581.550273	2535.448327
581.903895	2534.084695
582.257463	2531.879190
582.610975	2533.202493
582.964434	2532.980682
583.317837	2537.958822
583.671186	2534.402288
584.024481	2536.224665
584.377721	2534.551002
584.730906	2530.686957
585.084037	2535.828934
585.437113	2534.422452
585.790135	2535.045035
586.143103	2531.266690
586.496016	2534.349355
586.848874	2530.024045
587.201679	2531.659900
587.554428	2529.008253
587.907124	2533.361289
588.259765	2527.720238
588.612352	2532.647966
588.964884	2533.888090
589.317362	2532.867256
589.669786	2532.698378
590.022155	2534.636701
590.374470	2534.114942
590.726731	2531.027235
591.078937	2533.502442
591.431090	2534.127545
591.783188	2532.476567
592.135232	2532.857174
592.487222	2532.423635
592.839157	2532.103521
593.191038	2533.565456
593.542866	2531.680064
593.894639	2532.937832
594.246358	2533.091587
594.598022	2530.921371
594.949633	2534.656866
595.301190	2529.305681
595.652692	2532.574869
596.004141	2527.722759
596.355535	2533.492359
596.706876	2531.695188
597.058162	2532.005219
597.409395	2529.812317
597.760573	2530.359282
598.111698	2531.957328
598.462768	2532.950435
598.813785	2528.799045
599.164748	2531.770805
599.515657	2531.932122
599.866511	2532.801721
600.217312	2528.940197
600.568060	2531.304498
600.918753	2536.711136
601.269392	2530.530681
601.619978	2531.478418
601.970510	2531.359951
602.320988	2530.278624
602.671412	2529.222502
603.021783	2532.307688
603.372100	2529.862728
603.722363	2531.039838
604.072572	2530.671834
604.422728	2532.910106
604.772830	2528.796524
605.122878	2527.684950
605.472872	2526.943900
605.822813	2527.737882
606.172701	2527.763088
606.522534	2530.954138
606.872314	2531.924560
607.222041	2529.661082
607.571714	2530.583613
607.921333	2530.581093
608.270899	2529.961031
608.620411	2529.421628
608.969870	2531.029756
609.319276	2531.483459
609.668627	2530.293747
610.017926	2530.835671
610.367171	2533.141999
610.716362	2530.200486
611.065500	2532.224509
611.414585	2527.238808
611.763616	2532.637884
612.112594	2530.167718
612.461518	2532.201824
612.810389	2532.073274
613.159207	2531.846423
613.507971	2531.959848
613.856682	2530.172759
614.205340	2530.273582
614.553945	2530.898686
614.902496	2528.720907
615.250994	2530.742410
615.599439	2530.258459
615.947830	2532.098480
616.296169	2530.686957
616.644454	2533.416742
616.992686	2533.265507
617.340864	2531.440610
617.688990	2532.597554
618.037063	2531.319622
618.385082	2530.460105
618.733048	2532.592513
619.080961	2532.705939
619.428821	2531.080167
619.776628	2531.838861
620.124382	2529.779549
620.472083	2529.116638
620.819731	2532.489170
621.167326	2531.717873
621.514868	2529.464477
621.862357	2530.311391
622.209793	2532.784077
622.557176	2531.430527
622.904506	2527.856349
623.251783	2523.445340
623.599007	2527.473222
623.946179	2526.328880
624.293297	2526.144878
624.640363	2530.117307
624.987376	2528.423479
625.334336	2529.971113
625.681243	2531.949766
626.028097	2530.939015
626.374899	2531.788449
626.721647	2527.775691
627.068343	2527.957172
627.414987	2528.448685
627.761577	2531.639735
628.108115	2528.186545
628.454600	2526.792666
628.801032	2525.660927
629.147412	2530.876000
629.493739	2527.342152
629.840014	2527.440454
630.186236	2526.253262
630.532405	2530.467667
630.878521	2526.225536
631.224585	2529.610671
631.570597	2528.274765
631.916556	2527.959693
632.262462	2526.341483
632.608316	2529.860208
632.954117	2527.594209
633.299866	2527.833664
633.645562	2529.106555
633.991206	2527.914322
634.336797	2525.492048
634.682336	2525.877696
635.027823	2525.489527
635.373257	2527.994981
635.718639	2526.028931
636.063968	2525.479445
636.409245	2525.865093
636.754470	2526.376771
637.099642	2524.766122
637.444762	2527.432892
637.789829	2525.784435
638.134845	2528.335259
638.479808	2528.083201
638.824719	2524.917357
639.169577	2524.806451
639.514383	2530.205527
639.859137	2528.559590
640.203839	2525.081194
640.548489	2523.195803
640.893086	2522.215298
641.237632	2524.093128
641.582125	2523.533560
641.926566	2522.832839
642.270955	2525.988602
642.615292	2524.791328
642.959576	2525.726462
643.303809	2526.596061
643.647990	2524.866945
643.992118	2521.486851
644.336195	2524.851822
