Dividing Wavelength (nm)	Counts (n)	Blue Motor Position (mm): 0.000000	Red Motor Position (mm): 34.600000	
326.493990	2125.501696
326.888308	2125.501696
327.282561	2125.501696
327.676750	2096.252922
328.070874	2092.270410
328.464933	2095.196800
328.858929	2103.088726
329.252859	2112.631630
329.646726	2126.333487
330.040528	2135.210958
330.434265	2153.901036
330.827938	2172.949036
331.221547	2186.981088
331.615091	2211.173585
332.008571	2228.305947
332.401986	2248.092475
332.795338	2268.564601
333.188625	2286.490944
333.581847	2307.905766
333.975006	2325.862356
334.368100	2341.119408
334.761129	2358.463498
335.154095	2375.248019
335.546996	2394.021276
335.939833	2415.549524
336.332606	2429.604261
336.725315	2440.581373
337.117960	2450.552776
337.510540	2458.918570
337.903056	2473.225365
338.295508	2476.141672
338.687896	2487.113744
339.080220	2494.415855
339.472480	2501.324757
339.864676	2505.642505
340.256807	2510.822290
340.648875	2512.445542
341.040879	2513.163906
341.432818	2517.186747
341.824694	2518.807478
342.216506	2521.000380
342.608253	2517.219515
342.999937	2519.036851
343.391557	2520.380318
343.783113	2516.082734
344.174605	2515.576098
344.566033	2515.041736
344.957397	2514.015861
345.348697	2512.627023
345.739934	2509.897239
346.131106	2510.207270
346.522215	2509.428411
346.913260	2504.651918
347.304241	2504.727535
347.695159	2502.027998
348.086012	2499.094046
348.476802	2497.349807
348.867528	2497.979951
349.258191	2495.991216
349.648789	2496.802842
350.039324	2494.441061
350.429796	2493.263952
350.820203	2492.253200
351.210548	2492.107007
351.600828	2490.947541
351.991045	2490.632469
352.381198	2486.763384
352.771288	2487.625421
353.161314	2488.192551
353.551276	2485.934114
353.941175	2487.511995
354.331010	2488.714310
354.720782	2488.507623
355.110490	2487.454022
355.500135	2486.249186
355.889717	2487.769094
356.279235	2488.348827
356.668689	2490.423261
357.058080	2489.843529
357.447408	2489.518374
357.836672	2487.731285
358.225873	2488.305977
358.615010	2488.696666
359.004084	2493.158087
359.393095	2493.054744
359.782043	2490.128354
360.170927	2489.132726
360.559748	2494.088180
360.948505	2494.151195
361.337199	2495.744199
361.725830	2497.881648
362.114398	2498.922647
362.502903	2497.082626
362.891344	2497.450630
363.279722	2498.524396
363.668037	2496.926350
364.056289	2502.489263
364.444478	2502.088491
364.832603	2503.439521
365.220665	2501.571773
365.608665	2501.483553
365.996601	2502.796773
366.384474	2504.349449
366.772284	2507.500170
367.160031	2507.812722
367.547715	2506.776764
367.935336	2509.451097
368.322893	2513.675583
368.710388	2516.349916
369.097820	2523.268899
369.485189	2528.552028
369.872495	2533.545291
370.259738	2536.454037
370.646918	2547.942827
371.034035	2555.958261
371.421090	2564.871021
371.808081	2577.269739
372.195010	2583.601428
372.581875	2594.381936
372.968678	2609.376848
373.355418	2621.818416
373.742096	2640.087557
374.128710	2655.836122
374.515262	2668.779284
374.901751	2685.851152
375.288177	2696.525795
375.674540	2720.332644
376.060841	2736.809656
376.447079	2758.912595
376.833254	2778.104267
377.219367	2789.240176
377.605417	2827.104283
377.991404	2838.920747
378.377329	2859.997812
378.763191	2876.812580
379.148991	2915.483271
379.534727	2940.862960
379.920402	2966.330870
380.306013	2981.204794
380.691563	3029.569624
381.077049	3052.857234
381.462474	3070.299627
381.847835	3108.118363
382.233134	3130.806076
382.618371	3130.995119
383.003545	3199.189327
383.388657	3206.259546
383.773706	3238.323805
384.158693	3254.571444
384.543618	3278.189249
384.928480	3321.144921
385.313280	3362.247969
385.698017	3360.879296
386.082692	3413.128335
386.467305	3421.572268
386.851856	3454.042340
387.236344	3473.070175
387.620770	3507.818848
388.005133	3532.185265
388.389435	3557.368349
388.773674	3570.729928
389.157851	3614.519911
389.541965	3627.316880
389.926018	3593.291612
390.310008	3663.555214
390.693936	3682.187319
391.077802	3725.790779
391.461606	3712.464489
391.845348	3775.912451
392.229027	3773.744755
392.612645	3788.714461
392.996200	3864.157849
393.379694	3909.384561
393.763125	3970.132985
394.146494	3939.530661
394.529801	4001.443592
394.913047	4050.728432
395.296230	4014.096888
395.679351	4067.775094
396.062410	4094.402469
396.445408	4076.448399
396.828343	4107.189355
397.211217	4132.190958
397.594028	4054.834452
397.976778	4119.411633
398.359466	4144.632526
398.742092	4173.863656
399.124656	4094.059670
399.507158	4176.341383
399.889598	4201.196792
400.271977	4266.625928
400.654294	4235.201896
401.036549	4240.898399
401.418742	4209.968400
401.800874	4317.634843
402.182944	4337.784335
402.564952	4402.900919
402.946898	4385.776120
403.328783	4383.840317
403.710606	4299.274961
404.092367	4491.758818
404.474067	4450.378506
404.855705	4463.666988
405.237282	4391.558323
405.618797	4503.968492
406.000250	4538.099624
406.381642	4612.975882
406.762972	4579.585800
407.144240	4590.618365
407.525447	4588.543930
407.906593	4644.702384
408.287677	4694.569478
408.668700	4619.055514
409.049661	4672.816899
409.430560	4711.797621
409.811399	4638.380777
410.192176	4799.617042
410.572891	4739.934822
410.953545	4841.395604
411.334138	4721.060742
411.714669	4790.532883
412.095139	4684.043549
412.475547	4827.688707
412.855894	4806.654493
413.236180	4816.101615
413.616405	4769.876755
413.996568	4858.459910
414.376670	4799.627124
414.756711	4756.943675
415.136691	4786.948622
415.516609	4864.405951
415.896466	4901.390376
416.276262	4933.510088
416.655997	4919.987193
417.035670	5099.532928
417.415283	5190.624058
417.794834	5133.268330
418.174324	5090.574798
418.553753	4992.899922
418.933121	5177.726266
419.312428	5247.006843
419.691674	5184.327657
420.070859	5312.635104
420.449983	5221.937185
420.829045	5339.078477
421.208047	5246.646400
421.586988	5317.797246
421.965867	5327.259492
422.344686	5460.368638
422.723444	5315.574097
423.102141	5139.902488
423.480777	5434.159679
423.859352	5203.443712
424.237866	5459.430984
424.616319	5455.425787
424.994712	5561.196756
425.373044	5436.672695
425.751314	5582.412452
426.129524	5385.308378
426.507673	5583.687864
426.885762	5662.501263
427.263789	5592.948464
427.641756	5474.158715
428.019662	5597.490543
428.397508	5605.634527
428.775292	5553.153595
429.153016	5646.704808
429.530679	5580.663172
429.908282	5660.285676
430.285824	5531.983270
430.663305	5806.756401
431.040726	5542.088263
431.418086	5542.695722
431.795385	5649.762268
432.172624	5660.484802
432.549802	5653.210417
432.926920	5669.510988
433.303977	5675.802348
433.680974	5714.664603
434.057910	5733.198405
434.434786	5739.356174
434.811601	5704.206729
435.188355	5941.705569
435.565050	5816.831147
435.941683	5798.904804
436.318257	6013.844481
436.694770	5996.626420
437.071222	6033.015989
437.447614	5963.606862
437.823946	5874.630497
438.200218	6027.100195
438.576429	5894.706892
438.952580	5991.181974
439.328670	6035.821391
439.704700	5947.971723
440.080670	5925.712509
440.456580	6195.482295
440.832429	6085.668320
441.208218	5933.995124
441.583947	6088.662766
441.959616	6095.705258
442.335224	6015.737434
442.710773	6152.768598
443.086261	6181.969482
443.461689	5975.718234
443.837057	6125.523682
444.212365	6282.502693
444.587612	6171.128481
444.962800	6327.552964
445.337927	6307.642927
445.712995	5916.910654
446.088002	6494.846175
446.462949	6323.020967
446.837837	6257.571666
447.212664	6428.348315
447.587431	6569.500622
447.962139	7112.518591
448.336786	8041.895632
448.711374	7781.971219
449.085901	6850.250042
449.460369	6776.263547
449.834776	6703.673453
450.209124	7104.341840
450.583412	7247.666885
450.957640	7396.136427
451.331808	7165.612023
451.705917	6717.345062
452.079965	6640.175079
452.453954	6851.197779
452.827883	6724.632050
453.201752	6818.815927
453.575562	6616.438806
453.949311	6824.116700
454.323001	6712.802982
454.696632	6786.000536
455.070202	6924.932215
455.443713	7078.021975
455.817164	7183.858480
456.190556	7264.728670
456.563888	7340.545103
456.937160	7380.937348
457.310373	7038.970677
457.683526	7059.596558
458.056619	6951.000022
458.429653	6936.998217
458.802628	6872.761314
459.175542	6981.962789
459.548398	7335.927406
459.921194	7498.965883
460.293930	7502.804722
460.666607	8032.642594
461.039224	8342.476951
461.411782	8471.807753
461.784280	8488.892223
462.156719	8376.388793
462.529099	8258.934949
462.901419	7844.511774
463.273680	7736.247954
463.645882	7752.021724
464.018024	7617.274202
464.390106	7784.758977
464.762130	8174.225920
465.134094	8644.343763
465.505999	9663.755812
465.877845	10886.250743
466.249631	11536.975484
466.621358	11152.191773
466.993026	10519.763900
467.364634	10264.671433
467.736184	9899.598633
468.107674	9570.733921
468.479105	9606.942008
468.850477	9365.821099
469.221790	9136.985482
469.593043	8807.785533
469.964238	8667.951487
470.335373	8682.046553
470.706449	8737.519410
471.077467	8725.697904
471.448425	10033.171566
471.819324	11111.010587
472.190164	11136.707869
472.560945	9885.611952
472.931667	9095.625335
473.302330	8962.995098
473.672934	8603.124769
474.043479	8960.378739
474.413965	8900.507476
474.784393	8780.938868
475.154761	8937.149102
475.525070	9025.724696
475.895321	8852.787913
476.265513	9028.018421
476.635645	9199.400008
477.005719	9199.833547
477.375734	9314.497112
477.745691	9546.485971
478.115588	9683.499491
478.485427	9924.862375
478.855207	10464.984201
479.224928	11277.071236
479.594591	11908.359809
479.964194	11718.762013
480.333739	11661.955771
480.703226	11573.249107
481.072653	11665.776965
481.442022	11900.382183
481.811333	12097.264446
482.180584	11902.418809
482.549777	11614.427772
482.918912	11437.291708
483.287988	11451.636312
483.657005	11470.001235
484.025964	11149.240178
484.394864	11281.459561
484.763706	11259.429718
485.132489	10998.726447
485.501213	10971.955400
485.869879	11052.329036
486.238487	10892.060673
486.607036	10996.306693
486.975527	10773.822930
487.343959	10968.666047
487.712333	11008.700370
488.080648	10939.719741
488.448905	10981.208438
488.817104	10921.558985
489.185244	11190.088647
489.553326	11346.165291
489.921350	11886.967673
490.289315	12945.622583
490.657222	13289.464563
491.025070	13195.295810
491.392861	13071.729567
491.760593	12689.962986
492.128267	12339.564985
492.495883	12012.467197
492.863440	11678.682319
493.230939	11335.352016
493.598380	11271.841039
493.965763	11134.225101
494.333088	11039.239680
494.700354	10960.822011
495.067563	11017.282934
495.434713	10853.049704
495.801805	10975.446399
496.168839	10891.622093
496.535815	10829.764614
496.902733	10833.873155
497.269593	10759.047308
497.636395	10852.880825
498.003139	10846.735659
498.369825	10709.515451
498.736453	10868.314318
499.103023	10793.465786
499.469535	10819.886473
499.835989	10801.345109
500.202385	10760.504202
500.568723	10612.959711
500.935003	10833.384163
501.301226	10634.883689
501.667390	10893.343647
502.033497	10982.680454
502.399546	10845.845895
502.765537	10745.284958
503.131470	10814.089146
503.497345	10981.064765
503.863163	10589.619168
504.228923	10896.771631
504.594625	10950.228027
504.960269	10699.780983
505.325856	10917.573953
505.691385	10701.878103
506.056856	10841.931439
506.422270	10861.329799
506.787625	10747.137582
507.152924	10857.551454
507.518164	10830.742598
507.883347	10741.703218
508.248472	10657.304221
508.613540	10874.910668
508.978550	10750.343756
509.343503	10717.866122
509.708398	10819.369755
510.073236	10927.152145
510.438016	10913.200752
510.802738	10855.358552
511.167403	10890.107226
511.532010	10781.213262
511.896561	10992.276291
512.261053	11049.626977
512.625488	10902.483258
512.989866	10875.263548
513.354186	10852.406957
513.718449	10735.426982
514.082655	10910.624722
514.446803	10793.715323
514.810894	10887.863912
515.174927	10743.482746
515.538904	10749.239743
515.902822	10879.425021
516.266684	10749.022974
516.630488	10672.256283
516.994235	10707.491428
517.357925	10744.289330
517.721558	10810.393981
518.085133	10799.875613
518.448651	10782.886925
518.812112	10655.476802
519.175516	10639.670264
519.538863	10724.832997
519.902152	10628.950251
520.265385	10740.725234
520.628560	10632.831939
520.991678	10580.164484
521.354739	10607.217837
521.717743	10522.443273
522.080690	10476.422579
522.443580	10549.867150
522.806413	10483.848199
523.169189	10480.450461
523.531908	10499.188430
523.894569	10296.758377
524.257174	10267.771742
524.619722	10335.933183
524.982213	10258.627089
525.344647	10257.891081
525.707025	10181.275625
526.069345	10221.100740
526.431608	10098.406617
526.793815	10166.048819
527.155964	9938.889386
527.518057	9944.689233
527.880093	9869.848263
528.242072	9875.307833
528.603995	9750.050283
528.965860	9648.932299
529.327669	9646.406681
529.689421	9561.614473
530.051117	9489.195778
530.412755	9526.921252
530.774337	9400.083301
531.135862	9333.736675
531.497331	9312.392430
531.858743	9141.066296
532.220098	9223.005211
532.581396	9079.165968
532.942638	9024.471969
533.303824	8947.186040
533.664953	8897.898678
534.026025	8791.333727
534.387040	8811.873909
534.747999	8764.260211
535.108902	8756.285105
535.469748	8532.266311
535.830537	8556.615084
536.191270	8489.905495
536.551947	8452.608518
536.912567	8403.328719
537.273131	8299.289386
537.633638	8232.393274
537.994089	8172.030498
538.354483	8079.905932
538.714821	8135.406515
539.075103	8080.631858
539.435328	8002.259560
539.795497	7851.755912
540.155609	7881.286991
540.515665	7888.027014
540.875665	7663.423445
541.235609	7654.424986
541.595496	7597.051614
541.955328	7631.495297
542.315102	7515.677308
542.674821	7432.331912
543.034483	7380.801237
543.394090	7325.366189
543.753640	7223.091260
544.113134	7296.067003
544.472571	7168.266191
544.831953	7191.296702
545.191278	7028.613627
545.550548	6996.922413
545.909761	7016.872779
546.268918	6946.596574
546.628019	6937.151972
546.987064	6809.628424
547.346053	6726.162040
547.704986	6709.080090
548.063863	6660.183418
548.422684	6608.761128
548.781449	6503.663153
549.140158	6501.631568
549.498811	6390.035545
549.857408	6281.295336
550.215949	6314.821530
550.574434	6199.258119
550.932864	6181.954359
551.291237	6172.174520
551.649555	6084.725624
552.007817	6046.634666
552.366022	5986.831458
552.724173	5931.482109
553.082267	5877.163677
553.440305	5861.021902
553.798288	5756.765799
554.156215	5749.735910
554.514086	5693.451427
554.871902	5592.245223
555.229661	5557.438576
555.587365	5506.477552
555.945014	5430.230100
556.302606	5407.612963
556.660143	5342.735834
557.017625	5326.208411
557.375050	5252.937760
557.732421	5253.081433
558.089735	5179.558725
558.446994	5137.908712
558.804197	5106.013332
559.161345	5054.212955
559.518437	4976.322087
559.875474	4948.164722
560.232455	4912.271707
560.589381	4866.354357
560.946251	4806.354544
561.303065	4816.210000
561.659825	4742.112600
562.016528	4684.696378
562.373177	4622.095330
562.729770	4602.817957
563.086307	4549.159916
563.442789	4539.153226
563.799216	4455.908652
564.155587	4435.865024
564.511904	4386.091192
564.868164	4351.975183
565.224370	4322.318075
565.580520	4260.901698
565.936615	4244.719594
566.292654	4171.297709
566.648638	4169.082122
567.004567	4121.362559
567.360441	4085.978701
567.716260	4036.925753
568.072023	4025.469731
568.427732	3979.098677
568.783385	3943.888738
569.138982	3915.149120
569.494525	3888.441087
569.850013	3839.221782
570.205445	3824.471365
570.560823	3785.989718
570.916145	3745.945312
571.271412	3728.089545
571.626625	3694.056715
571.981782	3664.308867
572.336884	3630.696973
572.691931	3616.342288
573.046923	3572.706060
573.401860	3544.493243
573.756743	3515.720857
574.111570	3497.020697
574.466342	3473.304588
574.821059	3455.237093
575.175722	3418.076228
575.530330	3395.859863
575.884882	3375.465875
576.239380	3349.511494
576.593823	3327.607681
576.948211	3308.226965
577.302544	3283.250568
577.656823	3260.908174
578.011047	3248.133890
578.365216	3227.901219
578.719330	3201.646890
579.073389	3182.767769
579.427394	3165.574914
579.781344	3151.593273
580.135239	3131.834471
580.489080	3119.823922
580.842866	3095.454984
581.196597	3083.593149
581.550273	3072.689133
581.903895	3055.637431
582.257463	3050.994528
582.610975	3028.195910
582.964434	3021.334899
583.317837	3001.676920
583.671186	2995.811537
584.024481	2979.014413
584.377721	2964.253914
584.730906	2951.842593
585.084037	2941.694751
585.437113	2932.045982
585.790135	2918.316400
586.143103	2904.165881
586.496016	2891.038716
586.848874	2883.108981
587.201679	2878.279556
587.554428	2864.691126
587.907124	2854.661750
588.259765	2845.748990
588.612352	2841.315295
588.964884	2829.874397
589.317362	2823.973726
589.669786	2815.653302
590.022155	2812.815132
590.374470	2804.409008
590.726731	2799.556897
591.078937	2785.958385
591.431090	2782.111985
591.783188	2775.003958
592.135232	2764.909047
592.487222	2762.673295
592.839157	2758.378232
593.191038	2749.435225
593.542866	2743.438773
593.894639	2735.781260
594.246358	2734.233626
594.598022	2729.164746
594.949633	2721.250134
595.301190	2718.066646
595.652692	2715.538507
596.004141	2712.932230
596.355535	2702.789429
596.706876	2697.556711
597.058162	2695.295754
597.409395	2690.728468
597.760573	2689.425330
598.111698	2683.149093
598.462768	2682.957530
598.813785	2677.203052
599.164748	2674.589214
599.515657	2673.638957
599.866511	2664.232164
600.217312	2669.810200
600.568060	2661.729231
600.918753	2668.557474
601.269392	2660.713438
601.619978	2655.228663
601.970510	2655.884013
602.320988	2654.502737
602.671412	2651.276398
603.021783	2649.726243
603.372100	2649.055770
603.722363	2645.290028
604.072572	2643.901190
604.422728	2644.957312
604.772830	2635.522792
605.122878	2634.489356
605.472872	2636.694861
605.822813	2631.933491
606.172701	2632.906434
606.522534	2636.173101
606.872314	2633.589510
607.222041	2634.302833
607.571714	2630.378295
607.921333	2632.959366
608.270899	2630.683285
608.620411	2629.667492
608.969870	2631.469705
609.319276	2629.347379
609.668627	2633.740745
610.017926	2636.417597
610.367171	2636.886425
610.716362	2631.867956
611.065500	2631.207565
611.414585	2628.238325
611.763616	2626.776391
612.112594	2624.354116
612.461518	2627.698922
612.810389	2625.165742
613.159207	2623.209774
613.507971	2621.324383
613.856682	2622.262037
614.205340	2621.578961
614.553945	2622.904784
614.902496	2620.830350
615.250994	2619.446553
615.599439	2621.400000
615.947830	2620.527880
616.296169	2616.615945
616.644454	2616.759618
616.992686	2616.434463
617.340864	2618.874382
617.688990	2616.684001
618.037063	2617.167951
618.385082	2614.909514
618.733048	2617.747684
619.080961	2616.331120
619.428821	2611.373145
619.776628	2615.489247
620.124382	2612.341047
620.472083	2613.593773
620.819731	2613.767693
621.167326	2610.564040
621.514868	2611.594956
621.862357	2608.945829
622.209793	2610.019595
622.557176	2607.950202
622.904506	2605.525407
623.251783	2603.123297
623.599007	2602.556167
623.946179	2601.177411
624.293297	2602.987186
624.640363	2602.470467
624.987376	2605.248143
625.334336	2602.334356
625.681243	2602.346959
626.028097	2599.014756
626.374899	2599.758327
626.721647	2600.277565
627.068343	2597.991402
627.414987	2600.055755
627.761577	2599.407966
628.108115	2596.897472
628.454600	2598.692122
628.801032	2596.347986
629.147412	2598.188007
629.493739	2597.588110
629.840014	2593.592995
630.186236	2595.493510
630.532405	2594.271031
630.878521	2597.394025
631.224585	2596.597523
631.570597	2589.189548
631.916556	2594.908737
632.262462	2593.482090
632.608316	2595.057451
632.954117	2591.387491
633.299866	2593.560228
633.645562	2592.703232
633.991206	2593.482090
634.336797	2589.754157
634.682336	2591.425299
635.027823	2589.287850
635.373257	2589.330700
635.718639	2587.725092
636.063968	2586.588312
636.409245	2584.135791
636.754470	2589.076122
637.099642	2585.895153
637.444762	2588.619897
637.789829	2584.057653
638.134845	2588.904722
638.479808	2584.428178
638.824719	2586.086717
639.169577	2584.937334
639.514383	2585.224680
639.859137	2584.806264
640.203839	2582.613362
640.548489	2584.168558
640.893086	2580.720409
641.237632	2579.064390
641.582125	2577.579770
641.926566	2578.020871
642.270955	2580.145717
