Dividing Wavelength (nm)	Counts (n)	Blue Motor Position (mm): 0.000000	Red Motor Position (mm): 7.200000	
326.493990	2127.054372
326.888308	2127.054372
327.282561	2127.054372
327.676750	2095.897520
328.070874	2096.033631
328.464933	2095.474063
328.858929	2104.810280
329.252859	2114.428802
329.646726	2124.679988
330.040528	2141.156999
330.434265	2153.318783
330.827938	2171.802174
331.221547	2189.879751
331.615091	2209.391537
332.008571	2228.298385
332.401986	2247.989132
332.795338	2264.672830
333.188625	2288.134360
333.581847	2305.332257
333.975006	2324.448312
334.368100	2342.893894
334.761129	2358.133302
335.154095	2374.638040
335.546996	2392.103117
335.939833	2407.135838
336.332606	2423.481779
336.725315	2433.259097
337.117960	2443.772424
337.510540	2453.196861
337.903056	2461.459312
338.295508	2469.588172
338.687896	2481.200470
339.080220	2485.976964
339.472480	2495.081288
339.864676	2497.427945
340.256807	2503.628564
340.648875	2507.621158
341.040879	2510.736591
341.432818	2510.378669
341.824694	2511.555778
342.216506	2510.686179
342.608253	2510.713906
342.999937	2513.859586
343.391557	2512.400172
343.783113	2510.807167
344.174605	2506.943122
344.566033	2508.722650
344.957397	2505.730725
345.348697	2507.681652
345.739934	2504.442710
346.131106	2499.189828
346.522215	2499.832575
346.913260	2498.718480
347.304241	2495.552635
347.695159	2495.141781
348.086012	2494.584734
348.476802	2489.720020
348.867528	2492.545587
349.258191	2485.951758
349.648789	2488.545432
350.039324	2484.653661
350.429796	2486.965030
350.820203	2483.484113
351.210548	2481.581078
351.600828	2481.386993
351.991045	2481.981849
352.381198	2478.500932
352.771288	2480.353557
353.161314	2479.504122
353.551276	2479.441108
353.941175	2477.033957
354.331010	2482.445635
354.720782	2479.655357
355.110490	2480.414050
355.500135	2476.499594
355.889717	2479.998155
356.279235	2478.173258
356.668689	2482.788434
357.058080	2478.790799
357.447408	2479.763742
357.836672	2477.013792
358.225873	2478.861375
358.615010	2477.291056
359.004084	2481.598722
359.393095	2480.832466
359.782043	2481.762559
360.170927	2483.400934
360.559748	2483.615183
360.948505	2484.552838
361.337199	2483.060656
361.725830	2483.632827
362.114398	2484.086531
362.502903	2488.336224
362.891344	2486.435709
363.279722	2487.917808
363.668037	2490.423261
364.056289	2490.902171
364.444478	2488.434526
364.832603	2488.633652
365.220665	2489.364619
365.608665	2491.355875
365.996601	2488.643734
366.384474	2490.287150
366.772284	2494.342758
367.160031	2493.619353
367.547715	2493.236225
367.935336	2495.981133
368.322893	2503.537823
368.710388	2504.094871
369.097820	2514.300687
369.485189	2513.708351
369.872495	2520.992818
370.259738	2525.580268
370.646918	2532.058151
371.034035	2535.839016
371.421090	2551.035575
371.808081	2558.642676
372.195010	2570.015519
372.581875	2578.524987
372.968678	2591.029569
373.355418	2599.324787
373.742096	2615.733743
374.128710	2625.490896
374.515262	2639.517907
374.901751	2648.102992
375.288177	2655.551297
375.674540	2671.947650
376.060841	2682.776048
376.447079	2692.883562
376.833254	2705.983000
377.219367	2705.970397
377.605417	2727.501165
377.991404	2728.375805
378.377329	2735.451065
378.763191	2740.545151
379.148991	2758.620208
379.534727	2763.711773
379.920402	2772.768206
380.306013	2766.673451
380.691563	2785.920576
381.077049	2784.929990
381.462474	2782.931172
381.847835	2789.971143
382.233134	2787.742953
382.618371	2773.385747
383.003545	2788.650361
383.388657	2780.866820
383.773706	2776.511263
384.158693	2766.267638
384.543618	2756.956627
384.928480	2757.911926
385.313280	2758.627769
385.698017	2738.460633
386.082692	2739.771333
386.467305	2723.206102
386.851856	2716.022458
387.236344	2704.596682
387.620770	2695.865404
388.005133	2685.614218
388.389435	2676.207425
388.773674	2662.871052
389.157851	2654.129691
389.541965	2644.995121
389.926018	2628.941566
390.310008	2620.479989
390.693936	2612.023454
391.077802	2603.491301
391.461606	2593.456884
391.845348	2587.094948
392.229027	2577.501632
392.612645	2568.190621
392.996200	2566.290106
393.379694	2560.671740
393.763125	2554.203940
394.146494	2547.814277
394.529801	2541.696837
394.913047	2540.048380
395.296230	2537.232895
395.679351	2530.994467
396.062410	2527.657224
396.445408	2527.332069
396.828343	2522.101872
397.211217	2518.323527
397.594028	2517.383352
397.976778	2515.482837
398.359466	2515.860924
398.742092	2511.482682
399.124656	2512.216169
399.507158	2514.237672
399.889598	2513.476458
400.271977	2513.967970
400.654294	2514.882940
401.036549	2513.050480
401.418742	2513.640295
401.800874	2513.557116
402.182944	2513.365553
402.564952	2514.910666
402.946898	2512.954698
403.328783	2510.812208
403.710606	2517.169103
404.092367	2515.717251
404.474067	2514.804802
404.855705	2512.894205
405.237282	2514.290604
405.618797	2515.271109
406.000250	2513.294976
406.381642	2511.820439
406.762972	2513.022754
407.144240	2516.738084
407.525447	2515.228259
407.906593	2516.523835
408.287677	2517.680780
408.668700	2516.037364
409.049661	2516.458300
409.430560	2515.639113
409.811399	2517.325379
410.192176	2516.483506
410.572891	2517.358146
410.953545	2516.498630
411.334138	2516.233969
411.714669	2517.373270
412.095139	2515.071983
412.475547	2517.244720
412.855894	2519.301511
413.236180	2517.854700
413.616405	2516.135667
413.996568	2517.181706
414.376670	2518.447036
414.756711	2518.162210
415.136691	2517.335461
415.516609	2516.589370
415.896466	2519.004083
416.276262	2519.611542
416.655997	2513.791530
417.035670	2517.096006
417.415283	2517.305214
417.794834	2512.576612
418.174324	2520.186234
418.553753	2516.135667
418.933121	2518.585667
419.312428	2521.010462
419.691674	2520.750843
420.070859	2521.146573
420.449983	2517.824453
420.829045	2520.211439
421.208047	2519.939217
421.586988	2522.976512
421.965867	2519.054495
422.344686	2519.349402
422.723444	2519.561131
423.102141	2519.276305
423.480777	2523.115144
423.859352	2520.483662
424.237866	2522.905936
424.616319	2522.273271
424.994712	2522.880730
425.373044	2522.822757
425.751314	2521.436440
426.129524	2522.729496
426.507673	2522.331245
426.885762	2522.316121
427.263789	2521.983405
427.641756	2521.688497
428.019662	2524.753519
428.397508	2523.097500
428.775292	2523.611698
429.153016	2521.927952
429.530679	2523.115144
429.908282	2523.354599
430.285824	2523.886441
430.663305	2523.238652
431.040726	2526.865763
431.418086	2522.285874
431.795385	2524.619928
432.172624	2522.774866
432.549802	2526.268386
432.926920	2523.142870
433.303977	2526.316277
433.680974	2525.635721
434.057910	2522.013652
434.434786	2522.709331
434.811601	2525.136647
435.188355	2522.903416
435.565050	2523.959537
435.941683	2523.886441
436.318257	2525.025741
436.694770	2521.156656
437.071222	2521.890144
437.447614	2519.737571
437.823946	2521.895185
438.200218	2523.016842
438.576429	2526.462470
438.952580	2524.985412
439.328670	2527.591689
439.704700	2524.143539
440.080670	2527.251411
440.456580	2525.555062
440.832429	2527.266534
441.208218	2525.219826
441.583947	2528.186545
441.959616	2524.430885
442.335224	2526.570855
442.710773	2526.149919
443.086261	2527.513551
443.461689	2529.940866
443.837057	2527.049765
444.212365	2524.403159
444.587612	2526.943900
444.962800	2527.589168
445.337927	2527.508510
445.712995	2527.831143
446.088002	2526.306194
446.462949	2524.486338
446.837837	2526.495238
447.212664	2527.397604
447.587431	2527.606812
447.962139	2525.986081
448.336786	2530.812986
448.711374	2527.513551
449.085901	2530.006401
449.460369	2530.694519
449.834776	2529.222502
450.209124	2526.160001
450.583412	2528.022707
450.957640	2530.845753
451.331808	2531.145702
451.705917	2528.115969
452.079965	2527.808458
452.453954	2529.383819
452.827883	2528.468849
453.201752	2529.041020
453.575562	2528.854498
453.949311	2530.760054
454.323001	2531.715352
454.696632	2528.756195
455.070202	2532.952956
455.443713	2530.868439
455.817164	2527.937008
456.190556	2528.360465
456.563888	2525.998684
456.937160	2526.482635
457.310373	2529.456916
457.683526	2529.043541
458.056619	2529.429189
458.429653	2527.871473
458.802628	2529.686288
459.175542	2527.997502
459.548398	2529.887934
459.921194	2532.032945
460.293930	2531.589324
460.666607	2531.317101
461.039224	2531.359951
461.411782	2531.574200
461.784280	2531.808614
462.156719	2531.548994
462.529099	2529.895496
462.901419	2531.967410
463.273680	2531.153264
463.645882	2533.295754
464.018024	2531.362472
464.390106	2531.813655
464.762130	2532.675692
465.134094	2531.281813
465.505999	2532.073274
465.877845	2532.872297
466.249631	2538.944367
466.621358	2533.394057
466.993026	2536.151568
467.364634	2536.592669
467.736184	2536.209541
468.107674	2534.039324
468.479105	2534.114942
468.850477	2533.595703
469.221790	2534.876156
469.593043	2532.020342
469.964238	2533.419262
470.335373	2531.241484
470.706449	2533.084026
471.077467	2532.234591
471.448425	2533.590662
471.819324	2534.714839
472.190164	2535.382792
472.560945	2533.794828
472.931667	2530.487832
473.302330	2533.699047
473.672934	2536.882535
474.043479	2531.400280
474.413965	2533.260466
474.784393	2530.749972
475.154761	2531.433048
475.525070	2530.636546
475.895321	2531.443130
476.265513	2528.778880
476.635645	2535.178625
477.005719	2535.274407
477.375734	2534.041845
477.745691	2536.317926
478.115588	2535.090405
478.485427	2533.194931
478.855207	2533.421783
479.224928	2533.356248
479.594591	2536.002854
479.964194	2535.712988
480.333739	2535.168543
480.703226	2534.074612
481.072653	2535.793646
481.442022	2535.110570
481.811333	2536.706095
482.180584	2535.130734
482.549777	2537.893287
482.918912	2534.573687
483.287988	2535.823893
483.657005	2536.131403
484.025964	2538.737680
484.394864	2537.275745
484.763706	2537.641229
485.132489	2538.659542
485.501213	2537.434542
485.869879	2536.300282
486.238487	2536.862371
486.607036	2536.980838
486.975527	2535.430683
487.343959	2535.781043
487.712333	2537.721887
488.080648	2535.743234
488.448905	2536.474202
488.817104	2535.309695
489.185244	2536.547298
489.553326	2537.381609
489.921350	2535.181146
490.289315	2540.290355
490.657222	2538.452855
491.025070	2538.069727
491.392861	2540.219779
491.760593	2536.645601
492.128267	2540.746580
492.495883	2534.520755
492.863440	2539.251877
493.230939	2536.196938
493.598380	2537.936136
493.965763	2532.000178
494.333088	2534.109901
494.700354	2535.402957
495.067563	2538.283976
495.434713	2532.864736
495.801805	2537.565612
496.168839	2537.580735
496.535815	2537.058976
496.902733	2537.744572
497.269593	2537.623585
497.636395	2537.343801
498.003139	2539.161137
498.369825	2537.880684
498.736453	2537.311033
499.103023	2534.525796
499.469535	2536.002854
499.835989	2536.943029
500.202385	2538.150385
500.568723	2536.716177
500.935003	2537.479912
501.301226	2535.879346
501.667390	2540.310520
502.033497	2540.129038
502.399546	2539.945036
502.765537	2537.316074
503.131470	2534.891279
503.497345	2538.478060
503.863163	2539.667773
504.228923	2539.398071
504.594625	2540.504604
504.960269	2538.218441
505.325856	2539.997968
505.691385	2537.179963
506.056856	2538.044521
506.422270	2535.680220
506.787625	2536.353214
507.152924	2534.523275
507.518164	2539.645087
507.883347	2539.385468
508.248472	2536.391023
508.613540	2539.755993
508.978550	2538.712474
509.343503	2538.001671
509.708398	2540.146682
510.073236	2540.411343
510.438016	2540.234903
510.802738	2537.071578
511.167403	2538.977135
511.532010	2538.291538
511.896561	2538.273894
512.261053	2538.588966
512.625488	2538.649460
512.989866	2535.042514
513.354186	2534.571166
513.718449	2531.685106
514.082655	2537.074099
514.446803	2536.822041
514.810894	2536.164171
515.174927	2540.965870
515.538904	2539.554347
515.902822	2538.142824
516.266684	2539.236754
516.630488	2540.323123
516.994235	2539.493853
517.357925	2540.628113
517.721558	2539.120807
518.085133	2541.144831
518.448651	2539.279604
518.812112	2541.351518
519.175516	2539.574511
519.538863	2537.311033
519.902152	2537.568132
520.265385	2540.771785
520.628560	2538.392361
520.991678	2540.701209
521.354739	2541.154913
521.717743	2538.304141
522.080690	2541.482588
522.443580	2541.384286
522.806413	2538.994779
523.169189	2537.091743
523.531908	2539.173740
523.894569	2538.067206
524.257174	2538.321785
524.619722	2537.779861
524.982213	2537.590817
525.344647	2539.612320
525.707025	2541.606096
526.069345	2539.035108
526.431608	2540.421425
526.793815	2539.841693
527.155964	2541.021322
527.518057	2538.243647
527.880093	2539.559388
528.242072	2539.745911
528.603995	2542.679862
528.965860	2541.717002
529.327669	2538.851106
529.689421	2540.355890
530.051117	2541.759852
530.412755	2541.933771
530.774337	2541.507794
531.135862	2539.093081
531.497331	2539.171219
531.858743	2536.648122
532.220098	2538.306661
532.581396	2538.546116
532.942638	2537.432021
533.303824	2540.428987
533.664953	2540.197094
534.026025	2538.001671
534.387040	2541.817825
534.747999	2540.348328
535.108902	2542.047197
535.469748	2540.076106
535.830537	2540.973432
536.191270	2539.007382
536.551947	2539.425797
536.912567	2536.537216
537.273131	2542.311858
537.633638	2544.305634
537.994089	2542.629451
538.354483	2539.584594
538.714821	2541.843031
539.075103	2541.764893
539.435328	2542.183308
539.795497	2541.800181
540.155609	2540.439069
540.515665	2539.355221
540.875665	2540.184491
541.235609	2541.250695
541.595496	2545.049204
541.955328	2541.265818
542.315102	2541.636343
542.674821	2541.275901
543.034483	2541.656508
543.394090	2539.287166
543.753640	2542.137938
544.113134	2539.193904
544.472571	2541.412012
544.831953	2540.434028
545.191278	2544.903011
545.550548	2539.198945
545.909761	2543.209183
546.268918	2542.395037
546.628019	2540.290355
546.987064	2542.039636
547.346053	2542.468134
547.704986	2542.261446
548.063863	2542.435366
548.422684	2541.195242
548.781449	2542.085006
549.140158	2540.565098
549.498811	2542.947043
549.857408	2540.325643
550.215949	2538.193235
550.574434	2537.971424
550.932864	2540.174409
551.291237	2536.753986
551.649555	2543.025181
552.007817	2540.542413
552.366022	2540.698689
552.724173	2542.526107
553.082267	2541.076775
553.440305	2543.519214
553.798288	2544.197249
554.156215	2541.258257
554.514086	2538.727598
554.871902	2541.205325
555.229661	2543.950233
555.587365	2540.333205
555.945014	2540.330684
556.302606	2541.288504
556.660143	2542.294214
557.017625	2543.352856
557.375050	2543.183977
557.732421	2540.766744
558.089735	2540.169368
558.446994	2541.018802
558.804197	2542.571477
559.161345	2542.780685
559.518437	2541.283462
559.875474	2541.260777
560.232455	2545.477702
560.589381	2539.960160
560.946251	2543.040305
561.303065	2544.938299
561.659825	2542.528628
562.016528	2540.262629
562.373177	2541.268339
562.729770	2542.044677
563.086307	2542.344625
563.442789	2541.117104
563.799216	2541.822866
564.155587	2542.334543
564.511904	2542.843700
564.868164	2540.733977
565.224370	2543.685572
565.580520	2542.284132
565.936615	2542.871426
566.292654	2540.824718
566.648638	2541.936292
567.004567	2540.580222
567.360441	2542.664739
567.716260	2543.362938
568.072023	2539.395550
568.427732	2537.648791
568.783385	2540.469316
569.138982	2538.538554
569.494525	2540.648277
569.850013	2536.874973
570.205445	2541.059131
570.560823	2542.667259
570.916145	2544.295552
571.271412	2540.928061
571.626625	2542.833617
571.981782	2541.225489
572.336884	2544.293031
572.691931	2543.504091
573.046923	2541.119625
573.401860	2541.835469
573.756743	2542.606765
574.111570	2541.651467
574.466342	2539.501415
574.821059	2541.485109
575.175722	2542.470654
575.530330	2538.775488
575.884882	2539.556867
576.239380	2544.199770
576.593823	2545.097095
576.948211	2540.403781
577.302544	2542.818494
577.656823	2540.066024
578.011047	2542.389996
578.365216	2543.138607
578.719330	2544.280428
579.073389	2539.148534
579.427394	2540.146682
579.781344	2540.590304
580.135239	2541.031405
580.489080	2543.438556
580.842866	2543.060469
581.196597	2543.153731
581.550273	2542.057280
581.903895	2541.182639
582.257463	2542.631971
582.610975	2541.212886
582.964434	2541.258257
583.317837	2540.640715
583.671186	2542.931920
584.024481	2543.267157
584.377721	2543.201622
584.730906	2539.259439
585.084037	2543.448638
585.437113	2544.068700
585.790135	2538.921682
586.143103	2543.325130
586.496016	2541.412012
586.848874	2535.191228
587.201679	2540.320602
587.554428	2537.439583
587.907124	2540.129038
588.259765	2538.730118
588.612352	2539.990407
588.964884	2542.269008
589.317362	2541.190201
589.669786	2538.687268
590.022155	2541.807743
590.374470	2541.117104
590.726731	2540.555016
591.078937	2540.560057
591.431090	2539.541744
591.783188	2541.525438
592.135232	2537.812628
592.487222	2539.156096
592.839157	2538.059645
593.191038	2543.867054
593.542866	2539.798843
593.894639	2542.407640
594.246358	2543.841848
594.598022	2543.771272
594.949633	2542.112732
595.301190	2542.208514
595.652692	2542.231199
596.004141	2540.381096
596.355535	2543.040305
596.706876	2538.929244
597.058162	2541.134748
597.409395	2540.255067
597.760573	2542.503422
598.111698	2540.834800
598.462768	2540.476878
598.813785	2540.744059
599.164748	2539.856816
599.515657	2539.221631
599.866511	2541.386806
600.217312	2539.075437
600.568060	2539.357742
600.918753	2542.828576
601.269392	2539.524100
601.619978	2539.851775
601.970510	2538.785571
602.320988	2540.696168
602.671412	2542.074924
603.021783	2539.340098
603.372100	2542.755479
603.722363	2541.873278
604.072572	2539.007382
604.422728	2542.994934
604.772830	2538.853626
605.122878	2538.329346
605.472872	2538.377237
605.822813	2535.042514
606.172701	2539.430838
606.522534	2540.640715
606.872314	2542.954605
607.222041	2542.788247
607.571714	2541.142310
607.921333	2541.901004
608.270899	2539.647608
608.620411	2540.776827
608.969870	2541.669111
609.319276	2543.020140
609.668627	2547.753783
610.017926	2546.359904
610.367171	2548.131870
610.716362	2545.233207
611.065500	2548.814946
611.414585	2543.725902
611.763616	2545.152548
612.112594	2542.095088
612.461518	2544.381252
612.810389	2542.145500
613.159207	2541.598535
613.507971	2541.991745
613.856682	2539.584594
614.205340	2541.195242
614.553945	2543.375541
614.902496	2541.442259
615.250994	2539.912269
615.599439	2540.776827
615.947830	2541.659028
616.296169	2542.120294
616.644454	2541.815304
616.992686	2542.163144
617.340864	2540.751621
617.688990	2539.075437
618.037063	2541.462423
618.385082	2540.328164
618.733048	2544.038453
619.080961	2542.153062
619.428821	2543.156251
619.776628	2539.274563
620.124382	2540.035777
620.472083	2541.076775
620.819731	2541.036446
621.167326	2540.010571
621.514868	2540.156765
621.862357	2543.403268
622.209793	2541.288504
622.557176	2541.369162
622.904506	2538.616692
623.251783	2536.655683
623.599007	2536.834644
623.946179	2537.263142
624.293297	2541.190201
624.640363	2538.321785
624.987376	2539.851775
625.334336	2540.350849
625.681243	2541.280942
626.028097	2538.846065
626.374899	2539.629964
626.721647	2540.156765
627.068343	2541.235572
627.414987	2539.466127
627.761577	2540.408822
628.108115	2539.201466
628.454600	2539.640046
628.801032	2541.840510
629.147412	2539.882022
629.493739	2543.204142
629.840014	2540.860006
630.186236	2541.409491
630.532405	2542.059800
630.878521	2542.117773
631.224585	2541.096940
631.570597	2537.447144
631.916556	2540.507125
632.262462	2540.232382
632.608316	2539.317412
632.954117	2538.672145
633.299866	2540.706250
633.645562	2540.688606
633.991206	2542.168185
634.336797	2540.519728
634.682336	2538.689789
635.027823	2540.108874
635.373257	2541.422094
635.718639	2537.915972
636.063968	2535.642411
636.409245	2539.773637
636.754470	2538.099974
637.099642	2539.042670
637.444762	2539.564429
637.789829	2539.012423
638.134845	2537.802546
638.479808	2539.635005
638.824719	2538.946888
639.169577	2537.540406
639.514383	2538.873791
639.859137	2536.983358
640.203839	2540.232382
640.548489	2540.428987
640.893086	2539.713143
641.237632	2537.343801
641.582125	2536.575025
641.926566	2533.336083
642.270955	2539.201466
642.615292	2537.411856
642.959576	2537.399253
643.303809	2537.860519
643.647990	2538.629295
643.992118	2537.968904
644.336195	2535.143337
