Dividing Wavelength (nm)	Counts (n)	Blue Motor Position (mm): 0.000000	Red Motor Position (mm): 23.000000	
326.493990	2128.080246
326.888308	2128.080246
327.282561	2128.080246
327.676750	2097.641759
328.070874	2093.054309
328.464933	2095.693353
328.858929	2103.081164
329.252859	2112.777824
329.646726	2123.092025
330.040528	2134.905969
330.434265	2155.564617
330.827938	2170.690599
331.221547	2189.171469
331.615091	2205.575384
332.008571	2230.067830
332.401986	2245.748339
332.795338	2265.118973
333.188625	2286.495985
333.581847	2306.380817
333.975006	2322.724238
334.368100	2342.336847
334.761129	2359.784280
335.154095	2374.960674
335.546996	2393.255021
335.939833	2407.884449
336.332606	2422.728127
336.725315	2434.282452
337.117960	2445.604883
337.510540	2453.932869
337.903056	2463.276648
338.295508	2472.877525
338.687896	2485.692138
339.080220	2490.629949
339.472480	2498.007677
339.864676	2499.008346
340.256807	2503.000940
340.648875	2507.492608
341.040879	2511.558299
341.432818	2512.029647
341.824694	2512.553927
342.216506	2515.538290
342.608253	2512.324554
342.999937	2513.771365
343.391557	2514.151973
343.783113	2514.824967
344.174605	2510.219873
344.566033	2510.673576
344.957397	2508.783144
345.348697	2505.067813
345.739934	2504.775426
346.131106	2504.001609
346.522215	2502.617812
346.913260	2499.267966
347.304241	2497.690085
347.695159	2496.213027
348.086012	2493.647079
348.476802	2493.523571
348.867528	2493.279075
349.258191	2490.730772
349.648789	2489.435195
350.039324	2489.165493
350.429796	2486.720534
350.820203	2488.003507
351.210548	2485.583754
351.600828	2482.740543
351.991045	2483.998311
352.381198	2483.494195
352.771288	2483.436222
353.161314	2481.553351
353.551276	2480.174596
353.941175	2481.109730
354.331010	2480.156952
354.720782	2480.739205
355.110490	2482.128043
355.500135	2482.342292
355.889717	2482.334730
356.279235	2481.969246
356.668689	2485.031747
357.058080	2481.918835
357.447408	2484.774648
357.836672	2481.767600
358.225873	2480.918166
358.615010	2479.632672
359.004084	2485.487972
359.393095	2486.216418
359.782043	2487.413692
360.170927	2490.463591
360.559748	2487.116264
360.948505	2488.920998
361.337199	2487.819505
361.725830	2489.462922
362.114398	2492.051554
362.502903	2492.913591
362.891344	2491.408807
363.279722	2491.852428
363.668037	2494.332676
364.056289	2492.348982
364.444478	2494.753613
364.832603	2493.649600
365.220665	2492.560711
365.608665	2497.168325
365.996601	2496.220588
366.384474	2500.031701
366.772284	2500.132524
367.160031	2499.676299
367.547715	2501.521362
367.935336	2505.599655
368.322893	2508.596621
368.710388	2510.439163
369.097820	2520.876872
369.485189	2518.378980
369.872495	2528.781401
370.259738	2534.276259
370.646918	2541.437218
371.034035	2546.032229
371.421090	2558.930022
371.808081	2569.166084
372.195010	2577.751169
372.581875	2592.622573
372.968678	2603.803852
373.355418	2612.111674
373.742096	2630.932822
374.128710	2646.877992
374.515262	2663.332318
374.901751	2679.171623
375.288177	2690.836853
375.674540	2716.019937
376.060841	2731.405539
376.447079	2749.110071
376.833254	2772.254008
377.219367	2783.503343
377.605417	2820.316369
377.991404	2831.114521
378.377329	2851.062366
378.763191	2868.799666
379.148991	2907.677045
379.534727	2931.541867
379.920402	2960.641928
380.306013	2972.463433
380.691563	3022.126360
381.077049	3043.503373
381.462474	3061.064233
381.847835	3098.610747
382.233134	3123.597226
382.618371	3123.294756
383.003545	3191.017617
383.388657	3195.421065
383.773706	3228.521281
384.158693	3243.072572
384.543618	3274.317643
384.928480	3306.908703
385.313280	3356.133050
385.698017	3354.235055
386.082692	3404.104670
386.467305	3412.231010
386.851856	3444.920372
387.236344	3468.785194
387.620770	3497.257631
388.005133	3525.745191
388.389435	3550.673697
388.773674	3563.810944
389.157851	3604.732510
389.541965	3618.464613
389.926018	3585.850869
390.310008	3656.605983
390.693936	3672.243643
391.077802	3713.281156
391.461606	3703.718087
391.845348	3768.184362
392.229027	3766.934156
392.612645	3779.257257
392.996200	3856.696941
393.379694	3895.675143
393.763125	3960.988332
394.146494	3926.937858
394.529801	3987.726612
394.913047	4036.391391
395.296230	4006.063809
395.679351	4059.245462
396.062410	4082.752362
396.445408	4062.681008
396.828343	4098.684929
397.211217	4122.821973
397.594028	4042.352555
397.976778	4106.637349
398.359466	4132.339672
398.742092	4167.521885
399.124656	4085.603135
399.507158	4163.211698
399.889598	4189.191284
400.271977	4254.408692
400.654294	4221.240420
401.036549	4229.132346
401.418742	4200.561607
401.800874	4303.698573
402.182944	4322.731450
402.564952	4389.466244
402.946898	4373.553842
403.328783	4370.461094
403.710606	4284.007827
404.092367	4477.946056
404.474067	4441.400211
404.855705	4448.979586
405.237282	4375.033421
405.618797	4483.085513
406.000250	4521.983056
406.381642	4601.381229
406.762972	4562.944951
407.144240	4572.903751
407.525447	4573.372578
407.906593	4635.587978
408.287677	4677.613557
408.668700	4604.481538
409.049661	4655.792923
409.430560	4697.705076
409.811399	4622.720433
410.192176	4785.259836
410.572891	4721.937902
410.953545	4824.532945
411.334138	4703.583061
411.714669	4774.491931
412.095139	4667.758101
412.475547	4811.640194
412.855894	4788.496257
413.236180	4801.714162
413.616405	4756.391668
413.996568	4839.638762
414.376670	4780.377478
414.756711	4741.326180
415.136691	4767.159573
415.516609	4845.058003
415.896466	4883.582500
416.276262	4922.475002
416.655997	4896.795365
417.035670	5080.379064
417.415283	5172.657385
417.794834	5112.488694
418.174324	5070.100152
418.553753	4974.600533
418.933121	5155.648532
419.312428	5221.838882
419.691674	5162.933000
420.070859	5288.805570
420.449983	5200.655954
420.829045	5314.076874
421.208047	5219.373758
421.586988	5291.137104
421.965867	5299.545748
422.344686	5433.829484
422.723444	5281.745434
423.102141	5101.982929
423.480777	5398.427981
423.859352	5165.945089
424.237866	5416.003964
424.616319	5398.443104
424.994712	5501.643085
425.373044	5377.171956
425.751314	5516.620353
426.129524	5308.539167
426.507673	5496.798537
426.885762	5570.394342
427.263789	5494.053628
427.641756	5368.571747
428.019662	5476.623839
428.397508	5469.430112
428.775292	5408.981637
429.153016	5492.735367
429.530679	5408.719497
429.908282	5474.393128
430.285824	5334.027241
430.663305	5580.456485
431.040726	5313.572759
431.418086	5294.033247
431.795385	5378.364189
432.172624	5375.533581
432.549802	5345.042162
432.926920	5337.004042
433.303977	5318.525692
433.680974	5329.628834
434.057910	5322.251105
434.434786	5301.607580
434.811601	5251.622019
435.188355	5426.292959
435.565050	5287.686434
435.941683	5239.094752
436.318257	5383.649838
436.694770	5337.162838
437.071222	5332.280481
437.447614	5241.761522
437.823946	5139.486593
438.200218	5222.854675
438.576429	5078.118107
438.952580	5111.281337
439.328670	5105.547025
439.704700	4996.451414
440.080670	4946.100370
440.456580	5089.145631
440.832429	4960.296259
441.208218	4813.709587
441.583947	4871.501375
441.959616	4827.487061
442.335224	4736.030448
442.710773	4772.319194
443.086261	4733.240169
443.461689	4568.654058
443.837057	4600.171352
444.212365	4637.488493
444.587612	4529.496895
444.962800	4561.893871
445.337927	4494.339888
445.712995	4242.695571
446.088002	4477.262980
446.462949	4343.213658
446.837837	4256.525976
447.212664	4292.320689
447.587431	4287.536634
447.962139	4462.378973
448.336786	4787.349394
448.711374	4620.220021
449.085901	4196.931976
449.460369	4097.278447
449.834776	4017.035881
450.209124	4099.582254
450.583412	4088.385852
450.957640	4091.327365
451.331808	3951.122794
451.705917	3757.469390
452.079965	3690.757280
452.453954	3695.785831
452.827883	3618.199953
453.201752	3593.853700
453.575562	3500.925070
453.949311	3499.468177
454.323001	3439.281841
454.696632	3409.133221
455.070202	3397.841036
455.443713	3390.687639
455.817164	3364.216540
456.190556	3333.636901
456.563888	3307.276707
456.937160	3275.537602
457.310373	3188.267668
457.683526	3151.303407
458.056619	3101.877414
458.429653	3065.959193
458.802628	3034.688916
459.175542	3016.656708
459.548398	3023.671474
459.921194	3017.322141
460.293930	2994.762977
460.666607	3015.590504
461.039224	3020.460259
461.411782	3000.860253
461.784280	2970.792291
462.156719	2928.212185
462.529099	2890.401010
462.901419	2837.617609
463.273680	2812.598362
463.645882	2791.884261
464.018024	2767.825355
464.390106	2756.442429
464.762130	2759.144488
465.134094	2769.090684
465.505999	2801.916157
465.877845	2833.657783
466.249631	2834.290447
466.621358	2790.772687
466.993026	2750.703076
467.364634	2730.893862
467.736184	2705.554502
468.107674	2689.742923
468.479105	2678.551561
468.850477	2668.499500
469.221790	2654.447284
469.593043	2640.654687
469.964238	2632.977010
470.335373	2629.087760
470.706449	2624.714559
471.077467	2622.355299
471.448425	2634.441465
471.819324	2644.405306
472.190164	2642.585449
472.560945	2623.227418
472.931667	2610.558999
473.302330	2604.053390
473.672934	2598.586258
474.043479	2600.736310
474.413965	2597.749427
474.784393	2593.121647
475.154761	2593.373705
475.525070	2591.624425
475.895321	2590.691811
476.265513	2591.594178
476.635645	2593.104003
477.005719	2593.222471
477.375734	2595.838829
477.745691	2592.920001
478.115588	2591.730289
478.485427	2597.930908
478.855207	2599.143306
479.224928	2605.606065
479.594591	2609.054214
479.964194	2608.514811
480.333739	2607.839296
480.703226	2604.650766
481.072653	2601.895776
481.442022	2606.853751
481.811333	2607.158740
482.180584	2604.353338
482.549777	2601.308481
482.918912	2598.861001
483.287988	2603.138420
483.657005	2598.931577
484.025964	2594.424786
484.394864	2594.127358
484.763706	2595.778336
485.132489	2593.547625
485.501213	2595.201123
485.869879	2593.403952
486.238487	2592.983016
486.607036	2592.257090
486.975527	2591.720207
487.343959	2591.790783
487.712333	2590.454877
488.080648	2590.543097
488.448905	2592.055443
488.817104	2589.239959
489.185244	2594.460074
489.553326	2593.998808
489.921350	2597.204982
490.289315	2602.518358
490.657222	2606.211003
491.025070	2603.110694
491.392861	2602.556167
491.760593	2600.542226
492.128267	2597.933429
492.495883	2597.043665
492.863440	2592.980495
493.230939	2592.347830
493.598380	2589.338262
493.965763	2585.320462
494.333088	2585.350709
494.700354	2585.975812
495.067563	2585.002869
495.434713	2584.143352
495.801805	2590.238108
496.168839	2586.563106
496.535815	2585.040678
496.902733	2585.149063
497.269593	2589.035792
497.636395	2584.203846
498.003139	2585.426326
498.369825	2587.399938
498.736453	2586.109402
499.103023	2587.883889
499.469535	2584.208887
499.835989	2584.072776
500.202385	2582.048753
500.568723	2584.773497
500.935003	2582.356263
501.301226	2583.087231
501.667390	2586.023703
502.033497	2584.072776
502.399546	2583.122519
502.765537	2583.903898
503.131470	2584.367684
503.497345	2585.383476
503.863163	2579.218145
504.228923	2582.963722
504.594625	2583.545976
504.960269	2583.170410
505.325856	2584.148394
505.691385	2581.448856
506.056856	2582.346181
506.422270	2583.145204
506.787625	2582.910790
507.152924	2581.501788
507.518164	2581.141345
507.883347	2582.799885
508.248472	2584.264340
508.613540	2582.668815
508.978550	2582.661253
509.343503	2583.293918
509.708398	2583.097313
510.073236	2584.032447
510.438016	2585.083528
510.802738	2582.817529
511.167403	2584.415575
511.532010	2582.096644
511.896561	2584.894484
512.261053	2588.277099
512.625488	2581.879874
512.989866	2581.413568
513.354186	2581.529514
513.718449	2579.059349
514.082655	2584.168558
514.446803	2586.540421
514.810894	2585.925400
515.174927	2584.934814
515.538904	2585.267530
515.902822	2584.634865
516.266684	2582.462128
516.630488	2584.942375
516.994235	2583.785431
517.357925	2586.416913
517.721558	2588.451018
518.085133	2585.340627
518.448651	2585.330544
518.812112	2585.312900
519.175516	2588.279619
519.538863	2585.257447
519.902152	2584.639906
520.265385	2587.004207
520.628560	2585.108733
520.991678	2586.502612
521.354739	2587.294074
521.717743	2587.757860
522.080690	2585.408682
522.443580	2588.319948
522.806413	2587.669640
523.169189	2588.566965
523.531908	2588.569486
523.894569	2587.180648
524.257174	2587.581419
524.619722	2588.705597
524.982213	2589.587799
525.344647	2588.060329
525.707025	2586.903384
526.069345	2585.050760
526.431608	2587.949424
526.793815	2589.638210
527.155964	2586.116964
527.518057	2588.367839
527.880093	2588.267016
528.242072	2586.868096
528.603995	2586.794999
528.965860	2585.887592
529.327669	2588.272057
529.689421	2590.832964
530.051117	2587.064701
530.412755	2585.610328
530.774337	2586.190061
531.135862	2588.090576
531.497331	2585.464135
531.858743	2582.527663
532.220098	2586.437077
532.581396	2584.090420
532.942638	2584.360122
533.303824	2586.076635
533.664953	2586.865576
534.026025	2586.162335
534.387040	2586.716862
534.747999	2585.277612
535.108902	2588.105699
535.469748	2584.907087
535.830537	2587.936821
536.191270	2586.948755
536.551947	2588.980340
536.912567	2585.663260
537.273131	2587.924218
537.633638	2586.616038
537.994089	2584.899526
538.354483	2583.203177
538.714821	2587.372212
539.075103	2589.461770
539.435328	2587.437747
539.795497	2587.732654
540.155609	2589.686101
540.515665	2586.432036
540.875665	2586.694176
541.235609	2586.774835
541.595496	2587.536049
541.955328	2586.860534
542.315102	2587.841039
542.674821	2588.309866
543.034483	2589.371029
543.394090	2588.405648
543.753640	2585.171748
544.113134	2586.951275
544.472571	2586.671491
544.831953	2586.772314
545.191278	2588.977819
545.550548	2588.244331
545.909761	2588.493868
546.268918	2588.614856
546.628019	2589.565113
546.987064	2587.226018
547.346053	2587.830957
547.704986	2585.635534
548.063863	2589.330700
548.422684	2588.826584
548.781449	2586.293405
549.140158	2587.833477
549.498811	2586.787438
549.857408	2585.990935
550.215949	2582.651171
550.574434	2581.496747
550.932864	2584.317272
551.291237	2584.090420
551.649555	2588.352716
552.007817	2586.868096
552.366022	2588.088055
552.724173	2588.428333
553.082267	2585.980853
553.440305	2588.057808
553.798288	2585.166707
554.156215	2589.005545
554.514086	2589.575196
554.871902	2588.377922
555.229661	2587.621749
555.587365	2587.359609
555.945014	2587.939341
556.302606	2586.956316
556.660143	2586.951275
557.017625	2585.880030
557.375050	2587.651996
557.732421	2587.805751
558.089735	2588.198961
558.446994	2587.672160
558.804197	2588.390525
559.161345	2588.650144
559.518437	2587.856162
559.875474	2588.143508
560.232455	2588.768611
560.589381	2590.038982
560.946251	2589.166862
561.303065	2591.440423
561.659825	2589.917994
562.016528	2588.844228
562.373177	2589.156780
562.729770	2588.002356
563.086307	2590.278437
563.442789	2588.750967
563.799216	2587.034454
564.155587	2590.230546
564.511904	2588.819023
564.868164	2589.865062
565.224370	2590.331369
565.580520	2588.004876
565.936615	2588.168714
566.292654	2586.268199
566.648638	2584.876840
567.004567	2585.685946
567.360441	2585.973291
567.716260	2585.396079
568.072023	2590.091914
568.427732	2581.695872
568.783385	2583.122519
569.138982	2583.697210
569.494525	2585.320462
569.850013	2581.474062
570.205445	2587.916656
570.560823	2587.291553
570.916145	2586.280802
571.271412	2585.504464
571.626625	2586.515215
571.981782	2584.526480
572.336884	2585.822057
572.691931	2586.038826
573.046923	2585.985894
573.401860	2583.714854
573.756743	2587.465473
574.111570	2583.712334
574.466342	2586.517736
574.821059	2583.936665
575.175722	2585.544793
575.530330	2586.031265
575.884882	2586.122005
576.239380	2583.538414
576.593823	2585.214598
576.948211	2584.082859
577.302544	2583.913980
577.656823	2584.191243
578.011047	2584.629824
578.365216	2584.886923
578.719330	2581.390882
579.073389	2580.619586
579.427394	2582.633527
579.781344	2583.853486
580.135239	2581.388362
580.489080	2582.081521
580.842866	2582.590677
581.196597	2583.969433
581.550273	2579.235789
581.903895	2580.632189
582.257463	2583.460276
582.610975	2582.023547
582.964434	2581.547158
583.317837	2584.279464
583.671186	2583.140163
584.024481	2580.798547
584.377721	2582.184864
584.730906	2582.625965
585.084037	2581.889957
585.437113	2580.511201
585.790135	2580.664956
586.143103	2581.156469
586.496016	2579.465162
586.848874	2577.615058
587.201679	2579.568505
587.554428	2574.524831
587.907124	2581.189236
588.259765	2577.952816
588.612352	2577.363001
588.964884	2577.461303
589.317362	2579.576067
589.669786	2576.299317
590.022155	2581.579926
590.374470	2581.302662
590.726731	2581.169072
591.078937	2579.293762
591.431090	2579.571026
591.783188	2578.174626
592.135232	2580.175964
592.487222	2575.429718
592.839157	2577.937692
593.191038	2577.224369
593.542866	2577.683114
593.894639	2575.593556
594.246358	2575.054152
594.598022	2578.288052
594.949633	2579.331571
595.301190	2574.234965
595.652692	2581.166551
596.004141	2578.628330
596.355535	2576.911817
596.706876	2573.501477
597.058162	2575.863257
597.409395	2576.085068
597.760573	2575.439800
598.111698	2575.311251
598.462768	2573.413257
598.813785	2575.069276
599.164748	2575.966601
599.515657	2574.562640
599.866511	2573.624985
600.217312	2576.642116
600.568060	2575.011302
600.918753	2575.099522
601.269392	2575.470047
601.619978	2573.050293
601.970510	2574.126580
602.320988	2575.409553
602.671412	2576.879050
603.021783	2575.376786
603.372100	2575.888463
603.722363	2572.523493
604.072572	2576.876529
604.422728	2575.633885
604.772830	2570.754048
605.122878	2567.913358
605.472872	2569.937381
605.822813	2569.972669
606.172701	2571.835375
606.522534	2569.725652
606.872314	2573.630026
607.222041	2573.423339
607.571714	2574.963411
607.921333	2573.503997
608.270899	2575.349060
608.620411	2575.129769
608.969870	2575.306210
609.319276	2576.543813
609.668627	2580.208732
610.017926	2581.595049
610.367171	2578.915676
610.716362	2582.295770
611.065500	2580.738053
611.414585	2576.810994
611.763616	2580.891808
612.112594	2577.342836
612.461518	2575.001220
612.810389	2577.446180
613.159207	2574.865109
613.507971	2574.834862
613.856682	2575.838052
614.205340	2574.310582
614.553945	2575.079358
614.902496	2574.426528
615.250994	2576.130438
615.599439	2575.994327
615.947830	2575.893504
616.296169	2572.082392
616.644454	2575.215469
616.992686	2575.142372
617.340864	2574.171950
617.688990	2572.715057
618.037063	2575.729667
618.385082	2572.999882
618.733048	2576.241344
619.080961	2573.264542
619.428821	2574.499625
619.776628	2573.940057
620.124382	2575.923751
620.472083	2574.862588
620.819731	2577.075655
621.167326	2573.020047
621.514868	2573.302351
621.862357	2573.589697
622.209793	2572.210941
622.557176	2571.941240
622.904506	2570.842268
623.251783	2568.833368
623.599007	2570.927968
623.946179	2568.170457
624.293297	2567.588203
624.640363	2567.691547
624.987376	2568.656928
625.334336	2572.480643
625.681243	2569.095508
626.028097	2567.436969
626.374899	2568.132648
626.721647	2569.118193
627.068343	2573.561971
627.414987	2568.697257
627.761577	2567.900755
628.108115	2569.965107
628.454600	2567.323543
628.801032	2568.619119
629.147412	2566.837071
629.493739	2566.065775
629.840014	2569.337484
630.186236	2570.065930
630.532405	2567.121897
630.878521	2567.081567
631.224585	2569.229099
631.570597	2568.276321
631.916556	2566.501835
632.262462	2567.303378
632.608316	2567.562997
632.954117	2563.988819
633.299866	2565.556618
633.645562	2565.791032
633.991206	2568.520817
634.336797	2566.398491
634.682336	2565.453275
635.027823	2563.462019
635.373257	2564.054354
635.718639	2562.199210
636.063968	2565.712894
636.409245	2563.192317
636.754470	2563.182235
637.099642	2559.340876
637.444762	2563.933367
637.789829	2563.041082
638.134845	2564.618964
638.479808	2560.802810
638.824719	2562.791545
639.169577	2562.973027
639.514383	2563.295661
639.859137	2558.627552
640.203839	2562.632749
640.548489	2563.005794
640.893086	2557.863817
641.237632	2557.783159
641.582125	2560.291133
641.926566	2556.409445
642.270955	2560.512944
642.615292	2560.313818
642.959576	2559.988664
643.303809	2562.345403
643.647990	2563.822461
643.992118	2560.916236
644.336195	2560.805331
