Dividing Wavelength (nm)	Counts (n)	Blue Motor Position (mm): 0.000000	Red Motor Position (mm): 16.800000	
326.493990	2131.160391
326.888308	2131.160391
327.282561	2131.160391
327.676750	2097.684609
328.070874	2096.109249
328.464933	2098.443303
328.858929	2103.791967
329.252859	2112.979470
329.646726	2123.664196
330.040528	2140.673049
330.434265	2158.687612
330.827938	2176.137566
331.221547	2190.971161
331.615091	2209.852803
332.008571	2228.126986
332.401986	2249.239338
332.795338	2269.807246
333.188625	2288.696449
333.581847	2305.450724
333.975006	2324.718014
334.368100	2342.762824
334.761129	2362.549353
335.154095	2374.731301
335.546996	2395.500855
335.939833	2410.825963
336.332606	2424.469846
336.725315	2436.659356
337.117960	2448.649740
337.510540	2453.340534
337.903056	2465.081381
338.295508	2472.217134
338.687896	2480.666108
339.080220	2491.847387
339.472480	2496.036586
339.864676	2503.051352
340.256807	2506.499501
340.648875	2510.081241
341.040879	2510.653412
341.432818	2512.188443
341.824694	2514.739267
342.216506	2514.217508
342.608253	2512.826149
342.999937	2512.380007
343.391557	2514.741788
343.783113	2511.785151
344.174605	2513.027795
344.566033	2510.532424
344.957397	2509.670387
345.348697	2508.510921
345.739934	2507.863133
346.131106	2504.843482
346.522215	2503.038749
346.913260	2500.195538
347.304241	2498.322749
347.695159	2498.373161
348.086012	2492.911071
348.476802	2495.333345
348.867528	2491.996101
349.258191	2493.763026
349.648789	2492.013745
350.039324	2489.339413
350.429796	2487.345637
350.820203	2486.382777
351.210548	2485.987046
351.600828	2487.506954
351.991045	2482.138125
352.381198	2484.888074
352.771288	2481.933958
353.161314	2483.257261
353.551276	2483.043012
353.941175	2482.894298
354.331010	2481.535707
354.720782	2482.458238
355.110490	2485.220791
355.500135	2482.138125
355.889717	2484.847745
356.279235	2483.763897
356.668689	2486.075266
357.058080	2482.995121
357.447408	2482.601911
357.836672	2480.323310
358.225873	2484.464617
358.615010	2482.601911
359.004084	2487.184320
359.393095	2484.235245
359.782043	2487.264978
360.170927	2486.266830
360.559748	2488.409320
360.948505	2488.051398
361.337199	2489.359578
361.725830	2492.532984
362.114398	2492.628766
362.502903	2492.096924
362.891344	2491.986019
363.279722	2493.581544
363.668037	2494.375526
364.056289	2495.489621
364.444478	2494.761174
364.832603	2494.352841
365.220665	2495.537512
365.608665	2492.782521
365.996601	2497.753099
366.384474	2496.797800
366.772284	2502.053203
367.160031	2498.582369
367.547715	2502.796773
367.935336	2505.254336
368.322893	2506.885149
368.710388	2512.632065
369.097820	2520.380318
369.485189	2520.188754
369.872495	2527.314425
370.259738	2531.158305
370.646918	2539.672814
371.034035	2547.678166
371.421090	2556.043961
371.808081	2566.834551
372.195010	2577.592373
372.581875	2590.643920
372.968678	2602.944336
373.355418	2613.699638
373.742096	2631.666310
374.128710	2648.236582
374.515262	2662.210661
374.901751	2678.642302
375.288177	2690.181503
375.674540	2711.568598
376.060841	2731.624829
376.447079	2749.208373
376.833254	2769.685540
377.219367	2779.878753
377.605417	2819.696307
377.991404	2828.903975
378.377329	2851.349712
378.763191	2868.648432
379.148991	2905.907600
379.534727	2931.241918
379.920402	2959.240487
380.306013	2972.949905
380.691563	3020.634179
381.077049	3040.917261
381.462474	3058.992318
381.847835	3099.339193
382.233134	3122.846094
382.618371	3124.585292
383.003545	3185.363963
383.388657	3195.458874
383.773706	3227.369377
384.158693	3242.187849
384.543618	3267.786828
384.928480	3308.347952
385.313280	3353.176413
385.698017	3352.100127
386.082692	3405.649783
386.467305	3409.836462
386.851856	3441.815021
387.236344	3461.838484
387.620770	3497.381139
388.005133	3518.427957
388.389435	3547.795198
388.773674	3558.449677
389.157851	3597.173300
389.541965	3613.448665
389.926018	3580.318202
390.310008	3650.755724
390.693936	3670.096111
391.077802	3709.263356
391.461606	3696.796582
391.845348	3762.233280
392.229027	3759.611880
392.612645	3773.540588
392.996200	3853.001776
393.379694	3890.497878
393.763125	3955.649750
394.146494	3923.449380
394.529801	3984.565809
394.913047	4031.675391
395.296230	3998.116430
395.679351	4052.553330
396.062410	4074.391608
396.445408	4055.590625
396.828343	4086.777723
397.211217	4105.853450
397.594028	4029.810164
397.976778	4093.726954
398.359466	4120.976911
398.742092	4145.184532
399.124656	4067.092018
399.507158	4140.876866
399.889598	4159.168693
400.271977	4219.067683
400.654294	4181.624513
401.036549	4184.956715
401.418742	4149.895490
401.800874	4235.227101
402.182944	4248.959204
402.564952	4301.583809
402.946898	4278.336528
403.328783	4258.978498
403.710606	4164.585413
404.092367	4325.993076
404.474067	4278.142444
404.855705	4269.020476
405.237282	4183.129297
405.618797	4259.200308
406.000250	4268.662554
406.381642	4316.858506
406.762972	4256.830966
407.144240	4243.776898
407.525447	4217.668763
407.906593	4240.903441
408.287677	4249.233947
408.668700	4156.375893
409.049661	4167.002646
409.430560	4167.045496
409.811399	4079.626847
410.192176	4160.348323
410.572891	4085.008278
410.953545	4113.258905
411.334138	3998.459229
411.714669	4006.000795
412.095139	3900.905340
412.475547	3949.323102
412.855894	3893.688928
413.236180	3861.491079
413.616405	3794.342909
413.996568	3800.135195
414.376670	3729.223805
414.756711	3665.218795
415.136691	3639.798777
415.516609	3636.146461
415.896466	3614.875312
416.276262	3583.688214
416.655997	3533.014535
417.035670	3563.740368
417.415283	3553.557237
417.794834	3487.891167
418.174324	3434.948969
418.553753	3358.028523
418.933121	3377.237840
419.312428	3354.925693
419.691674	3292.032258
420.070859	3285.841721
420.449983	3224.216136
420.829045	3211.724157
421.208047	3154.134015
421.586988	3128.441774
421.965867	3096.967330
422.344686	3083.809919
422.723444	3028.279089
423.102141	2962.187041
423.480777	2982.802840
423.859352	2916.526790
424.237866	2923.513829
424.616319	2893.967627
424.994712	2884.507902
425.373044	2841.469051
425.751314	2829.518995
426.129524	2790.213119
426.507673	2781.602828
426.885762	2770.388781
427.263789	2742.609503
427.641756	2719.868858
428.019662	2709.879812
428.397508	2695.091587
428.775292	2674.924451
429.153016	2664.675785
429.530679	2649.476706
429.908282	2642.787095
430.285824	2627.958541
430.663305	2626.083232
431.040726	2608.383741
431.418086	2599.223964
431.795385	2596.610126
432.172624	2588.839187
432.549802	2584.334916
432.926920	2578.242682
433.303977	2575.170099
433.680974	2568.735066
434.057910	2565.536454
434.434786	2560.830537
434.811601	2561.690053
435.188355	2558.534291
435.565050	2556.071687
435.941683	2550.970040
436.318257	2553.450287
436.694770	2548.494833
437.071222	2548.436860
437.447614	2545.313865
437.823946	2544.378731
438.200218	2547.834442
438.576429	2545.507949
438.952580	2545.442414
439.328670	2545.139945
439.704700	2543.025181
440.080670	2541.747249
440.456580	2541.371683
440.832429	2545.583567
441.208218	2542.750438
441.583947	2541.596014
441.959616	2542.085006
442.335224	2541.807743
442.710773	2541.878319
443.086261	2541.147351
443.461689	2540.403781
443.837057	2541.895963
444.212365	2542.478216
444.587612	2538.460416
444.962800	2541.830428
445.337927	2540.476878
445.712995	2541.648946
446.088002	2538.581404
446.462949	2541.873277
446.837837	2541.041487
447.212664	2539.556867
447.587431	2540.935623
447.962139	2544.615665
448.336786	2547.239586
448.711374	2546.485933
449.085901	2543.839328
449.460369	2542.526107
449.834776	2542.710109
450.209124	2543.136087
450.583412	2543.635161
450.957640	2547.537014
451.331808	2542.188350
451.705917	2539.927392
452.079965	2543.415871
452.453954	2541.719522
452.827883	2543.753628
453.201752	2546.150697
453.575562	2541.432177
453.949311	2541.424615
454.323001	2543.123484
454.696632	2543.176416
455.070202	2543.224307
455.443713	2545.447456
455.817164	2543.206663
456.190556	2541.472506
456.563888	2545.202960
456.937160	2540.721374
457.310373	2546.024668
457.683526	2544.719009
458.056619	2545.424770
458.429653	2544.378731
458.802628	2543.730943
459.175542	2542.967208
459.548398	2548.454504
459.921194	2545.281097
460.293930	2545.835624
460.666607	2550.476007
461.039224	2550.173537
461.411782	2552.313507
461.784280	2550.506253
462.156719	2550.798640
462.529099	2548.260419
462.901419	2549.170348
463.273680	2548.106664
463.645882	2551.302756
464.018024	2550.637323
464.390106	2548.532642
464.762130	2552.772252
465.134094	2552.013558
465.505999	2558.289795
465.877845	2561.455640
466.249631	2566.446382
466.621358	2563.898079
466.993026	2562.761298
467.364634	2566.101063
467.736184	2559.703839
468.107674	2558.619991
468.479105	2561.153170
468.850477	2559.766853
469.221790	2560.974209
469.593043	2557.221070
469.964238	2556.903478
470.335373	2559.262738
470.706449	2558.829198
471.077467	2557.200906
471.448425	2565.049982
471.819324	2569.266907
472.190164	2567.389078
472.560945	2565.738100
472.931667	2560.031514
473.302330	2558.133519
473.672934	2558.584702
474.043479	2558.413303
474.413965	2559.958417
474.784393	2553.846018
475.154761	2556.197716
475.525070	2552.757129
475.895321	2556.006152
476.265513	2557.490772
476.635645	2560.197872
477.005719	2558.746019
477.375734	2561.208623
477.745691	2560.996895
478.115588	2563.341031
478.485427	2564.921433
478.855207	2564.989488
479.224928	2570.761610
479.594591	2574.487022
479.964194	2572.815880
480.333739	2570.872515
480.703226	2573.057855
481.072653	2572.939388
481.442022	2574.910479
481.811333	2572.626837
482.180584	2571.084243
482.549777	2571.432083
482.918912	2569.960066
483.287988	2569.035014
483.657005	2569.327401
484.025964	2569.922257
484.394864	2567.689026
484.763706	2571.301013
485.132489	2567.532751
485.501213	2565.914540
485.869879	2566.685837
486.238487	2565.798594
486.607036	2566.327915
486.975527	2568.367062
487.343959	2564.863460
487.712333	2566.267421
488.080648	2565.289437
488.448905	2565.780950
488.817104	2564.482852
489.185244	2563.923284
489.553326	2565.125600
489.921350	2570.819583
490.289315	2573.398133
490.657222	2572.858730
491.025070	2574.265212
491.392861	2571.691702
491.760593	2572.347052
492.128267	2571.510221
492.495883	2570.691033
492.863440	2567.810014
493.230939	2565.246587
493.598380	2569.294634
493.965763	2562.597461
494.333088	2564.203068
494.700354	2562.746175
495.067563	2565.833882
495.434713	2561.659806
495.801805	2566.002760
496.168839	2567.366392
496.535815	2564.147616
496.902733	2563.991340
497.269593	2566.043090
497.636395	2565.685168
498.003139	2564.843295
498.369825	2567.562997
498.736453	2566.380847
499.103023	2566.579972
499.469535	2564.896227
499.835989	2564.719787
500.202385	2564.714746
500.568723	2563.227605
500.935003	2568.291444
501.301226	2566.519479
501.667390	2565.841443
502.033497	2568.810683
502.399546	2567.772205
502.765537	2564.263562
503.131470	2564.540826
503.497345	2566.085939
503.863163	2565.710373
504.228923	2567.157185
504.594625	2566.937894
504.960269	2564.495455
505.325856	2567.194993
505.691385	2564.712225
506.056856	2567.384037
506.422270	2566.978224
506.787625	2562.917574
507.152924	2564.457647
507.518164	2567.822617
507.883347	2563.454457
508.248472	2566.123748
508.613540	2567.525189
508.978550	2567.149623
509.343503	2567.636094
509.708398	2569.690364
510.073236	2570.287741
510.438016	2569.634912
510.802738	2566.506876
511.167403	2566.416135
511.532010	2563.363716
511.896561	2571.537947
512.261053	2568.079716
512.625488	2567.353790
512.989866	2566.088460
513.354186	2564.981927
513.718449	2563.388922
514.082655	2566.325394
514.446803	2569.546692
514.810894	2568.518296
515.174927	2570.819583
515.538904	2567.825137
515.902822	2568.803121
516.266684	2567.724314
516.630488	2566.169118
516.994235	2572.268915
517.357925	2569.652556
517.721558	2567.694068
518.085133	2571.943760
518.448651	2567.689026
518.812112	2567.915878
519.175516	2569.350087
519.538863	2566.274983
519.902152	2570.343194
520.265385	2568.997206
520.628560	2567.457133
520.991678	2569.768502
521.354739	2568.843451
521.717743	2568.707339
522.080690	2571.351425
522.443580	2568.586352
522.806413	2567.794891
523.169189	2570.542319
523.531908	2567.235322
523.894569	2571.031311
524.257174	2568.563667
524.619722	2570.113821
524.982213	2570.703636
525.344647	2571.076682
525.707025	2572.624316
526.069345	2571.258163
526.431608	2566.706001
526.793815	2570.565005
527.155964	2570.159192
527.518057	2569.463512
527.880093	2569.231619
528.242072	2569.869325
528.603995	2569.826476
528.965860	2568.170457
529.327669	2570.275138
529.689421	2567.646177
530.051117	2569.859243
530.412755	2569.531568
530.774337	2568.866136
531.135862	2568.661969
531.497331	2567.384037
531.858743	2566.990827
532.220098	2568.193142
532.581396	2564.021587
532.942638	2566.980744
533.303824	2568.268759
533.664953	2569.839078
534.026025	2570.897721
534.387040	2569.602144
534.747999	2569.977710
535.108902	2567.202555
535.469748	2564.934036
535.830537	2571.424521
536.191270	2566.181721
536.551947	2569.617268
536.912567	2568.833368
537.273131	2566.721125
537.633638	2566.479149
537.994089	2568.457802
538.354483	2565.702812
538.714821	2568.997206
539.075103	2571.318657
539.435328	2570.060889
539.795497	2569.375292
540.155609	2567.101732
540.515665	2568.598955
540.875665	2566.532082
541.235609	2568.220868
541.595496	2568.634243
541.955328	2567.303378
542.315102	2570.073492
542.674821	2570.401167
543.034483	2569.067782
543.394090	2570.822103
543.753640	2569.017370
544.113134	2567.447051
544.472571	2569.213975
544.831953	2568.714901
545.191278	2567.005950
545.550548	2568.198183
545.909761	2567.008471
546.268918	2569.501321
546.628019	2569.670200
546.987064	2566.917730
547.346053	2569.917216
547.704986	2569.536609
548.063863	2566.277503
548.422684	2568.956877
548.781449	2567.328584
549.140158	2568.876218
549.498811	2566.259859
549.857408	2564.939077
550.215949	2565.637277
550.574434	2562.078222
550.932864	2565.559139
551.291237	2563.177194
551.649555	2567.895714
552.007817	2565.511248
552.366022	2570.171795
552.724173	2569.118193
553.082267	2566.368244
553.440305	2565.914540
553.798288	2568.793039
554.156215	2568.170457
554.514086	2568.477967
554.871902	2568.775395
555.229661	2568.223389
555.587365	2567.200034
555.945014	2567.570559
556.302606	2570.653225
556.660143	2565.070147
557.017625	2567.946125
557.375050	2570.685992
557.732421	2567.832699
558.089735	2569.483677
558.446994	2568.440158
558.804197	2568.694737
559.161345	2569.652556
559.518437	2568.044428
559.875474	2566.438820
560.232455	2567.129458
560.589381	2565.496124
560.946251	2570.091136
561.303065	2568.319171
561.659825	2567.885631
562.016528	2564.901268
562.373177	2564.654252
562.729770	2568.102401
563.086307	2569.392936
563.442789	2566.756413
563.799216	2567.661300
564.155587	2568.311609
564.511904	2568.404870
564.868164	2566.680796
565.224370	2569.256825
565.580520	2567.247925
565.936615	2566.537123
566.292654	2565.400342
566.648638	2565.796073
567.004567	2569.276990
567.360441	2568.737586
567.716260	2563.651062
568.072023	2566.932853
568.427732	2565.657441
568.783385	2563.792214
569.138982	2562.423541
569.494525	2565.019735
569.850013	2563.015877
570.205445	2564.510579
570.560823	2566.068295
570.916145	2565.332287
571.271412	2564.550908
571.626625	2565.339849
571.981782	2565.037379
572.336884	2568.135168
572.691931	2567.447051
573.046923	2563.635939
573.401860	2565.128120
573.756743	2564.331618
574.111570	2563.895558
574.466342	2568.331773
574.821059	2565.385219
575.175722	2563.714077
575.530330	2566.000240
575.884882	2567.615930
576.239380	2564.954200
576.593823	2566.532082
576.948211	2564.795404
577.302544	2565.728018
577.656823	2562.892368
578.011047	2564.066957
578.365216	2562.957903
578.719330	2566.176680
579.073389	2563.310784
579.427394	2561.170814
579.781344	2563.136864
580.135239	2564.671896
580.489080	2567.298337
580.842866	2561.949673
581.196597	2566.917730
581.550273	2564.434962
581.903895	2564.069478
582.257463	2566.287586
582.610975	2564.127451
582.964434	2563.547718
583.317837	2566.716084
583.671186	2564.200548
584.024481	2562.277348
584.377721	2560.984292
584.730906	2562.153839
585.084037	2563.696433
585.437113	2558.541853
585.790135	2561.523695
586.143103	2561.977399
586.496016	2564.245918
586.848874	2556.374157
587.201679	2561.034703
587.554428	2558.123437
587.907124	2561.259035
588.259765	2556.734599
588.612352	2563.141906
588.964884	2561.896741
589.317362	2564.717266
589.669786	2562.657955
590.022155	2563.819941
590.374470	2563.179714
590.726731	2562.118551
591.078937	2562.726010
591.431090	2565.002091
591.783188	2561.611915
592.135232	2560.044117
592.487222	2561.455640
592.839157	2565.208779
593.191038	2560.994374
593.542866	2558.274672
593.894639	2559.177038
594.246358	2561.407749
594.598022	2558.549414
594.949633	2561.475804
595.301190	2558.942624
595.652692	2563.673747
596.004141	2562.403377
596.355535	2558.695608
596.706876	2558.473797
597.058162	2557.818447
597.409395	2559.897923
597.760573	2559.592933
598.111698	2560.104610
598.462768	2559.398849
598.813785	2561.687533
599.164748	2560.752399
599.515657	2556.875751
599.866511	2559.958417
600.217312	2558.877089
600.568060	2559.764333
600.918753	2560.505382
601.269392	2561.032183
601.619978	2558.685526
601.970510	2557.372305
602.320988	2559.809703
602.671412	2560.447409
603.021783	2557.503375
603.372100	2561.306926
603.722363	2559.262738
604.072572	2559.802141
604.422728	2560.727193
604.772830	2557.379867
605.122878	2552.046326
605.472872	2555.991029
605.822813	2556.432130
606.172701	2556.984136
606.522534	2558.751061
606.872314	2560.056719
607.222041	2557.727706
607.571714	2558.022614
607.921333	2559.681153
608.270899	2559.096380
608.620411	2557.400031
608.969870	2559.794579
609.319276	2562.579817
609.668627	2565.274314
610.017926	2566.605178
610.367171	2565.985116
610.716362	2567.610888
611.065500	2562.927657
611.414585	2562.791545
611.763616	2563.719118
612.112594	2562.519323
612.461518	2562.632749
612.810389	2563.651062
613.159207	2560.379353
613.507971	2560.855742
613.856682	2559.693756
614.205340	2559.406411
614.553945	2563.628377
614.902496	2559.587892
615.250994	2560.586041
615.599439	2559.633262
615.947830	2560.248283
616.296169	2558.932542
616.644454	2562.284909
616.992686	2557.770556
617.340864	2560.724672
617.688990	2559.978582
618.037063	2561.569066
618.385082	2559.270299
618.733048	2560.646534
619.080961	2559.048489
619.428821	2559.897923
619.776628	2560.376833
620.124382	2560.152501
620.472083	2558.030176
620.819731	2557.873900
621.167326	2556.205278
621.514868	2559.963458
621.862357	2559.136709
622.209793	2558.022614
622.557176	2558.803993
622.904506	2555.703683
623.251783	2553.341903
623.599007	2554.342572
623.946179	2555.638148
624.293297	2555.249979
624.640363	2558.670402
624.987376	2556.341389
625.334336	2556.931204
625.681243	2555.126471
626.028097	2553.599001
626.374899	2556.633776
626.721647	2553.712427
627.068343	2555.323076
627.414987	2555.071018
627.761577	2556.323745
628.108115	2554.934907
628.454600	2555.610422
628.801032	2555.058415
629.147412	2556.613611
629.493739	2557.258879
629.840014	2556.442212
630.186236	2558.435988
630.532405	2556.066646
630.878521	2554.889537
631.224585	2556.429609
631.570597	2551.035575
631.916556	2554.899619
632.262462	2557.011862
632.608316	2558.756102
632.954117	2554.849207
633.299866	2555.249979
633.645562	2554.075390
633.991206	2555.386090
634.336797	2552.676470
634.682336	2555.350802
635.027823	2552.053888
635.373257	2553.465411
635.718639	2553.989691
636.063968	2553.263765
636.409245	2553.636810
636.754470	2552.069011
637.099642	2551.005328
637.444762	2555.837274
637.789829	2552.071532
638.134845	2550.634803
638.479808	2552.099258
638.824719	2553.495658
639.169577	2552.608415
639.514383	2549.462735
639.859137	2553.377191
640.203839	2550.720503
640.548489	2551.852242
640.893086	2548.260419
641.237632	2548.482230
641.582125	2548.220090
641.926566	2547.589946
642.270955	2551.348126
642.615292	2551.479196
642.959576	2552.101779
643.303809	2549.896274
643.647990	2549.911397
643.992118	2552.890719
644.336195	2555.673436
