Dividing Wavelength (nm)	Counts (n)	Blue Motor Position (mm): 0.000000	Red Motor Position (mm): 33.500000	
326.493990	2143.856537
326.888308	2143.856537
327.282561	2143.856537
327.676750	2118.965840
328.070874	2120.301746
328.464933	2126.618312
328.858929	2136.098202
329.252859	2146.929121
329.646726	2158.007056
330.040528	2173.286793
330.434265	2190.066274
330.827938	2209.515046
331.221547	2231.751575
331.615091	2251.459966
332.008571	2270.510487
332.401986	2291.663168
332.795338	2308.447690
333.188625	2331.016936
333.581847	2350.548886
333.975006	2370.894983
334.368100	2388.702859
334.761129	2407.297155
335.154095	2422.576892
335.546996	2439.220262
335.939833	2456.211471
336.332606	2474.074799
336.725315	2484.164669
337.117960	2492.520381
337.510540	2501.987668
337.903056	2506.653256
338.295508	2514.595594
338.687896	2521.907788
339.080220	2531.995137
339.472480	2537.275745
339.864676	2539.695499
340.256807	2543.516694
340.648875	2543.199101
341.040879	2547.181612
341.432818	2547.988197
341.824694	2550.241593
342.216506	2545.989380
342.608253	2548.330996
342.999937	2548.252858
343.391557	2545.323947
343.783113	2544.114070
344.174605	2544.255223
344.566033	2540.630633
344.957397	2539.912269
345.348697	2538.561239
345.739934	2538.999820
346.131106	2536.577545
346.522215	2533.502442
346.913260	2531.944725
347.304241	2529.340969
347.695159	2526.409538
348.086012	2527.886596
348.476802	2523.407531
348.867528	2525.756709
349.258191	2524.635052
349.648789	2523.657068
350.039324	2521.943076
350.429796	2521.055833
350.820203	2520.655061
351.210548	2518.807478
351.600828	2517.358146
351.991045	2519.936697
352.381198	2520.231604
352.771288	2517.370749
353.161314	2518.318486
353.551276	2517.222035
353.941175	2517.438805
354.331010	2517.801768
354.720782	2518.774711
355.110490	2517.494258
355.500135	2519.581295
355.889717	2519.112468
356.279235	2519.311593
356.668689	2519.835873
357.058080	2519.674557
357.447408	2516.813702
357.836672	2518.409227
358.225873	2517.287570
358.615010	2514.933351
359.004084	2520.329907
359.393095	2522.122037
359.782043	2522.643796
360.170927	2523.034486
360.559748	2524.960206
360.948505	2523.715041
361.337199	2522.842922
361.725830	2525.396266
362.114398	2526.490197
362.502903	2529.562780
362.891344	2523.599095
363.279722	2526.570855
363.668037	2529.192255
364.056289	2524.710669
364.444478	2528.824251
364.832603	2529.189734
365.220665	2528.640249
365.608665	2528.216792
365.996601	2531.286854
366.384474	2529.635877
366.772284	2528.635208
367.160031	2530.699560
367.547715	2531.591844
367.935336	2535.629808
368.322893	2532.511855
368.710388	2530.208047
369.097820	2535.357586
369.485189	2533.968748
369.872495	2533.628470
370.259738	2535.183666
370.646918	2530.555887
371.034035	2534.843388
371.421090	2536.847247
371.808081	2535.549150
372.195010	2536.554860
372.581875	2535.707946
372.968678	2540.101312
373.355418	2537.558050
373.742096	2540.502084
374.128710	2541.268339
374.515262	2541.472506
374.901751	2542.059800
375.288177	2543.030222
375.674540	2544.580377
376.060841	2547.244627
376.447079	2550.755791
376.833254	2549.046839
377.219367	2549.470296
377.605417	2549.966850
377.991404	2554.342572
378.377329	2554.541697
378.763191	2555.630586
379.148991	2563.744323
379.534727	2568.891342
379.920402	2572.636919
380.306013	2574.560119
380.691563	2580.115471
381.077049	2585.713672
381.462474	2588.824064
381.847835	2594.455033
382.233134	2598.790425
382.618371	2604.761672
383.003545	2611.622682
383.388657	2615.890019
383.773706	2622.929990
384.158693	2629.120527
384.543618	2633.839047
384.928480	2643.331540
385.313280	2652.070380
385.698017	2656.967861
386.082692	2664.489262
386.467305	2670.997392
386.851856	2679.050635
387.236344	2691.691329
387.620770	2698.912782
388.005133	2707.036601
388.389435	2717.517160
388.773674	2725.381360
389.157851	2732.585169
389.541965	2741.697054
389.926018	2745.772827
390.310008	2757.710279
390.693936	2768.057248
391.077802	2776.448248
391.461606	2790.447532
391.845348	2795.027421
392.229027	2806.062507
392.612645	2820.787717
392.996200	2827.676454
393.379694	2843.372086
393.763125	2860.428830
394.146494	2866.793287
394.529801	2877.112529
394.913047	2891.310939
395.296230	2896.251269
395.679351	2901.214285
396.062410	2919.979981
396.445408	2919.304466
396.828343	2930.004315
397.211217	2934.871549
397.594028	2931.708225
397.976778	2941.062086
398.359466	2955.946093
398.742092	2955.477265
399.124656	2970.504945
399.507158	2983.082624
399.889598	2989.686535
400.271977	3004.744462
400.654294	3010.272087
401.036549	3023.429499
401.418742	3025.209026
401.800874	3050.634085
402.182944	3056.867472
402.564952	3086.338057
402.946898	3075.607962
403.328783	3085.085331
403.710606	3102.731890
404.092367	3127.189048
404.474067	3151.820125
404.855705	3138.914772
405.237282	3142.912407
405.618797	3173.058507
406.000250	3194.299408
406.381642	3224.077504
406.762972	3228.549007
407.144240	3219.936196
407.525447	3241.771954
407.906593	3240.967890
408.287677	3261.692073
408.668700	3283.167389
409.049661	3276.878549
409.430560	3296.508803
409.811399	3301.943166
410.192176	3319.637616
410.572891	3326.939728
410.953545	3366.149822
411.334138	3332.500120
411.714669	3389.563461
412.095139	3333.382322
412.475547	3382.473078
412.855894	3375.985113
413.236180	3404.001326
413.616405	3380.491905
413.996568	3408.193045
414.376670	3410.781678
414.756711	3408.079619
415.136691	3430.578289
415.516609	3453.974284
415.896466	3464.104483
416.276262	3490.295798
416.655997	3513.351515
417.035670	3522.407947
417.415283	3592.217846
417.794834	3616.647277
418.174324	3595.640789
418.553753	3596.812858
418.933121	3643.814056
419.312428	3631.493476
419.691674	3627.072384
420.070859	3665.198630
420.449983	3649.190446
420.829045	3694.717107
421.208047	3678.829910
421.586988	3724.890933
421.965867	3754.787496
422.344686	3761.945934
422.723444	3799.517654
423.102141	3706.475598
423.480777	3808.564004
423.859352	3775.259622
424.237866	3875.651680
424.616319	3858.564689
424.994712	3916.192639
425.373044	3908.767019
425.751314	3975.680775
426.129524	3906.528747
426.507673	4007.046834
426.885762	3981.531034
427.263789	4006.729242
427.641756	4010.268132
428.019662	4039.463974
428.397508	4042.642422
428.775292	4084.415943
429.153016	4090.127570
429.530679	4101.608798
429.908282	4105.709777
430.285824	4084.131118
430.663305	4158.596522
431.040726	4117.667394
431.418086	4106.697843
431.795385	4185.213814
432.172624	4214.243298
432.549802	4182.962939
432.926920	4201.632852
433.303977	4196.697563
433.680974	4238.521495
434.057910	4257.516563
434.434786	4266.938480
434.811601	4259.147376
435.188355	4363.751319
435.565050	4331.926514
435.941683	4333.451463
436.318257	4422.947068
436.694770	4425.502933
437.071222	4485.197756
437.447614	4421.787602
437.823946	4428.507460
438.200218	4436.885858
438.576429	4421.517901
438.952580	4448.104946
439.328670	4450.703661
439.704700	4493.702183
440.080670	4454.837407
440.456580	4522.406512
440.832429	4553.913724
441.208218	4459.913849
441.583947	4510.756406
441.959616	4523.724774
442.335224	4546.881314
442.710773	4572.944080
443.086261	4626.249241
443.461689	4580.919185
443.837057	4592.160958
444.212365	4662.797606
444.587612	4668.776414
444.962800	4638.237104
445.337927	4678.999874
445.712995	4564.946289
446.088002	4752.562912
446.462949	4775.880769
446.837837	4796.675529
447.212664	4783.563487
447.587431	5006.359802
447.962139	5302.487262
448.336786	5641.426720
448.711374	5628.687724
449.085901	5277.478097
449.460369	5211.025607
449.834776	5147.623015
450.209124	5378.187748
450.583412	5388.259974
450.957640	5512.461402
451.331808	5376.998036
451.705917	5226.224686
452.079965	5221.314602
452.453954	5257.247947
452.827883	5220.553388
453.201752	5225.241661
453.575562	5259.844141
453.949311	5393.094440
454.323001	5403.237242
454.696632	5394.997476
455.070202	5547.076484
455.443713	5575.982461
455.817164	5664.948744
456.190556	5738.191668
456.563888	5712.650662
456.937160	5792.666376
457.310373	5634.169979
457.683526	5690.482188
458.056619	5679.537843
458.429653	5663.995966
458.802628	5712.244849
459.175542	5742.222070
459.548398	5874.738882
459.921194	6060.427263
460.293930	6124.311285
460.666607	6376.749584
461.039224	6589.408139
461.411782	6717.513940
461.784280	6635.156610
462.156719	6641.102651
462.529099	6598.378872
462.901419	6461.519107
463.273680	6330.323078
463.645882	6316.757333
464.018024	6316.996788
464.390106	6381.551283
464.762130	6641.964688
465.134094	7023.753954
465.505999	7654.908936
465.877845	8364.305147
466.249631	8719.119198
466.621358	8647.900298
466.993026	8444.567878
467.364634	8231.556443
467.736184	7956.092673
468.107674	7800.303375
468.479105	7714.628965
468.850477	7650.623956
469.221790	7475.529559
469.593043	7257.234995
469.964238	7151.070815
470.335373	7131.264122
470.706449	7281.233407
471.077467	7457.333514
471.448425	8123.161552
471.819324	8701.971714
472.190164	8749.424095
472.560945	8263.424097
472.931667	7793.031511
473.302330	7600.943384
473.672934	7482.708162
474.043479	7557.521406
474.413965	7462.818290
474.784393	7408.963643
475.154761	7555.119296
475.525070	7571.689569
475.895321	7528.086108
476.265513	7624.815768
476.635645	7786.286447
477.005719	7775.032071
477.375734	7861.712191
477.745691	7972.478943
478.115588	8173.046290
478.485427	8407.258298
478.855207	8875.785657
479.224928	9300.618815
479.594591	9690.236993
479.964194	9705.849447
480.333739	9784.569584
480.703226	9785.829873
481.072653	9882.380572
481.442022	9997.565896
481.811333	10147.774637
482.180584	9993.555658
482.549777	9926.422613
482.918912	9867.239466
483.287988	9860.529691
483.657005	9763.401779
484.025964	9679.176702
484.394864	9738.594261
484.763706	9703.938849
485.132489	9611.554664
485.501213	9601.731976
485.869879	9664.625411
486.238487	9600.035627
486.607036	9668.940639
486.975527	9620.429615
487.343959	9677.898769
487.712333	9718.759842
488.080648	9761.672664
488.448905	9862.523467
488.817104	9864.174445
489.185244	10032.203664
489.553326	10236.519109
489.921350	10705.974040
490.289315	11331.911428
490.657222	11618.979934
491.025070	11796.541975
491.392861	11715.460057
491.760593	11561.679659
492.128267	11304.462346
492.495883	11076.720659
492.863440	10836.804586
493.230939	10612.374937
493.598380	10427.409961
493.965763	10403.749306
494.333088	10273.291806
494.700354	10203.930570
495.067563	10181.573053
495.434713	10175.581641
495.801805	10224.521163
496.168839	10183.534062
496.535815	10146.257249
496.902733	10186.021871
497.269593	10141.321960
497.636395	10151.026181
498.003139	10257.570967
498.369825	10185.593373
498.736453	10278.559812
499.103023	10224.463190
499.469535	10226.305731
499.835989	10275.361199
500.202385	10240.930119
500.568723	10262.372667
500.935003	10319.859464
501.301226	10289.587336
501.667390	10451.325195
502.033497	10554.063910
502.399546	10480.513476
502.765537	10388.149455
503.131470	10485.879784
503.497345	10580.093908
503.863163	10341.264204
504.228923	10474.272527
504.594625	10593.929355
504.960269	10498.727165
505.325856	10639.559359
505.691385	10520.827583
506.056856	10583.020298
506.422270	10673.372898
506.787625	10614.807294
507.152924	10662.768831
507.518164	10721.173119
507.883347	10590.120763
508.248472	10651.063272
508.613540	10752.047666
508.978550	10823.851341
509.343503	10799.522732
509.708398	10849.364620
510.073236	10968.429113
510.438016	10974.654937
510.802738	10877.771522
511.167403	11006.630976
511.532010	11050.972966
511.896561	11141.673406
512.261053	11337.880154
512.625488	11237.939279
512.989866	11225.069214
513.354186	11193.027640
513.718449	11196.291787
514.082655	11327.906232
514.446803	11276.075608
514.810894	11372.533046
515.174927	11353.285921
515.538904	11333.673312
515.902822	11474.699590
516.266684	11340.509116
516.630488	11427.466499
516.994235	11402.623693
517.357925	11504.913746
517.721558	11544.617874
518.085133	11594.202663
518.448651	11614.473143
518.812112	11556.371324
519.175516	11552.242619
519.538863	11627.053342
519.902152	11623.269956
520.265385	11710.328162
520.628560	11711.255735
520.991678	11643.845425
521.354739	11680.736589
521.717743	11725.560009
522.080690	11682.579131
522.443580	11791.178188
522.806413	11782.923298
523.169189	11754.672672
523.531908	11791.019391
523.894569	11733.807336
524.257174	11724.219062
524.619722	11799.821246
524.982213	11750.962383
525.344647	11723.730070
525.707025	11710.968389
526.069345	11774.053388
526.431608	11733.451935
526.793815	11775.235539
527.155964	11660.720688
527.518057	11660.120791
527.880093	11585.118504
528.242072	11662.361583
528.603995	11566.776265
528.965860	11542.878676
529.327669	11545.033769
529.689421	11466.606018
530.051117	11445.589448
530.412755	11452.926847
530.774337	11418.405025
531.135862	11342.686895
531.497331	11366.604649
531.858743	11301.399845
532.220098	11334.011069
532.581396	11231.564740
532.942638	11134.764504
533.303824	11149.101546
533.664953	11103.310225
534.026025	11018.931392
534.387040	11062.920500
534.747999	11003.122333
535.108902	10991.411733
535.469748	10857.564057
535.830537	10831.700417
536.191270	10825.063738
536.551947	10724.291073
536.912567	10731.018493
537.273131	10713.908817
537.633638	10570.243494
537.994089	10569.893133
538.354483	10465.077463
538.714821	10504.547177
539.075103	10518.768272
539.435328	10428.592112
539.795497	10356.254075
540.155609	10308.342948
540.515665	10326.372635
540.875665	10178.669348
541.235609	10193.117295
541.595496	10117.895718
541.955328	10183.667652
542.315102	10034.883037
542.674821	9925.532849
543.034483	9883.318227
543.394090	9836.591772
543.753640	9761.188713
544.113134	9868.829950
544.472571	9656.350357
544.831953	9788.710892
545.191278	9608.572821
545.550548	9507.545578
545.909761	9527.301860
546.268918	9494.504113
546.628019	9483.600097
546.987064	9354.438174
547.346053	9201.746665
547.704986	9264.640100
548.063863	9137.688723
548.422684	9106.667983
548.781449	9022.435343
549.140158	9023.282257
549.498811	8929.395808
549.857408	8793.004870
550.215949	8850.474024
550.574434	8771.605172
550.932864	8671.200511
551.291237	8722.791679
551.649555	8606.517466
552.007817	8574.236437
552.366022	8470.580232
552.724173	8422.510309
553.082267	8413.955471
553.440305	8398.219509
553.798288	8246.516067
554.156215	8219.981953
554.514086	8181.913680
554.871902	8087.818023
555.229661	8038.434880
555.587365	7952.326931
555.945014	7895.727376
556.302606	7819.820202
556.660143	7791.004967
557.017625	7744.928821
557.375050	7661.953949
557.732421	7649.156980
558.089735	7582.517967
558.446994	7505.791606
558.804197	7492.283834
559.161345	7429.576921
559.518437	7288.863194
559.875474	7261.850171
560.232455	7215.995836
560.589381	7169.770975
560.946251	7082.430464
561.303065	7094.743483
561.659825	7016.285485
562.016528	6919.860815
562.373177	6834.493915
562.729770	6821.560835
563.086307	6716.203240
563.442789	6699.454007
563.799216	6653.650083
564.155587	6571.386014
564.511904	6522.839702
564.868164	6470.288194
565.224370	6434.087668
565.580520	6353.124217
565.936615	6317.049720
566.292654	6241.475262
566.648638	6203.394386
567.004567	6155.311861
567.360441	6090.714515
567.716260	6028.728487
568.072023	5998.259754
568.427732	5935.252892
568.783385	5846.720148
569.138982	5829.512170
569.494525	5778.162977
569.850013	5704.426019
570.205445	5655.025232
570.560823	5605.465649
570.916145	5544.800403
571.271412	5494.325851
571.626625	5428.369914
571.981782	5381.305702
572.336884	5320.572401
572.691931	5291.552999
573.046923	5221.740580
573.401860	5166.290408
573.756743	5117.786946
574.111570	5075.620215
574.466342	5026.456362
574.821059	4988.556968
575.175722	4918.477367
575.530330	4874.654617
575.884882	4821.319209
576.239380	4774.025624
576.593823	4727.173141
576.948211	4686.175957
577.302544	4623.758911
577.656823	4587.059311
578.011047	4560.079055
578.365216	4508.850850
578.719330	4462.628510
579.073389	4417.399278
579.427394	4375.484604
579.781344	4343.765664
580.135239	4299.010300
580.489080	4262.366153
580.842866	4215.692630
581.196597	4195.613714
581.550273	4164.071215
581.903895	4121.433136
582.257463	4110.987865
582.610975	4053.143145
582.964434	4032.303015
583.317837	3993.604597
583.671186	3961.396666
584.024481	3938.414045
584.377721	3892.665574
584.730906	3867.487531
585.084037	3845.714788
585.437113	3807.144920
585.790135	3782.133235
586.143103	3744.458172
586.496016	3720.603432
586.848874	3692.695604
587.201679	3670.098632
587.554428	3631.901809
587.907124	3613.395733
588.259765	3587.743822
588.612352	3571.750761
588.964884	3537.753220
589.317362	3521.641692
589.669786	3498.807786
590.022155	3473.531440
590.374470	3460.119451
590.726731	3431.268927
591.078937	3400.359092
591.431090	3382.899056
591.783188	3356.226311
592.135232	3330.176148
592.487222	3317.747184
592.839157	3298.404276
593.191038	3277.407871
593.542866	3254.657143
593.894639	3227.623956
594.246358	3218.131463
594.598022	3201.538505
594.949633	3179.160823
595.301190	3166.154646
595.652692	3146.751245
596.004141	3138.105666
596.355535	3112.226903
596.706876	3094.608070
597.058162	3079.708940
597.409395	3072.192580
597.760573	3058.097514
598.111698	3041.565050
598.462768	3029.090714
598.813785	3018.360618
599.164748	3001.361848
599.515657	2996.734068
599.866511	2977.370997
600.217312	2971.830768
600.568060	2953.319652
600.918753	2950.156328
601.269392	2939.995882
601.619978	2927.692946
601.970510	2922.152718
602.320988	2912.975297
602.671412	2910.472364
603.021783	2896.079870
603.372100	2885.672408
603.722363	2879.723847
604.072572	2871.655480
604.422728	2863.589634
604.772830	2850.959023
605.122878	2846.827797
605.472872	2838.817404
605.822813	2829.702997
606.172701	2828.369612
606.522534	2826.290136
606.872314	2821.619507
607.222041	2810.007209
607.571714	2810.372693
607.921333	2799.443472
608.270899	2796.176804
608.620411	2793.628501
608.969870	2786.633900
609.319276	2781.338167
609.668627	2777.675769
610.017926	2774.177208
610.367171	2772.735438
610.716362	2767.371651
611.065500	2761.261772
611.414585	2760.664396
611.763616	2759.331010
612.112594	2754.438571
612.461518	2751.890267
612.810389	2748.542941
613.159207	2743.547158
613.507971	2743.867271
613.856682	2740.242681
614.205340	2733.923595
614.553945	2735.090622
614.902496	2730.125086
615.250994	2730.755230
615.599439	2726.724827
615.947830	2726.097204
616.296169	2722.603684
616.644454	2722.001266
616.992686	2717.512119
617.340864	2718.943806
617.688990	2713.229658
618.037063	2716.398024
618.385082	2713.728733
618.733048	2712.085317
619.080961	2708.634647
619.428821	2705.814121
619.776628	2706.320757
620.124382	2705.836806
620.472083	2701.700540
620.819731	2699.041331
621.167326	2696.707277
621.514868	2695.729293
621.862357	2691.290557
622.209793	2691.955989
622.557176	2686.415761
622.904506	2682.970132
623.251783	2677.918896
623.599007	2677.850841
623.946179	2674.790860
624.293297	2673.288597
624.640363	2674.029646
624.987376	2674.871519
625.334336	2670.037052
625.681243	2667.526558
626.028097	2667.398008
626.374899	2668.161743
626.721647	2664.380878
627.068343	2664.244767
627.414987	2660.340393
627.761577	2659.349806
628.108115	2659.072543
628.454600	2657.565238
628.801032	2659.788387
629.147412	2658.833088
629.493739	2656.080618
629.840014	2656.206647
630.186236	2656.040289
630.532405	2654.094403
630.878521	2650.721871
631.224585	2654.354023
631.570597	2649.799340
631.916556	2647.364463
632.262462	2647.941675
632.608316	2646.086530
632.954117	2646.908238
633.299866	2644.755666
633.645562	2648.922179
633.991206	2647.064514
634.336797	2645.098464
634.682336	2646.678866
635.027823	2643.961684
635.373257	2642.174595
635.718639	2640.228710
636.063968	2640.241312
636.409245	2638.524800
636.754470	2637.277114
637.099642	2637.705612
637.444762	2637.196456
637.789829	2634.391053
638.134845	2635.873153
638.479808	2633.377782
638.824719	2632.689664
639.169577	2634.078502
639.514383	2631.507513
639.859137	2630.161525
640.203839	2635.008595
640.548489	2632.336783
640.893086	2629.768315
641.237632	2626.302522
641.582125	2627.338479
641.926566	2625.261524
642.270955	2628.840743
