Dividing Wavelength (nm)	Counts (n)	Blue Motor Position (mm): 37.900000	Red Motor Position (mm): 0.000000	
326.493990	2241.332288
326.888308	2241.332288
327.282561	2241.332288
327.676750	2202.336443
328.070874	2198.737059
328.464933	2199.273942
328.858929	2202.709488
329.252859	2205.343491
329.646726	2216.255068
330.040528	2225.082129
330.434265	2243.361353
330.827938	2259.341810
331.221547	2276.665735
331.615091	2295.244908
332.008571	2314.456745
332.401986	2331.707574
332.795338	2349.575943
333.188625	2370.438759
333.581847	2393.159239
333.975006	2409.011147
334.368100	2426.927408
334.761129	2446.681169
335.154095	2462.936370
335.546996	2487.862355
335.939833	2528.229395
336.332606	2543.713299
336.725315	2556.903478
337.117960	2568.972000
337.510540	2583.394741
337.903056	2591.624425
338.295508	2600.632967
338.687896	2611.841972
339.080220	2616.613424
339.472480	2623.073663
339.864676	2630.073305
340.256807	2634.466671
340.648875	2637.627474
341.040879	2639.540592
341.432818	2643.805408
341.824694	2645.910090
342.216506	2646.908238
342.608253	2643.389513
342.999937	2648.493681
343.391557	2647.871099
343.783113	2647.331695
344.174605	2647.157776
344.566033	2645.383289
344.957397	2645.952940
345.348697	2641.778864
345.739934	2641.993113
346.131106	2640.185860
346.522215	2638.320633
346.913260	2633.284520
347.304241	2632.873666
347.695159	2631.734365
348.086012	2630.869807
348.476802	2628.399642
348.867528	2625.672378
349.258191	2623.411420
349.648789	2622.614918
350.039324	2616.174844
350.429796	2623.441667
350.820203	2619.965792
351.210548	2622.037706
351.600828	2618.922273
351.991045	2616.968826
352.381198	2615.985801
352.771288	2615.597632
353.161314	2615.630399
353.551276	2612.908176
353.941175	2614.226438
354.331010	2613.684514
354.720782	2615.461521
355.110490	2612.940944
355.500135	2613.805502
355.889717	2610.871550
356.279235	2614.173506
356.668689	2612.956067
357.058080	2614.123094
357.447408	2613.523197
357.836672	2613.296345
358.225873	2614.561675
358.615010	2613.470265
359.004084	2616.706686
359.393095	2616.436984
359.782043	2618.884464
360.170927	2619.587705
360.559748	2615.781634
360.948505	2619.965792
361.337199	2620.565689
361.725830	2620.681636
362.114398	2621.578961
362.502903	2621.087448
362.891344	2619.847325
363.279722	2620.227932
363.668037	2621.616770
364.056289	2624.732203
364.444478	2622.768673
364.832603	2626.131123
365.220665	2625.193468
365.608665	2624.570886
365.996601	2626.184055
366.384474	2626.352934
366.772284	2626.320166
367.160031	2627.250259
367.547715	2628.167749
367.935336	2625.821092
368.322893	2624.485186
368.710388	2624.744806
369.097820	2626.980557
369.485189	2624.613736
369.872495	2632.601444
370.259738	2631.205044
370.646918	2630.413583
371.034035	2630.708491
371.421090	2633.415590
371.808081	2632.319139
372.195010	2634.653193
372.581875	2632.727473
372.968678	2632.959366
373.355418	2634.640591
373.742096	2634.363327
374.128710	2636.011784
374.515262	2635.875673
374.901751	2634.411218
375.288177	2635.540437
375.674540	2637.413225
376.060841	2637.965232
376.447079	2639.311220
376.833254	2639.580921
377.219367	2639.986734
377.605417	2642.204842
377.991404	2639.439769
378.377329	2642.615696
378.763191	2641.115953
379.148991	2637.947587
379.534727	2641.844399
379.920402	2641.567136
380.306013	2642.245171
380.691563	2646.709113
381.077049	2641.819194
381.462474	2646.993938
381.847835	2646.991417
382.233134	2644.788433
382.618371	2645.358084
383.003545	2649.207005
383.388657	2648.851603
383.773706	2649.149031
384.158693	2649.796820
384.543618	2649.847231
384.928480	2651.929228
385.313280	2651.727582
385.698017	2651.349495
386.082692	2651.793117
386.467305	2653.920483
386.851856	2653.388642
387.236344	2653.466780
387.620770	2650.376552
388.005133	2650.789927
388.389435	2653.403765
388.773674	2650.610966
389.157851	2653.572644
389.541965	2658.417193
389.926018	2660.650424
390.310008	2658.215547
390.693936	2659.223777
391.077802	2662.795435
391.461606	2662.790394
391.845348	2660.937770
392.229027	2662.132523
392.612645	2666.094870
392.996200	2669.459840
393.379694	2670.498318
393.763125	2676.499812
394.146494	2679.216993
394.529801	2687.383663
394.913047	2694.708459
395.296230	2702.635674
395.679351	2717.549927
396.062410	2733.263204
396.445408	2748.056470
396.828343	2768.543719
397.211217	2797.691671
397.594028	2818.877120
397.976778	2858.306504
398.359466	2897.511558
398.742092	2936.255346
399.124656	2973.161633
399.507158	3036.778474
399.889598	3104.607199
400.271977	3179.354908
400.654294	3235.505800
401.036549	3309.948519
401.418742	3351.149869
401.800874	3467.963486
402.182944	3555.001528
402.564952	3666.000174
402.946898	3756.650202
403.328783	3777.780198
403.710606	3857.453114
404.092367	4060.367118
404.474067	4156.300276
404.855705	4188.825801
405.237282	4233.921443
405.618797	4440.306281
406.000250	4512.344369
406.381642	4701.001990
406.762972	4793.376093
407.144240	4908.334566
407.525447	4976.695133
407.906593	5080.177418
408.287677	5259.377834
408.668700	5272.240338
409.049661	5435.266213
409.430560	5522.679820
409.811399	5475.497141
410.192176	5758.636067
410.572891	5826.109391
410.953545	6057.369803
411.334138	5906.145270
411.714669	6102.311690
412.095139	5988.532847
412.475547	6245.866107
412.855894	6357.862902
413.236180	6555.397994
413.616405	6327.401729
413.996568	6562.884108
414.376670	6620.539784
414.756711	6571.464152
415.136691	6688.842378
415.516609	6908.424957
415.896466	6928.055210
416.276262	7141.545555
416.655997	7142.737788
417.035670	7359.522527
417.415283	7702.691513
417.794834	7763.308868
418.174324	7647.493399
418.553753	7583.604336
418.933121	7907.778254
419.312428	8020.589195
419.691674	7817.881878
420.070859	8296.854508
420.449983	7985.394380
420.829045	8355.185699
421.208047	8147.795151
421.586988	8442.579143
421.965867	8463.618398
422.344686	8584.477541
422.723444	8605.935212
423.102141	7996.182449
423.480777	8742.711798
423.859352	8264.845702
424.237866	8888.849807
424.616319	8760.065971
424.994712	9166.289709
425.373044	8742.857992
425.751314	9192.801137
426.129524	9060.319614
426.507673	9198.028814
426.885762	9346.314354
427.263789	9260.337475
427.641756	9180.379734
428.019662	9284.237586
428.397508	9523.485706
428.775292	9221.215601
429.153016	9585.680942
429.530679	9429.924411
429.908282	9470.546029
430.285824	9191.840798
430.663305	9866.639569
431.040726	9317.849479
431.418086	9308.999733
431.795385	9627.451942
432.172624	9710.699037
432.549802	9629.067632
432.926920	9717.416374
433.303977	9587.881405
433.680974	9798.137850
434.057910	9879.978462
434.434786	9948.288617
434.811601	9785.827352
435.188355	10356.400268
435.565050	10079.454399
435.941683	10014.746148
436.318257	10509.061530
436.694770	10627.982349
437.071222	10704.126458
437.447614	10554.933509
437.823946	10443.579462
438.200218	10594.791392
438.576429	10402.047916
438.952580	10636.340582
439.328670	10690.381752
439.704700	10473.120624
440.080670	10461.281474
440.456580	11023.473471
440.832429	10779.620257
441.208218	10379.786181
441.583947	10708.756757
441.959616	10859.325940
442.335224	10661.989973
442.710773	10801.110696
443.086261	11008.745740
443.461689	10292.460793
443.837057	10942.409197
444.212365	11217.857843
444.587612	10861.821312
444.962800	11094.384862
445.337927	10854.141114
445.712995	10448.277817
446.088002	11534.394414
446.462949	11194.126611
446.837837	11163.330203
447.212664	11147.465691
447.587431	11671.723006
447.962139	12397.082030
448.336786	14663.310057
448.711374	15207.298448
449.085901	13054.776167
449.460369	12665.339470
449.834776	12121.028446
450.209124	12995.686282
450.583412	13404.085278
450.957640	14355.285474
451.331808	13488.786745
451.705917	12479.358702
452.079965	11785.179215
452.453954	12684.541225
452.827883	12319.221409
453.201752	12608.908794
453.575562	12123.554064
453.949311	12550.136502
454.323001	12514.147705
454.696632	12743.295873
455.070202	13021.234850
455.443713	13255.976178
455.817164	13726.202406
456.190556	13708.283625
456.563888	14076.214759
456.937160	14245.990738
457.310373	13586.670830
457.683526	13670.580835
458.056619	13213.191906
458.429653	13370.841389
458.802628	12794.014922
459.175542	13177.140094
459.548398	14126.573365
459.921194	14456.564776
460.293930	14524.174210
460.666607	15408.624488
461.039224	16440.074812
461.411782	17149.526475
461.784280	17012.354158
462.156719	17083.124397
462.529099	16769.869617
462.901419	15696.814651
463.273680	15473.804087
463.645882	15350.074007
464.018024	15078.300362
464.390106	15305.396781
464.762130	16024.832449
465.134094	16795.143442
465.505999	18792.715777
465.877845	22052.504815
466.249631	24889.565376
466.621358	24560.766199
466.993026	23130.109423
467.364634	22576.618457
467.736184	21100.871080
468.107674	20298.616816
468.479105	20420.935372
468.850477	19891.127747
469.221790	19482.212033
469.593043	18799.601993
469.964238	18232.918327
470.335373	17882.979072
470.706449	18337.043360
471.077467	17905.649140
471.448425	19744.105016
471.819324	23793.459734
472.190164	25775.485150
472.560945	22195.088810
472.931667	19849.860862
473.302330	19213.271516
473.672934	18763.361138
474.043479	19067.277180
474.413965	18882.223984
474.784393	18497.568822
475.154761	19202.281801
475.525070	19169.874743
475.895321	18855.659624
476.265513	19444.549572
476.635645	20037.810201
477.005719	19813.355346
477.375734	20005.239306
477.745691	20486.435084
478.115588	21013.402019
478.485427	21544.805170
478.855207	22611.044496
479.224928	24383.307501
479.594591	26604.071882
479.964194	26612.530938
480.333739	26836.406060
480.703226	26391.030200
481.072653	26097.014984
481.442022	26675.232809
481.811333	27596.770856
482.180584	27496.217481
482.549777	26556.470787
482.918912	26198.949635
483.287988	26319.221484
483.657005	25987.291750
484.025964	25750.165955
484.394864	25650.136860
484.763706	25334.530382
485.132489	24772.217397
485.501213	24946.278357
485.869879	24850.698080
486.238487	24684.040055
486.607036	24816.125847
486.975527	24531.162023
487.343959	24836.217366
487.712333	24785.669716
488.080648	24438.682056
488.448905	24933.241933
488.817104	24681.058212
489.185244	25369.750404
489.553326	25336.529200
489.921350	26339.885173
490.289315	28643.478232
490.657222	30410.203529
491.025070	30903.855999
491.392861	30690.330366
491.760593	29828.706433
492.128267	28929.896429
492.495883	27881.601089
492.863440	27006.895362
493.230939	26126.878779
493.598380	25975.344215
493.965763	25581.715799
494.333088	25114.315138
494.700354	25066.668673
495.067563	24920.790283
495.434713	24682.794890
495.801805	24844.008469
496.168839	24638.523477
496.535815	24484.206196
496.902733	24703.173754
497.269593	24381.674167
497.636395	24555.520878
498.003139	24508.486913
498.369825	24254.581638
498.736453	24463.202228
499.103023	24339.394010
499.469535	24344.823333
499.835989	24560.446086
500.202385	24586.382822
500.568723	24099.306538
500.935003	24326.163502
501.301226	23956.566267
501.667390	24801.922396
502.033497	25028.839854
502.399546	24761.212558
502.765537	24316.492048
503.131470	24702.899011
503.497345	24835.977911
503.863163	24054.296596
504.228923	24641.979187
504.594625	24861.309709
504.960269	24398.725870
505.325856	24884.438523
505.691385	24282.791935
506.056856	24898.321861
506.422270	24856.790315
506.787625	24416.223715
507.152924	24849.412586
507.518164	24887.395160
507.883347	24686.268245
508.248472	24365.330747
508.613540	25150.929039
508.978550	24942.540342
509.343503	24940.725526
509.708398	25184.152763
510.073236	25338.477606
510.438016	25552.270420
510.802738	25210.187802
511.167403	25477.961292
511.532010	25187.358937
511.896561	25965.163605
512.261053	25927.518789
512.625488	25753.082263
512.989866	25649.912529
513.354186	25493.750185
513.718449	25610.110098
514.082655	25996.491856
514.446803	25715.881068
514.810894	26186.266092
515.174927	25682.637179
515.538904	25721.393570
515.902822	26199.657917
516.266684	25958.277389
516.630488	25862.679468
516.994235	25824.787635
517.357925	26140.079041
517.721558	26306.356459
518.085133	26419.946258
518.448651	26335.156571
518.812112	26064.108852
519.175516	26285.080269
519.538863	26438.812776
519.902152	26220.863531
520.265385	26482.393551
520.628560	26284.666895
520.991678	26282.965505
521.354739	26341.306779
521.717743	26422.149242
522.080690	26204.124380
522.443580	26535.865070
522.806413	26523.660437
523.169189	26630.421993
523.531908	26671.330956
523.894569	26283.605732
524.257174	26376.622582
524.619722	26535.910441
524.982213	26235.016570
525.344647	26279.663549
525.707025	26422.018172
526.069345	26404.893373
526.431608	26366.671344
526.793815	26543.963684
527.155964	26022.168973
527.518057	26184.650402
527.880093	26115.027027
528.242072	26332.540212
528.603995	26054.036627
528.965860	25842.537538
529.327669	25888.170062
529.689421	25878.889298
530.051117	25712.286725
530.412755	25897.133234
530.774337	25676.630644
531.135862	25561.591513
531.497331	25748.162097
531.858743	25328.818755
532.220098	25803.955067
532.581396	25490.619629
532.942638	25406.434880
533.303824	25525.643045
533.664953	25518.575348
534.026025	25179.585478
534.387040	25426.811224
534.747999	25475.218904
535.108902	25633.344777
535.469748	25140.627441
535.830537	25311.688914
536.191270	25427.456492
536.551947	25291.652848
536.912567	24925.425624
537.273131	25315.416848
537.633638	25003.913869
537.994089	25220.249945
538.354483	24747.004066
538.714821	25245.138122
539.075103	25298.097963
539.435328	25068.690175
539.795497	24637.270750
540.155609	25017.028431
540.515665	25324.841285
540.875665	24545.577203
541.235609	24869.211718
541.595496	24813.368336
541.955328	25163.027808
542.315102	25092.232364
542.674821	24617.453974
543.034483	24496.483926
543.394090	24672.347098
543.753640	24470.496778
544.113134	25094.851243
544.472571	24688.141033
544.831953	25007.682132
545.191278	24620.879438
545.550548	24543.064187
545.909761	24732.911521
546.268918	24961.502642
546.628019	24935.155051
546.987064	24621.255004
547.346053	24381.162490
547.704986	24487.782894
548.063863	24650.077801
548.422684	24658.410828
548.781449	24169.338247
549.140158	24589.049593
549.498811	24177.371326
549.857408	23910.268310
550.215949	24328.618544
550.574434	24010.441078
550.932864	24226.305806
551.291237	24397.644543
551.649555	24246.596450
552.007817	24305.406551
552.366022	24156.120342
552.724173	24179.758312
553.082267	24155.648994
553.440305	24634.094823
553.798288	23880.129771
554.156215	24392.144644
554.514086	24500.426108
554.871902	23888.208220
555.229661	24162.424304
555.587365	24013.672457
555.945014	23901.700869
556.302606	24116.854794
556.660143	24092.959725
557.017625	24336.034081
557.375050	23846.480069
557.732421	24250.188272
558.089735	24066.665067
558.446994	24125.144972
558.804197	24152.412573
559.161345	24079.502365
559.518437	23850.245811
559.875474	24032.269274
560.232455	24216.152922
560.589381	24028.778275
560.946251	24011.892930
561.303065	24329.094933
561.659825	24417.652883
562.016528	24028.750548
562.373177	23764.102574
562.729770	24133.704851
563.086307	23990.175639
563.442789	24158.000692
563.799216	23989.936184
564.155587	23989.180011
564.511904	23980.894875
564.868164	23921.961266
565.224370	23882.231933
565.580520	23806.123112
565.936615	23934.158338
566.292654	23623.250215
566.648638	23894.582759
567.004567	23726.893818
567.360441	23668.943234
567.716260	23396.239496
568.072023	23732.270208
568.427732	23495.577953
568.783385	23260.715637
569.138982	23508.281661
569.494525	23528.617675
569.850013	23296.996821
570.205445	23390.086768
570.560823	23219.731056
570.916145	22970.451039
571.271412	23148.421414
571.626625	22898.357498
571.981782	23025.139997
572.336884	22811.493376
572.691931	22953.038894
573.046923	22693.001055
573.401860	22563.075397
573.756743	22594.287701
574.111570	22491.589315
574.466342	22426.205549
574.821059	22500.663392
575.175722	22205.677754
575.530330	22185.044311
575.884882	22192.805168
576.239380	22106.563628
576.593823	22001.574037
576.948211	21978.115028
577.302544	21830.005928
577.656823	21697.680681
578.011047	21793.855814
578.365216	21675.429028
578.719330	21546.224255
579.073389	21431.409455
579.427394	21580.972928
579.781344	21347.842248
580.135239	21233.579455
580.489080	21188.670336
580.842866	20951.567226
581.196597	21166.479177
581.550273	21128.935183
581.903895	21017.535766
582.257463	21325.177220
582.610975	20861.549863
582.964434	21175.943943
583.317837	20863.785614
583.671186	20958.274482
584.024481	20929.786921
584.377721	20698.526509
584.730906	20773.846389
585.084037	20781.153541
585.437113	20688.645847
585.790135	20898.022611
586.143103	20361.931187
586.496016	20383.466997
586.848874	20601.887590
587.201679	20542.752335
587.554428	20225.908254
587.907124	20560.517361
588.259765	20320.538273
588.612352	20402.346118
588.964884	19963.425455
589.317362	20132.475508
589.669786	20194.958090
590.022155	20209.040553
590.374470	20425.255641
590.726731	20204.465706
591.078937	19992.409569
591.431090	20074.565253
591.783188	19835.536423
592.135232	19799.857657
592.487222	19904.650643
592.839157	19903.992772
593.191038	19800.679365
593.542866	19694.984013
593.894639	19395.007633
594.246358	19615.328741
594.598022	19501.202059
594.949633	19262.042159
595.301190	19236.365042
595.652692	19402.264374
596.004141	19632.743407
596.355535	18967.122056
596.706876	18983.808275
597.058162	18873.880874
597.409395	19111.634293
597.760573	19172.909518
598.111698	18948.195044
598.462768	18883.779180
598.813785	18855.026959
599.164748	18663.392537
599.515657	18717.766422
599.866511	18508.843363
600.217312	18870.452890
600.568060	18384.646976
600.918753	18688.999078
601.269392	18584.818592
601.619978	18370.922435
601.970510	18570.695800
602.320988	18518.754271
602.671412	18732.010202
603.021783	18650.136823
603.372100	18363.033029
603.722363	18505.596860
604.072572	18444.064536
604.422728	18600.098330
604.772830	18360.837606
605.122878	18310.335327
605.472872	18290.236247
605.822813	18283.844064
606.172701	18260.541330
606.522534	18442.509340
606.872314	18469.257702
607.222041	18302.924831
607.571714	18516.679836
607.921333	18333.663267
608.270899	18421.248273
608.620411	18589.975693
608.969870	18368.006127
609.319276	18375.038537
609.668627	18398.424449
610.017926	18531.972177
610.367171	18647.298653
610.716362	18700.445018
611.065500	18507.446963
611.414585	18654.784767
611.763616	18639.343712
612.112594	18572.941634
612.461518	18531.032001
612.810389	18729.678669
613.159207	18584.901771
613.507971	18501.165685
613.856682	18767.860368
614.205340	18692.729532
614.553945	18843.364250
614.902496	18584.589220
615.250994	18808.076173
615.599439	18758.821579
615.947830	18741.157376
616.296169	18809.777562
616.644454	18762.113452
616.992686	18741.061594
617.340864	18957.180901
617.688990	18711.782572
618.037063	18871.405668
618.385082	18726.888390
618.733048	19006.193519
619.080961	18899.058917
619.428821	18925.406508
619.776628	18802.752714
620.124382	18728.141117
620.472083	18773.471172
620.819731	18792.834244
621.167326	18484.003077
621.514868	18517.841822
621.862357	18300.222773
622.209793	18306.793917
622.557176	18136.609604
622.904506	17967.589798
623.251783	17895.816370
623.599007	17637.439591
623.946179	17582.574193
624.293297	17517.697064
624.640363	17258.470851
624.987376	17288.647198
625.334336	17085.261846
625.681243	16924.529697
626.028097	16940.830268
626.374899	16862.077362
626.721647	16729.333699
627.068343	16554.919858
627.414987	16491.792009
627.761577	16466.462732
628.108115	16501.213926
628.454600	16224.109261
628.801032	16328.871999
629.147412	16264.257010
629.493739	16279.221675
629.840014	16082.846047
630.186236	16184.342118
630.532405	15938.583348
630.878521	16142.926519
631.224585	16041.254008
631.570597	15864.674991
631.916556	15895.794034
632.262462	15873.721342
632.608316	15786.269926
632.954117	15737.675723
633.299866	15729.408231
633.645562	15649.216076
633.991206	15402.607871
634.336797	15269.965031
634.682336	15246.455610
635.027823	15110.387306
635.373257	14999.640718
635.718639	14907.410288
636.063968	14853.384242
