Dividing Wavelength (nm)	Counts (n)	Blue Motor Position (mm): 0.000000	Red Motor Position (mm): 28.200000	
326.493990	2131.344393
326.888308	2131.344393
327.282561	2131.344393
327.676750	2098.171081
328.070874	2095.693353
328.464933	2099.212079
328.858929	2104.931268
329.252859	2114.557351
329.646726	2125.683178
330.040528	2139.014509
330.434265	2151.529173
330.827938	2174.993224
331.221547	2191.233301
331.615091	2210.367001
332.008571	2230.768550
332.401986	2250.209760
332.795338	2269.124169
333.188625	2288.023455
333.581847	2306.990796
333.975006	2324.322283
334.368100	2344.393637
334.761129	2362.516585
335.154095	2375.142155
335.546996	2396.398180
335.939833	2414.337126
336.332606	2428.885896
336.725315	2438.643050
337.117960	2451.712241
337.510540	2456.302212
337.903056	2469.847792
338.295508	2476.839872
338.687896	2485.369505
339.080220	2492.427120
339.472480	2500.676968
339.864676	2502.169150
340.256807	2507.870695
340.648875	2511.961591
341.040879	2516.901922
341.432818	2515.124915
341.824694	2516.788496
342.216506	2516.289422
342.608253	2516.249093
342.999937	2517.169103
343.391557	2517.524504
343.783113	2511.563340
344.174605	2513.947806
344.566033	2515.089627
344.957397	2512.667353
345.348697	2508.291631
345.739934	2508.861282
346.131106	2508.319358
346.522215	2502.978255
346.913260	2504.467916
347.304241	2502.529592
347.695159	2500.709736
348.086012	2497.969869
348.476802	2498.151350
348.867528	2498.095898
349.258191	2494.844353
349.648789	2493.342089
350.039324	2494.125989
350.429796	2491.970896
350.820203	2487.000318
351.210548	2489.548621
351.600828	2488.311018
351.991045	2488.157263
352.381198	2485.044350
352.771288	2486.362612
353.161314	2488.353868
353.551276	2485.798003
353.941175	2485.666933
354.331010	2485.372025
354.720782	2485.634165
355.110490	2486.801192
355.500135	2485.498054
355.889717	2484.777169
356.279235	2487.078456
356.668689	2488.852942
357.058080	2487.786738
357.447408	2484.913280
357.836672	2484.341109
358.225873	2485.626603
358.615010	2484.131901
359.004084	2491.141626
359.393095	2491.736482
359.782043	2490.390494
360.170927	2492.255721
360.559748	2491.597850
360.948505	2495.605567
361.337199	2492.964003
361.725830	2492.669095
362.114398	2493.311843
362.502903	2495.875269
362.891344	2494.733448
363.279722	2494.798983
363.668037	2498.305105
364.056289	2496.253356
364.444478	2499.056237
364.832603	2500.003974
365.220665	2500.041783
365.608665	2498.012718
365.996601	2502.753924
366.384474	2500.775271
366.772284	2500.772750
367.160031	2505.120745
367.547715	2507.086795
367.935336	2506.360869
368.322893	2511.056704
368.710388	2515.480317
369.097820	2524.007428
369.485189	2525.907943
369.872495	2531.301978
370.259738	2538.500746
370.646918	2541.961498
371.034035	2550.922149
371.421090	2561.755588
371.808081	2572.536096
372.195010	2580.168403
372.581875	2592.330186
372.968678	2608.955912
373.355418	2616.172323
373.742096	2636.354583
374.128710	2651.460400
374.515262	2667.917247
374.901751	2679.990811
375.288177	2693.238963
375.674540	2717.365925
376.060841	2733.989130
376.447079	2754.519229
376.833254	2775.974380
377.219367	2785.192130
377.605417	2826.249807
377.991404	2832.205930
378.377329	2853.961030
378.763191	2872.399050
379.148991	2910.915986
379.534727	2937.238371
379.920402	2966.774491
380.306013	2975.420070
380.691563	3027.265817
381.077049	3048.748694
381.462474	3067.489183
381.847835	3105.184411
382.233134	3125.061681
382.618371	3127.917494
383.003545	3196.210006
383.388657	3202.009853
383.773706	3236.791294
384.158693	3249.477358
384.543618	3277.428035
384.928480	3314.477995
385.313280	3359.540870
385.698017	3358.119264
386.082692	3408.525762
386.467305	3417.138573
386.851856	3445.953808
387.236344	3468.664206
387.620770	3501.446830
388.005133	3529.147970
388.389435	3556.634862
388.773674	3568.317736
389.157851	3609.997996
389.541965	3624.544245
389.926018	3589.046960
390.310008	3659.996159
390.693936	3679.427287
391.077802	3718.123184
391.461606	3706.389898
391.845348	3768.544805
392.229027	3770.495731
392.612645	3781.019140
392.996200	3860.845811
393.379694	3900.539856
393.763125	3968.245073
394.146494	3930.932973
394.529801	3991.978825
394.913047	4041.309036
395.296230	4009.257380
395.679351	4062.875092
396.062410	4087.760748
396.445408	4068.221236
396.828343	4105.185497
397.211217	4125.831542
397.594028	4045.253739
397.976778	4114.645222
398.359466	4134.003253
398.742092	4164.366122
399.124656	4087.271757
399.507158	4169.097245
399.889598	4195.853169
400.271977	4256.830966
400.654294	4227.340216
401.036549	4235.219540
401.418742	4202.610836
401.800874	4307.350889
402.182944	4327.797809
402.564952	4393.657964
402.946898	4379.313361
403.328783	4379.197414
403.710606	4288.544865
404.092367	4481.830265
404.474067	4446.320378
404.855705	4455.691882
405.237282	4383.343763
405.618797	4492.227645
406.000250	4527.031771
406.381642	4607.864152
406.762972	4567.648348
407.144240	4578.965738
407.525447	4584.218620
407.906593	4639.683916
408.287677	4680.958363
408.668700	4609.767188
409.049661	4661.007996
409.430560	4698.884706
409.811399	4625.961895
410.192176	4785.731184
410.572891	4729.819746
410.953545	4830.723482
411.334138	4711.442220
411.714669	4779.452427
412.095139	4673.593237
412.475547	4815.002643
412.855894	4796.476403
413.236180	4806.162980
413.616405	4762.516670
413.996568	4848.085216
414.376670	4786.336122
414.756711	4744.489504
415.136691	4780.289258
415.516609	4853.461606
415.896466	4893.042226
416.276262	4923.596659
416.655997	4907.154936
417.035670	5087.229992
417.415283	5178.706770
417.794834	5120.768789
418.174324	5077.372016
418.553753	4983.392305
418.933121	5169.312580
419.312428	5235.046705
419.691674	5174.076470
420.070859	5300.327127
420.449983	5214.788829
420.829045	5326.296631
421.208047	5234.119133
421.586988	5305.640503
421.965867	5316.756247
422.344686	5448.537050
422.723444	5302.351150
423.102141	5123.818687
423.480777	5417.745682
423.859352	5190.097257
424.237866	5448.620229
424.616319	5440.214105
424.994712	5549.569335
425.373044	5424.919244
425.751314	5570.185134
426.129524	5374.081728
426.507673	5567.064659
426.885762	5649.313605
427.263789	5577.459519
427.641756	5463.877281
428.019662	5582.001598
428.397508	5587.609882
428.775292	5540.608684
429.153016	5638.281040
429.530679	5565.028033
429.908282	5647.060209
430.285824	5524.426580
430.663305	5794.329957
431.040726	5530.148290
431.418086	5527.289956
431.795385	5632.798785
432.172624	5650.057175
432.549802	5641.701463
432.926920	5654.626981
433.303977	5661.253578
433.680974	5695.336819
434.057910	5719.667948
434.434786	5724.779678
434.811601	5688.211148
435.188355	5924.043887
435.565050	5795.998579
435.941683	5781.331342
436.318257	5990.234237
436.694770	5978.604295
437.071222	6016.546539
437.447614	5946.005673
437.823946	5859.622982
438.200218	6011.568400
438.576429	5877.985385
438.952580	5973.106917
439.328670	6016.982599
439.704700	5924.374082
440.080670	5912.545015
440.456580	6180.867990
440.832429	6064.878602
441.208218	5910.178193
441.583947	6068.031843
441.959616	6069.188788
442.335224	5998.201780
442.710773	6134.018027
443.086261	6156.466285
443.461689	5957.991017
443.837057	6106.170693
444.212365	6256.828096
444.587612	6145.106045
444.962800	6300.731505
445.337927	6282.628722
445.712995	5892.198918
446.088002	6468.158307
446.462949	6300.703779
446.837837	6229.318520
447.212664	6399.858234
447.587431	6546.704525
447.962139	7079.252017
448.336786	8004.432297
448.711374	7746.158862
449.085901	6821.056720
449.460369	6742.676860
449.834776	6672.461148
450.209124	7063.241312
450.583412	7203.889505
450.957640	7348.366453
451.331808	7111.041533
451.705917	6663.157699
452.079965	6586.937973
452.453954	6792.599406
452.827883	6661.484036
453.201752	6752.507110
453.575562	6546.734772
453.949311	6750.727583
454.323001	6631.612679
454.696632	6703.179419
455.070202	6831.501991
455.443713	6975.159752
455.817164	7065.235089
456.190556	7130.540716
456.563888	7196.635284
456.937160	7238.529793
457.310373	6890.851495
457.683526	6907.232724
458.056619	6789.604961
458.429653	6769.959584
458.802628	6700.038781
459.175542	6794.484798
459.548398	7113.703262
459.921194	7251.309118
460.293930	7233.856644
460.666607	7711.269036
461.039224	7979.909604
461.411782	8086.451870
461.784280	8088.700225
462.156719	7968.133469
462.529099	7837.968356
462.901419	7426.726149
463.273680	7313.680794
463.645882	7303.338867
464.018024	7156.603482
464.390106	7282.372708
464.762130	7606.357584
465.134094	7982.107547
465.505999	8829.694387
465.877845	9845.721301
466.249631	10391.148942
466.621358	10029.017655
466.993026	9438.212068
467.364634	9189.685704
467.736184	8836.973814
468.107674	8502.833534
468.479105	8471.200293
468.850477	8234.495435
469.221790	8001.326946
469.593043	7679.754263
469.964238	7512.100610
470.335373	7472.295659
470.706449	7468.383723
471.077467	7409.296359
471.448425	8363.904375
471.819324	9115.308520
472.190164	9095.398483
472.560945	8084.924401
472.931667	7417.175683
473.302330	7262.669358
473.672934	6937.368742
474.043479	7134.641695
474.413965	7035.207456
474.784393	6884.408900
475.154761	6943.133301
475.525070	6931.994872
475.895321	6755.062975
476.265513	6807.531304
476.635645	6862.583225
477.005719	6776.187930
477.375734	6782.260000
477.745691	6862.028698
478.115588	6865.267639
478.485427	6933.595438
478.855207	7175.709455
479.224928	7548.790127
479.594591	7830.031059
479.964194	7624.034390
480.333739	7508.922162
480.703226	7340.945875
481.072653	7302.675955
481.442022	7314.454611
481.811333	7335.370359
482.180584	7137.026161
482.549777	6888.434262
482.918912	6712.525719
483.287988	6632.242823
483.657005	6552.315329
484.025964	6312.840357
484.394864	6277.259893
484.763706	6173.059243
485.132489	5991.151727
485.501213	5887.160285
485.869879	5838.593808
486.238487	5678.171690
486.607036	5647.292102
486.975527	5476.356658
487.343959	5467.436336
487.712333	5400.918311
488.080648	5304.453312
488.448905	5229.680397
488.817104	5135.390656
489.185244	5140.514988
489.553326	5107.288743
489.921350	5193.169840
490.289315	5405.354526
490.657222	5422.398667
491.025070	5301.635307
491.392861	5191.448286
491.760593	5011.380792
492.128267	4836.404862
492.495883	4681.079350
492.863440	4529.592677
493.230939	4389.788878
493.598380	4305.452895
493.965763	4211.480746
494.333088	4145.970952
494.700354	4058.819484
495.067563	4030.629352
495.434713	3934.781894
495.801805	3908.036052
496.168839	3844.091536
496.535815	3776.172070
496.902733	3736.074733
497.269593	3674.350845
497.636395	3647.862102
498.003139	3596.230604
498.369825	3542.764127
498.736453	3514.523583
499.103023	3471.630925
499.469535	3430.495110
499.835989	3394.312228
500.202385	3352.768079
500.568723	3302.210348
500.935003	3295.266158
501.301226	3239.253898
501.667390	3231.913978
502.033497	3211.512428
502.399546	3172.012467
502.765537	3131.791621
503.131470	3108.965277
503.497345	3092.621856
503.863163	3046.911193
504.228923	3037.033052
504.594625	3014.781399
504.960269	2981.199753
505.325856	2969.668113
505.691385	2941.394802
506.056856	2928.398708
506.422270	2909.978331
506.787625	2890.779097
507.152924	2872.991386
507.518164	2858.523274
507.883347	2841.476612
508.248472	2821.763180
508.613540	2818.027685
508.978550	2802.505972
509.343503	2789.439302
509.708398	2782.593415
510.073236	2770.582866
510.438016	2765.004829
510.802738	2752.933786
511.167403	2745.442632
511.532010	2733.855539
511.896561	2729.268089
512.261053	2724.350444
512.625488	2709.978114
512.989866	2699.981506
513.354186	2700.379757
513.718449	2689.730320
514.082655	2688.956503
514.446803	2686.665298
514.810894	2681.835873
515.174927	2673.943947
515.538904	2673.742300
515.902822	2669.467402
516.266684	2667.904644
516.630488	2662.571103
516.994235	2657.179589
517.357925	2654.303611
517.721558	2655.735299
518.085133	2652.148518
518.448651	2650.805050
518.812112	2646.885553
519.175516	2645.043012
519.538863	2645.557209
519.902152	2642.282980
520.265385	2639.235602
520.628560	2640.281642
520.991678	2635.628657
521.354739	2635.358955
521.717743	2636.036990
522.080690	2633.866773
522.443580	2632.235960
522.806413	2632.878707
523.169189	2631.457102
523.531908	2629.296967
523.894569	2626.846967
524.257174	2624.767491
524.619722	2624.550721
524.982213	2628.082049
525.344647	2625.876545
525.707025	2625.115330
526.069345	2623.779425
526.431608	2618.360184
526.793815	2623.832357
527.155964	2622.103241
527.518057	2618.471090
527.880093	2619.706172
528.242072	2618.697942
528.603995	2619.587705
528.965860	2614.740636
529.327669	2616.731892
529.689421	2613.606376
530.051117	2615.297683
530.412755	2614.344905
530.774337	2613.407251
531.135862	2615.859772
531.497331	2611.010182
531.858743	2607.045314
532.220098	2609.719647
532.581396	2610.569081
532.942638	2608.408947
533.303824	2610.097733
533.664953	2610.727877
534.026025	2610.669904
534.387040	2609.054214
534.747999	2611.481530
535.108902	2609.999431
535.469748	2606.936930
535.830537	2609.046652
536.191270	2607.468771
536.551947	2607.408277
536.912567	2608.565222
537.273131	2606.528596
537.633638	2606.954574
537.994089	2607.962804
538.354483	2604.045828
538.714821	2610.064966
539.075103	2609.061776
539.435328	2606.042125
539.795497	2606.947012
540.155609	2606.765530
540.515665	2609.737291
540.875665	2606.384923
541.235609	2606.024481
541.595496	2608.250150
541.955328	2606.374841
542.315102	2607.138576
542.674821	2607.952722
543.034483	2609.270984
543.394090	2606.533637
543.753640	2605.994234
544.113134	2606.110180
544.472571	2605.538009
544.831953	2603.360231
545.191278	2605.301075
545.550548	2604.285283
545.909761	2607.125973
546.268918	2606.092536
546.628019	2610.480861
546.987064	2605.500201
547.346053	2603.403081
547.704986	2603.234202
548.063863	2603.692947
548.422684	2605.086826
548.781449	2606.112701
549.140158	2606.205962
549.498811	2606.458020
549.857408	2603.372834
550.215949	2602.581373
550.574434	2599.481063
550.932864	2604.968359
551.291237	2603.529110
551.649555	2602.195724
552.007817	2602.384768
552.366022	2606.450458
552.724173	2604.000457
553.082267	2603.899634
553.440305	2605.573297
553.798288	2602.979624
554.156215	2604.617999
554.514086	2605.747217
554.871902	2605.149841
555.229661	2604.741507
555.587365	2604.065992
555.945014	2604.237392
556.302606	2603.004830
556.660143	2605.167485
557.017625	2605.457351
557.375050	2605.817793
557.732421	2606.339553
558.089735	2604.612958
558.446994	2605.656477
558.804197	2604.766713
559.161345	2603.881990
559.518437	2602.246136
559.875474	2605.704367
560.232455	2604.681013
560.589381	2602.737648
560.946251	2608.139245
561.303065	2606.568925
561.659825	2604.192021
562.016528	2604.423914
562.373177	2603.456013
562.729770	2605.936261
563.086307	2604.640684
563.442789	2605.658997
563.799216	2603.443410
564.155587	2604.973400
564.511904	2602.906527
564.868164	2603.236723
565.224370	2604.360900
565.580520	2603.783688
565.936615	2602.967021
566.292654	2599.985178
566.648638	2602.067175
567.004567	2600.771598
567.360441	2603.445931
567.716260	2602.188163
568.072023	2603.687906
568.427732	2601.046341
568.783385	2600.660693
569.138982	2600.224633
569.494525	2599.952411
569.850013	2597.600713
570.205445	2604.388626
570.560823	2600.121290
570.916145	2601.865529
571.271412	2600.368306
571.626625	2601.071547
571.981782	2600.262442
572.336884	2597.867894
572.691931	2600.353183
573.046923	2600.184304
573.401860	2598.361927
573.756743	2598.041814
574.111570	2596.284972
574.466342	2602.362082
574.821059	2597.572986
575.175722	2599.806218
575.530330	2601.482401
575.884882	2602.397371
576.239380	2599.052565
576.593823	2600.302771
576.948211	2600.776640
577.302544	2600.574993
577.656823	2597.691453
578.011047	2598.654314
578.365216	2597.754468
578.719330	2599.294540
579.073389	2595.279261
579.427394	2598.102307
579.781344	2596.647935
580.135239	2595.937132
580.489080	2597.915785
580.842866	2595.642224
581.196597	2598.165322
581.550273	2599.024839
581.903895	2595.198603
582.257463	2597.446957
582.610975	2596.310177
582.964434	2595.223809
583.317837	2598.682040
583.671186	2597.908223
584.024481	2595.990064
584.377721	2596.773963
584.730906	2595.017121
585.084037	2596.889910
585.437113	2595.589292
585.790135	2595.831268
586.143103	2593.782039
586.496016	2593.744230
586.848874	2591.730289
587.201679	2593.824888
587.554428	2590.966554
587.907124	2593.933273
588.259765	2588.813982
588.612352	2595.223809
588.964884	2591.011925
589.317362	2592.851946
589.669786	2591.914291
590.022155	2595.692636
590.374470	2593.681216
590.726731	2592.342789
591.078937	2592.710793
591.431090	2592.620053
591.783188	2594.424786
592.135232	2591.316914
592.487222	2592.672985
592.839157	2592.632656
593.191038	2591.889085
593.542866	2591.624425
593.894639	2591.044692
594.246358	2590.250710
594.598022	2589.204671
594.949633	2589.900350
595.301190	2588.612335
595.652692	2591.158118
596.004141	2592.257090
596.355535	2590.671647
596.706876	2588.226687
597.058162	2586.963878
597.409395	2589.124013
597.760573	2588.972778
598.111698	2589.572675
598.462768	2588.909763
598.813785	2587.188209
599.164748	2586.537901
599.515657	2589.030751
599.866511	2587.551172
600.217312	2589.774321
600.568060	2585.151583
600.918753	2591.432861
601.269392	2587.921697
601.619978	2587.563775
601.970510	2589.686101
602.320988	2586.883220
602.671412	2589.393714
603.021783	2585.789289
603.372100	2589.713828
603.722363	2584.496233
604.072572	2590.222984
604.422728	2588.256934
604.772830	2583.853486
605.122878	2584.539083
605.472872	2585.789289
605.822813	2581.688311
606.172701	2585.131419
606.522534	2586.217787
606.872314	2587.412541
607.222041	2585.396079
607.571714	2586.580750
607.921333	2590.301122
608.270899	2587.833477
608.620411	2590.538056
608.969870	2589.577716
609.319276	2588.650144
609.668627	2592.244487
610.017926	2595.448140
610.367171	2597.721700
610.716362	2595.785897
611.065500	2596.030393
611.414585	2593.333376
611.763616	2591.992429
612.112594	2591.843715
612.461518	2593.051071
612.810389	2591.095104
613.159207	2589.607963
613.507971	2590.056626
613.856682	2589.890268
614.205340	2588.360278
614.553945	2590.283478
614.902496	2588.599732
615.250994	2590.785073
615.599439	2590.679208
615.947830	2586.815164
616.296169	2589.968406
616.644454	2589.426482
616.992686	2588.778693
617.340864	2588.040164
617.688990	2589.093766
618.037063	2590.217943
618.385082	2588.781214
618.733048	2589.885227
619.080961	2589.824733
619.428821	2587.364650
619.776628	2588.569486
620.124382	2590.679208
620.472083	2589.867583
620.819731	2588.675350
621.167326	2584.786100
621.514868	2588.566965
621.862357	2588.675350
622.209793	2586.994125
622.557176	2587.614187
622.904506	2584.660071
623.251783	2583.235945
623.599007	2582.830132
623.946179	2582.552868
624.293297	2583.543455
624.640363	2585.176789
624.987376	2582.252920
625.334336	2582.164700
625.681243	2583.427509
626.028097	2583.223342
626.374899	2585.391038
626.721647	2582.441963
627.068343	2583.152766
627.414987	2583.218301
627.761577	2584.481110
628.108115	2580.826273
628.454600	2581.463979
628.801032	2582.895667
629.147412	2582.351222
629.493739	2579.351736
629.840014	2582.593198
630.186236	2581.080852
630.532405	2581.214442
630.878521	2581.113619
631.224585	2582.547827
631.570597	2579.255954
631.916556	2580.057497
632.262462	2579.344174
632.608316	2581.612693
632.954117	2579.712178
633.299866	2578.862744
633.645562	2581.849627
633.991206	2579.452559
634.336797	2577.715881
634.682336	2578.701427
635.027823	2577.299986
635.373257	2578.910635
635.718639	2574.202197
636.063968	2577.017682
636.409245	2575.371745
636.754470	2574.892835
637.099642	2576.024574
637.444762	2577.602455
637.789829	2576.886612
638.134845	2577.438618
638.479808	2572.805797
638.824719	2573.025088
639.169577	2573.622464
639.514383	2574.176991
639.859137	2574.998699
640.203839	2574.958370
640.548489	2573.919892
640.893086	2570.426373
641.237632	2570.933009
641.582125	2570.743966
641.926566	2569.831517
642.270955	2574.454255
642.615292	2573.604820
642.959576	2574.013154
643.303809	2575.296127
643.647990	2573.332598
643.992118	2574.502146
644.336195	2571.850499
