Dividing Wavelength (nm)	Counts (n)	Blue Motor Position (mm): 0.000000	Red Motor Position (mm): 26.100000	
326.493990	2126.830040
326.888308	2126.830040
327.282561	2126.830040
327.676750	2095.058168
328.070874	2092.555235
328.464933	2098.413056
328.858929	2103.265167
329.252859	2112.659357
329.646726	2125.211830
330.040528	2136.309930
330.434265	2153.338948
330.827938	2168.971566
331.221547	2184.279029
331.615091	2208.721064
332.008571	2227.721173
332.401986	2246.638103
332.795338	2266.230547
333.188625	2283.627569
333.581847	2304.278656
333.975006	2322.610812
334.368100	2343.171158
334.761129	2357.775380
335.154095	2376.654501
335.546996	2393.892727
335.939833	2410.092475
336.332606	2423.935483
336.725315	2439.464758
337.117960	2444.997424
337.510540	2455.369598
337.903056	2466.238326
338.295508	2472.862402
338.687896	2480.464462
339.080220	2488.497541
339.472480	2498.252173
339.864676	2500.772750
340.256807	2505.050169
340.648875	2506.128976
341.040879	2510.756755
341.432818	2511.664163
341.824694	2511.971673
342.216506	2511.810357
342.608253	2514.673732
342.999937	2515.190450
343.391557	2512.667353
343.783113	2515.321520
344.174605	2515.477796
344.566033	2512.127949
344.957397	2505.201404
345.348697	2506.552433
345.739934	2507.979080
346.131106	2504.382216
346.522215	2503.295848
346.913260	2502.532113
347.304241	2496.197903
347.695159	2495.983654
348.086012	2496.129847
348.476802	2492.354023
348.867528	2494.778818
349.258191	2489.566265
349.648789	2491.028200
350.039324	2484.522591
350.429796	2488.283292
350.820203	2485.651809
351.210548	2483.403455
351.600828	2485.089721
351.991045	2482.465800
352.381198	2481.999493
352.771288	2482.455718
353.161314	2482.485965
353.551276	2484.318424
353.941175	2479.877167
354.331010	2484.401603
354.720782	2482.347333
355.110490	2482.606952
355.500135	2480.426653
355.889717	2482.664926
356.279235	2482.594349
356.668689	2485.046871
357.058080	2484.625934
357.447408	2481.865903
357.836672	2482.203660
358.225873	2481.775162
358.615010	2481.097127
359.004084	2486.546614
359.393095	2484.449494
359.782043	2488.958806
360.170927	2487.580051
360.559748	2487.411172
360.948505	2488.890751
361.337199	2489.404948
361.725830	2490.612305
362.114398	2492.008704
362.502903	2490.332521
362.891344	2491.907881
363.279722	2494.373005
363.668037	2493.321925
364.056289	2495.091370
364.444478	2495.930722
364.832603	2495.116576
365.220665	2494.723366
365.608665	2495.436689
365.996601	2497.001967
366.384474	2498.410970
366.772284	2500.187976
367.160031	2500.440034
367.547715	2503.031187
367.935336	2507.013699
368.322893	2507.830366
368.710388	2511.593587
369.097820	2520.483662
369.485189	2520.513909
369.872495	2527.805938
370.259738	2533.557894
370.646918	2539.453524
371.034035	2547.975594
371.421090	2556.878272
371.808081	2573.680438
372.195010	2579.129925
372.581875	2588.488827
372.968678	2606.518514
373.355418	2612.814915
373.742096	2632.127575
374.128710	2648.198774
374.515262	2661.643531
374.901751	2677.833197
375.288177	2691.761905
375.674540	2711.273691
376.060841	2729.389077
376.447079	2754.909918
376.833254	2770.981117
377.219367	2783.253806
377.605417	2819.350988
377.991404	2831.293482
378.377329	2854.069415
378.763191	2871.413504
379.148991	2908.357600
379.534727	2933.235695
379.920402	2958.270065
380.306013	2973.315388
380.691563	3022.474200
381.077049	3043.488250
381.462474	3062.763102
381.847835	3103.016715
382.233134	3126.117802
382.618371	3120.454066
383.003545	3191.120961
383.388657	3198.181097
383.773706	3234.830285
384.158693	3247.118098
384.543618	3274.597427
384.928480	3308.526913
385.313280	3356.501054
385.698017	3352.987370
386.082692	3409.246647
386.467305	3411.646236
386.851856	3443.216462
387.236344	3467.822334
387.620770	3500.536902
388.005133	3524.608411
388.389435	3549.554561
388.773674	3563.710121
389.157851	3602.973148
389.541965	3620.861682
389.926018	3583.325251
390.310008	3659.630676
390.693936	3674.497038
391.077802	3713.369376
391.461606	3703.876883
391.845348	3765.903240
392.229027	3766.006584
392.612645	3781.213224
392.996200	3861.884289
393.379694	3899.524064
393.763125	3963.007314
394.146494	3929.876851
394.529801	3990.247189
394.913047	4038.024725
395.296230	4007.044314
395.679351	4060.611614
396.062410	4084.489040
396.445408	4068.339703
396.828343	4102.601905
397.211217	4120.535810
397.594028	4043.504459
397.976778	4106.791104
398.359466	4136.735558
398.742092	4166.977440
399.124656	4085.459462
399.507158	4164.121626
399.889598	4192.314279
400.271977	4255.716871
400.654294	4225.855596
401.036549	4228.489599
401.418742	4202.464643
401.800874	4305.440292
402.182944	4326.529959
402.564952	4387.686717
402.946898	4381.788567
403.328783	4375.771950
403.710606	4285.719298
404.092367	4477.784739
404.474067	4441.816107
404.855705	4452.553764
405.237282	4377.841344
405.618797	4488.015761
406.000250	4523.586143
406.381642	4604.322742
406.762972	4568.366712
407.144240	4578.058330
407.525447	4577.002209
407.906593	4635.535046
408.287677	4680.429042
408.668700	4607.234008
409.049661	4656.216380
409.430560	4697.765570
409.811399	4626.355105
410.192176	4785.774033
410.572891	4725.890167
410.953545	4830.166434
411.334138	4707.409297
411.714669	4781.983086
412.095139	4669.711548
412.475547	4812.151871
412.855894	4797.535045
413.236180	4803.223987
413.616405	4756.633644
413.996568	4843.694371
414.376670	4782.015853
414.756711	4741.142178
415.136691	4772.672075
415.516609	4848.891800
415.896466	4892.396958
416.276262	4924.546917
416.655997	4903.348865
417.035670	5084.890897
417.415283	5175.225853
417.794834	5122.422287
418.174324	5069.994287
418.553753	4983.684692
418.933121	5166.345861
419.312428	5230.063525
419.691674	5173.796686
420.070859	5296.145490
420.449983	5207.642993
420.829045	5320.769006
421.208047	5231.986725
421.586988	5300.347292
421.965867	5314.974200
422.344686	5444.599909
422.723444	5301.579854
423.102141	5123.259119
423.480777	5413.879118
423.859352	5184.211710
424.237866	5445.333397
424.616319	5434.368887
424.994712	5545.458274
425.373044	5422.292803
425.751314	5566.081634
426.129524	5367.936562
426.507673	5562.474689
426.885762	5649.966434
427.263789	5575.516154
427.641756	5460.439214
428.019662	5580.486732
428.397508	5588.834882
428.775292	5535.365884
429.153016	5631.057066
429.530679	5555.563267
429.908282	5642.752543
430.285824	5514.445096
430.663305	5784.676148
431.040726	5522.238719
431.418086	5525.573443
431.795385	5625.857116
432.172624	5642.437471
432.549802	5633.988497
432.926920	5644.204396
433.303977	5653.777547
433.680974	5695.099885
434.057910	5710.863573
434.434786	5716.978492
434.811601	5684.392474
435.188355	5920.265542
435.565050	5789.538340
435.941683	5769.053612
436.318257	5988.101829
436.694770	5965.373787
437.071222	5996.326471
437.447614	5927.970946
437.823946	5839.889385
438.200218	5995.736656
438.576429	5853.848340
438.952580	5951.351817
439.328670	5990.876984
439.704700	5896.236882
440.080670	5883.835644
440.456580	6146.792311
440.832429	6026.936357
441.208218	5869.407861
441.583947	6013.035376
441.959616	6016.367578
442.335224	5938.267502
442.710773	6067.497481
443.086261	6082.988947
443.461689	5875.860538
443.837057	6012.707701
444.212365	6153.030738
444.587612	6038.750301
444.962800	6176.058729
445.337927	6150.432024
445.712995	5765.159320
446.088002	6306.690149
446.462949	6128.722295
446.837837	6051.242281
447.212664	6203.288522
447.587431	6315.270193
447.962139	6808.050543
448.336786	7643.679766
448.711374	7387.400108
449.085901	6513.400142
449.460369	6421.078971
449.834776	6337.501681
450.209124	6667.281363
450.583412	6771.829853
450.957640	6886.203551
451.331808	6646.950389
451.705917	6220.620009
452.079965	6129.370083
452.453954	6285.688702
452.827883	6145.872300
453.201752	6198.690989
453.575562	5998.905021
453.949311	6132.142718
454.323001	6008.173183
454.696632	6041.311208
455.070202	6113.813082
455.443713	6201.871957
455.817164	6244.628504
456.190556	6256.202993
456.563888	6274.978771
456.937160	6269.307472
457.310373	5960.781295
457.683526	5936.765238
458.056619	5807.386546
458.429653	5750.151805
458.802628	5663.990924
459.175542	5693.950502
459.548398	5889.721191
459.921194	5949.438699
460.293930	5895.211007
460.666607	6170.878944
461.039224	6318.761192
461.411782	6327.973900
461.784280	6281.950686
462.156719	6154.540564
462.529099	6010.817268
462.901419	5700.390576
463.273680	5575.823664
463.645882	5526.790881
464.018024	5376.307398
464.390106	5408.227984
464.762130	5557.912445
465.134094	5733.231172
465.505999	6184.341345
465.877845	6720.006791
466.249631	6962.851775
466.621358	6679.654875
466.993026	6266.071052
467.364634	6057.178239
467.736184	5798.194002
468.107674	5563.566099
468.479105	5480.472760
468.850477	5323.692875
469.221790	5145.230988
469.593043	4940.114000
469.964238	4807.869411
470.335373	4739.395418
470.706449	4696.598542
471.077467	4624.005927
471.448425	4989.025795
471.819324	5265.540645
472.190164	5199.428433
472.560945	4733.973657
472.931667	4417.792488
473.302330	4317.758352
473.672934	4164.061133
474.043479	4191.479968
474.413965	4115.595479
474.784393	4027.312273
475.154761	4006.653624
475.525070	3964.817088
475.895321	3880.075292
476.265513	3862.945452
476.635645	3849.346939
477.005719	3789.175727
477.375734	3763.891820
477.745691	3756.438474
478.115588	3722.491344
478.485427	3710.513562
478.855207	3752.455962
479.224928	3828.325328
479.594591	3872.823592
479.964194	3775.297430
480.333739	3703.226574
480.703226	3622.568113
481.072653	3588.568051
481.442022	3571.458374
481.811333	3553.141342
482.180584	3476.425063
482.549777	3397.231056
482.918912	3343.094105
483.287988	3304.125986
483.657005	3264.779780
484.025964	3203.063454
484.394864	3171.329391
484.763706	3133.034266
485.132489	3086.625403
485.501213	3048.542007
485.869879	3028.911753
486.238487	2987.478510
486.607036	2972.483598
486.975527	2936.562856
487.343959	2919.851431
487.712333	2901.718401
488.080648	2879.950698
488.448905	2862.435209
488.817104	2841.045594
489.185244	2835.023935
489.553326	2820.165134
489.921350	2825.622183
490.289315	2843.288907
490.657222	2837.055520
491.025070	2816.646409
491.392861	2802.884059
491.760593	2776.652415
492.128267	2757.559045
492.495883	2736.935684
492.863440	2723.574106
493.230939	2708.453165
493.598380	2698.479242
493.965763	2684.674042
494.333088	2679.955522
494.700354	2670.508400
495.067563	2668.549912
495.434713	2660.201761
495.801805	2661.237718
496.168839	2655.629435
496.535815	2651.256234
496.902733	2647.651809
497.269593	2643.797847
497.636395	2641.806591
498.003139	2638.915489
498.369825	2633.602113
498.736453	2634.418780
499.103023	2631.232771
499.469535	2630.650517
499.835989	2627.015845
500.202385	2625.004425
500.568723	2619.091152
500.935003	2622.806482
501.301226	2617.775410
501.667390	2619.491923
502.033497	2620.757253
502.399546	2616.283229
502.765537	2611.668052
503.131470	2614.188629
503.497345	2616.038733
503.863163	2613.631582
504.228923	2612.739298
504.594625	2612.131839
504.960269	2606.841148
505.325856	2607.375510
505.691385	2608.976076
506.056856	2606.039604
506.422270	2605.729573
506.787625	2605.235540
507.152924	2605.989193
507.518164	2605.916096
507.883347	2603.400560
508.248472	2604.313009
508.613540	2605.782505
508.978550	2600.590117
509.343503	2601.134562
509.708398	2603.506424
510.073236	2603.456013
510.438016	2602.808225
510.802738	2599.561722
511.167403	2602.772937
511.532010	2598.505600
511.896561	2602.614140
512.261053	2598.918974
512.625488	2596.037955
512.989866	2595.402770
513.354186	2598.392174
513.718449	2595.044848
514.082655	2598.054417
514.446803	2597.068871
514.810894	2599.854108
515.174927	2600.454006
515.538904	2599.183635
515.902822	2599.017277
516.266684	2600.416197
516.630488	2596.453850
516.994235	2596.675661
517.357925	2598.556011
517.721558	2596.332862
518.085133	2596.852101
518.448651	2597.953593
518.812112	2598.001484
519.175516	2596.756319
519.538863	2600.038111
519.902152	2596.640373
520.265385	2598.752616
520.628560	2596.655496
520.991678	2596.549632
521.354739	2598.596341
521.717743	2599.430652
522.080690	2597.469643
522.443580	2597.285641
522.806413	2597.898141
523.169189	2598.850919
523.531908	2598.248501
523.894569	2598.896289
524.257174	2597.971237
524.619722	2597.154571
524.982213	2598.782863
525.344647	2600.141454
525.707025	2598.815631
526.069345	2598.044334
526.431608	2596.519385
526.793815	2599.365117
527.155964	2596.975610
527.518057	2596.423603
527.880093	2597.076433
528.242072	2598.104828
528.603995	2599.299582
528.965860	2597.630960
529.327669	2596.239601
529.689421	2596.756319
530.051117	2597.245311
530.412755	2596.174066
530.774337	2596.310177
531.135862	2597.343614
531.497331	2593.199785
531.858743	2590.739702
532.220098	2592.637697
532.581396	2588.375401
532.942638	2592.042841
533.303824	2597.134406
533.664953	2593.459405
534.026025	2591.659713
534.387040	2597.346134
534.747999	2596.431165
535.108902	2594.974272
535.469748	2594.621391
535.830537	2597.756988
536.191270	2594.676843
536.551947	2596.862184
536.912567	2594.702049
537.273131	2593.850094
537.633638	2594.608788
537.994089	2592.461256
538.354483	2593.351020
538.714821	2597.789756
539.075103	2595.213726
539.435328	2594.671802
539.795497	2593.693818
540.155609	2597.194900
540.515665	2596.471494
540.875665	2596.020311
541.235609	2592.660382
541.595496	2595.324632
541.955328	2595.508634
542.315102	2595.100300
542.674821	2595.894282
543.034483	2596.418562
543.394090	2595.748089
543.753640	2597.489807
544.113134	2591.652151
544.472571	2594.397059
544.831953	2596.310177
545.191278	2593.497213
545.550548	2594.691967
545.909761	2596.307657
546.268918	2592.811617
546.628019	2594.964189
546.987064	2595.906885
547.346053	2597.076433
547.704986	2598.041814
548.063863	2596.290013
548.422684	2595.196082
548.781449	2598.243460
549.140158	2592.844384
549.498811	2594.613829
549.857408	2596.680702
550.215949	2594.147522
550.574434	2588.637541
550.932864	2593.782039
551.291237	2589.955803
551.649555	2595.712801
552.007817	2599.614654
552.366022	2594.676843
552.724173	2595.317070
553.082267	2598.286310
553.440305	2596.322780
553.798288	2595.627101
554.156215	2595.806062
554.514086	2596.133737
554.871902	2594.785228
555.229661	2595.387646
555.587365	2594.886051
555.945014	2596.138778
556.302606	2596.980651
556.660143	2596.582400
557.017625	2596.378233
557.375050	2597.734303
557.732421	2594.812955
558.089735	2596.973089
558.446994	2597.784715
558.804197	2595.992585
559.161345	2596.741196
559.518437	2595.768253
559.875474	2595.760692
560.232455	2594.855804
560.589381	2594.044179
560.946251	2599.297061
561.303065	2595.294385
561.659825	2596.403439
562.016528	2595.997626
562.373177	2594.976792
562.729770	2595.120465
563.086307	2597.066350
563.442789	2597.184817
563.799216	2594.916298
564.155587	2593.784559
564.511904	2595.223809
564.868164	2593.474528
565.224370	2597.094077
565.580520	2593.532502
565.936615	2595.685074
566.292654	2591.324476
566.648638	2595.433017
567.004567	2593.955958
567.360441	2593.744230
567.716260	2593.628283
568.072023	2595.468305
568.427732	2589.791965
568.783385	2591.770618
569.138982	2591.717686
569.494525	2592.993098
569.850013	2588.030082
570.205445	2595.110383
570.560823	2593.872779
570.916145	2592.549477
571.271412	2592.176431
571.626625	2591.841194
571.981782	2590.830443
572.336884	2591.531163
572.691931	2593.235073
573.046923	2591.861359
573.401860	2593.161977
573.756743	2592.491503
574.111570	2594.558376
574.466342	2591.450505
574.821059	2590.835484
575.175722	2592.241966
575.530330	2589.993612
575.884882	2589.116451
576.239380	2591.011925
576.593823	2592.340269
576.948211	2595.135588
577.302544	2592.060485
577.656823	2593.673654
578.011047	2589.005545
578.365216	2589.542428
578.719330	2590.253231
579.073389	2592.433530
579.427394	2588.138467
579.781344	2590.724579
580.135239	2593.068715
580.489080	2587.959506
580.842866	2590.066708
581.196597	2593.414034
581.550273	2590.308684
581.903895	2588.718200
582.257463	2589.880186
582.610975	2593.151894
582.964434	2590.832964
583.317837	2588.284660
583.671186	2591.097624
584.024481	2588.375401
584.377721	2590.495206
584.730906	2589.101327
585.084037	2586.832808
585.437113	2588.866914
585.790135	2590.018817
586.143103	2589.945721
586.496016	2586.280802
586.848874	2585.093610
587.201679	2584.405493
587.554428	2584.108064
587.907124	2583.757704
588.259765	2581.290059
588.612352	2586.563106
588.964884	2584.909608
589.317362	2585.955647
589.669786	2584.234093
590.022155	2588.642582
590.374470	2586.142170
590.726731	2586.895823
591.078937	2587.465473
591.431090	2586.270719
591.783188	2585.645616
592.135232	2584.294587
592.487222	2584.549165
592.839157	2585.330544
593.191038	2585.254927
593.542866	2583.127560
593.894639	2583.987077
594.246358	2583.424988
594.598022	2583.999680
594.949633	2581.307703
595.301190	2582.996490
595.652692	2585.481779
596.004141	2582.618403
596.355535	2582.431881
596.706876	2584.602097
597.058162	2581.582446
597.409395	2584.312231
597.760573	2584.733167
598.111698	2581.902560
598.462768	2585.779207
598.813785	2585.711151
599.164748	2580.181006
599.515657	2581.211922
599.866511	2582.941037
600.217312	2582.000862
600.568060	2583.256109
600.918753	2580.957343
601.269392	2581.655543
601.619978	2578.351067
601.970510	2586.217787
602.320988	2580.632189
602.671412	2582.499936
603.021783	2584.529001
603.372100	2582.245358
603.722363	2580.042374
604.072572	2581.670667
604.422728	2581.496747
604.772830	2577.504153
605.122878	2578.333423
605.472872	2582.139494
605.822813	2577.146231
606.172701	2578.772003
606.522534	2581.126222
606.872314	2583.175451
607.222041	2579.422312
607.571714	2580.216294
607.921333	2582.124370
608.270899	2582.338619
608.620411	2583.785431
608.969870	2582.625965
609.319276	2582.668815
609.668627	2587.248703
610.017926	2587.135277
610.367171	2590.628797
610.716362	2589.025710
611.065500	2588.546800
611.414585	2586.794999
611.763616	2587.170565
612.112594	2584.405493
612.461518	2583.750142
612.810389	2583.974474
613.159207	2583.745101
613.507971	2583.510688
613.856682	2585.214598
614.205340	2582.583115
614.553945	2584.982705
614.902496	2583.853486
615.250994	2581.627817
615.599439	2583.180492
615.947830	2582.842735
616.296169	2581.075810
616.644454	2583.145204
616.992686	2582.540266
617.340864	2582.331058
617.688990	2582.010944
618.037063	2581.211922
618.385082	2582.510019
618.733048	2579.634040
619.080961	2584.405492
619.428821	2581.453897
619.776628	2583.886254
620.124382	2584.029927
620.472083	2581.398444
620.819731	2585.169227
621.167326	2581.647981
621.514868	2583.424988
621.862357	2583.200657
622.209793	2579.870975
622.557176	2580.047415
622.904506	2581.799216
623.251783	2576.304358
623.599007	2575.190263
623.946179	2578.351067
624.293297	2575.701940
624.640363	2577.794019
624.987376	2578.444328
625.334336	2576.160685
625.681243	2576.521128
626.028097	2576.122877
626.374899	2581.093454
626.721647	2576.511046
627.068343	2575.901066
627.414987	2576.309399
627.761577	2577.216807
628.108115	2575.621282
628.454600	2573.698082
628.801032	2576.768144
629.147412	2577.143710
629.493739	2577.126066
629.840014	2578.734194
630.186236	2574.708833
630.532405	2576.281673
630.878521	2576.047259
631.224585	2575.901066
631.570597	2573.509038
631.916556	2573.345201
632.262462	2575.003741
632.608316	2574.434090
632.954117	2570.943091
633.299866	2574.958370
633.645562	2570.633060
633.991206	2572.145406
634.336797	2571.401836
634.682336	2571.406877
635.027823	2568.493090
635.373257	2569.541650
635.718639	2568.712381
636.063968	2572.158009
636.409245	2568.367062
636.754470	2569.597103
637.099642	2569.748338
637.444762	2568.336815
637.789829	2570.368400
638.134845	2568.641804
638.479808	2567.510065
638.824719	2567.038717
639.169577	2567.131979
639.514383	2566.728687
639.859137	2567.459654
640.203839	2570.754048
640.548489	2567.104252
640.893086	2565.533933
641.237632	2564.475291
641.582125	2565.778429
641.926566	2563.378840
642.270955	2566.469067
642.615292	2566.942936
642.959576	2565.947308
643.303809	2568.208265
643.647990	2566.234653
643.992118	2568.830848
644.336195	2568.162895
