Dividing Wavelength (nm)	Counts (n)	Blue Motor Position (mm): 0.000000	Red Motor Position (mm): 23.500000	
326.493990	2082.185582
326.888308	2082.185582
327.282561	2082.185582
327.676750	2059.676830
328.070874	2057.897303
328.464933	2065.025494
328.858929	2075.178378
329.252859	2090.022055
329.646726	2102.541761
330.040528	2118.411313
330.434265	2139.107770
330.827938	2158.145688
331.221547	2175.464572
331.615091	2197.723787
332.008571	2219.587271
332.401986	2238.365569
332.795338	2260.087901
333.188625	2277.263112
333.581847	2295.350772
333.975006	2314.429019
334.368100	2331.049703
334.761129	2348.260202
335.154095	2366.720908
335.546996	2386.005842
335.939833	2407.783626
336.332606	2422.536563
336.725315	2433.412853
337.117960	2440.956939
337.510540	2447.046653
337.903056	2456.022427
338.295508	2463.299333
338.687896	2470.397278
339.080220	2477.485140
339.472480	2483.484113
339.864676	2486.319762
340.256807	2491.804538
340.648875	2491.423930
341.040879	2493.064826
341.432818	2492.033910
341.824694	2494.897285
342.216506	2493.521050
342.608253	2495.035917
342.999937	2492.817809
343.391557	2494.108345
343.783113	2490.390494
344.174605	2490.382932
344.566033	2488.079125
344.957397	2484.578043
345.348697	2485.626603
345.739934	2482.609473
346.131106	2481.291211
346.522215	2481.901191
346.913260	2478.306848
347.304241	2475.705613
347.695159	2474.614203
348.086012	2475.261991
348.476802	2472.476754
348.867528	2470.389716
349.258191	2470.861064
349.648789	2471.133286
350.039324	2467.249077
350.429796	2472.086064
350.820203	2464.693212
351.210548	2471.861733
351.600828	2466.553398
351.991045	2466.654221
352.381198	2468.201855
352.771288	2467.105404
353.161314	2468.804273
353.551276	2468.002730
353.941175	2467.667493
354.331010	2465.709005
354.720782	2468.269911
355.110490	2466.863429
355.500135	2469.482308
355.889717	2468.895014
356.279235	2467.828810
356.668689	2467.493573
357.058080	2469.008440
357.447408	2467.468367
357.836672	2464.720938
358.225873	2471.433235
358.615010	2465.840075
359.004084	2474.334419
359.393095	2472.527165
359.782043	2473.996662
360.170927	2475.723257
360.559748	2476.275263
360.948505	2476.456745
361.337199	2477.840541
361.725830	2476.877681
362.114398	2478.707620
362.502903	2479.841879
362.891344	2479.441108
363.279722	2481.820532
363.668037	2481.616366
364.056289	2480.557723
364.444478	2483.685759
364.832603	2482.765749
365.220665	2484.832622
365.608665	2486.173569
365.996601	2485.331696
366.384474	2486.654999
366.772284	2487.401090
367.160031	2490.047695
367.547715	2491.086173
367.935336	2487.915287
368.322893	2492.875783
368.710388	2492.691781
369.097820	2495.923160
369.485189	2493.450474
369.872495	2492.406955
370.259738	2497.687564
370.646918	2500.394664
371.034035	2500.140085
371.421090	2503.767196
371.808081	2505.360200
372.195010	2508.538648
372.581875	2512.332116
372.968678	2518.333610
373.355418	2525.461801
373.742096	2532.645445
374.128710	2544.529966
374.515262	2554.372818
374.901751	2568.505693
375.288177	2582.051274
375.674540	2597.930908
376.060841	2617.972015
376.447079	2635.676548
376.833254	2662.445075
377.219367	2683.721264
377.605417	2715.823332
377.991404	2739.746128
378.377329	2779.069648
378.763191	2808.492343
379.148991	2851.879033
379.534727	2896.783111
379.920402	2942.526541
380.306013	2988.431288
380.691563	3045.381203
381.077049	3097.547063
381.462474	3153.410609
381.847835	3220.006772
382.233134	3286.360960
382.618371	3345.634847
383.003545	3423.145108
383.388657	3502.626460
383.773706	3588.535283
384.158693	3658.554389
384.543618	3741.410794
384.928480	3818.595901
385.313280	3918.955191
385.698017	4020.105943
386.082692	4135.019045
386.467305	4192.374773
386.851856	4311.487156
387.236344	4458.086431
387.620770	4517.375441
388.005133	4633.054798
388.389435	4770.262403
388.773674	4851.432542
389.157851	4979.787880
389.541965	5104.737920
389.926018	5131.912259
390.310008	5306.126975
390.693936	5416.056896
391.077802	5529.127456
391.461606	5661.729967
391.845348	5767.049753
392.229027	5884.117948
392.612645	6094.903714
392.996200	6211.523247
393.379694	6377.238576
393.763125	6590.280258
394.146494	6680.002715
394.529801	6815.861811
394.913047	7047.006276
395.296230	7044.183230
395.679351	7101.347394
396.062410	7344.807399
396.445408	7251.309118
396.828343	7398.898979
397.211217	7535.925103
397.594028	7426.438803
397.976778	7625.188814
398.359466	7785.633617
398.742092	7772.698017
399.124656	7907.773213
399.507158	8097.658355
399.889598	8116.474462
400.271977	8324.348961
400.654294	8353.209567
401.036549	8557.189775
401.418742	8587.383766
401.800874	8874.724494
402.182944	8961.344120
402.564952	9310.885125
402.946898	9152.691197
403.328783	9205.477119
403.710606	9401.346110
404.092367	9652.519080
404.474067	10013.344708
404.855705	9811.380961
405.237282	9771.865877
405.618797	10185.179998
406.000250	10428.841649
406.381642	10781.508169
406.762972	10735.384132
407.144240	10554.016019
407.525447	10803.855604
407.906593	10747.056924
408.287677	11009.224650
408.668700	11152.111115
409.049661	11142.790021
409.430560	11298.120574
409.811399	11283.859150
410.192176	11433.541090
410.572891	11516.707525
410.953545	11981.310346
411.334138	11477.847791
411.714669	12059.614589
412.095139	11410.014025
412.475547	11884.376519
412.855894	11746.455591
413.236180	12063.438304
413.616405	11766.942841
413.996568	12043.470294
414.376670	12019.416428
414.756711	11906.484500
415.136691	12174.474759
415.516609	12356.581400
415.896466	12430.628388
416.276262	12720.330897
416.655997	13182.070343
417.035670	13225.963669
417.415283	13836.754910
417.794834	13919.278599
418.174324	13671.803315
418.553753	13580.155138
418.933121	14067.281834
419.312428	13891.078384
419.691674	13802.487667
420.070859	14261.676288
420.449983	13920.654834
420.829045	14471.030367
421.208047	14234.451537
421.586988	14690.365929
421.965867	14919.143573
422.344686	14921.346557
422.723444	15494.130019
423.102141	14195.624570
423.480777	15382.491147
423.859352	14882.451535
424.237866	15975.250180
424.616319	15698.813468
424.994712	16342.649473
425.373044	16134.109541
425.751314	16823.993965
426.129524	15950.235975
426.507673	17017.720467
426.885762	16757.899397
427.263789	16921.404181
427.641756	17110.452492
428.019662	17161.239596
428.397508	17210.184159
428.775292	17495.581522
429.153016	17479.379253
429.530679	17559.848672
429.908282	17580.466991
430.285824	17314.856157
430.663305	18014.540584
431.040726	17626.366697
431.418086	17469.717882
431.795385	18084.731090
432.172624	18530.227937
432.549802	18078.916119
432.926920	18283.453374
433.303977	18156.776740
433.680974	18401.227331
434.057910	18697.216158
434.434786	18729.272856
434.811601	18645.501482
435.188355	19668.495270
435.565050	19327.758640
435.941683	19268.792264
436.318257	20140.632095
436.694770	19932.825651
437.071222	20487.269395
437.447614	19553.821623
437.823946	19560.256656
438.200218	19710.974553
438.576429	19457.457447
438.952580	19729.936853
439.328670	19658.236522
439.704700	20036.154182
440.080670	19572.347863
440.456580	20124.823037
440.832429	20249.074876
441.208218	19241.297811
441.583947	19617.279667
441.959616	19683.815337
442.335224	19865.115393
442.710773	19929.725342
443.086261	20375.779237
443.461689	19687.540749
443.837057	19763.964642
444.212365	20299.524223
444.587612	20215.412571
444.962800	19750.411499
445.337927	20070.244985
445.712995	18791.823493
446.088002	20426.263872
446.462949	20504.406798
446.837837	20552.867410
447.212664	20451.951072
447.587431	22957.144914
447.962139	25435.386227
448.336786	27314.819121
448.711374	25699.910692
449.085901	22309.265904
449.460369	22148.977376
449.834776	21970.134882
450.209124	23971.704852
450.583412	23355.217107
450.957640	23589.267797
451.331808	22286.154734
451.705917	20962.488886
452.079965	20815.219138
452.453954	20938.182963
452.827883	20695.305212
453.201752	20334.973617
453.575562	20264.029459
453.949311	20931.931932
454.323001	20782.842328
454.696632	20405.257384
455.070202	21368.168180
455.443713	21273.061772
455.817164	21458.740071
456.190556	21611.562650
456.563888	20954.602001
456.937160	21013.928820
457.310373	19594.334856
457.683526	19640.627772
458.056619	19389.167456
458.429653	19117.897926
458.802628	19256.474204
459.175542	19097.902190
459.548398	19693.983344
459.921194	20426.639438
460.293930	20597.123699
460.666607	21566.093962
461.039224	22323.502122
461.411782	22204.351930
461.784280	21137.900875
462.156719	20487.339972
462.529099	19841.656384
462.901419	18786.671433
463.273680	17898.031957
463.645882	17658.362900
464.018024	17347.963934
464.390106	17516.519954
464.762130	18670.185492
465.134094	20497.386991
465.505999	22890.090006
465.877845	24800.044566
466.249631	24861.430697
466.621358	23453.002888
466.993026	21908.368144
467.364634	20484.282512
467.736184	19211.073573
468.107674	18286.289023
468.479105	17584.479749
468.850477	16933.863393
469.221790	16030.569282
469.593043	15059.864862
469.964238	14420.167645
470.335373	14100.291310
470.706449	14419.552624
471.077467	15043.508838
471.448425	16301.100283
471.819324	16950.960466
472.190164	15945.378823
472.560945	14496.122710
472.931667	13234.054721
473.302330	12581.416862
473.672934	12069.916187
474.043479	11939.199067
474.413965	11492.905717
474.784393	11148.791515
475.154761	11132.238886
475.525070	10909.072047
475.895321	10558.505167
476.265513	10470.647938
476.635645	10452.666142
477.005719	10193.490340
477.375734	10072.079191
477.745691	9993.366615
478.115588	10040.496362
478.485427	10226.908149
478.855207	10676.851295
479.224928	10960.121291
479.594591	10995.737043
479.964194	10524.802533
480.333739	10264.371484
480.703226	10026.988591
481.072653	9903.969313
481.442022	9757.077652
481.811333	9561.707735
482.180584	9122.708934
482.549777	8827.640117
482.918912	8541.448772
483.287988	8296.879714
483.657005	7991.244639
484.025964	7705.784261
484.394864	7510.865527
484.763706	7282.450846
485.132489	7009.028744
485.501213	6832.739594
485.869879	6692.580393
486.238487	6502.125601
486.607036	6374.554162
486.975527	6188.389392
487.343959	6068.044446
487.712333	5946.068688
488.080648	5811.303522
488.448905	5724.441921
488.817104	5596.447025
489.185244	5549.065220
489.553326	5568.818981
489.921350	5652.900386
490.289315	5752.387557
490.657222	5681.506413
491.025070	5588.300520
491.392861	5413.944652
491.760593	5225.662598
492.128267	5023.572822
492.495883	4849.642932
492.863440	4695.423954
493.230939	4549.548085
493.598380	4430.871762
493.965763	4343.906817
494.333088	4253.377776
494.700354	4172.613450
495.067563	4108.106845
495.434713	4052.495357
495.801805	4009.610261
496.168839	3947.871250
496.535815	3895.044999
496.902733	3854.927496
497.269593	3805.267090
497.636395	3762.477776
498.003139	3737.831575
498.369825	3692.667877
498.736453	3667.189886
499.103023	3624.158597
499.469535	3592.961416
499.835989	3565.398908
500.202385	3535.595606
500.568723	3509.353880
500.935003	3489.355622
501.301226	3464.870738
501.667390	3455.874799
502.033497	3444.718726
502.399546	3410.862336
502.765537	3376.277500
503.131470	3366.190152
503.497345	3357.985674
503.863163	3317.545537
504.228923	3311.107984
504.594625	3304.148671
504.960269	3272.873353
505.325856	3273.064917
505.691385	3249.346288
506.056856	3235.956983
506.422270	3232.211406
506.787625	3212.792881
507.152924	3205.165615
507.518164	3195.413503
507.883347	3171.102539
508.248472	3162.154491
508.613540	3161.398318
508.978550	3154.383552
509.343503	3143.666059
509.708398	3135.554842
510.073236	3131.461426
510.438016	3126.632000
510.802738	3107.682303
511.167403	3110.167592
511.532010	3101.968155
511.896561	3096.742999
512.261053	3104.224071
512.625488	3085.622214
512.989866	3075.212231
513.354186	3064.610684
513.718449	3056.481824
514.082655	3064.794687
514.446803	3054.419992
514.810894	3054.848490
515.174927	3046.238199
515.538904	3038.149668
515.902822	3038.842827
516.266684	3030.015766
516.630488	3027.386804
516.994235	3021.029909
517.357925	3022.880013
517.721558	3022.764066
518.085133	3019.368849
518.448651	3018.133767
518.812112	3009.014319
519.175516	3007.743948
519.538863	3007.449041
519.902152	3001.553412
520.265385	3003.307733
520.628560	3000.361179
520.991678	2993.472442
521.354739	2993.759788
521.717743	2992.179386
522.080690	2987.793582
522.443580	2990.782986
522.806413	2990.266268
523.169189	2985.507419
523.531908	2984.773931
523.894569	2980.173878
524.257174	2984.705875
524.619722	2979.483240
524.982213	2978.840493
525.344647	2977.590287
525.707025	2974.633650
526.069345	2970.199955
526.431608	2970.729276
526.793815	2973.300265
527.155964	2961.723255
527.518057	2962.673513
527.880093	2960.568831
528.242072	2964.112762
528.603995	2960.009263
528.965860	2959.560600
529.327669	2954.615228
529.689421	2948.515432
530.051117	2951.376287
530.412755	2947.444187
530.774337	2950.922583
531.135862	2942.791202
531.497331	2943.544854
531.858743	2939.159050
532.220098	2942.486212
532.581396	2936.988834
532.942638	2934.216199
533.303824	2936.388936
533.664953	2935.075716
534.026025	2929.903492
534.387040	2935.317691
534.747999	2932.058585
535.108902	2931.766198
535.469748	2924.847215
535.830537	2925.898295
536.191270	2925.542894
536.551947	2924.885023
536.912567	2923.123140
537.273131	2924.433840
537.633638	2919.427974
537.994089	2918.674322
538.354483	2913.860020
538.714821	2918.124836
539.075103	2918.329003
539.435328	2916.864548
539.795497	2913.345822
540.155609	2911.783064
540.515665	2914.752304
540.875665	2908.052611
541.235609	2912.670308
541.595496	2908.642426
541.955328	2910.089237
542.315102	2906.368865
542.674821	2903.838206
543.034483	2904.770819
543.394090	2900.523647
543.753640	2901.113462
544.113134	2906.746952
544.472571	2898.918040
544.831953	2904.906931
545.191278	2898.461815
545.550548	2893.685322
545.909761	2895.006104
546.268918	2897.209089
546.628019	2899.775036
546.987064	2896.866290
547.346053	2885.899260
547.704986	2893.491238
548.063863	2887.842625
548.422684	2889.785990
548.781449	2886.468910
549.140158	2889.473438
549.498811	2884.931358
549.857408	2881.684855
550.215949	2883.978580
550.574434	2881.795761
550.932864	2880.359032
551.291237	2884.550751
551.649555	2880.154865
552.007817	2881.689897
552.366022	2877.155379
552.724173	2882.811553
553.082267	2883.189640
553.440305	2885.874054
553.798288	2877.843496
554.156215	2881.747870
554.514086	2880.212838
554.871902	2879.562530
555.229661	2882.398179
555.587365	2874.796119
555.945014	2875.948022
556.302606	2873.850902
556.660143	2874.183618
557.017625	2876.016078
557.375050	2873.583721
557.732421	2876.245450
558.089735	2873.558515
558.446994	2875.574977
558.804197	2877.248640
559.161345	2876.837786
559.518437	2867.960314
559.875474	2871.032897
560.232455	2872.852754
560.589381	2871.789070
560.946251	2871.347969
561.303065	2870.914430
561.659825	2870.798484
562.016528	2869.278576
562.373177	2869.253370
562.729770	2869.384440
563.086307	2866.374871
563.442789	2868.474512
563.799216	2869.898638
564.155587	2865.616178
564.511904	2865.091898
564.868164	2865.802700
565.224370	2865.129706
565.580520	2864.781867
565.936615	2865.691795
566.292654	2862.231043
566.648638	2864.776825
567.004567	2863.251876
567.360441	2866.967207
567.716260	2862.226002
568.072023	2863.816486
568.427732	2860.040661
568.783385	2856.295084
569.138982	2856.779035
569.494525	2856.395907
569.850013	2857.303315
570.205445	2856.874817
570.560823	2859.082842
570.916145	2854.921370
571.271412	2855.997656
571.626625	2855.526308
571.981782	2851.324506
572.336884	2849.552541
572.691931	2855.175948
573.046923	2850.109588
573.401860	2847.604135
573.756743	2847.248733
574.111570	2847.278980
574.466342	2846.835359
574.821059	2846.502643
575.175722	2844.791171
575.530330	2841.658094
575.884882	2839.273628
576.239380	2838.053669
576.593823	2839.235819
576.948211	2838.033504
577.302544	2834.388750
577.656823	2832.720128
578.011047	2834.660972
578.365216	2834.192145
578.719330	2830.207113
579.073389	2829.075374
579.427394	2825.065136
579.781344	2825.095383
580.135239	2825.503716
580.489080	2825.750733
580.842866	2818.957778
581.196597	2821.375011
581.550273	2825.221412
581.903895	2820.996925
582.257463	2824.687049
582.610975	2817.470638
582.964434	2819.580361
583.317837	2818.690597
583.671186	2815.731440
584.024481	2817.906697
584.377721	2812.487457
584.730906	2814.279587
585.084037	2810.745738
585.437113	2813.178095
585.790135	2810.544092
586.143103	2807.292548
586.496016	2807.587456
586.848874	2807.922692
587.201679	2805.702064
587.554428	2799.836682
587.907124	2802.299285
588.259765	2795.828964
588.612352	2802.137968
588.964884	2800.280303
589.317362	2797.986578
589.669786	2798.059675
590.022155	2798.747792
590.374470	2799.723256
590.726731	2798.450364
591.078937	2794.576237
591.431090	2794.563635
591.783188	2788.841925
592.135232	2785.476955
592.487222	2788.005093
592.839157	2786.626338
593.191038	2787.269085
593.542866	2782.671553
593.894639	2780.725667
594.246358	2783.195833
594.598022	2781.068466
594.949633	2780.087961
595.301190	2779.079731
595.652692	2775.687034
596.004141	2775.999586
596.355535	2774.830038
596.706876	2768.084974
597.058162	2768.294182
597.409395	2769.715787
597.760573	2770.219903
598.111698	2768.034562
598.462768	2769.683020
598.813785	2767.132196
599.164748	2761.879314
599.515657	2763.409304
599.866511	2762.073398
600.217312	2763.691608
600.568060	2756.898654
600.918753	2764.626742
601.269392	2760.379570
601.619978	2759.182296
601.970510	2760.218253
602.320988	2759.820002
602.671412	2761.813779
603.021783	2758.602564
603.372100	2757.317069
603.722363	2756.417223
604.072572	2755.005700
604.422728	2756.502923
604.772830	2749.024371
605.122878	2750.183837
605.472872	2749.941861
605.822813	2749.644433
606.172701	2749.145359
606.522534	2754.504106
606.872314	2754.224322
607.222041	2748.202663
607.571714	2751.882706
607.921333	2747.567478
608.270899	2748.187540
608.620411	2749.634351
608.969870	2749.747777
609.319276	2749.480596
609.668627	2747.088568
610.017926	2747.993455
610.367171	2747.141500
610.716362	2748.908425
611.065500	2748.046387
611.414585	2747.567478
611.763616	2749.160482
612.112594	2747.633013
612.461518	2747.864906
612.810389	2747.108733
613.159207	2747.385996
613.507971	2746.339957
613.856682	2748.043867
614.205340	2745.014133
614.553945	2748.313569
614.902496	2743.471540
615.250994	2747.489340
615.599439	2745.626634
615.947830	2745.558578
616.296169	2744.530183
616.644454	2745.818197
616.992686	2743.973135
617.340864	2746.627303
617.688990	2746.339957
618.037063	2746.344998
618.385082	2747.806933
618.733048	2749.316758
619.080961	2747.053280
619.428821	2746.108064
619.776628	2745.694689
620.124382	2743.350553
620.472083	2742.841396
620.819731	2743.007754
621.167326	2737.994327
621.514868	2740.590521
621.862357	2734.848647
622.209793	2736.688668
622.557176	2731.105590
622.904506	2728.766495
623.251783	2725.958572
623.599007	2724.567213
623.946179	2721.492110
624.293297	2722.212995
624.640363	2720.693087
624.987376	2721.885320
625.334336	2716.887016
625.681243	2718.006152
626.028097	2715.230997
626.374899	2713.590101
626.721647	2709.612631
627.068343	2712.518856
627.414987	2709.869729
627.761577	2709.451314
628.108115	2709.962991
628.454600	2704.906713
628.801032	2705.690613
629.147412	2703.739686
629.493739	2704.712629
629.840014	2701.559387
630.186236	2703.245653
630.532405	2700.195755
630.878521	2700.130220
631.224585	2700.354552
631.570597	2696.190558
631.916556	2698.443954
632.262462	2694.297605
632.608316	2698.020497
632.954117	2696.077132
633.299866	2696.407328
633.645562	2694.592513
633.991206	2691.744261
634.336797	2687.781914
634.682336	2690.247038
635.027823	2685.503312
635.373257	2684.737057
635.718639	2684.716892
636.063968	2681.397292
636.409245	2677.553413
636.754470	2679.199349
637.099642	2676.114163
637.444762	2674.067455
637.789829	2677.069462
638.134845	2671.655263
638.479808	2671.224244
638.824719	2671.713236
639.169577	2669.288441
639.514383	2667.629901
639.859137	2665.729386
640.203839	2667.622340
640.548489	2665.058913
640.893086	2663.662513
641.237632	2660.408448
641.582125	2660.143788
