Dividing Wavelength (nm)	Counts (n)	Blue Motor Position (mm): 0.000000	Red Motor Position (mm): 33.300000	
326.493990	2126.386419
326.888308	2126.386419
327.282561	2126.386419
327.676750	2094.153281
328.070874	2092.010791
328.464933	2093.870976
328.858929	2100.709302
329.252859	2111.497371
329.646726	2123.969185
330.040528	2135.684827
330.434265	2155.249545
330.827938	2171.971052
331.221547	2190.731706
331.615091	2207.309541
332.008571	2228.124465
332.401986	2246.290263
332.795338	2266.989241
333.188625	2287.315173
333.581847	2304.671866
333.975006	2321.900009
334.368100	2338.901300
334.761129	2358.977695
335.154095	2375.933616
335.546996	2394.389281
335.939833	2412.867630
336.332606	2426.947573
336.725315	2437.675148
337.117960	2450.401541
337.510540	2457.610391
337.903056	2471.312247
338.295508	2477.074286
338.687896	2486.191213
339.080220	2491.988540
339.472480	2499.484735
339.864676	2503.081599
340.256807	2509.864471
340.648875	2511.608710
341.040879	2513.287415
341.432818	2513.536952
341.824694	2519.626666
342.216506	2516.271778
342.608253	2521.083559
342.999937	2517.678260
343.391557	2515.306397
343.783113	2515.523166
344.174605	2516.654905
344.566033	2512.420336
344.957397	2515.029133
345.348697	2509.040243
345.739934	2509.740963
346.131106	2506.902793
346.522215	2505.728204
346.913260	2503.769716
347.304241	2502.784171
347.695159	2500.177894
348.086012	2497.732934
348.476802	2497.773264
348.867528	2496.283603
349.258191	2494.710763
349.648789	2493.296719
350.039324	2488.663899
350.429796	2488.820174
350.820203	2490.617346
351.210548	2488.096769
351.600828	2485.729947
351.991045	2486.954947
352.381198	2489.099958
352.771288	2490.098107
353.161314	2485.508136
353.551276	2486.987715
353.941175	2486.309680
354.331010	2485.079638
354.720782	2484.804895
355.110490	2488.207674
355.500135	2484.762046
355.889717	2486.942345
356.279235	2486.307159
356.668689	2488.326141
357.058080	2488.212715
357.447408	2487.247334
357.836672	2483.663074
358.225873	2485.641727
358.615010	2484.373877
359.004084	2489.213384
359.393095	2490.887047
359.782043	2490.695484
360.170927	2492.361585
360.559748	2492.858139
360.948505	2492.900988
361.337199	2494.425938
361.725830	2495.471977
362.114398	2497.432986
362.502903	2498.327791
362.891344	2497.367451
363.279722	2494.640187
363.668037	2497.254025
364.056289	2498.073212
364.444478	2499.721670
364.832603	2497.276710
365.220665	2500.931547
365.608665	2499.262925
365.996601	2501.705364
366.384474	2503.477329
366.772284	2504.777947
367.160031	2504.732577
367.547715	2505.755931
367.935336	2507.502691
368.322893	2511.800274
368.710388	2513.703310
369.097820	2524.191430
369.485189	2526.734692
369.872495	2533.041176
370.259738	2537.558050
370.646918	2548.293187
371.034035	2552.981460
371.421090	2563.542677
371.808081	2572.152968
372.195010	2584.801223
372.581875	2595.826227
372.968678	2608.096395
373.355418	2617.576285
373.742096	2639.931282
374.128710	2651.233548
374.515262	2666.727535
374.901751	2680.013496
375.288177	2696.256093
375.674540	2717.663353
376.060841	2734.468040
376.447079	2754.655340
376.833254	2776.607045
377.219367	2786.762449
377.605417	2824.460197
377.991404	2835.752382
378.377329	2855.158304
378.763191	2874.337374
379.148991	2912.781213
379.534727	2936.323401
379.920402	2966.459419
380.306013	2975.848568
380.691563	3030.973585
381.077049	3048.960422
381.462474	3068.172260
381.847835	3106.800101
382.233134	3130.753143
382.618371	3126.125364
383.003545	3195.355530
383.388657	3201.581355
383.773706	3236.370358
384.158693	3252.169334
384.543618	3276.820576
384.928480	3314.374652
385.313280	3360.763349
385.698017	3357.773945
386.082692	3410.098602
386.467305	3418.681166
386.851856	3445.973973
387.236344	3469.402735
387.620770	3504.973117
388.005133	3528.941283
388.389435	3556.670150
388.773674	3566.331521
389.157851	3613.143676
389.541965	3626.966519
389.926018	3590.461004
390.310008	3662.723424
390.693936	3681.549613
391.077802	3719.449007
391.461606	3712.782081
391.845348	3776.913120
392.229027	3770.520937
392.612645	3786.471148
392.996200	3861.634752
393.379694	3905.061771
393.763125	3967.698108
394.146494	3935.601081
394.529801	3999.921163
394.913047	4044.406825
395.296230	4011.331815
395.679351	4067.853232
396.062410	4089.194957
396.445408	4072.354982
396.828343	4104.643573
397.211217	4128.692397
397.594028	4047.219789
397.976778	4114.178915
398.359466	4141.411228
398.742092	4169.649252
399.124656	4092.224690
399.507158	4172.820137
399.889598	4199.029096
400.271977	4259.018827
400.654294	4236.419334
401.036549	4239.159201
401.418742	4207.684757
401.800874	4311.409018
402.182944	4334.694108
402.564952	4396.060074
402.946898	4382.930388
403.328783	4382.297724
403.710606	4293.160041
404.092367	4488.509794
404.474067	4448.669555
404.855705	4457.826811
405.237282	4386.131521
405.618797	4497.687215
406.000250	4528.488665
406.381642	4608.448926
406.762972	4571.938370
407.144240	4585.378086
407.525447	4582.010595
407.906593	4642.718690
408.287677	4688.313406
408.668700	4617.517962
409.049661	4668.602495
409.430560	4707.099266
409.811399	4632.613697
410.192176	4796.489006
410.572891	4735.710335
410.953545	4839.605995
411.334138	4718.361204
411.714669	4784.473416
412.095139	4680.731511
412.475547	4820.021112
412.855894	4800.569820
413.236180	4810.468126
413.616405	4760.782513
413.996568	4854.734497
414.376670	4794.611176
414.756711	4748.431686
415.136691	4779.694402
415.516609	4859.299262
415.896466	4897.105396
416.276262	4932.101086
416.655997	4913.884876
417.035670	5092.853399
417.415283	5186.603738
417.794834	5127.259274
418.174324	5080.537861
418.553753	4984.458509
418.933121	5175.130071
419.312428	5238.759515
419.691674	5177.930432
420.070859	5305.476666
420.449983	5220.470209
420.829045	5331.670501
421.208047	5240.632304
421.586988	5314.321370
421.965867	5321.810004
422.344686	5457.898473
422.723444	5307.334331
423.102141	5133.532990
423.480777	5427.752373
423.859352	5195.367783
424.237866	5454.321774
424.616319	5449.958656
424.994712	5556.551333
425.373044	5432.801088
425.751314	5575.702677
426.129524	5379.710177
426.507673	5575.596812
426.885762	5654.727804
427.263789	5585.840437
427.641756	5470.186285
428.019662	5597.689669
428.397508	5600.245534
428.775292	5544.634045
429.153016	5641.832533
429.530679	5573.126647
429.908282	5656.310727
430.285824	5526.279204
430.663305	5801.069980
431.040726	5533.931676
431.418086	5532.913363
431.795385	5645.013501
432.172624	5655.370551
432.549802	5644.927801
432.926920	5661.165358
433.303977	5663.786758
433.680974	5705.547676
434.057910	5724.096602
434.434786	5732.590946
434.811601	5700.012489
435.188355	5936.603922
435.565050	5806.383356
435.941683	5791.867353
436.318257	6003.195043
436.694770	5986.276931
437.071222	6021.814545
437.447614	5953.872394
437.823946	5862.914855
438.200218	6021.854874
438.576429	5888.118104
438.952580	5985.369523
439.328670	6027.934506
439.704700	5936.447646
440.080670	5922.249236
440.456580	6193.619589
440.832429	6073.990487
441.208218	5923.386016
441.583947	6075.112144
441.959616	6083.402322
442.335224	6011.160066
442.710773	6145.834491
443.086261	6169.066649
443.461689	5968.194312
443.837057	6117.994719
444.212365	6270.701352
444.587612	6164.864847
444.962800	6321.047355
445.337927	6299.274612
445.712995	5911.428399
446.088002	6488.620350
446.462949	6313.657023
446.837837	6246.672692
447.212664	6414.288537
447.587431	6566.158337
447.962139	7100.490398
448.336786	8030.810135
448.711374	7774.354036
449.085901	6845.029927
449.460369	6769.354646
449.834776	6703.681014
450.209124	7091.854902
450.583412	7246.535146
450.957640	7394.147692
451.331808	7152.958727
451.705917	6706.816612
452.079965	6629.235775
452.453954	6844.863569
452.827883	6720.382357
453.201752	6812.307797
453.575562	6611.730368
453.949311	6818.722666
454.323001	6704.235541
454.696632	6775.986284
455.070202	6915.023827
455.443713	7071.024854
455.817164	7169.856675
456.190556	7253.759119
456.563888	7330.306520
456.937160	7367.608538
457.310373	7029.899121
457.683526	7052.062554
458.056619	6944.408713
458.429653	6929.454130
458.802628	6867.014399
459.175542	6979.129660
459.548398	7331.380285
459.921194	7488.686971
460.293930	7499.046542
460.666607	8026.857870
461.039224	8338.058379
461.411782	8461.765774
461.784280	8479.392168
462.156719	8370.102474
462.529099	8250.574195
462.901419	7837.214703
463.273680	7728.562715
463.645882	7739.728870
464.018024	7604.373890
464.390106	7771.422605
464.762130	8166.603696
465.134094	8636.149368
465.505999	9655.894132
465.877845	10880.828982
466.249631	11527.505677
466.621358	11139.457818
466.993026	10510.702426
467.364634	10255.236913
467.736184	9894.882633
468.107674	9564.109844
468.479105	9586.205222
468.850477	9358.317342
469.221790	9123.875961
469.593043	8793.657699
469.964238	8660.742637
470.335373	8667.167587
470.706449	8729.294767
471.077467	8712.908497
471.448425	10023.212766
471.819324	11096.315624
472.190164	11121.934768
472.560945	9868.708963
472.931667	9077.646060
473.302330	8937.101211
473.672934	8587.971061
474.043479	8945.454403
474.413965	8888.161690
474.784393	8768.288092
475.154761	8922.716279
475.525070	9013.036112
475.895321	8841.069751
476.265513	9015.599538
476.635645	9183.505250
477.005719	9177.027367
477.375734	9291.789234
477.745691	9533.389053
478.115588	9666.467953
478.485427	9915.037167
478.855207	10455.068252
479.224928	11269.131419
479.594591	11892.399516
479.964194	11697.122860
480.333739	11639.222687
480.703226	11553.565922
481.072653	11652.617033
481.442022	11889.805842
481.811333	12072.280488
482.180584	11878.927032
482.549777	11584.581621
482.918912	11407.269117
483.287988	11424.991293
483.657005	11440.248345
484.025964	11127.240582
484.394864	11255.394275
484.763706	11225.744728
485.132489	10975.156532
485.501213	10939.167735
485.869879	11014.722028
486.238487	10852.001144
486.607036	10961.444594
486.975527	10742.966027
487.343959	10926.857237
487.712333	10974.032355
488.080648	10898.752805
488.448905	10941.158991
488.817104	10874.734227
489.185244	11138.789866
489.553326	11285.568101
489.921350	11818.672641
490.289315	12859.738966
490.657222	13205.310062
491.025070	13108.161986
491.392861	12975.138539
491.760593	12589.414652
492.128267	12243.861200
492.495883	11907.873338
492.863440	11575.298336
493.230939	11233.114895
493.598380	11160.938175
493.965763	11024.343070
494.333088	10911.159084
494.700354	10826.397123
495.067563	10879.906451
495.434713	10709.548218
495.801805	10818.573253
496.168839	10738.005532
496.535815	10662.423512
496.902733	10648.562860
497.269593	10571.130737
497.636395	10663.424181
498.003139	10634.608946
498.369825	10493.191978
498.736453	10628.773810
499.103023	10546.202231
499.469535	10558.825280
499.835989	10537.012208
500.202385	10480.397529
500.568723	10327.990846
500.935003	10521.692141
501.301226	10311.720522
501.667390	10549.569722
502.033497	10621.244847
502.399546	10472.354368
502.765537	10359.833294
503.131470	10415.797663
503.497345	10561.665970
503.863163	10167.735085
504.228923	10440.151477
504.594625	10472.170366
504.960269	10217.433301
505.325856	10402.917515
505.691385	10180.895018
506.056856	10297.363315
506.422270	10292.329723
506.787625	10158.839969
507.152924	10242.621426
507.518164	10198.332369
507.883347	10092.125339
508.248472	9986.981994
508.613540	10162.043623
508.978550	10025.070432
509.343503	9977.900355
509.708398	10043.677330
510.073236	10106.338873
510.438016	10077.591693
510.802738	9988.373352
511.167403	10000.449436
511.532010	9858.467859
511.896561	10028.548828
512.261053	10052.176716
512.625488	9896.929342
512.989866	9832.011883
513.354186	9780.781157
513.718449	9651.563781
514.082655	9766.728941
514.446803	9641.423500
514.810894	9688.608700
515.174927	9526.172641
515.538904	9506.849898
515.902822	9572.198376
516.266684	9438.766595
516.630488	9333.930760
516.994235	9331.778187
517.357925	9319.084562
517.721558	9337.628446
518.085133	9293.856107
518.448651	9246.880115
518.812112	9108.989434
519.175516	9055.187720
519.538863	9088.061084
519.902152	8973.977252
520.265385	9022.954582
520.628560	8909.102643
520.991678	8820.806833
521.354739	8814.054208
521.717743	8708.076551
522.080690	8639.095922
522.443580	8660.974530
522.806413	8566.591527
523.169189	8530.728759
523.531908	8508.464503
523.894569	8324.951379
524.257174	8259.307994
524.619722	8268.402236
524.982213	8185.460132
525.344647	8141.614696
525.707025	8054.062457
526.069345	8053.170172
526.431608	7922.309380
526.793815	7931.844723
527.155964	7731.975576
527.518057	7708.929941
527.880093	7616.568441
528.242072	7593.268228
528.603995	7463.496325
528.965860	7353.636980
529.327669	7321.464336
529.689421	7228.303813
530.051117	7148.913201
530.412755	7133.323433
530.774337	7025.195724
531.135862	6940.985770
531.497331	6900.104533
531.858743	6751.685402
532.220098	6775.169617
532.581396	6646.612632
532.942638	6590.701195
533.303824	6509.589029
533.664953	6446.395645
534.026025	6347.311767
534.387040	6331.497667
534.747999	6276.312156
535.108902	6233.984107
535.469748	6080.460808
535.830537	6062.680659
536.191270	5994.562067
536.551947	5943.989212
536.912567	5883.843205
537.273131	5808.417462
537.633638	5741.700311
537.994089	5675.746895
538.354483	5605.379949
538.714821	5606.282316
539.075103	5554.590324
539.435328	5482.249767
539.795497	5380.264704
540.155609	5367.989494
540.515665	5349.039797
540.875665	5214.080547
541.235609	5172.957334
541.595496	5132.885202
541.955328	5116.556905
542.315102	5035.994225
542.674821	4971.510306
543.034483	4922.512811
543.394090	4876.053537
543.753640	4809.364113
544.113134	4815.282427
544.472571	4738.682095
544.831953	4720.181060
545.191278	4626.236638
545.550548	4591.238427
545.909761	4579.699226
546.268918	4527.772821
546.628019	4504.288606
546.987064	4422.374897
547.346053	4373.609295
547.704986	4341.630736
548.063863	4301.024241
548.422684	4265.927728
548.781449	4203.513203
549.140158	4185.150800
549.498811	4122.690903
549.857408	4071.253490
550.215949	4054.065676
550.574434	3997.440916
550.932864	3973.613902
551.291237	3953.020788
551.649555	3906.564035
552.007817	3881.900190
552.366022	3843.632791
552.724173	3810.855209
553.082267	3775.494035
553.440305	3757.761777
553.798288	3707.037687
554.156215	3692.156200
554.514086	3662.468845
554.871902	3615.364304
555.229661	3591.136518
555.587365	3558.933628
555.945014	3526.433309
556.302606	3506.906399
556.660143	3475.235350
557.017625	3460.784883
557.375050	3427.205757
557.732421	3416.344591
558.089735	3380.486864
558.446994	3359.876106
558.804197	3338.063034
559.161345	3313.686534
559.518437	3284.478089
559.875474	3269.868825
560.232455	3249.532810
560.589381	3228.841394
560.946251	3202.808876
561.303065	3194.725386
561.659825	3167.311591
562.016528	3146.594969
562.373177	3122.737709
562.729770	3107.941922
563.086307	3090.751588
563.442789	3078.204156
563.799216	3056.002914
564.155587	3043.069834
564.511904	3023.910929
564.868164	3005.840913
565.224370	2999.557115
565.580520	2978.706902
565.936615	2971.283803
566.292654	2946.655246
566.648638	2943.738939
567.004567	2926.117585
567.360441	2915.700041
567.716260	2899.694378
568.072023	2896.899058
568.427732	2874.886859
568.783385	2867.254553
569.138982	2857.199971
569.494525	2850.280987
569.850013	2837.065603
570.205445	2832.331959
570.560823	2820.228149
570.916145	2809.891263
571.271412	2804.308185
571.626625	2796.993471
571.981782	2787.533746
572.336884	2781.007972
572.691931	2775.440017
573.046923	2765.382916
573.401860	2759.835126
573.756743	2754.259610
574.111570	2747.297776
574.466342	2744.290728
574.821059	2735.751013
575.175722	2730.472925
575.530330	2726.054354
575.884882	2716.980277
576.239380	2712.977601
576.593823	2709.473999
576.948211	2705.587269
577.302544	2700.883873
577.656823	2697.397915
578.011047	2693.927080
578.365216	2686.554393
578.719330	2685.294104
579.073389	2681.374607
579.427394	2677.503001
579.781344	2675.592404
580.135239	2672.759275
580.489080	2668.214675
580.842866	2665.031187
581.196597	2664.698470
581.550273	2663.995229
581.903895	2658.137409
582.257463	2662.911381
582.610975	2656.483910
582.964434	2656.630104
583.317837	2652.380411
583.671186	2650.908394
584.024481	2649.486789
584.377721	2647.366983
584.730906	2644.307003
585.084037	2644.533855
585.437113	2640.024543
585.790135	2641.514204
586.143103	2638.648308
586.496016	2637.819038
586.848874	2632.460292
587.201679	2635.200159
587.554428	2629.554066
587.907124	2631.936012
588.259765	2627.734210
588.612352	2630.711011
588.964884	2630.297637
589.317362	2627.393932
589.669786	2627.799745
590.022155	2628.888634
590.374470	2628.301340
590.726731	2625.942080
591.078937	2622.120885
591.431090	2621.732716
591.783188	2622.231790
592.135232	2621.604167
592.487222	2618.352622
592.839157	2623.247583
593.191038	2618.524022
593.542866	2616.741974
593.894639	2616.835235
594.246358	2617.838425
594.598022	2615.849690
594.949633	2612.971191
595.301190	2609.933896
595.652692	2612.693927
596.004141	2610.369955
596.355535	2612.076386
596.706876	2610.712754
597.058162	2610.165789
597.409395	2607.831734
597.760573	2609.288628
598.111698	2609.023967
598.462768	2606.798298
598.813785	2607.015067
599.164748	2604.885180
599.515657	2607.718308
599.866511	2609.172681
600.217312	2607.493977
600.568060	2606.621857
600.918753	2607.758638
601.269392	2605.406939
601.619978	2603.594645
601.970510	2605.787547
602.320988	2604.396188
602.671412	2601.374016
603.021783	2600.106166
603.372100	2603.266970
603.722363	2600.035590
604.072572	2600.645570
604.422728	2604.376023
604.772830	2600.970724
605.122878	2599.213882
605.472872	2597.784715
605.822813	2595.667430
606.172701	2598.729931
606.522534	2602.041969
606.872314	2601.830241
607.222041	2599.060127
607.571714	2601.865529
607.921333	2602.422576
608.270899	2601.878132
608.620411	2602.382247
608.969870	2600.418718
609.319276	2603.420725
609.668627	2604.784357
610.017926	2606.788216
610.367171	2608.179574
610.716362	2607.738473
611.065500	2604.829727
611.414585	2604.318050
611.763616	2605.419542
612.112594	2599.571804
612.461518	2601.358893
612.810389	2601.159767
613.159207	2600.532144
613.507971	2598.866042
613.856682	2601.668924
614.205340	2599.917123
614.553945	2600.864860
614.902496	2601.500045
615.250994	2602.868718
615.599439	2602.140272
615.947830	2601.613471
616.296169	2599.181114
616.644454	2599.075250
616.992686	2599.445775
617.340864	2600.824531
617.688990	2598.571135
618.037063	2600.816969
618.385082	2598.220775
618.733048	2601.273193
619.080961	2597.091556
619.428821	2599.849067
619.776628	2599.602051
620.124382	2599.581886
620.472083	2596.663058
620.819731	2597.814962
621.167326	2597.028542
621.514868	2596.995774
621.862357	2598.281268
622.209793	2593.913109
622.557176	2597.860332
622.904506	2594.719693
623.251783	2590.911102
623.599007	2592.264651
623.946179	2590.439754
624.293297	2590.543097
624.640363	2592.297419
624.987376	2593.058633
625.334336	2594.041658
625.681243	2593.552666
626.028097	2592.476380
626.374899	2591.813468
626.721647	2589.313056
627.068343	2591.621904
627.414987	2586.961357
627.761577	2589.696183
628.108115	2591.107707
628.454600	2590.611153
628.801032	2591.745412
629.147412	2592.730958
629.493739	2589.275247
629.840014	2587.866245
630.186236	2589.219794
630.532405	2587.823395
630.878521	2590.419589
631.224585	2588.350195
631.570597	2585.517067
631.916556	2588.133426
632.262462	2588.277099
632.608316	2589.618046
632.954117	2585.179310
633.299866	2589.781883
633.645562	2585.827098
633.991206	2586.086717
634.336797	2583.505647
634.682336	2585.958168
635.027823	2584.062694
635.373257	2582.623445
635.718639	2580.647312
636.063968	2584.433219
636.409245	2581.274936
636.754470	2579.376942
637.099642	2580.627148
637.444762	2584.178641
637.789829	2580.654874
638.134845	2580.707806
638.479808	2582.474731
638.824719	2582.489854
639.169577	2581.335430
639.514383	2578.940882
639.859137	2578.910635
640.203839	2582.721747
640.548489	2577.239492
640.893086	2575.351580
641.237632	2574.976014
641.582125	2575.565829
641.926566	2573.443503
642.270955	2580.354925
642.615292	2577.892322
642.959576	2579.064390
