Dividing Wavelength (nm)	Counts (n)	Blue Motor Position (mm): 0.000000	Red Motor Position (mm): 47.900000	
326.493990	2126.358692
326.888308	2126.358692
327.282561	2126.358692
327.676750	2094.314598
328.070874	2093.001377
328.464933	2098.692840
328.858929	2106.458738
329.252859	2112.757659
329.646726	2124.876593
330.040528	2136.241874
330.434265	2152.446663
330.827938	2171.734118
331.221547	2190.686336
331.615091	2208.133769
332.008571	2227.085987
332.401986	2247.288411
332.795338	2266.901020
333.188625	2283.103289
333.581847	2304.676907
333.975006	2322.096614
334.368100	2340.799295
334.761129	2361.934332
335.154095	2377.377907
335.546996	2396.695608
335.939833	2422.874320
336.332606	2439.472319
336.725315	2450.106633
337.117960	2460.219188
337.510540	2469.520117
337.903056	2477.747280
338.295508	2484.774648
338.687896	2497.291833
339.080220	2503.452123
339.472480	2511.820439
339.864676	2517.446367
340.256807	2516.874196
340.648875	2522.527850
341.040879	2522.573220
341.432818	2527.198479
341.824694	2527.170752
342.216506	2527.866432
342.608253	2531.304498
342.999937	2529.429189
343.391557	2530.351720
343.783113	2526.631349
344.174605	2528.012625
344.566033	2526.104548
344.957397	2523.064733
345.348697	2520.849145
345.739934	2521.822088
346.131106	2519.016686
346.522215	2516.770852
346.913260	2515.596263
347.304241	2514.885460
347.695159	2511.734739
348.086012	2513.272291
348.476802	2508.609224
348.867528	2507.497649
349.258191	2506.970849
349.648789	2503.900786
350.039324	2502.378358
350.429796	2502.998420
350.820203	2501.198728
351.210548	2500.349293
351.600828	2498.607575
351.991045	2499.575476
352.381198	2496.051710
352.771288	2496.449961
353.161314	2497.430465
353.551276	2496.639004
353.941175	2496.006339
354.331010	2499.315857
354.720782	2495.497183
355.110490	2494.806545
355.500135	2494.902327
355.889717	2497.788387
356.279235	2493.939466
356.668689	2497.569097
357.058080	2496.202944
357.447408	2496.099601
357.836672	2496.238232
358.225873	2501.405415
358.615010	2494.632625
359.004084	2501.617143
359.393095	2500.487925
359.782043	2502.723677
360.170927	2501.783502
360.559748	2502.670745
360.948505	2503.903307
361.337199	2504.349449
361.725830	2505.768534
362.114398	2507.507732
362.502903	2506.184429
362.891344	2508.674759
363.279722	2508.662156
363.668037	2509.425891
364.056289	2508.969666
364.444478	2511.838083
364.832603	2509.400685
365.220665	2510.353463
365.608665	2512.745491
365.996601	2511.263391
366.384474	2513.478978
366.772284	2514.618279
367.160031	2516.055008
367.547715	2517.426202
367.935336	2519.850997
368.322893	2523.218488
368.710388	2526.217974
369.097820	2532.101001
369.485189	2534.702236
369.872495	2540.555016
370.259738	2547.615152
370.646918	2557.543704
371.034035	2560.951524
371.421090	2573.561971
371.808081	2584.443301
372.195010	2593.189703
372.581875	2607.665376
372.968678	2621.586523
373.355418	2629.486011
373.742096	2648.957467
374.128710	2661.719148
374.515262	2675.610048
374.901751	2694.869776
375.288177	2704.011909
375.674540	2727.851525
376.060841	2747.176788
376.447079	2765.798811
376.833254	2784.284722
377.219367	2796.741413
377.605417	2836.511076
377.991404	2846.805112
378.377329	2865.976620
378.763191	2881.616800
379.148991	2922.029210
379.534727	2946.569547
379.920402	2972.899493
380.306013	2989.328613
380.691563	3037.915254
381.077049	3059.042730
381.462474	3077.437900
381.847835	3115.932151
382.233134	3139.449134
382.618371	3137.593989
383.003545	3204.618650
383.388657	3211.691389
383.773706	3246.697161
384.158693	3261.742485
384.543618	3288.279119
384.928480	3323.448729
385.313280	3369.913044
385.698017	3367.722662
386.082692	3421.904984
386.467305	3428.866817
386.851856	3455.317752
387.236344	3481.297338
387.620770	3512.610465
388.005133	3540.609033
388.389435	3566.210533
388.773674	3575.493818
389.157851	3621.242289
389.541965	3633.567910
389.926018	3597.896706
390.310008	3669.723066
390.693936	3689.227290
391.077802	3729.743043
391.461606	3718.765931
391.845348	3782.718009
392.229027	3785.757824
392.612645	3794.262251
392.996200	3871.401987
393.379694	3911.350611
393.763125	3977.603975
394.146494	3944.728090
394.529801	4008.854088
394.913047	4054.607600
395.296230	4020.098382
395.679351	4076.556784
396.062410	4096.658385
396.445408	4078.293462
396.828343	4114.589769
397.211217	4135.026607
397.594028	4056.460224
397.976778	4123.812560
398.359466	4152.438752
398.742092	4179.575283
399.124656	4103.605095
399.507158	4182.201725
399.889598	4206.573183
400.271977	4271.674644
400.654294	4240.056527
401.036549	4249.551540
401.418742	4219.304617
401.800874	4316.465296
402.182944	4345.484698
402.564952	4407.518616
402.946898	4394.300711
403.328783	4389.746028
403.710606	4303.038182
404.092367	4496.416844
404.474067	4459.397131
404.855705	4469.013132
405.237282	4395.873551
405.618797	4507.693905
406.000250	4540.854615
406.381642	4618.430411
406.762972	4582.025718
407.144240	4592.728088
407.525447	4594.570630
407.906593	4655.964322
408.287677	4699.431671
408.668700	4622.634733
409.049661	4673.172301
409.430560	4716.929516
409.811399	4644.064678
410.192176	4802.918998
410.572891	4741.427003
410.953545	4843.467519
411.334138	4724.856730
411.714669	4796.975477
412.095139	4688.532696
412.475547	4830.259696
412.855894	4814.687571
413.236180	4816.499866
413.616405	4773.380357
413.996568	4860.899829
414.376670	4803.534018
414.756711	4760.043984
415.136691	4788.576915
415.516609	4869.386611
415.896466	4904.478083
416.276262	4941.807827
416.655997	4918.096760
417.035670	5102.907981
417.415283	5195.229152
417.794834	5141.840812
418.174324	5092.074541
418.553753	5003.322507
418.933121	5182.646432
419.312428	5253.043625
419.691674	5194.677145
420.070859	5313.774405
420.449983	5229.304831
420.829045	5340.500082
421.208047	5249.461885
421.586988	5323.632381
421.965867	5330.873999
422.344686	5466.541531
422.723444	5317.560312
423.102141	5138.410307
423.480777	5437.275112
423.859352	5206.952355
424.237866	5465.064473
424.616319	5458.178257
424.994712	5567.725051
425.373044	5446.034117
425.751314	5588.802115
426.129524	5389.001023
426.507673	5583.944963
426.885762	5663.887581
427.263789	5599.580102
427.641756	5480.021577
428.019662	5598.450883
428.397508	5605.826091
428.775292	5555.149892
429.153016	5651.579604
429.530679	5576.179066
429.908282	5664.444628
430.285824	5532.578126
430.663305	5806.947965
431.040726	5545.634714
431.418086	5549.415580
431.795385	5650.132792
432.172624	5663.282642
432.549802	5657.704606
432.926920	5667.181975
433.303977	5681.246794
433.680974	5716.683585
434.057910	5733.382407
434.434786	5741.304580
434.811601	5710.392225
435.188355	5941.662719
435.565050	5817.476415
435.941683	5800.906142
436.318257	6014.240211
436.694770	5999.537686
437.071222	6034.724940
437.447614	5962.273477
437.823946	5878.025714
438.200218	6031.470875
438.576429	5894.530452
438.952580	5996.024002
439.328670	6041.031423
439.704700	5945.914933
440.080670	5930.085710
440.456580	6206.751794
440.832429	6086.094298
441.208218	5931.582932
441.583947	6092.156285
441.959616	6090.412046
442.335224	6021.048290
442.710773	6157.565256
443.086261	6183.277662
443.461689	5980.361137
443.837057	6128.293797
444.212365	6282.820285
444.587612	6176.845149
444.962800	6329.682852
445.337927	6304.225025
445.712995	5917.571045
446.088002	6498.657287
446.462949	6327.658828
446.837837	6265.640033
447.212664	6428.338232
447.587431	6575.355923
447.962139	7117.015300
448.336786	8044.017958
448.711374	7787.955069
449.085901	6857.617688
449.460369	6778.905112
449.834776	6710.688218
450.209124	7107.716892
450.583412	7255.354644
450.957640	7400.333188
451.331808	7164.409708
451.705917	6720.921760
452.079965	6639.413864
452.453954	6852.949580
452.827883	6729.532051
453.201752	6826.246588
453.575562	6621.353931
453.949311	6826.738100
454.323001	6714.353137
454.696632	6787.825434
455.070202	6927.379696
455.443713	7079.584733
455.817164	7179.772625
456.190556	7263.546519
456.563888	7337.953950
456.937160	7380.602112
457.310373	7039.966305
457.683526	7064.773823
458.056619	6958.236598
458.429653	6946.208405
458.802628	6876.718620
459.175542	6982.925649
459.548398	7343.494178
459.921194	7503.757500
460.293930	7509.310331
460.666607	8035.400105
461.039224	8343.749842
461.411782	8469.060324
461.784280	8485.870051
462.156719	8376.661015
462.529099	8256.023683
462.901419	7849.053853
463.273680	7737.707368
463.645882	7752.871158
464.018024	7618.995756
464.390106	7790.248794
464.762130	8170.813059
465.134094	8638.596848
465.505999	9662.702211
465.877845	10883.967100
466.249631	11530.285873
466.621358	11154.659418
466.993026	10525.541062
467.364634	10267.013049
467.736184	9901.393284
468.107674	9573.100742
468.479105	9602.689795
468.850477	9368.089618
469.221790	9137.842478
469.593043	8808.095564
469.964238	8677.254936
470.335373	8685.426647
470.706449	8742.936130
471.077467	8726.708656
471.448425	10038.013594
471.819324	11112.442275
472.190164	11132.581685
472.560945	9881.158092
472.931667	9091.877237
473.302330	8958.868914
473.672934	8601.940098
474.043479	8959.173903
474.413965	8903.638032
474.784393	8777.679762
475.154761	8939.120193
475.525070	9025.772587
475.895321	8857.312349
476.265513	9028.247793
476.635645	9194.515130
477.005719	9203.861429
477.375734	9316.238830
477.745691	9548.210045
478.115588	9681.732567
478.485427	9928.565103
478.855207	10464.933790
479.224928	11279.561566
479.594591	11914.288206
479.964194	11724.062786
480.333739	11662.999289
480.703226	11581.612381
481.072653	11664.932572
481.442022	11906.451732
481.811333	12092.109867
482.180584	11912.695201
482.549777	11609.162287
482.918912	11431.809453
483.287988	11459.722322
483.657005	11468.496451
484.025964	11154.614047
484.394864	11276.839343
484.763706	11249.299520
485.132489	11010.666420
485.501213	10969.681839
485.869879	11048.790146
486.238487	10886.865764
486.607036	11001.206695
486.975527	10776.156984
487.343959	10971.874741
487.712333	11015.624395
488.080648	10947.601585
488.448905	10986.693213
488.817104	10929.932341
489.185244	11191.777434
489.553326	11351.534120
489.921350	11880.451981
490.289315	12946.474538
490.657222	13295.390440
491.025070	13201.773692
491.392861	13080.271802
491.760593	12699.450438
492.128267	12347.003208
492.495883	12018.771160
492.863440	11688.290758
493.230939	11347.806186
493.598380	11277.615681
493.965763	11148.025259
494.333088	11046.856863
494.700354	10966.463063
495.067563	11026.447752
495.434713	10858.544562
495.801805	10990.128759
496.168839	10911.204455
496.535815	10851.610454
496.902733	10847.481749
497.269593	10780.268045
497.636395	10882.663962
498.003139	10864.215860
498.369825	10733.239121
498.736453	10892.736188
499.103023	10816.581997
499.469535	10843.169042
499.835989	10837.346510
500.202385	10798.411158
500.568723	10652.149641
500.935003	10867.018741
501.301226	10680.727942
501.667390	10934.171952
502.033497	11030.886488
502.399546	10893.820036
502.765537	10798.315376
503.131470	10874.983764
503.497345	11049.206041
503.863163	10657.344550
504.228923	10967.234359
504.594625	11036.570389
504.960269	10782.677717
505.325856	11002.819864
505.691385	10796.992073
506.056856	10953.910589
506.422270	10976.855401
506.787625	10867.048988
507.152924	10980.606020
507.518164	10961.119439
507.883347	10885.623119
508.248472	10802.726386
508.613540	11034.919411
508.978550	10923.575446
509.343503	10890.472709
509.708398	11015.193376
510.073236	11121.370158
510.438016	11132.967333
510.802738	11079.087481
511.167403	11125.876950
511.532010	11023.347442
511.896561	11256.967115
512.261053	11329.864720
512.625488	11196.420336
512.989866	11178.889724
513.354186	11178.022645
513.718449	11077.691081
514.082655	11263.565985
514.446803	11156.020529
514.810894	11288.610437
515.174927	11154.246043
515.538904	11168.860348
515.902822	11337.839825
516.266684	11218.036804
516.630488	11155.092957
516.994235	11211.821061
517.357925	11277.943356
517.721558	11367.650688
518.085133	11377.022193
518.448651	11393.471478
518.812112	11268.135791
519.175516	11290.475664
519.538863	11404.899774
519.902152	11325.766262
520.265385	11488.126704
520.628560	11399.586398
520.991678	11371.587830
521.354739	11438.466297
521.717743	11371.718900
522.080690	11350.520848
522.443580	11486.553864
522.806413	11443.794797
523.169189	11474.555918
523.531908	11531.720082
523.894569	11347.382729
524.257174	11347.919612
524.619722	11469.799589
524.982213	11416.620457
525.344647	11463.142745
525.707025	11419.849316
526.069345	11505.548931
526.431608	11429.137642
526.793815	11537.837522
527.155964	11328.692652
527.518057	11374.259641
527.880093	11332.791110
528.242072	11398.797457
528.603995	11307.267748
528.965860	11226.455531
529.327669	11281.623398
529.689421	11228.711447
530.051117	11196.110305
530.412755	11305.200875
530.774337	11192.009327
531.135862	11176.906030
531.497331	11198.658609
531.858743	11046.004908
532.220098	11216.716022
532.581396	11085.547719
532.942638	11068.344782
533.303824	11031.277178
533.664953	11049.440455
534.026025	10958.911414
534.387040	11059.280787
534.747999	11057.937320
535.108902	11120.631629
535.469748	10885.842410
535.830537	10986.274797
536.191270	10964.209667
536.551947	10983.686165
536.912567	10982.554426
537.273131	10908.283106
537.633638	10888.756197
537.994089	10876.246573
538.354483	10821.628192
538.714821	10961.487444
539.075103	10978.773560
539.435328	10940.596902
539.795497	10770.089956
540.155609	10923.635940
540.515665	11017.368634
540.875665	10750.585731
541.235609	10815.125103
541.595496	10816.468571
541.955328	10968.890378
542.315102	10853.190856
542.674821	10804.460543
543.034483	10809.035390
543.394090	10809.269803
543.753640	10739.338917
544.113134	10965.759822
544.472571	10815.679630
544.831953	10962.392331
545.191278	10762.016548
545.550548	10788.885898
545.909761	10929.428226
546.268918	10903.428475
546.628019	10983.255146
546.987064	10853.982317
547.346053	10771.501479
547.704986	10873.138702
548.063863	10855.386279
548.422684	10850.685403
548.781449	10765.878072
549.140158	10864.881292
549.498811	10741.352858
549.857408	10599.663667
550.215949	10827.617083
550.574434	10681.746255
550.932864	10778.264187
551.291237	10842.294402
551.649555	10788.774992
552.007817	10795.026023
552.366022	10763.027299
552.724173	10753.388613
553.082267	10742.648435
553.440305	10871.369257
553.798288	10677.138640
554.156215	10828.834521
554.514086	10813.872377
554.871902	10657.836062
555.229661	10692.695641
555.587365	10668.117496
555.945014	10563.321989
556.302606	10693.908039
556.660143	10586.599517
557.017625	10734.867414
557.375050	10646.054886
557.732421	10779.572366
558.089735	10687.977121
558.446994	10687.180619
558.804197	10724.301155
559.161345	10721.669673
559.518437	10572.383463
559.875474	10659.953347
560.232455	10692.952740
560.589381	10646.475822
560.946251	10639.042641
561.303065	10742.867725
561.659825	10678.376244
562.016528	10604.603998
562.373177	10491.878757
562.729770	10602.731210
563.086307	10520.507470
563.442789	10607.248083
563.799216	10492.675259
564.155587	10541.564369
564.511904	10492.715589
564.868164	10482.126645
565.224370	10496.400672
565.580520	10424.095403
565.936615	10424.140773
566.292654	10289.463827
566.648638	10429.275188
567.004567	10385.263394
567.360441	10363.301608
567.716260	10280.775399
568.072023	10372.584892
568.427732	10329.130146
568.783385	10231.455270
569.138982	10304.307505
569.494525	10325.593777
569.850013	10193.513026
570.205445	10277.823803
570.560823	10170.006125
570.916145	10092.158107
571.271412	10168.937401
571.626625	10110.102094
571.981782	10084.177960
572.336884	10059.146111
572.691931	10061.727182
573.046923	10015.325881
573.401860	9967.218150
573.756743	9905.043079
574.111570	9945.805849
574.466342	9924.355739
574.821059	9955.820101
575.175722	9850.752373
575.530330	9855.362508
575.884882	9849.638278
576.239380	9777.617833
576.593823	9757.039843
576.948211	9774.197410
577.302544	9655.208536
577.656823	9663.516357
578.011047	9668.234877
578.365216	9639.480136
578.719330	9563.923322
579.073389	9574.318181
579.427394	9524.226756
579.781344	9504.364610
580.135239	9448.861506
580.489080	9455.178072
580.842866	9358.639975
581.196597	9364.984268
581.550273	9408.587728
581.903895	9373.302171
582.257463	9445.355383
582.610975	9311.991658
582.964434	9343.060289
583.317837	9267.329556
583.671186	9244.049507
584.024481	9238.234536
584.377721	9160.406683
584.730906	9138.533116
585.084037	9168.386829
585.437113	9101.263866
585.790135	9125.776476
586.143103	9028.096559
586.496016	8999.856015
586.848874	9049.970125
587.201679	9043.792191
587.554428	8933.123741
587.907124	8975.061100
588.259765	8951.516391
588.612352	8947.044887
588.964884	8830.465684
589.317362	8840.651335
589.669786	8834.498607
590.022155	8893.981702
590.374470	8906.491325
590.726731	8841.372220
591.078937	8694.258748
591.431090	8812.120925
591.783188	8677.559926
592.135232	8678.401799
592.487222	8674.515069
592.839157	8730.469356
593.191038	8657.143253
593.542866	8601.990509
593.894639	8510.218824
594.246358	8554.908653
594.598022	8574.259122
594.949633	8467.164850
595.301190	8441.838093
595.652692	8470.476888
596.004141	8580.500071
596.355535	8354.530349
596.706876	8341.360335
597.058162	8275.669059
597.409395	8344.916869
597.760573	8410.219976
598.111698	8321.299063
598.462768	8305.923544
598.813785	8268.613964
599.164748	8243.566992
599.515657	8231.105259
599.866511	8140.477916
600.217312	8266.582379
600.568060	8127.139023
600.918753	8228.892193
601.269392	8196.560752
601.619978	8109.404244
601.970510	8176.237341
602.320988	8172.481681
602.671412	8224.720638
603.021783	8161.524733
603.372100	8136.845765
603.722363	8138.373234
604.072572	8117.719627
604.422728	8126.276986
604.772830	8056.497334
605.122878	8060.931029
605.472872	8057.268631
605.822813	8081.945079
606.172701	8028.350052
606.522534	8102.661700
606.872314	8108.401054
607.222041	8077.765962
607.571714	8132.792677
607.921333	8088.770801
608.270899	8096.695495
608.620411	8187.199330
608.969870	8092.196265
609.319276	8086.988753
609.668627	8104.582380
610.017926	8132.588510
610.367171	8180.774379
610.716362	8163.914240
611.065500	8149.831777
611.414585	8177.122063
611.763616	8162.790063
612.112594	8146.789441
612.461518	8163.047162
612.810389	8215.276036
613.159207	8159.772932
613.507971	8106.195549
613.856682	8231.014518
614.205340	8184.194802
614.553945	8255.000328
614.902496	8156.478538
615.250994	8215.190337
615.599439	8194.687964
615.947830	8212.775624
616.296169	8180.020727
616.644454	8193.525978
616.992686	8192.497583
617.340864	8243.977846
617.688990	8152.112899
618.037063	8251.864731
618.385082	8192.865587
618.733048	8279.175182
619.080961	8217.042961
619.428821	8237.961228
619.776628	8241.764779
620.124382	8194.380453
620.472083	8171.768358
620.819731	8205.433183
621.167326	8089.542097
621.514868	8100.856967
621.862357	7989.142477
622.209793	8011.613421
622.557176	7940.621372
622.904506	7915.536590
623.251783	7849.384049
623.599007	7798.652397
623.946179	7800.063920
624.293297	7764.407839
624.640363	7681.445570
624.987376	7663.718353
625.334336	7613.205991
625.681243	7559.585758
626.028097	7550.584778
626.374899	7524.532095
626.721647	7521.782146
627.068343	7447.339427
627.414987	7423.819923
627.761577	7373.723457
628.108115	7409.707213
628.454600	7307.081924
628.801032	7360.011519
629.147412	7315.336813
629.493739	7300.004144
629.840014	7242.456852
630.186236	7298.171684
630.532405	7184.496186
630.878521	7235.558033
631.224585	7193.449275
631.570597	7108.909125
631.916556	7145.142418
632.262462	7146.359857
632.608316	7102.479133
632.954117	7079.849394
633.299866	7066.679379
633.645562	7059.798204
633.991206	6977.395503
634.336797	6923.984478
634.682336	6880.597788
635.027823	6844.767787
635.373257	6840.714699
635.718639	6772.200377
636.063968	6781.627335
636.409245	6676.095820
636.754470	6669.875037
637.099642	6633.987062
637.444762	6578.025213
637.789829	6587.260607
638.134845	6528.692482
638.479808	6514.675554
638.824719	6515.512385
639.169577	6445.609225
639.514383	6463.593542
639.859137	6392.006637
640.203839	6408.977681
640.548489	6387.252828
