Dividing Wavelength (nm)	Counts (n)	Blue Motor Position (mm): 0.000000	Red Motor Position (mm): 5.600000	
326.493990	2129.096039
326.888308	2129.096039
327.282561	2129.096039
327.676750	2097.314084
328.070874	2095.116141
328.464933	2096.013467
328.858929	2103.423963
329.252859	2110.746239
329.646726	2125.990688
330.040528	2137.224899
330.434265	2156.406490
330.827938	2170.388130
331.221547	2191.772705
331.615091	2208.743749
332.008571	2230.085474
332.401986	2248.785634
332.795338	2267.989910
333.188625	2287.010183
333.581847	2305.231434
333.975006	2324.206337
334.368100	2344.423884
334.761129	2360.956348
335.154095	2377.924872
335.546996	2394.825340
335.939833	2407.304717
336.332606	2423.385997
336.725315	2435.809921
337.117960	2443.318720
337.510540	2452.420523
337.903056	2464.476442
338.295508	2474.609162
338.687896	2479.788947
339.080220	2490.332521
339.472480	2494.720845
339.864676	2501.327277
340.256807	2501.314674
340.648875	2507.323730
341.040879	2511.026457
341.432818	2508.974707
341.824694	2513.257168
342.216506	2511.220542
342.608253	2515.160203
342.999937	2511.054183
343.391557	2509.743483
343.783113	2512.248937
344.174605	2510.192146
344.566033	2508.150479
344.957397	2504.979593
345.348697	2507.580828
345.739934	2502.595127
346.131106	2503.399191
346.522215	2500.243429
346.913260	2500.054386
347.304241	2496.313850
347.695159	2493.016935
348.086012	2493.437871
348.476802	2496.230671
348.867528	2490.130874
349.258191	2488.605925
349.648789	2487.471666
350.039324	2487.237252
350.429796	2485.913949
350.820203	2482.352374
351.210548	2482.848928
351.600828	2482.808598
351.991045	2482.027220
352.381198	2481.601242
352.771288	2483.060656
353.161314	2478.009420
353.551276	2482.843887
353.941175	2479.728453
354.331010	2481.593680
354.720782	2479.191571
355.110490	2478.284163
355.500135	2477.555716
355.889717	2478.440439
356.279235	2478.989924
356.668689	2481.858341
357.058080	2480.708958
357.447408	2479.191571
357.836672	2478.289204
358.225873	2480.184678
358.615010	2477.147383
359.004084	2483.474031
359.393095	2483.814309
359.782043	2483.809268
360.170927	2480.403968
360.559748	2486.254227
360.948505	2483.728609
361.337199	2484.527632
361.725830	2482.677528
362.114398	2487.761532
362.502903	2486.786069
362.891344	2488.293374
363.279722	2488.159783
363.668037	2487.000318
364.056289	2491.307984
364.444478	2487.209526
364.832603	2491.076091
365.220665	2489.999804
365.608665	2491.408807
365.996601	2491.665906
366.384474	2491.277737
366.772284	2494.352841
367.160031	2494.647748
367.547715	2496.245794
367.935336	2498.088336
368.322893	2501.463388
368.710388	2501.123110
369.097820	2512.027126
369.485189	2510.575274
369.872495	2516.952333
370.259738	2522.288395
370.646918	2525.960875
371.034035	2531.990095
371.421090	2541.956457
371.808081	2546.831252
372.195010	2552.590771
372.581875	2559.096380
372.968678	2565.652400
373.355418	2571.923596
373.742096	2578.346026
374.128710	2584.231573
374.515262	2590.427151
374.901751	2595.783377
375.288177	2599.274376
375.674540	2606.183277
376.060841	2612.923300
376.447079	2613.550923
376.833254	2619.081069
377.219367	2616.552931
377.605417	2630.670682
377.991404	2623.580299
378.377329	2625.765639
378.763191	2625.465691
379.148991	2633.619757
379.534727	2635.495066
379.920402	2634.549850
380.306013	2630.040538
380.691563	2637.846764
381.077049	2632.878707
381.462474	2628.646659
381.847835	2629.591875
382.233134	2622.511574
382.618371	2616.522684
383.003545	2620.948817
383.388657	2611.574791
383.773706	2607.874584
384.158693	2601.621033
384.543618	2593.966041
384.928480	2589.988570
385.313280	2585.262489
385.698017	2579.724781
386.082692	2577.229410
386.467305	2567.114335
386.851856	2563.837585
387.236344	2555.812068
387.620770	2555.963303
388.005133	2547.501726
388.389435	2543.912424
388.773674	2538.039480
389.157851	2533.661238
389.541965	2531.599406
389.926018	2530.097142
390.310008	2522.847963
390.693936	2525.534898
391.077802	2523.253776
391.461606	2518.885616
391.845348	2518.295801
392.229027	2514.575429
392.612645	2513.060563
392.996200	2510.045953
393.379694	2515.838238
393.763125	2513.055522
394.146494	2511.381858
394.529801	2510.963443
394.913047	2514.996366
395.296230	2511.676766
395.679351	2508.344563
396.062410	2511.850686
396.445408	2512.206087
396.828343	2512.609379
397.211217	2507.200221
397.594028	2507.739625
397.976778	2505.582011
398.359466	2506.721312
398.742092	2506.028153
399.124656	2509.935047
399.507158	2508.485716
399.889598	2512.324554
400.271977	2510.615603
400.654294	2514.252796
401.036549	2514.772034
401.418742	2509.776251
401.800874	2512.090141
402.182944	2512.511077
402.564952	2511.432270
402.946898	2512.294307
403.328783	2513.519308
403.710606	2511.036539
404.092367	2512.649709
404.474067	2510.832373
404.855705	2515.893691
405.237282	2513.841942
405.618797	2511.767507
406.000250	2513.332785
406.381642	2515.137518
406.762972	2514.230110
407.144240	2514.096520
407.525447	2515.780265
407.906593	2512.228772
408.287677	2514.154493
408.668700	2512.495953
409.049661	2514.119205
409.430560	2514.091479
409.811399	2516.274298
410.192176	2514.734226
410.572891	2516.218846
410.953545	2513.294976
411.334138	2516.758249
411.714669	2514.981242
412.095139	2514.721623
412.475547	2518.568023
412.855894	2516.130625
413.236180	2516.062570
413.616405	2516.642303
413.996568	2517.055677
414.376670	2515.611387
414.756711	2516.801099
415.136691	2518.502488
415.516609	2519.641789
415.896466	2519.051974
416.276262	2519.684639
416.655997	2515.296314
417.035670	2515.286232
417.415283	2517.113650
417.794834	2513.360511
418.174324	2518.200019
418.553753	2514.703979
418.933121	2519.246058
419.312428	2519.785462
419.691674	2519.914011
420.070859	2519.399814
420.449983	2520.319824
420.829045	2519.719927
421.208047	2521.917870
421.586988	2517.310255
421.965867	2519.856038
422.344686	2520.413086
422.723444	2521.244876
423.102141	2519.914011
423.480777	2519.871162
423.859352	2518.956192
424.237866	2522.464835
424.616319	2521.199506
424.994712	2522.386697
425.373044	2520.970133
425.751314	2521.519619
426.129524	2521.176820
426.507673	2521.766635
426.885762	2520.324865
427.263789	2522.358971
427.641756	2522.232942
428.019662	2521.985926
428.397508	2522.116996
428.775292	2521.812006
429.153016	2520.125740
429.530679	2523.347037
429.908282	2521.988446
430.285824	2522.169928
430.663305	2520.982736
431.040726	2522.858045
431.418086	2524.224198
431.795385	2522.288395
432.172624	2522.628673
432.549802	2523.979702
432.926920	2521.789321
433.303977	2525.146729
433.680974	2521.557428
434.057910	2524.350227
434.434786	2522.079187
434.811601	2525.129085
435.188355	2524.130937
435.565050	2522.323683
435.941683	2525.716379
436.318257	2521.945596
436.694770	2522.230422
437.071222	2518.976357
437.447614	2520.108096
437.823946	2522.643796
438.200218	2523.057171
438.576429	2526.946421
438.952580	2522.885772
439.328670	2524.864424
439.704700	2524.854342
440.080670	2525.829805
440.456580	2525.081194
440.832429	2526.497758
441.208218	2524.796369
441.583947	2526.381812
441.959616	2528.695701
442.335224	2524.458612
442.710773	2525.640762
443.086261	2523.069774
443.461689	2526.648993
443.837057	2526.270906
444.212365	2526.568334
444.587612	2524.335103
444.962800	2524.526667
445.337927	2524.458612
445.712995	2525.489527
446.088002	2526.601102
446.462949	2526.160001
446.837837	2527.611853
447.212664	2528.955321
447.587431	2528.998171
447.962139	2529.313243
448.336786	2528.607481
448.711374	2528.360465
449.085901	2529.484642
449.460369	2529.575383
449.834776	2527.054806
450.209124	2526.187727
450.583412	2527.886596
450.957640	2525.396266
451.331808	2527.342152
451.705917	2527.379960
452.079965	2527.468180
452.453954	2529.086391
452.827883	2528.552028
453.201752	2529.706453
453.575562	2529.552697
453.949311	2529.550177
454.323001	2528.126051
454.696632	2527.818541
455.070202	2528.269724
455.443713	2529.262831
455.817164	2525.587830
456.190556	2525.333252
456.563888	2527.488345
456.937160	2526.079342
457.310373	2529.025897
457.683526	2527.054806
458.056619	2530.452543
458.429653	2528.057995
458.802628	2528.829292
459.175542	2531.128058
459.548398	2529.741741
459.921194	2529.230064
460.293930	2531.042358
460.666607	2530.528161
461.039224	2532.224509
461.411782	2532.131248
461.784280	2530.883562
462.156719	2531.591844
462.529099	2531.770805
462.901419	2530.240815
463.273680	2530.921371
463.645882	2528.352903
464.018024	2529.623274
464.390106	2530.475229
464.762130	2530.628984
465.134094	2530.208048
465.505999	2528.761236
465.877845	2531.314581
466.249631	2533.958666
466.621358	2529.918181
466.993026	2533.356248
467.364634	2537.797505
467.736184	2532.826927
468.107674	2532.864736
468.479105	2531.480939
468.850477	2531.748120
469.221790	2528.950280
469.593043	2530.180321
469.964238	2532.325332
470.335373	2530.303829
470.706449	2532.083357
471.077467	2533.802390
471.448425	2533.411701
471.819324	2533.935981
472.190164	2533.585621
472.560945	2531.790970
472.931667	2531.861546
473.302330	2530.906247
473.672934	2533.678882
474.043479	2531.919519
474.413965	2532.141330
474.784393	2524.849301
475.154761	2529.393901
475.525070	2528.095804
475.895321	2531.334745
476.265513	2529.608150
476.635645	2531.727955
477.005719	2531.546474
477.375734	2531.896834
477.745691	2531.133099
478.115588	2533.147040
478.485427	2532.693336
478.855207	2534.427493
479.224928	2532.620240
479.594591	2534.629139
479.964194	2535.622247
480.333739	2532.932791
480.703226	2532.002698
481.072653	2534.729963
481.442022	2532.405991
481.811333	2533.010929
482.180584	2533.152081
482.549777	2534.036804
482.918912	2535.274407
483.287988	2533.517565
483.657005	2536.358255
484.025964	2532.158974
484.394864	2533.706608
484.763706	2536.882535
485.132489	2535.009747
485.501213	2535.387833
485.869879	2533.240302
486.238487	2532.874818
486.607036	2533.865405
486.975527	2535.874304
487.343959	2533.338604
487.712333	2535.735673
488.080648	2533.089067
488.448905	2535.014788
488.817104	2532.589993
489.185244	2536.733821
489.553326	2535.748276
489.921350	2534.949253
490.289315	2534.767771
490.657222	2534.185518
491.025070	2535.851619
491.392861	2535.324819
491.760593	2535.082843
492.128267	2535.231557
492.495883	2534.593851
492.863440	2536.229706
493.230939	2533.383974
493.598380	2535.702905
493.965763	2532.390867
494.333088	2534.472864
494.700354	2529.333407
495.067563	2534.341794
495.434713	2530.719725
495.801805	2536.123842
496.168839	2534.976979
496.535815	2538.904038
496.902733	2534.465302
497.269593	2535.665097
497.636395	2534.407329
498.003139	2535.075282
498.369825	2535.523944
498.736453	2536.017977
499.103023	2535.312216
499.469535	2534.961856
499.835989	2534.576207
500.202385	2535.090405
500.568723	2539.340098
500.935003	2533.096629
501.301226	2536.771630
501.667390	2534.576207
502.033497	2538.490663
502.399546	2537.253060
502.765537	2534.997144
503.131470	2536.648122
503.497345	2537.053934
503.863163	2542.243802
504.228923	2535.473533
504.594625	2533.273069
504.960269	2535.357586
505.325856	2537.154757
505.691385	2536.073430
506.056856	2535.665097
506.422270	2537.706764
506.787625	2535.007226
507.152924	2535.776002
507.518164	2536.479243
507.883347	2536.844727
508.248472	2538.135262
508.613540	2537.578214
508.978550	2534.477905
509.343503	2537.694161
509.708398	2540.676003
510.073236	2537.369007
510.438016	2535.380271
510.802738	2538.858668
511.167403	2538.178112
511.532010	2535.783564
511.896561	2539.035108
512.261053	2539.234233
512.625488	2535.786084
512.989866	2536.038142
513.354186	2534.518234
513.718449	2532.567307
514.082655	2535.508821
514.446803	2538.586445
514.810894	2539.120807
515.174927	2539.904707
515.538904	2538.309182
515.902822	2538.304141
516.266684	2537.737011
516.630488	2536.567463
516.994235	2539.428318
517.357925	2540.033256
517.721558	2536.267514
518.085133	2537.860519
518.448651	2535.705426
518.812112	2538.833462
519.175516	2538.243647
519.538863	2539.451003
519.902152	2538.346990
520.265385	2538.702392
520.628560	2538.188194
520.991678	2538.233564
521.354739	2536.272556
521.717743	2535.793646
522.080690	2539.365303
522.443580	2537.424459
522.806413	2538.805735
523.169189	2534.223327
523.531908	2537.893287
523.894569	2542.334543
524.257174	2539.904707
524.619722	2537.996630
524.982213	2540.534851
525.344647	2538.173071
525.707025	2538.752803
526.069345	2539.445962
526.431608	2536.791794
526.793815	2538.226003
527.155964	2535.710467
527.518057	2538.599048
527.880093	2535.415559
528.242072	2539.763555
528.603995	2537.442103
528.965860	2539.317413
529.327669	2537.812628
529.689421	2537.041332
530.051117	2540.885211
530.412755	2538.334387
530.774337	2542.432846
531.135862	2539.829090
531.497331	2538.523431
531.858743	2537.051414
532.220098	2539.415715
532.581396	2532.133768
532.942638	2536.038142
533.303824	2538.228523
533.664953	2538.226003
534.026025	2539.703061
534.387040	2540.449152
534.747999	2535.425642
535.108902	2537.968904
535.469748	2541.308668
535.830537	2539.075437
536.191270	2538.745242
536.551947	2539.423277
536.912567	2537.742052
537.273131	2538.745242
537.633638	2541.328833
537.994089	2538.145344
538.354483	2539.574511
538.714821	2539.337577
539.075103	2541.076775
539.435328	2538.939326
539.795497	2538.576363
540.155609	2539.163657
540.515665	2538.450334
540.875665	2539.340098
541.235609	2537.880684
541.595496	2540.557536
541.955328	2537.429500
542.315102	2540.910417
542.674821	2535.818852
543.034483	2539.748431
543.394090	2539.665252
543.753640	2541.094419
544.113134	2537.953780
544.472571	2537.358924
544.831953	2538.546116
545.191278	2542.132897
545.550548	2540.605427
545.909761	2538.765406
546.268918	2541.727084
546.628019	2538.125180
546.987064	2538.364634
547.346053	2540.544933
547.704986	2541.477547
548.063863	2538.490663
548.422684	2541.951415
548.781449	2538.072248
549.140158	2539.882022
549.498811	2539.924872
549.857408	2539.566950
550.215949	2536.562422
550.574434	2538.079809
550.932864	2538.220962
551.291237	2533.346166
551.649555	2541.434697
552.007817	2539.239275
552.366022	2537.532844
552.724173	2541.142310
553.082267	2539.950077
553.440305	2538.568801
553.798288	2539.040149
554.156215	2539.967721
554.514086	2540.393699
554.871902	2539.786240
555.229661	2541.485109
555.587365	2540.655839
555.945014	2540.378575
556.302606	2536.471681
556.660143	2539.574511
557.017625	2538.941847
557.375050	2538.331867
557.732421	2536.993441
558.089735	2542.972249
558.446994	2539.269522
558.804197	2537.706764
559.161345	2541.270860
559.518437	2538.843544
559.875474	2536.895138
560.232455	2541.091899
560.589381	2540.368493
560.946251	2539.854295
561.303065	2538.455375
561.659825	2539.067875
562.016528	2537.532844
562.373177	2540.529810
562.729770	2538.699871
563.086307	2542.637012
563.442789	2537.585776
563.799216	2540.890253
564.155587	2542.246323
564.511904	2540.905376
564.868164	2543.811601
565.224370	2540.343287
565.580520	2539.773637
565.936615	2541.021323
566.292654	2539.430838
566.648638	2542.473175
567.004567	2538.092412
567.360441	2541.676672
567.716260	2539.108205
568.072023	2539.347659
568.427732	2536.020498
568.783385	2537.363965
569.138982	2535.755837
569.494525	2541.129707
569.850013	2533.494880
570.205445	2538.162988
570.560823	2537.545447
570.916145	2538.692309
571.271412	2540.277752
571.626625	2541.333874
571.981782	2541.248174
572.336884	2540.406302
572.691931	2539.498894
573.046923	2536.912782
573.401860	2538.596527
573.756743	2541.848072
574.111570	2539.662732
574.466342	2541.722043
574.821059	2539.541744
575.175722	2539.781199
575.530330	2540.048380
575.884882	2538.755324
576.239380	2541.260777
576.593823	2542.021992
576.948211	2541.127187
577.302544	2540.698689
577.656823	2538.974614
578.011047	2540.305479
578.365216	2542.561395
578.719330	2540.751621
579.073389	2540.592824
579.427394	2537.915972
579.781344	2540.292876
580.135239	2540.320602
580.489080	2539.587114
580.842866	2540.509645
581.196597	2544.270346
581.550273	2541.704399
581.903895	2539.403112
582.257463	2539.299768
582.610975	2539.619882
582.964434	2542.821014
583.317837	2538.941847
583.671186	2539.461085
584.024481	2542.891591
584.377721	2539.488812
584.730906	2539.473688
585.084037	2540.703730
585.437113	2542.236241
585.790135	2542.198432
586.143103	2539.166178
586.496016	2540.350849
586.848874	2536.068389
587.201679	2540.779347
587.554428	2536.194418
587.907124	2538.951929
588.259765	2533.686444
588.612352	2541.432177
588.964884	2539.866898
589.317362	2541.659028
589.669786	2541.107022
590.022155	2541.396888
590.374470	2539.725746
590.726731	2541.427135
591.078937	2540.923020
591.431090	2540.925541
591.783188	2539.451003
592.135232	2542.947043
592.487222	2538.057124
592.839157	2540.605427
593.191038	2539.244316
593.542866	2541.500232
593.894639	2539.738349
594.246358	2539.713143
594.598022	2539.980324
594.949633	2542.062321
595.301190	2538.147865
595.652692	2541.114584
596.004141	2537.384130
596.355535	2538.835982
596.706876	2539.433359
597.058162	2539.856816
597.409395	2539.453524
597.760573	2538.722556
598.111698	2538.929244
598.462768	2540.340767
598.813785	2540.197094
599.164748	2540.015612
599.515657	2540.807073
599.866511	2541.434697
600.217312	2538.599048
600.568060	2540.670962
600.918753	2540.728936
601.269392	2540.408822
601.619978	2540.605427
601.970510	2541.659028
602.320988	2541.162475
602.671412	2542.374872
603.021783	2538.465457
603.372100	2539.864378
603.722363	2537.807587
604.072572	2538.087371
604.422728	2538.127700
604.772830	2535.012267
605.122878	2536.126362
605.472872	2535.337422
605.822813	2534.601413
606.172701	2540.302958
606.522534	2539.786240
606.872314	2539.216589
607.222041	2540.038297
607.571714	2540.018133
607.921333	2540.126518
608.270899	2538.568801
608.620411	2541.049049
608.969870	2541.694317
609.319276	2543.640202
609.668627	2541.641384
610.017926	2545.306303
610.367171	2547.345450
610.716362	2544.943340
611.065500	2544.338402
611.414585	2542.752959
611.763616	2543.136087
612.112594	2540.607948
612.461518	2541.359080
612.810389	2539.108205
613.159207	2541.943854
613.507971	2542.740356
613.856682	2543.597352
614.205340	2543.436035
614.553945	2544.126673
614.902496	2540.900335
615.250994	2541.512835
615.599439	2539.680376
615.947830	2541.122146
616.296169	2540.209697
616.644454	2541.608617
616.992686	2539.970242
617.340864	2544.550130
617.688990	2538.646939
618.037063	2539.844213
618.385082	2538.362114
618.733048	2542.687424
619.080961	2540.066024
619.428821	2540.476878
619.776628	2538.916641
620.124382	2540.824717
620.472083	2539.703061
620.819731	2539.894625
621.167326	2539.224151
621.514868	2538.077289
621.862357	2538.190715
622.209793	2540.111394
622.557176	2542.682383
622.904506	2538.152906
623.251783	2535.080323
623.599007	2533.411701
623.946179	2534.533357
624.293297	2536.479243
624.640363	2540.088709
624.987376	2538.513348
625.334336	2537.205169
625.681243	2538.493184
626.028097	2539.589635
626.374899	2539.735828
626.721647	2539.118287
627.068343	2538.127700
627.414987	2541.094419
627.761577	2540.033256
628.108115	2542.034594
628.454600	2537.681558
628.801032	2540.537372
629.147412	2541.056611
629.493739	2539.017464
629.840014	2539.234233
630.186236	2539.327495
630.532405	2540.683565
630.878521	2538.316743
631.224585	2540.428987
631.570597	2536.804397
631.916556	2540.088709
632.262462	2539.947557
632.608316	2537.240457
632.954117	2537.101825
633.299866	2540.320602
633.645562	2539.181301
633.991206	2541.598535
634.336797	2539.047711
634.682336	2539.340098
635.027823	2537.805066
635.373257	2536.146527
635.718639	2537.918492
636.063968	2538.881353
636.409245	2537.001002
636.754470	2538.805735
637.099642	2536.814480
637.444762	2539.352701
637.789829	2537.066537
638.134845	2538.208359
638.479808	2539.173740
638.824719	2538.838503
639.169577	2538.772968
639.514383	2538.283976
639.859137	2538.092412
640.203839	2538.087371
640.548489	2536.393543
640.893086	2535.418080
641.237632	2532.539581
641.582125	2534.097298
641.926566	2537.467309
642.270955	2536.585107
642.615292	2537.462268
642.959576	2538.127700
643.303809	2541.769934
643.647990	2538.843544
643.992118	2536.706095
644.336195	2538.760365
