Dividing Wavelength (nm)	Counts (n)	Blue Motor Position (mm): 21.300000	Red Motor Position (mm): 0.000000	
326.493990	2187.122240
326.888308	2187.122240
327.282561	2187.122240
327.676750	2146.533390
328.070874	2143.687659
328.464933	2144.302679
328.858929	2145.928452
329.252859	2154.095121
329.646726	2162.589465
330.040528	2170.466268
330.434265	2186.361026
330.827938	2206.351722
331.221547	2221.049206
331.615091	2237.291803
332.008571	2259.553539
332.401986	2273.774634
332.795338	2294.186266
333.188625	2310.050777
333.581847	2329.252532
333.975006	2349.457476
334.368100	2369.095291
334.761129	2383.704555
335.154095	2405.116856
335.546996	2428.240629
335.939833	2460.846812
336.332606	2474.336939
336.725315	2488.724392
337.117960	2501.566732
337.510540	2511.603669
337.903056	2523.589012
338.295508	2534.815662
338.687896	2541.490150
339.080220	2545.049204
339.472480	2555.315514
339.864676	2561.470763
340.256807	2566.945456
340.648875	2569.806311
341.040879	2571.578277
341.432818	2575.223031
341.824694	2577.920048
342.216506	2579.351736
342.608253	2579.689493
342.999937	2580.533886
343.391557	2580.730491
343.783113	2578.348546
344.174605	2579.031622
344.566033	2581.017837
344.957397	2576.901735
345.348697	2576.221179
345.739934	2574.499625
346.131106	2571.651373
346.522215	2570.892680
346.913260	2569.372772
347.304241	2566.267421
347.695159	2564.026628
348.086012	2563.983778
348.476802	2562.849519
348.867528	2556.023796
349.258191	2554.793755
349.648789	2550.536500
350.039324	2550.097920
350.429796	2553.614125
350.820203	2551.595143
351.210548	2551.569937
351.600828	2548.104144
351.991045	2546.526263
352.381198	2547.436191
352.771288	2547.955430
353.161314	2546.715306
353.551276	2548.429298
353.941175	2543.451159
354.331010	2543.993083
354.720782	2545.765048
355.110490	2545.999462
355.500135	2543.831766
355.889717	2544.260264
356.279235	2546.745553
356.668689	2544.038453
357.058080	2545.071890
357.447408	2544.943340
357.836672	2546.831252
358.225873	2546.168341
358.615010	2547.095913
359.004084	2545.918803
359.393095	2548.227652
359.782043	2545.515511
360.170927	2547.985677
360.559748	2547.070707
360.948505	2548.278063
361.337199	2549.883671
361.725830	2546.047353
362.114398	2552.658826
362.502903	2551.824515
362.891344	2552.936090
363.279722	2553.064639
363.668037	2552.489948
364.056289	2551.111192
364.444478	2553.180586
364.832603	2552.421892
365.220665	2555.991029
365.608665	2553.208312
365.996601	2556.366595
366.384474	2556.106975
366.772284	2556.013714
367.160031	2553.379711
367.547715	2556.873231
367.935336	2555.686039
368.322893	2554.178734
368.710388	2552.618497
369.097820	2554.284598
369.485189	2556.308622
369.872495	2557.021945
370.259738	2558.567058
370.646918	2559.983623
371.034035	2558.254507
371.421090	2560.328942
371.808081	2558.710731
372.195010	2559.736606
372.581875	2562.126113
372.968678	2559.731565
373.355418	2562.027811
373.742096	2560.906154
374.128710	2560.394477
374.515262	2560.762481
374.901751	2561.168294
375.288177	2564.014025
375.674540	2560.984292
376.060841	2562.519323
376.447079	2561.853891
376.833254	2564.629046
377.219367	2562.680640
377.605417	2567.096691
377.991404	2565.914540
378.377329	2563.504869
378.763191	2565.218861
379.148991	2564.520661
379.534727	2565.838923
379.920402	2565.138202
380.306013	2565.324725
380.691563	2567.978893
381.077049	2563.227605
381.462474	2564.951680
381.847835	2564.422359
382.233134	2569.531568
382.618371	2568.067113
383.003545	2567.056362
383.388657	2562.448747
383.773706	2566.758933
384.158693	2568.644325
384.543618	2567.021073
384.928480	2568.374623
385.313280	2570.680951
385.698017	2568.861095
386.082692	2569.370251
386.467305	2569.682803
386.851856	2569.009809
387.236344	2568.888821
387.620770	2568.430076
388.005133	2564.424879
388.389435	2565.881773
388.773674	2563.797256
389.157851	2569.261866
389.541965	2570.262535
389.926018	2573.433421
390.310008	2571.681620
390.693936	2571.747155
391.077802	2570.570046
391.461606	2571.268246
391.845348	2571.805128
392.229027	2572.891497
392.612645	2574.602969
392.996200	2576.725295
393.379694	2574.277814
393.763125	2571.805128
394.146494	2572.344532
394.529801	2573.541806
394.913047	2574.234965
395.296230	2575.946436
395.679351	2574.303020
396.062410	2573.294789
396.445408	2575.835531
396.828343	2575.931313
397.211217	2575.817887
397.594028	2578.446849
397.976778	2575.091961
398.359466	2576.707651
398.742092	2574.713874
399.124656	2577.851992
399.507158	2576.135480
399.889598	2575.792681
400.271977	2577.756211
400.654294	2577.433577
401.036549	2577.100861
401.418742	2579.734863
401.800874	2576.639595
402.182944	2575.374265
402.564952	2577.809143
402.946898	2575.878381
403.328783	2578.530028
403.710606	2579.324009
404.092367	2578.963567
404.474067	2577.100861
404.855705	2579.921386
405.237282	2579.190419
405.618797	2578.900552
406.000250	2583.596387
406.381642	2580.614545
406.762972	2577.846951
407.144240	2581.663105
407.525447	2578.209914
407.906593	2576.884091
408.287677	2582.225193
408.668700	2584.912128
409.049661	2583.971953
409.430560	2583.911459
409.811399	2581.098496
410.192176	2585.922880
410.572891	2582.273084
410.953545	2582.618403
411.334138	2583.969433
411.714669	2583.999680
412.095139	2582.993969
412.475547	2583.364494
412.855894	2584.405492
413.236180	2581.330389
413.616405	2589.005545
413.996568	2586.626121
414.376670	2583.551017
414.756711	2585.353229
415.136691	2585.431367
415.516609	2584.879361
415.896466	2586.217787
416.276262	2586.953796
416.655997	2588.856831
417.035670	2586.855493
417.415283	2588.440936
417.794834	2586.845411
418.174324	2586.275761
418.553753	2587.709969
418.933121	2589.207192
419.312428	2588.493868
419.691674	2588.917325
420.070859	2589.587799
420.449983	2588.604774
420.829045	2587.341965
421.208047	2587.268868
421.586988	2588.637541
421.965867	2590.159970
422.344686	2589.718869
422.723444	2591.059816
423.102141	2587.631831
423.480777	2589.343303
423.859352	2592.612491
424.237866	2590.979157
424.616319	2590.966554
424.994712	2592.746082
425.373044	2588.740885
425.751314	2588.425813
426.129524	2590.064188
426.507673	2588.839187
426.885762	2584.649988
427.263789	2592.128540
427.641756	2589.318097
428.019662	2592.834302
428.397508	2592.516709
428.775292	2591.702563
429.153016	2594.412183
429.530679	2592.594847
429.908282	2593.842532
430.285824	2593.850094
430.663305	2595.165835
431.040726	2592.299939
431.418086	2594.281113
431.795385	2594.825557
432.172624	2594.712132
432.549802	2595.317070
432.926920	2593.608119
433.303977	2593.953438
433.680974	2595.034765
434.057910	2596.531988
434.434786	2595.614498
434.811601	2597.416711
435.188355	2596.017790
435.565050	2596.368151
435.941683	2595.745568
436.318257	2594.926381
436.694770	2597.086515
437.071222	2597.741865
437.447614	2596.405959
437.823946	2597.845209
438.200218	2599.932246
438.576429	2597.502410
438.952580	2598.114910
439.328670	2597.862853
439.704700	2597.764550
440.080670	2598.525764
440.456580	2600.199427
440.832429	2597.411669
441.208218	2598.303954
441.583947	2599.634818
441.959616	2600.741352
442.335224	2599.405446
442.710773	2602.014243
443.086261	2599.266814
443.461689	2602.586414
443.837057	2600.174222
444.212365	2600.310333
444.587612	2598.520723
444.962800	2595.022162
445.337927	2598.740013
445.712995	2599.468460
446.088002	2599.816300
446.462949	2602.730087
446.837837	2602.720004
447.212664	2601.147164
447.587431	2604.217227
447.962139	2603.408122
448.336786	2606.238730
448.711374	2609.626385
449.085901	2605.177567
449.460369	2604.048348
449.834776	2608.121601
450.209124	2602.961980
450.583412	2607.131014
450.957640	2607.511621
451.331808	2609.681838
451.705917	2609.180243
452.079965	2604.991044
452.453954	2606.100098
452.827883	2607.277207
453.201752	2608.429111
453.575562	2607.186467
453.949311	2609.255860
454.323001	2605.923658
454.696632	2607.151179
455.070202	2608.595469
455.443713	2611.060593
455.817164	2610.969853
456.190556	2610.806015
456.563888	2614.407920
456.937160	2611.877260
457.310373	2610.294338
457.683526	2608.986159
458.056619	2611.174019
458.429653	2612.343567
458.802628	2613.538321
459.175542	2612.467075
459.548398	2614.871706
459.921194	2612.484719
460.293930	2614.397837
460.666607	2617.994701
461.039224	2619.577623
461.411782	2620.734568
461.784280	2620.560648
462.156719	2620.474948
462.529099	2621.984774
462.901419	2620.548045
463.273680	2616.444546
463.645882	2614.060080
464.018024	2616.074021
464.390106	2615.791716
464.762130	2623.804630
465.134094	2624.424692
465.505999	2628.344189
465.877845	2631.620939
466.249631	2637.871970
466.621358	2639.843061
466.993026	2638.035808
467.364634	2641.173926
467.736184	2638.053452
468.107674	2637.521610
468.479105	2638.408853
468.850477	2639.565798
469.221790	2639.412043
469.593043	2637.577063
469.964238	2639.175108
470.335373	2638.101343
470.706449	2645.370687
471.077467	2642.222486
471.448425	2648.332364
471.819324	2662.964313
472.190164	2668.935560
472.560945	2664.171670
472.931667	2658.704538
473.302330	2660.345434
473.672934	2662.031700
474.043479	2666.288954
474.413965	2666.767864
474.784393	2672.270283
475.154761	2680.005934
475.525070	2683.476768
475.895321	2689.243848
476.265513	2696.457740
476.635645	2703.321271
477.005719	2710.946016
477.375734	2720.312480
477.745691	2729.149622
478.115588	2746.861716
478.485427	2756.412182
478.855207	2777.025460
479.224928	2810.299596
479.594591	2849.943230
479.964194	2864.096270
480.333739	2877.772920
480.703226	2888.918911
481.072653	2909.542272
481.442022	2941.644339
481.811333	2988.252327
482.180584	3011.774351
482.549777	3024.621732
482.918912	3045.653425
483.287988	3089.556834
483.657005	3116.700927
484.025964	3147.681338
484.394864	3178.329033
484.763706	3207.164433
485.132489	3237.701222
485.501213	3280.576236
485.869879	3330.864266
486.238487	3366.893393
486.607036	3432.072991
486.975527	3469.992550
487.343959	3543.149775
487.712333	3602.612705
488.080648	3643.504025
488.448905	3740.654621
488.817104	3792.301242
489.185244	3910.992689
489.553326	3991.232735
489.921350	4129.614928
490.289315	4402.164911
490.657222	4653.620185
491.025070	4787.702275
491.392861	4871.486252
491.760593	4903.915994
492.128267	4938.248773
492.495883	4931.869193
492.863440	4964.246003
493.230939	4978.809897
493.598380	5085.710084
493.965763	5142.259228
494.333088	5205.543353
494.700354	5308.335000
495.067563	5421.022432
495.434713	5512.267317
495.801805	5619.563236
496.168839	5750.781950
496.535815	5851.279872
496.902733	6001.433160
497.269593	6055.176901
497.636395	6239.428554
498.003139	6357.197469
498.369825	6485.462067
498.736453	6622.548684
499.103023	6734.059007
499.469535	6886.609364
499.835989	7071.566778
500.202385	7243.838128
500.568723	7278.629652
500.935003	7448.629962
501.301226	7538.738067
501.667390	7843.243923
502.033497	8114.820963
502.399546	8159.331831
502.765537	8258.486286
503.131470	8482.500040
503.497345	8692.532153
503.863163	8631.692988
504.228923	8974.385585
504.594625	9207.682623
504.960269	9209.958704
505.325856	9542.284169
505.691385	9553.914111
506.056856	9879.355880
506.422270	10092.195916
506.787625	10095.533159
507.152924	10466.554521
507.518164	10603.444533
507.883347	10713.124917
508.248472	10759.604356
508.613540	11235.648075
508.978550	11380.016639
509.343503	11545.585775
509.708398	11843.762463
510.073236	12071.811661
510.438016	12336.099192
510.802738	12426.335846
511.167403	12710.596429
511.532010	12761.764141
511.896561	13326.693485
512.261053	13548.862176
512.625488	13639.355928
512.989866	13773.339715
513.354186	13865.418911
513.718449	14146.425429
514.082655	14493.410569
514.446803	14597.258338
514.810894	15002.350338
515.174927	14915.624848
515.538904	15132.580986
515.902822	15574.937195
516.266684	15665.761143
516.630488	15770.602019
516.994235	15968.598378
517.357925	16312.528578
517.721558	16631.260572
518.085133	16865.066766
518.448651	17010.713263
518.812112	17031.717230
519.175516	17293.975697
519.538863	17633.305845
519.902152	17655.933064
520.265385	18069.675684
520.628560	18090.631760
520.991678	18288.136606
521.354739	18523.359365
521.717743	18754.327390
522.080690	18750.206247
522.443580	19198.256439
522.806413	19334.118056
523.169189	19614.426374
523.531908	19778.480644
523.894569	19680.979687
524.257174	19892.496421
524.619722	20212.171109
524.982213	20117.044536
525.344647	20371.224554
525.707025	20572.245605
526.069345	20749.469889
526.431608	20864.468691
526.793815	21161.606901
527.155964	20823.088379
527.518057	21125.111468
527.880093	21220.994214
528.242072	21490.401037
528.603995	21400.164384
528.965860	21361.171059
529.327669	21576.647618
529.689421	21663.236997
530.051117	21636.821351
530.412755	21934.486362
530.774337	21857.669260
531.135862	21867.784335
531.497331	22151.508035
531.858743	21861.553469
532.220098	22407.081932
532.581396	22189.525897
532.942638	22283.603910
533.303824	22440.585441
533.664953	22557.036095
534.026025	22351.334332
534.387040	22650.012616
534.747999	22823.370335
535.108902	23032.056460
535.469748	22651.018326
535.830537	22924.337084
536.191270	23080.025559
536.551947	23082.039500
536.912567	22837.049506
537.273131	23174.569879
537.633638	22996.700327
537.994089	23267.677470
538.354483	22911.945928
538.714821	23430.773920
539.075103	23543.673081
539.435328	23389.350759
539.795497	23017.406867
540.155609	23472.882678
540.515665	23789.474702
540.875665	23115.797587
541.235609	23418.483587
541.595496	23461.313230
541.955328	23839.251055
542.315102	23800.534993
542.674821	23441.950158
543.034483	23343.753523
543.394090	23541.742319
543.753640	23357.568805
544.113134	24021.382902
544.472571	23674.717876
544.831953	23986.687161
545.191278	23619.678558
545.550548	23608.860242
545.909761	23830.207225
546.268918	24075.224946
546.628019	24056.844899
546.987064	23814.352796
547.346053	23597.295835
547.704986	23741.608946
548.063863	23912.534308
548.422684	23913.744185
548.781449	23524.425956
549.140158	23922.997223
549.498811	23517.201982
549.857408	23266.752418
550.215949	23743.398556
550.574434	23420.797477
550.932864	23660.234641
551.291237	23814.930008
551.649555	23698.920455
552.007817	23759.167285
552.366022	23654.147447
552.724173	23700.639489
553.082267	23638.983657
553.440305	24117.641214
553.798288	23419.020470
554.156215	23944.545635
554.514086	24025.088150
554.871902	23400.325351
555.229661	23692.054404
555.587365	23563.777203
555.945014	23410.513523
556.302606	23696.316699
556.660143	23623.401450
557.017625	23897.688110
557.375050	23439.081742
557.732421	23840.912115
558.089735	23647.208299
558.446994	23710.757084
558.804197	23732.401278
559.161345	23705.650396
559.518437	23439.890847
559.875474	23645.466580
560.232455	23830.855013
560.589381	23673.444984
560.946251	23630.270022
561.303065	23965.494150
561.659825	24040.093145
562.016528	23664.796885
562.373177	23400.216966
562.729770	23751.489608
563.086307	23632.717502
563.442789	23802.014572
563.799216	23622.806594
564.155587	23644.501199
564.511904	23630.678356
564.868164	23560.601276
565.224370	23550.203896
565.580520	23446.613226
565.936615	23599.818932
566.292654	23257.764041
566.648638	23583.157919
567.004567	23402.019179
567.360441	23354.934802
567.716260	23078.190579
568.072023	23409.250714
568.427732	23156.628412
568.783385	22967.438950
569.138982	23177.234129
569.494525	23240.682091
569.850013	22968.545483
570.205445	23076.055651
570.560823	22888.670921
570.916145	22641.684629
571.271412	22818.982010
571.626625	22572.424217
571.981782	22690.114994
572.336884	22494.770283
572.691931	22624.242237
573.046923	22360.277339
573.401860	22248.187284
573.756743	22243.120924
574.111570	22162.502792
574.466342	22092.428233
574.821059	22192.288449
575.175722	21889.781410
575.530330	21874.070654
575.884882	21911.544071
576.239380	21808.835603
576.593823	21707.185776
576.948211	21680.346673
577.302544	21529.848066
577.656823	21397.840412
578.011047	21494.776759
578.365216	21367.890917
578.719330	21257.051067
579.073389	21154.082979
579.427394	21296.117489
579.781344	21086.339954
580.135239	20967.993826
580.489080	20941.613468
580.842866	20703.499607
581.196597	20873.925895
581.550273	20876.330526
581.903895	20762.652507
582.257463	21072.312943
582.610975	20607.760534
582.964434	20906.068292
583.317837	20623.309973
583.671186	20713.413036
584.024481	20674.901142
584.377721	20456.818306
584.730906	20495.415900
585.084037	20540.100688
585.437113	20437.311561
585.790135	20640.167592
586.143103	20114.108064
586.496016	20119.527305
586.848874	20370.130624
587.201679	20313.982252
587.554428	19973.084306
587.907124	20303.720984
588.259765	20091.634600
588.612352	20157.764457
588.964884	19729.841071
589.317362	19905.484953
589.669786	19958.548139
590.022155	20018.510143
590.374470	20177.664411
590.726731	19989.611729
591.078937	19737.087730
591.431090	19838.034315
591.783188	19583.017465
592.135232	19564.322346
592.487222	19661.404887
592.839157	19691.150215
593.191038	19569.812163
593.542866	19463.582448
593.894639	19191.269400
594.246358	19405.931813
594.598022	19308.418254
594.949633	19069.659125
595.301190	19025.796046
595.652692	19180.070477
596.004141	19433.827038
596.355535	18769.176109
596.706876	18772.702396
597.058162	18662.351538
597.409395	18880.159632
597.760573	18980.471031
598.111698	18759.360983
598.462768	18684.431792
598.813785	18650.338469
599.164748	18480.862438
599.515657	18500.984204
599.866511	18297.336712
600.217312	18659.657042
600.568060	18194.950877
600.918753	18503.847579
601.269392	18396.665087
601.619978	18167.365683
601.970510	18399.039470
602.320988	18334.099326
602.671412	18551.216781
603.021783	18446.728786
603.372100	18186.264969
603.722363	18312.888672
604.072572	18245.836284
604.422728	18382.363333
604.772830	18152.844640
605.122878	18099.610055
605.472872	18089.225278
605.822813	18081.300584
606.172701	18037.424902
606.522534	18248.787880
606.872314	18267.311600
607.222041	18095.977904
607.571714	18312.198033
607.921333	18145.144277
608.270899	18224.996154
608.620411	18413.676460
608.969870	18170.854162
609.319276	18177.377415
609.668627	18206.301035
610.017926	18339.788268
610.367171	18454.169529
610.716362	18486.243870
611.065500	18315.678950
611.414585	18449.491338
611.763616	18430.944933
612.112594	18382.696049
612.461518	18351.098097
612.810389	18546.886430
613.159207	18391.016474
613.507971	18294.836300
613.856682	18584.629549
614.205340	18512.397376
614.553945	18660.388009
614.902496	18396.818842
615.250994	18653.985744
615.599439	18576.263754
615.947830	18564.406960
616.296169	18602.165203
616.644454	18579.232994
616.992686	18543.466007
617.340864	18765.944729
617.688990	18520.942132
618.037063	18697.279173
618.385082	18546.704949
618.733048	18824.447320
619.080961	18685.319035
619.428821	18737.290811
619.776628	18625.152864
620.124382	18542.755205
620.472083	18579.404393
620.819731	18605.641078
621.167326	18299.264953
621.514868	18337.066045
621.862357	18085.290658
622.209793	18113.014483
622.557176	17939.306404
622.904506	17776.618287
623.251783	17679.565993
623.599007	17455.363197
623.946179	17396.369094
624.293297	17338.287440
624.640363	17096.690142
624.987376	17106.951410
625.334336	16903.785348
625.681243	16747.854898
626.028097	16753.095178
626.374899	16683.030701
626.721647	16565.682722
627.068343	16384.445679
627.414987	16318.721636
627.761577	16297.894109
628.108115	16341.099318
628.454600	16058.890484
628.801032	16154.248951
629.147412	16086.155565
629.493739	16105.788339
629.840014	15917.453352
630.186236	16015.869278
630.532405	15779.776919
630.878521	15975.033411
631.224585	15870.976434
631.570597	15692.905236
631.916556	15727.117026
632.262462	15710.519027
632.608316	15625.016017
632.954117	15566.079887
633.299866	15562.417489
633.645562	15494.820657
633.991206	15241.462347
634.336797	15105.847747
634.682336	15078.000413
635.027823	14972.136182
635.373257	14854.064797
635.718639	14743.492129
636.063968	14694.277865
636.409245	14458.571155
636.754470	14481.029495
637.099642	14328.143902
637.444762	14096.439868
637.789829	14146.180933
638.134845	13973.191218
638.479808	14004.431249
638.824719	13961.334425
