Dividing Wavelength (nm)	Counts (n)	Blue Motor Position (mm): 0.000000	Red Motor Position (mm): 29.600000	
326.493990	2128.309619
326.888308	2128.309619
327.282561	2128.309619
327.676750	2092.837540
328.070874	2094.894331
328.464933	2095.058168
328.858929	2103.439086
329.252859	2110.945364
329.646726	2122.154370
330.040528	2137.577780
330.434265	2153.936324
330.827938	2169.415187
331.221547	2186.812209
331.615091	2208.688296
332.008571	2224.409135
332.401986	2244.082238
332.795338	2267.755496
333.188625	2285.462549
333.581847	2303.134314
333.975006	2321.431182
334.368100	2340.529593
334.761129	2357.157839
335.154095	2375.036291
335.546996	2391.861142
335.939833	2410.044584
336.332606	2423.496903
336.725315	2438.141455
337.117960	2444.387444
337.510540	2457.441512
337.903056	2466.586165
338.295508	2475.120839
338.687896	2480.484627
339.080220	2488.187510
339.472480	2496.228150
339.864676	2500.490446
340.256807	2505.771054
340.648875	2506.718791
341.040879	2510.628206
341.432818	2514.285563
341.824694	2514.981242
342.216506	2513.947806
342.608253	2515.855882
342.999937	2514.726664
343.391557	2516.007117
343.783113	2510.829852
344.174605	2515.487878
344.566033	2511.452435
344.957397	2508.488236
345.348697	2508.263905
345.739934	2507.477485
346.131106	2505.143431
346.522215	2503.711743
346.913260	2499.764519
347.304241	2501.662514
347.695159	2496.197903
348.086012	2498.390805
348.476802	2495.524909
348.867528	2495.134220
349.258191	2492.936277
349.648789	2494.020125
350.039324	2490.955103
350.429796	2489.846049
350.820203	2488.774804
351.210548	2488.679022
351.600828	2488.840339
351.991045	2487.448981
352.381198	2485.288846
352.771288	2484.230204
353.161314	2483.995790
353.551276	2485.906388
353.941175	2482.344812
354.331010	2485.493013
354.720782	2483.920173
355.110490	2482.697693
355.500135	2483.201808
355.889717	2483.799185
356.279235	2482.639720
356.668689	2485.130050
357.058080	2485.014103
357.447408	2485.611480
357.836672	2480.771972
358.225873	2487.277581
358.615010	2481.679380
359.004084	2488.313538
359.393095	2488.089207
359.782043	2489.253714
360.170927	2490.357726
360.559748	2490.410658
360.948505	2490.357726
361.337199	2493.831081
361.725830	2492.906030
362.114398	2494.224291
362.502903	2492.341420
362.891344	2493.006853
363.279722	2492.482573
363.668037	2497.856443
364.056289	2495.681185
364.444478	2498.607575
364.832603	2495.378716
365.220665	2497.642194
365.608665	2499.126813
365.996601	2498.902482
366.384474	2499.411639
366.772284	2504.193173
367.160031	2504.803153
367.547715	2506.426404
367.935336	2509.309944
368.322893	2512.009482
368.710388	2513.214318
369.097820	2521.239835
369.485189	2520.828981
369.872495	2529.227543
370.259738	2536.572504
370.646918	2544.340922
371.034035	2550.780996
371.421090	2559.419013
371.808081	2568.344376
372.195010	2578.661098
372.581875	2592.456215
372.968678	2604.436517
373.355418	2614.924638
373.742096	2634.834675
374.128710	2647.059473
374.515262	2662.888696
374.901751	2680.497447
375.288177	2689.823581
375.674540	2715.278887
376.060841	2733.225395
376.447079	2751.663415
376.833254	2774.542692
377.219367	2785.759259
377.605417	2822.327789
377.991404	2829.914726
378.377329	2853.381297
378.763191	2868.726569
379.148991	2909.542272
379.534727	2933.999429
379.920402	2962.091259
380.306013	2974.424442
380.691563	3020.787934
381.077049	3046.023950
381.462474	3065.628997
381.847835	3103.664503
382.233134	3125.210395
382.618371	3124.552524
383.003545	3194.395190
383.388657	3196.474666
383.773706	3232.191241
384.158693	3247.478540
384.543618	3275.144393
384.928480	3311.322233
385.313280	3358.714120
385.698017	3354.968543
386.082692	3406.290010
386.467305	3411.429466
386.851856	3443.385340
387.236344	3469.014567
387.620770	3498.578413
388.005133	3526.105634
388.389435	3553.340467
388.773674	3561.577713
389.157851	3606.401132
389.541965	3624.667753
389.926018	3582.808532
390.310008	3658.657733
390.693936	3673.478725
391.077802	3716.744428
391.461606	3706.886452
391.845348	3767.246708
392.229027	3763.680091
392.612645	3779.242133
392.996200	3857.432950
393.379694	3901.212850
393.763125	3961.744505
394.146494	3930.126388
394.529801	3992.324144
394.913047	4039.340466
395.296230	4009.063296
395.679351	4060.823343
396.062410	4085.051128
396.445408	4066.053540
396.828343	4095.430864
397.211217	4120.155203
397.594028	4042.677710
397.976778	4108.560549
398.359466	4134.842605
398.742092	4165.540711
399.124656	4086.150100
399.507158	4169.470291
399.889598	4192.208415
400.271977	4252.800564
400.654294	4224.257551
401.036549	4231.327769
401.418742	4201.731155
401.800874	4305.911640
402.182944	4324.117767
402.564952	4388.102612
402.946898	4378.446282
403.328783	4373.450499
403.710606	4284.600162
404.092367	4481.333712
404.474067	4444.016570
404.855705	4451.681645
405.237282	4379.391498
405.618797	4487.683045
406.000250	4523.160165
406.381642	4601.356023
406.762972	4565.286567
407.144240	4578.819545
407.525447	4580.803239
407.906593	4637.402793
408.287677	4675.473587
408.668700	4605.905664
409.049661	4655.782840
409.430560	4698.476372
409.811399	4626.965084
410.192176	4789.446514
410.572891	4726.225404
410.953545	4830.433615
411.334138	4712.599165
411.714669	4778.953352
412.095139	4671.584337
412.475547	4817.379547
412.855894	4794.782575
413.236180	4807.110717
413.616405	4758.118263
413.996568	4845.683106
414.376670	4786.076503
414.756711	4744.141664
415.136691	4774.007980
415.516609	4851.243498
415.896466	4890.509046
416.276262	4924.257050
416.655997	4901.342485
417.035670	5083.799487
417.415283	5175.172921
417.794834	5119.276607
418.174324	5072.340944
418.553753	4982.447089
418.933121	5164.417619
419.312428	5234.580399
419.691674	5171.492879
420.070859	5298.915604
420.449983	5210.468560
420.829045	5323.660108
421.208047	5231.064194
421.586988	5303.465245
421.965867	5315.919416
422.344686	5450.611485
422.723444	5303.417354
423.102141	5123.463286
423.480777	5417.244088
423.859352	5191.627247
424.237866	5447.513696
424.616319	5439.901554
424.994712	5548.611516
425.373044	5425.050314
425.751314	5566.842849
426.129524	5375.120206
426.507673	5565.338064
426.885762	5649.462319
427.263789	5579.405404
427.641756	5461.762517
428.019662	5582.299026
428.397508	5587.191466
428.775292	5538.403179
429.153016	5638.016379
429.530679	5563.293876
429.908282	5645.686495
430.285824	5519.365262
430.663305	5788.419204
431.040726	5525.812897
431.418086	5525.366755
431.795385	5635.475638
432.172624	5646.790507
432.549802	5640.652903
432.926920	5649.991640
433.303977	5656.925747
433.680974	5695.631727
434.057910	5716.794490
434.434786	5719.113421
434.811601	5690.658628
435.188355	5922.730666
435.565050	5799.083765
435.941683	5783.171363
436.318257	5996.880998
436.694770	5978.906764
437.071222	6012.836250
437.447614	5943.084325
437.823946	5857.278845
438.200218	6009.672926
438.576429	5874.912801
438.952580	5971.682791
439.328670	6015.210633
439.704700	5927.028250
440.080670	5913.812865
440.456580	6184.154822
440.832429	6065.607048
441.208218	5911.541825
441.583947	6067.293314
441.959616	6068.152831
442.335224	6000.981977
442.710773	6134.761597
443.086261	6158.230689
443.461689	5955.331808
443.837057	6105.061639
444.212365	6261.599548
444.587612	6150.671478
444.962800	6302.228728
445.337927	6284.907323
445.712995	5892.002313
446.088002	6475.407486
446.462949	6302.130425
446.837837	6233.830352
447.212664	6409.065901
447.587431	6550.719804
447.962139	7089.808193
448.336786	8015.159872
448.711374	7748.727330
449.085901	6831.018040
449.460369	6757.452482
449.834776	6686.568818
450.209124	7079.403252
450.583412	7223.585293
450.957640	7371.802778
451.331808	7139.571943
451.705917	6687.476225
452.079965	6612.524350
452.453954	6823.090825
452.827883	6701.352001
453.201752	6795.135107
453.575562	6592.959632
453.949311	6794.933461
454.323001	6683.682757
454.696632	6759.710919
455.070202	6902.773824
455.443713	7051.495424
455.817164	7151.905126
456.190556	7230.713484
456.563888	7305.758621
456.937160	7346.309663
457.310373	7003.491036
457.683526	7025.730087
458.056619	6920.448109
458.429653	6905.123001
458.802628	6836.739749
459.175542	6948.595392
459.548398	7294.789070
459.921194	7450.888399
460.293930	7455.498534
460.666607	7978.762742
461.039224	8278.192157
461.411782	8400.165395
461.784280	8411.122343
462.156719	8303.534037
462.529099	8179.239348
462.901419	7765.403467
463.273680	7655.032445
463.645882	7660.854977
464.018024	7528.683485
464.390106	7683.850201
464.762130	8058.019762
465.134094	8507.267229
465.505999	9485.356939
465.877845	10664.195478
466.249631	11285.464757
466.621358	10913.014229
466.993026	10289.179002
467.364634	10031.928921
467.736184	9665.177417
468.107674	9325.464142
468.479105	9339.816307
468.850477	9098.546684
469.221790	8862.373667
469.593043	8534.270169
469.964238	8381.074545
470.335373	8383.746357
470.706449	8421.315556
471.077467	8378.909369
471.448425	9588.241848
471.819324	10576.968393
472.190164	10583.658004
472.560945	9390.316066
472.931667	8625.547821
473.302330	8484.957602
473.672934	8119.645348
474.043479	8427.125485
474.413965	8355.926749
474.784393	8201.254067
475.154761	8321.306625
475.525070	8371.856795
475.895321	8188.653703
476.265513	8314.680028
476.635645	8438.253833
477.005719	8389.236173
477.375734	8455.870145
477.745691	8623.760732
478.115588	8696.791928
478.485427	8863.008853
478.855207	9266.490204
479.224928	9874.554181
479.594591	10350.797026
479.964194	10149.662549
480.333739	10057.918590
480.703226	9923.692828
481.072653	9933.250855
481.442022	10035.629128
481.811333	10121.308579
482.180584	9914.313761
482.549777	9598.722407
482.918912	9396.909895
483.287988	9340.471657
483.657005	9285.412175
484.025964	8976.916244
484.394864	8998.018514
484.763706	8900.121827
485.132489	8667.482660
485.501213	8561.862925
485.869879	8550.253147
486.238487	8349.209412
486.607036	8363.707770
486.975527	8123.499310
487.343959	8186.160852
487.712333	8135.542626
488.080648	8012.165427
488.448905	7953.551931
488.817104	7837.252512
489.185244	7932.815145
489.553326	7933.674662
489.921350	8173.356321
490.289315	8685.950927
490.657222	8809.154206
491.025070	8648.810226
491.392861	8485.706214
491.760593	8189.488014
492.128267	7895.929022
492.495883	7623.310984
492.863440	7353.465580
493.230939	7082.158242
493.598380	6967.751776
493.965763	6802.782537
494.333088	6685.346338
494.700354	6556.386061
495.067563	6516.820565
495.434713	6342.247927
495.801805	6326.413663
496.168839	6215.868721
496.535815	6098.359425
496.902733	6032.274939
497.269593	5918.221354
497.636395	5891.404936
498.003139	5803.114168
498.369825	5684.024470
498.736453	5658.511190
499.103023	5562.189864
499.469535	5497.690821
499.835989	5425.065438
500.202385	5331.080686
500.568723	5219.167071
500.935003	5235.936469
501.301226	5083.330660
501.667390	5109.030462
502.033497	5067.360284
502.399546	4961.647288
502.765537	4859.679869
503.131470	4813.916275
503.497345	4794.346516
503.863163	4635.663595
504.228923	4644.223475
504.594625	4606.820634
504.960269	4483.423270
505.325856	4471.652176
505.691385	4365.452708
506.056856	4343.911858
506.422270	4289.805153
506.787625	4216.675655
507.152924	4177.188297
507.518164	4126.428919
507.883347	4055.028537
508.248472	3991.875482
508.613540	3979.597752
508.978550	3912.792381
509.343503	3862.020400
509.708398	3834.480576
510.073236	3801.261893
510.438016	3761.885440
510.802738	3708.061041
511.167403	3672.561235
511.532010	3614.678707
511.896561	3611.399436
512.261053	3578.823500
512.625488	3517.626413
512.989866	3478.338181
513.354186	3444.093623
513.718449	3393.540932
514.082655	3383.866958
514.446803	3342.690813
514.810894	3321.270950
515.174927	3275.340998
515.538904	3249.343767
515.902822	3230.449522
516.266684	3195.078267
516.630488	3161.839419
516.994235	3143.240082
517.357925	3118.664457
517.721558	3096.385077
518.085133	3076.066707
518.448651	3057.195147
518.812112	3025.733306
519.175516	3006.297137
519.538863	2987.498675
519.902152	2970.199955
520.265385	2952.565999
520.628560	2936.386416
520.991678	2914.391862
521.354739	2900.745458
521.717743	2886.809188
522.080690	2873.145141
522.443580	2859.322297
522.806413	2844.556757
523.169189	2831.928667
523.531908	2823.525063
523.894569	2805.341622
524.257174	2795.544139
524.619722	2787.289250
524.982213	2779.926644
525.344647	2766.998605
525.707025	2760.636669
526.069345	2752.096955
526.431608	2741.351735
526.793815	2737.840572
527.155964	2730.268758
527.518057	2723.314487
527.880093	2715.140256
528.242072	2710.701520
528.603995	2704.755479
528.965860	2696.414890
529.327669	2692.260979
529.689421	2689.448015
530.051117	2686.814012
530.412755	2682.473579
530.774337	2679.940399
531.135862	2676.005778
531.497331	2669.275838
531.858743	2661.603202
532.220098	2662.845846
532.581396	2656.950217
532.942638	2656.146153
533.303824	2652.939979
533.664953	2653.290339
534.026025	2649.819505
534.387040	2647.974442
534.747999	2645.385810
535.108902	2644.579225
535.469748	2639.885911
535.830537	2639.301137
536.191270	2638.945736
536.551947	2638.144192
536.912567	2634.544809
537.273131	2632.964407
537.633638	2634.731331
537.994089	2632.185549
538.354483	2627.971144
538.714821	2634.386012
539.075103	2630.711011
539.435328	2630.524488
539.795497	2628.460136
540.155609	2626.841926
540.515665	2629.727986
540.875665	2625.032151
541.235609	2624.142388
541.595496	2624.525515
541.955328	2624.172635
542.315102	2621.253807
542.674821	2621.949486
543.034483	2620.822788
543.394090	2620.001080
543.753640	2618.667695
544.113134	2620.157356
544.472571	2619.572582
544.831953	2618.624845
545.191278	2617.097375
545.550548	2617.230966
545.909761	2616.646192
546.268918	2615.781634
546.628019	2617.057046
546.987064	2616.114350
547.346053	2613.785337
547.704986	2614.526387
548.063863	2614.687704
548.422684	2613.586212
548.781449	2610.581684
549.140158	2616.336161
549.498811	2614.392796
549.857408	2611.521859
550.215949	2610.702672
550.574434	2607.436004
550.932864	2609.903649
551.291237	2606.571446
551.649555	2611.519338
552.007817	2612.688886
552.366022	2611.075717
552.724173	2612.837600
553.082267	2611.625203
553.440305	2615.050667
553.798288	2610.085130
554.156215	2611.544544
554.514086	2611.945316
554.871902	2611.688217
555.229661	2610.133021
555.587365	2611.650408
555.945014	2608.882815
556.302606	2608.411467
556.660143	2610.412805
557.017625	2608.166971
557.375050	2611.191663
557.732421	2609.333998
558.089735	2608.154368
558.446994	2609.008844
558.804197	2609.593618
559.161345	2611.390789
559.518437	2607.874584
559.875474	2609.187805
560.232455	2610.165789
560.589381	2609.460027
560.946251	2608.928185
561.303065	2607.196549
561.659825	2607.385592
562.016528	2606.291662
562.373177	2605.157402
562.729770	2608.892897
563.086307	2606.921806
563.442789	2609.107146
563.799216	2607.771241
564.155587	2606.757969
564.511904	2607.403236
564.868164	2605.328802
565.224370	2604.433997
565.580520	2606.301744
565.936615	2607.630088
566.292654	2606.417691
566.648638	2605.099429
567.004567	2605.696806
567.360441	2605.016250
567.716260	2606.561364
568.072023	2607.355345
568.427732	2598.823192
568.783385	2602.669593
569.138982	2603.251846
569.494525	2605.230499
569.850013	2600.000302
570.205445	2606.263936
570.560823	2606.130345
570.916145	2605.036415
571.271412	2603.214037
571.626625	2603.612289
571.981782	2602.377206
572.336884	2604.234871
572.691931	2602.483070
573.046923	2601.689088
573.401860	2603.622371
573.756743	2603.435848
574.111570	2603.425766
574.466342	2601.686568
574.821059	2601.212699
575.175722	2600.842175
575.530330	2600.514500
575.884882	2603.982813
576.239380	2599.473501
576.593823	2600.297730
576.948211	2598.593820
577.302544	2599.213882
577.656823	2598.994592
578.011047	2601.197576
578.365216	2599.549119
578.719330	2596.804210
579.073389	2596.839498
579.427394	2596.373192
579.781344	2597.512492
580.135239	2599.821341
580.489080	2596.975610
580.842866	2598.414859
581.196597	2598.843357
581.550273	2599.148347
581.903895	2596.504262
582.257463	2599.869232
582.610975	2595.735486
582.964434	2599.594489
583.317837	2594.029055
583.671186	2597.391505
584.024481	2595.949735
584.377721	2596.350507
584.730906	2596.330342
585.084037	2595.319591
585.437113	2594.049220
585.790135	2595.808582
586.143103	2592.809096
586.496016	2596.479056
586.848874	2590.580906
587.201679	2593.325814
587.554428	2591.024527
587.907124	2593.908067
588.259765	2593.439240
588.612352	2595.070053
588.964884	2593.255238
589.317362	2593.280444
589.669786	2590.961513
590.022155	2594.064343
590.374470	2597.212544
590.726731	2594.258428
591.078937	2591.069898
591.431090	2590.011256
591.783188	2593.300608
592.135232	2590.626276
592.487222	2591.432861
592.839157	2594.656679
593.191038	2591.447984
593.542866	2592.602409
593.894639	2592.015114
594.246358	2591.626945
594.598022	2592.720876
594.949633	2590.117120
595.301190	2586.555545
595.652692	2591.233735
596.004141	2591.679877
596.355535	2591.553849
596.706876	2591.911771
597.058162	2591.271544
597.409395	2589.751636
597.760573	2590.343972
598.111698	2588.370360
598.462768	2589.101327
598.813785	2589.247521
599.164748	2587.601584
599.515657	2589.464290
599.866511	2586.757191
600.217312	2588.894640
600.568060	2589.010587
600.918753	2590.573344
601.269392	2588.773652
601.619978	2585.774166
601.970510	2591.054774
602.320988	2586.603436
602.671412	2587.440267
603.021783	2588.692994
603.372100	2589.232397
603.722363	2591.339600
604.072572	2586.159814
604.422728	2591.160639
604.772830	2584.216449
605.122878	2582.741912
605.472872	2585.703590
605.822813	2580.796026
606.172701	2583.959350
606.522534	2588.695514
606.872314	2586.825246
607.222041	2585.058322
607.571714	2588.884558
607.921333	2587.042016
608.270899	2585.375915
608.620411	2588.934969
608.969870	2591.062336
609.319276	2590.487645
609.668627	2590.696852
610.017926	2594.855804
610.367171	2596.907554
610.716362	2596.559714
611.065500	2594.523088
611.414585	2591.886565
611.763616	2593.797162
612.112594	2591.427820
612.461518	2591.596698
612.810389	2591.178283
613.159207	2588.287181
613.507971	2588.796337
613.856682	2591.689960
614.205340	2588.282140
614.553945	2591.586616
614.902496	2588.783735
615.250994	2592.451174
615.599439	2589.423961
615.947830	2590.563262
616.296169	2592.509147
616.644454	2589.618046
616.992686	2589.111410
617.340864	2589.537387
617.688990	2590.626276
618.037063	2587.702407
618.385082	2587.528487
618.733048	2589.620566
619.080961	2590.175093
619.428821	2588.587130
619.776628	2588.385483
620.124382	2588.322469
620.472083	2588.413210
620.819731	2590.820361
621.167326	2588.493868
621.514868	2589.986050
621.862357	2585.073445
622.209793	2587.737695
622.557176	2589.270206
622.904506	2585.365832
623.251783	2586.646285
623.599007	2582.941037
623.946179	2583.714854
624.293297	2581.486664
624.640363	2584.801223
624.987376	2587.541090
625.334336	2585.718713
625.681243	2584.899526
626.028097	2584.103023
626.374899	2583.563620
626.721647	2582.842735
627.068343	2583.384659
627.414987	2583.077148
627.761577	2579.928948
628.108115	2581.461459
628.454600	2581.942889
628.801032	2578.298135
629.147412	2580.919535
629.493739	2582.164700
629.840014	2581.186716
630.186236	2583.062025
630.532405	2580.294432
630.878521	2579.142528
631.224585	2579.429874
631.570597	2579.208063
631.916556	2580.422981
632.262462	2581.010275
632.608316	2579.997003
632.954117	2578.063721
633.299866	2579.419791
633.645562	2577.456262
633.991206	2579.500450
634.336797	2577.688155
634.682336	2577.544482
635.027823	2578.330902
635.373257	2577.915007
635.718639	2576.037177
636.063968	2577.294945
636.409245	2576.274111
636.754470	2576.722774
637.099642	2577.168916
637.444762	2577.420974
637.789829	2574.855027
638.134845	2577.108422
638.479808	2575.724626
638.824719	2574.403843
639.169577	2570.970817
639.514383	2573.468709
639.859137	2572.992320
640.203839	2574.040880
640.548489	2571.890828
640.893086	2570.552402
641.237632	2569.602144
641.582125	2572.062227
641.926566	2563.025959
642.270955	2572.468040
642.615292	2570.010478
642.959576	2573.206569
643.303809	2572.606672
643.647990	2575.487691
643.992118	2573.440983
644.336195	2575.031467
