Dividing Wavelength (nm)	Counts (n)	Blue Motor Position (mm): 0.000000	Red Motor Position (mm): 44.000000	
326.493990	2079.483523
326.888308	2079.483523
327.282561	2079.483523
327.676750	2052.997301
328.070874	2054.043340
328.464933	2060.581717
328.858929	2072.448593
329.252859	2083.592064
329.646726	2097.677048
330.040528	2114.602722
330.434265	2132.309774
330.827938	2154.493372
331.221547	2173.478357
331.615091	2193.436285
332.008571	2214.160469
332.401986	2236.719632
332.795338	2255.026583
333.188625	2275.604573
333.581847	2293.213323
333.975006	2310.743935
334.368100	2328.952583
334.761129	2347.773731
335.154095	2362.607326
335.546996	2403.092833
335.939833	2470.304016
336.332606	2482.480923
336.725315	2495.532471
337.117960	2504.258708
337.510540	2508.626868
337.903056	2523.468025
338.295508	2526.422141
338.687896	2532.262318
339.080220	2538.099974
339.472480	2546.375028
339.864676	2548.963660
340.256807	2553.745195
340.648875	2554.327448
341.040879	2555.300391
341.432818	2555.822150
341.824694	2558.292316
342.216506	2559.542522
342.608253	2557.102603
342.999937	2556.689229
343.391557	2558.481359
343.783113	2554.831563
344.174605	2552.820143
344.566033	2550.576830
344.957397	2551.685883
345.348697	2548.504915
345.739934	2548.835111
346.131106	2545.240768
346.522215	2543.955274
346.913260	2539.690458
347.304241	2540.371014
347.695159	2538.404964
348.086012	2539.143493
348.476802	2537.353883
348.867528	2537.376568
349.258191	2534.452699
349.648789	2532.957997
350.039324	2530.926412
350.429796	2531.523789
350.820203	2530.167718
351.210548	2529.903058
351.600828	2529.938346
351.991045	2534.654345
352.381198	2527.405166
352.771288	2530.404652
353.161314	2530.437420
353.551276	2530.472708
353.941175	2531.233922
354.331010	2529.885414
354.720782	2530.898686
355.110490	2533.787267
355.500135	2531.848943
355.889717	2531.959848
356.279235	2528.552028
356.668689	2530.323994
357.058080	2534.377082
357.447408	2529.898017
357.836672	2531.110414
358.225873	2532.015301
358.615010	2530.313912
359.004084	2538.447813
359.393095	2540.325643
359.782043	2540.055942
360.170927	2539.367824
360.559748	2539.324974
360.948505	2543.546941
361.337199	2541.172557
361.725830	2543.683052
362.114398	2544.958464
362.502903	2545.880995
362.891344	2548.290666
363.279722	2546.052394
363.668037	2548.089020
364.056289	2548.346119
364.444478	2547.897456
364.832603	2549.238403
365.220665	2549.324103
365.608665	2554.309804
365.996601	2551.514484
366.384474	2554.317366
366.772284	2555.292829
367.160031	2555.035730
367.547715	2555.736451
367.935336	2556.275854
368.322893	2561.967317
368.710388	2559.678633
369.097820	2559.895403
369.485189	2562.113510
369.872495	2564.903789
370.259738	2562.491597
370.646918	2564.364385
371.034035	2570.585169
371.421090	2573.599779
371.808081	2573.458627
372.195010	2579.094637
372.581875	2582.341140
372.968678	2588.647623
373.355418	2594.081987
373.742096	2603.176229
374.128710	2612.623351
374.515262	2627.083901
374.901751	2638.250057
375.288177	2652.932417
375.674540	2665.517658
376.060841	2687.456759
376.447079	2706.993751
376.833254	2729.895713
377.219367	2751.532345
377.605417	2784.037705
377.991404	2809.349339
378.377329	2847.105061
378.763191	2878.362735
379.148991	2925.893254
379.534727	2969.163998
379.920402	3011.895339
380.306013	3058.553738
380.691563	3116.960547
381.077049	3171.541119
381.462474	3220.460476
381.847835	3294.303298
382.233134	3362.449615
382.618371	3416.384920
383.003545	3500.983044
383.388657	3572.466605
383.773706	3660.054133
384.158693	3732.913929
384.543618	3821.209739
384.928480	3896.857293
385.313280	3995.489989
385.698017	4093.217797
386.082692	4209.076116
386.467305	4271.243625
386.851856	4387.656470
387.236344	4534.643913
387.620770	4599.087504
388.005133	4715.386923
388.389435	4851.064537
388.773674	4931.617135
389.157851	5054.956525
389.541965	5187.143141
389.926018	5213.284044
390.310008	5379.667327
390.693936	5502.096789
391.077802	5617.478718
391.461606	5743.268110
391.845348	5852.323391
392.229027	5964.592408
392.612645	6181.873700
392.996200	6299.473737
393.379694	6470.326003
393.763125	6678.240831
394.146494	6776.694566
394.529801	6904.187867
394.913047	7142.087479
395.296230	7136.862323
395.679351	7192.607402
396.062410	7438.754342
396.445408	7341.477717
396.828343	7494.640573
397.211217	7626.827189
397.594028	7519.846343
397.976778	7723.466108
398.359466	7883.812609
398.742092	7865.843416
399.124656	8004.795260
399.507158	8195.842388
399.889598	8221.085966
400.271977	8425.096421
400.654294	8456.303684
401.036549	8658.640476
401.418742	8686.790279
401.800874	8983.043767
402.182944	9064.463443
402.564952	9419.380838
402.946898	9257.408565
403.328783	9313.365373
403.710606	9507.366617
404.092367	9754.521787
404.474067	10106.853070
404.855705	9924.136449
405.237282	9871.479077
405.618797	10298.404314
406.000250	10536.881137
406.381642	10893.134439
406.762972	10851.786895
407.144240	10665.944758
407.525447	10907.143805
407.906593	10860.664367
408.287677	11124.014244
408.668700	11269.207036
409.049661	11257.476271
409.430560	11419.622464
409.811399	11393.337888
410.192176	11555.166488
410.572891	11639.691515
410.953545	12109.632917
411.334138	11595.707447
411.714669	12175.495592
412.095139	11524.831345
412.475547	12000.925476
412.855894	11880.774615
413.236180	12190.208200
413.616405	11883.590099
413.996568	12161.297183
414.376670	12141.873617
414.756711	12030.597707
415.136691	12300.203656
415.516609	12471.678504
415.896466	12564.375241
416.276262	12849.598685
416.655997	13307.174137
417.035670	13356.151467
417.415283	13972.452689
417.794834	14062.631370
418.174324	13803.836176
418.553753	13717.135891
418.933121	14214.579309
419.312428	14037.690261
419.691674	13943.014872
420.070859	14406.004523
420.449983	14062.356627
420.829045	14625.773625
421.208047	14380.965112
421.586988	14822.257637
421.965867	15072.729887
422.344686	15067.063630
422.723444	15646.335057
423.102141	14351.890257
423.480777	15542.822524
423.859352	15041.751996
424.237866	16147.743342
424.616319	15860.654671
424.994712	16521.973397
425.373044	16299.948379
425.751314	16996.323289
426.129524	16124.246523
426.507673	17199.262499
426.885762	16934.896829
427.263789	17103.352026
427.641756	17294.862940
428.019662	17357.640429
428.397508	17418.802228
428.775292	17689.928085
429.153016	17677.410900
429.530679	17756.194052
429.908282	17792.573539
430.285824	17525.105039
430.663305	18229.238285
431.040726	17850.161160
431.418086	17685.743927
431.795385	18318.761616
432.172624	18765.838865
432.549802	18332.208894
432.926920	18541.794865
433.303977	18418.276513
433.680974	18665.777002
434.057910	18980.602101
434.434786	19031.948774
434.811601	18940.867727
435.188355	19992.591051
435.565050	19663.471760
435.941683	19621.536922
436.318257	20517.574292
436.694770	20319.030968
437.071222	20922.053791
437.447614	19997.087760
437.823946	20029.257883
438.200218	20197.370282
438.576429	19970.634305
438.952580	20275.165368
439.328670	20248.638816
439.704700	20674.873415
440.080670	20234.715149
440.456580	20853.249603
440.832429	21027.532374
441.208218	20051.045750
441.583947	20478.528035
441.959616	20600.120665
442.335224	20856.549038
442.710773	20992.234214
443.086261	21551.552754
443.461689	20875.738190
443.837057	21045.196577
444.212365	21703.460364
444.587612	21705.038245
444.962800	21305.975465
445.337927	21728.840053
445.712995	20446.060483
446.088002	22349.801822
446.462949	22556.010220
446.837837	22747.185897
447.212664	22757.497577
447.587431	25716.422992
447.962139	28713.686382
448.336786	31033.857275
448.711374	29379.789163
449.085901	25621.583765
449.460369	25636.621527
449.834776	25620.164680
450.209124	28186.142234
450.583412	27672.010077
450.957640	28164.540890
451.331808	26828.859452
451.705917	25425.031697
452.079965	25472.350487
452.453954	25861.272986
452.827883	25781.716017
453.201752	25570.068213
453.575562	25730.581072
453.949311	26873.413170
454.323001	26953.098689
454.696632	26726.667702
455.070202	28327.705396
455.443713	28534.894299
455.817164	29103.808675
456.190556	29674.976447
456.563888	29085.158926
456.937160	29522.121100
457.310373	27811.521489
457.683526	28254.805270
458.056619	28250.195135
458.429653	28224.081958
458.802628	28844.426186
459.175542	28979.309819
459.548398	30373.871934
459.921194	31993.632473
460.293930	32734.911461
460.666607	34827.595246
461.039224	36627.413197
461.411782	36998.797522
461.784280	35707.521088
462.156719	35158.962891
462.529099	34593.456335
462.901419	33251.128135
463.273680	32186.310414
463.645882	32342.800432
464.018024	32324.619511
464.390106	33258.072325
464.762130	36180.247728
465.134094	40505.895485
465.505999	46013.093922
465.877845	50579.812177
466.249631	51598.394956
466.621358	49765.512076
466.993026	47521.013943
467.364634	45384.114198
467.736184	43418.888427
468.107674	42130.861016
468.479105	41338.341220
468.850477	40614.912958
469.221790	39158.117799
469.593043	37368.654377
469.964238	36471.112222
470.335373	36416.057781
470.706449	38279.053994
471.077467	41046.072764
471.448425	45731.976498
471.819324	48520.145429
472.190164	46548.935808
472.560945	42881.579564
472.931667	39703.668947
473.302330	38598.988302
473.672934	37749.531194
474.043479	38291.674522
474.413965	37492.583582
474.784393	37123.767726
475.154761	38060.341014
475.525070	38102.079247
475.895321	37617.636965
476.265513	38256.520036
476.635645	39261.519426
477.005719	39102.334911
477.375734	39604.877455
477.745691	40343.784580
478.115588	41707.948538
478.485427	43845.733005
478.855207	47324.403902
479.224928	49984.610704
479.594591	51546.042573
479.964194	50448.926179
480.333739	50603.389653
480.703226	50658.522232
481.072653	51315.818118
481.442022	51790.714975
481.811333	52003.340762
482.180584	50730.096535
482.549777	50198.527026
482.918912	49673.211069
483.287988	49364.954594
483.657005	48519.739617
484.025964	47834.084720
484.394864	47836.217128
484.763706	47403.360974
485.132489	46509.430806
485.501213	46352.537496
485.869879	46489.419946
486.238487	46084.925323
486.607036	46287.582228
486.975527	45714.203911
487.343959	45938.023580
487.712333	46023.140942
488.080648	45906.420586
488.448905	46360.777262
488.817104	46164.492375
489.185244	47177.779422
489.553326	48936.378379
489.921350	51716.047925
490.289315	54517.941397
490.657222	55052.248252
491.025070	55278.633868
491.392861	54380.108689
491.760593	53115.091625
492.128267	51429.244079
492.495883	49879.704293
492.863440	48459.467581
493.230939	47080.807786
493.598380	45978.345249
493.965763	45645.571122
494.333088	44814.456252
494.700354	44315.588708
495.067563	44013.832801
495.434713	43862.512486
495.801805	43945.857882
496.168839	43539.293866
496.535815	43208.493350
496.902733	43214.094072
497.269593	42785.321252
497.636395	42726.934608
498.003139	43123.612922
498.369825	42560.279103
498.736453	42873.342319
499.103023	42390.339287
499.469535	42280.154787
499.835989	42360.788043
500.202385	42010.758046
500.568723	42026.783874
500.935003	42225.150757
501.301226	41996.146262
501.667390	42635.508242
502.033497	42885.115934
502.399546	42321.590551
502.765537	41598.999121
503.131470	41980.921977
503.497345	42355.812424
503.863163	40961.953550
504.228923	41627.993317
504.594625	42032.172868
504.960269	41278.454833
505.325856	41980.438026
505.691385	41331.828049
506.056856	41487.629950
506.422270	41929.620675
506.787625	41483.405463
507.152924	41684.003057
507.518164	41787.160188
507.883347	40982.891983
508.248472	41219.289331
508.613540	41720.369941
508.978550	42014.609488
509.343503	41779.734568
509.708398	41967.842703
510.073236	42507.278932
510.438016	42510.222966
510.802738	41938.006634
511.167403	42588.038217
511.532010	42800.084271
511.896561	43103.881846
512.261053	43962.236591
512.625488	43499.700643
512.989866	43381.117581
513.354186	43224.136051
513.718449	43204.793143
514.082655	43895.597578
514.446803	43553.071339
514.810894	44105.488539
515.174927	43997.335625
515.538904	43898.612188
515.902822	44564.286471
516.266684	44004.453734
516.630488	44435.633705
516.994235	44285.256085
517.357925	44860.083735
517.721558	45044.814297
518.085133	45339.363875
518.448651	45468.283823
518.812112	45219.979270
519.175516	45318.717830
519.538863	45666.113823
519.902152	45615.800587
520.265385	46074.890907
520.628560	46097.495440
520.991678	45887.589356
521.354739	46125.282280
521.717743	46441.337421
522.080690	46317.163719
522.443580	46860.831997
522.806413	46905.922597
523.169189	46874.934625
523.531908	47033.572175
523.894569	46873.422279
524.257174	47053.509938
524.619722	47331.955550
524.982213	47295.603790
525.344647	47240.098165
525.707025	47274.768701
526.069345	47675.893312
526.431608	47588.754448
526.793815	47897.620903
527.155964	47433.791899
527.518057	47597.460520
527.880093	47375.317035
528.242072	47886.868122
528.603995	47574.225842
528.965860	47572.547138
529.327669	47683.462605
529.689421	47556.339828
530.051117	47520.892955
530.412755	47659.587700
530.774337	47732.691993
531.135862	47518.876494
531.497331	47737.528980
531.858743	47626.764748
532.220098	47957.648442
532.581396	47644.658323
532.942638	47312.751275
533.303824	47612.886451
533.664953	47591.396012
534.026025	47294.754355
534.387040	47760.723329
534.747999	47723.769151
535.108902	47871.134680
535.469748	47366.671456
535.830537	47481.776122
536.191270	47666.743618
536.551947	47309.414031
536.912567	47630.026374
537.273131	47751.225795
537.633638	47235.833349
537.994089	47574.067046
538.354483	47139.517064
538.714821	47735.595698
539.075103	48070.204805
539.435328	47822.558122
539.795497	47692.171198
540.155609	47714.279178
540.515665	48170.223817
540.875665	47604.810523
541.235609	47918.634953
541.595496	47902.654495
541.955328	48593.078323
542.315102	47922.574614
542.674821	47681.075619
543.034483	47725.248729
543.394090	47702.931541
543.753640	47655.784150
544.113134	48673.467082
544.472571	47650.770722
544.831953	48904.505684
545.191278	48091.697764
545.550548	47797.846386
545.909761	48277.837329
546.268918	48465.330443
546.628019	48769.657339
546.987064	48314.431064
547.346053	47584.146833
547.704986	48450.706056
548.063863	48014.177421
548.422684	48191.467240
548.781449	48015.934263
549.140158	48433.377089
549.498811	48246.761136
549.857408	47663.645829
550.215949	48512.336682
550.574434	48446.713462
550.932864	48191.978917
551.291237	48899.272966
551.649555	48526.993837
552.007817	48741.915869
552.366022	48380.321466
552.724173	48541.101506
553.082267	48910.166900
553.440305	49209.223269
553.798288	48502.803860
554.156215	48802.646650
554.514086	49025.011946
554.871902	48735.727853
555.229661	48761.215927
555.587365	48574.715920
555.945014	48664.403088
556.302606	48607.125498
556.660143	48812.003031
557.017625	48874.810767
557.375050	48668.254529
557.732421	48993.202265
558.089735	48952.537798
558.446994	48859.886431
558.804197	49328.446558
559.161345	49241.509339
559.518437	48480.070777
559.875474	48802.515580
560.232455	48966.859716
560.589381	49127.579262
560.946251	48821.253549
561.303065	49480.281070
561.659825	49260.002812
562.016528	48927.606771
562.373177	48643.976333
562.729770	49120.824116
563.086307	48629.125093
563.442789	49070.213452
563.799216	49083.675853
564.155587	48896.986803
564.511904	48901.576773
564.868164	48975.873299
565.224370	49213.876254
565.580520	48952.608374
565.936615	49147.370832
566.292654	48849.816726
566.648638	49090.647769
567.004567	49044.627076
567.360441	49094.567266
567.716260	48938.016754
568.072023	49206.700172
568.427732	49174.572898
568.783385	48723.165298
569.138982	49090.786401
569.494525	49055.440351
569.850013	48801.015837
570.205445	48781.993042
570.560823	48710.791786
570.916145	48583.338813
571.271412	48607.382597
571.626625	48342.820322
571.981782	48378.405827
572.336884	48055.126713
572.691931	48363.536944
573.046923	47958.490315
573.401860	47809.904826
573.756743	47754.484901
574.111570	47867.583187
574.466342	47716.635918
574.821059	47800.981983
575.175722	47318.878797
575.530330	47336.842949
575.884882	47042.994091
576.239380	46977.885069
576.593823	46952.427242
576.948211	46885.178249
577.302544	46380.838533
577.656823	46388.455717
578.011047	46608.086187
578.365216	46340.726072
578.719330	46098.145749
579.073389	45957.794985
579.427394	46025.737136
579.781344	45974.985320
580.135239	45632.935469
580.489080	45690.076948
580.842866	45164.703018
581.196597	45600.830881
581.550273	45546.149485
581.903895	45406.504483
582.257463	45801.415872
582.610975	45179.307241
582.964434	45456.789992
583.317837	45066.687864
583.671186	44892.175720
584.024481	45124.134332
584.377721	44640.357483
584.730906	44900.234005
585.084037	44957.919928
585.437113	44645.907793
585.790135	44641.650539
586.143103	44224.852980
586.496016	44332.214433
586.848874	44369.460999
587.201679	44368.346904
587.554428	43852.190723
587.907124	44039.613261
588.259765	43769.687199
588.612352	44017.230538
588.964884	43379.796799
589.317362	43654.569931
589.669786	43607.278866
590.022155	43345.204401
590.374470	43762.526240
590.726731	43295.223882
591.078937	42771.059828
591.431090	42878.796847
591.783188	42511.984850
592.135232	42193.832589
592.487222	42445.484469
592.839157	42507.682225
593.191038	42172.952130
593.542866	41920.362596
593.894639	41319.820021
594.246358	41595.848399
594.598022	41548.199413
594.949633	41152.473878
595.301190	41108.235232
595.652692	40933.982708
596.004141	41255.772161
596.355535	40251.155899
596.706876	40182.069406
597.058162	40026.143997
597.409395	40488.732877
597.760573	40556.455738
598.111698	40134.390173
598.462768	40127.062856
598.813785	40167.876037
599.164748	39607.937436
599.515657	39998.097538
599.866511	39489.833283
600.217312	40082.778840
600.568060	39058.862521
600.918753	39805.535543
601.269392	39738.745296
601.619978	39389.247141
601.970510	39587.755176
602.320988	39771.785018
602.671412	40058.903935
603.021783	39813.845885
603.372100	39448.800812
603.722363	39538.616529
604.072572	39602.787897
604.422728	39622.410588
604.772830	39426.823902
605.122878	39514.315647
605.472872	39444.861150
605.822813	39704.820851
606.172701	39526.545486
606.522534	39772.246284
606.872314	40014.153613
607.222041	39780.286924
607.571714	40142.917285
607.921333	39582.686296
608.270899	39872.938291
608.620411	40188.259943
608.969870	39990.359367
609.319276	39989.383903
609.668627	40022.428667
610.017926	40496.834011
610.367171	40655.837045
610.716362	40710.180683
611.065500	40649.472588
611.414585	40810.444192
611.763616	41106.748092
612.112594	41034.566330
612.461518	41244.527867
612.810389	41524.332070
613.159207	41370.783565
613.507971	41444.170162
613.856682	41904.586305
614.205340	41785.511731
614.553945	42456.181797
614.902496	41899.524987
615.250994	42353.128010
615.599439	42410.486258
615.947830	42590.858743
616.296169	42649.121878
616.644454	42730.846544
616.992686	42895.178077
617.340864	43374.478382
617.688990	43064.943974
618.037063	43663.528061
618.385082	43594.610447
618.733048	43872.877098
619.080961	43871.841141
619.428821	43857.090725
619.776628	43941.293117
620.124382	43756.474335
620.472083	43880.522008
620.819731	43997.726314
621.167326	43666.562836
621.514868	43616.733550
621.862357	43177.696941
622.209793	43190.383005
622.557176	42842.850900
622.904506	42570.273191
623.251783	42234.492016
623.599007	41995.090140
623.946179	41779.961420
624.293297	41710.879968
624.640363	41121.780812
624.987376	41087.727818
625.334336	40853.011695
625.681243	40461.750101
626.028097	40429.317838
626.374899	40275.958376
626.721647	40240.907233
627.068343	40105.033014
627.414987	39858.112257
627.761577	39620.081575
628.108115	39919.959653
628.454600	39375.063854
628.801032	39540.121314
629.147412	39467.228750
629.493739	39448.883991
629.840014	39080.211807
630.186236	39381.050225
630.532405	38973.230961
630.878521	39159.746091
631.224585	38998.829940
631.570597	38693.013383
631.916556	38832.837347
632.262462	38741.736135
632.608316	38745.857278
632.954117	38606.774364
633.299866	38588.336344
633.645562	38488.322372
633.991206	37991.282247
634.336797	37563.915909
634.682336	37539.569657
635.027823	37283.814278
