Dividing Wavelength (nm)	Counts (n)	Blue Motor Position (mm): 0.000000	Red Motor Position (mm): 7.500000	
326.493990	2084.728844
326.888308	2084.728844
327.282561	2084.728844
327.676750	2062.204968
328.070874	2066.492470
328.464933	2070.969014
328.858929	2081.966292
329.252859	2091.549525
329.646726	2108.291197
330.040528	2123.097066
330.434265	2142.810498
330.827938	2163.950577
331.221547	2183.379183
331.615091	2203.508511
332.008571	2222.808568
332.401986	2243.454614
332.795338	2263.062182
333.188625	2282.367280
333.581847	2303.673717
333.975006	2319.039154
334.368100	2338.392144
334.761129	2354.861593
335.154095	2374.385982
335.546996	2387.548435
335.939833	2400.673079
336.332606	2414.717733
336.725315	2427.643252
337.117960	2436.886208
337.510540	2439.923503
337.903056	2451.273661
338.295508	2459.329424
338.687896	2460.617439
339.080220	2473.222844
339.472480	2473.714357
339.864676	2480.282980
340.256807	2485.029227
340.648875	2485.498054
341.040879	2484.542755
341.432818	2487.237252
341.824694	2488.452170
342.216506	2490.181286
342.608253	2488.081645
342.999937	2487.141470
343.391557	2486.060143
343.783113	2486.438229
344.174605	2485.228352
344.566033	2481.691983
344.957397	2480.446818
345.348697	2475.829121
345.739934	2474.790643
346.131106	2475.186374
346.522215	2473.913482
346.913260	2469.938533
347.304241	2470.311578
347.695159	2466.686988
348.086012	2467.349900
348.476802	2462.860753
348.867528	2465.124231
349.258191	2464.032821
349.648789	2462.835547
350.039324	2461.918057
350.429796	2463.838737
350.820203	2456.355144
351.210548	2460.136009
351.600828	2458.308591
351.991045	2460.020063
352.381198	2458.016204
352.771288	2456.960082
353.161314	2458.810186
353.551276	2456.501337
353.941175	2457.726338
354.331010	2461.660958
354.720782	2458.341358
355.110490	2456.821450
355.500135	2460.887141
355.889717	2458.132150
356.279235	2460.262038
356.668689	2461.764302
357.058080	2460.914867
357.447408	2457.270113
357.836672	2456.135853
358.225873	2461.887810
358.615010	2458.500155
359.004084	2464.673048
359.393095	2461.734055
359.782043	2463.483335
360.170927	2467.160857
360.559748	2464.983078
360.948505	2466.064406
361.337199	2467.833851
361.725830	2466.989458
362.114398	2468.902576
362.502903	2467.740590
362.891344	2469.159674
363.279722	2466.197997
363.668037	2469.320991
364.056289	2468.438789
364.444478	2470.460292
364.832603	2471.090436
365.220665	2471.224027
365.608665	2471.707978
365.996601	2471.927268
366.384474	2473.066569
366.772284	2472.912813
367.160031	2474.883905
367.547715	2474.336939
367.935336	2476.600418
368.322893	2475.385499
368.710388	2477.084368
369.097820	2477.371714
369.485189	2476.728967
369.872495	2478.722743
370.259738	2479.456231
370.646918	2480.590491
371.034035	2480.562764
371.421090	2483.053094
371.808081	2486.944865
372.195010	2490.120792
372.581875	2492.280927
372.968678	2500.601351
373.355418	2506.446569
373.742096	2515.215656
374.128710	2521.391069
374.515262	2530.684437
374.901751	2544.882846
375.288177	2558.113355
375.674540	2575.659091
376.060841	2592.312542
376.447079	2614.153341
376.833254	2639.989255
377.219367	2657.807213
377.605417	2688.835515
377.991404	2714.956254
378.377329	2747.978332
378.763191	2783.314300
379.148991	2821.377532
379.534727	2865.840509
379.920402	2911.263826
380.306013	2955.933490
380.691563	3010.627488
381.077049	3062.367371
381.462474	3113.189763
381.847835	3176.836851
382.233134	3238.112076
382.618371	3289.166362
383.003545	3359.868545
383.388657	3424.632248
383.773706	3502.288702
384.158693	3557.554872
384.543618	3632.899957
384.928480	3691.699976
385.313280	3772.219806
385.698017	3844.414170
386.082692	3931.003549
386.467305	3964.539825
386.851856	4045.062175
387.236344	4146.981703
387.620770	4172.484901
388.005133	4235.663161
388.389435	4322.371007
388.773674	4352.933002
389.157851	4415.092950
389.541965	4476.005212
389.926018	4459.558447
390.310008	4545.646232
390.693936	4581.733332
391.077802	4614.379844
391.461606	4657.937934
391.845348	4679.352755
392.229027	4702.375705
392.612645	4779.984268
392.996200	4796.483965
393.379694	4839.860573
393.763125	4898.436260
394.146494	4881.064444
394.529801	4886.546699
394.913047	4938.279020
395.296230	4864.773955
395.679351	4818.339887
396.062410	4864.564747
396.445408	4734.460128
396.828343	4725.781782
397.211217	4697.720199
397.594028	4576.424997
397.976778	4572.402156
398.359466	4556.739291
398.742092	4464.796206
399.124656	4434.813944
399.507158	4415.675203
399.889598	4339.939428
400.271977	4321.960153
400.654294	4249.448196
401.036549	4223.226635
401.418742	4146.096981
401.800874	4139.611536
402.182944	4078.394285
402.564952	4077.849840
402.946898	3957.305769
403.328783	3886.328844
403.710606	3843.539530
404.092367	3814.172288
404.474067	3796.535811
404.855705	3684.816280
405.237282	3605.355093
405.618797	3592.580809
406.000250	3556.009758
406.381642	3528.003628
406.762972	3454.324644
407.144240	3371.501007
407.525447	3328.633555
407.906593	3258.992536
408.287677	3225.287381
408.668700	3183.234076
409.049661	3126.609315
409.430560	3089.380394
409.811399	3041.310471
410.192176	3005.798063
410.572891	2965.171404
410.953545	2946.004937
411.334138	2884.465052
411.714669	2872.431818
412.095139	2817.291677
412.475547	2801.117135
412.855894	2770.441713
413.236180	2750.395565
413.616405	2721.197202
413.996568	2708.490974
414.376670	2687.731502
414.756711	2670.596620
415.136691	2658.757471
415.516609	2645.070738
415.896466	2632.477936
416.276262	2624.200361
416.655997	2614.629730
417.035670	2605.870726
417.415283	2603.108173
417.794834	2592.052923
418.174324	2584.624783
418.553753	2579.129925
418.933121	2578.898032
419.312428	2573.269584
419.691674	2569.544171
420.070859	2566.801783
420.449983	2559.663509
420.829045	2563.126782
421.208047	2556.754764
421.586988	2557.402552
421.965867	2555.156718
422.344686	2554.060267
422.723444	2553.170503
423.102141	2546.349822
423.480777	2549.601366
423.859352	2543.219266
424.237866	2547.090872
424.616319	2545.334030
424.994712	2548.789741
425.373044	2546.291849
425.751314	2545.903680
426.129524	2539.075437
426.507673	2544.681200
426.885762	2540.733977
427.263789	2541.278421
427.641756	2544.444266
428.019662	2541.318751
428.397508	2542.463093
428.775292	2543.226827
429.153016	2539.879501
429.530679	2541.164995
429.908282	2540.542413
430.285824	2539.844213
430.663305	2541.681714
431.040726	2540.093750
431.418086	2536.638039
431.795385	2540.199614
432.172624	2541.966539
432.549802	2540.434028
432.926920	2541.560726
433.303977	2542.294214
433.680974	2541.127187
434.057910	2542.072403
434.434786	2541.069213
434.811601	2543.093237
435.188355	2543.935109
435.565050	2544.986190
435.941683	2543.514173
436.318257	2545.147507
436.694770	2538.679707
437.071222	2545.018957
437.447614	2540.653318
437.823946	2542.558874
438.200218	2544.691282
438.576429	2544.245140
438.952580	2546.128011
439.328670	2545.036602
439.704700	2547.849565
440.080670	2545.122301
440.456580	2545.896118
440.832429	2548.237734
441.208218	2545.349153
441.583947	2546.377548
441.959616	2546.490974
442.335224	2544.903011
442.710773	2547.955430
443.086261	2550.002138
443.461689	2546.904349
443.837057	2548.459545
444.212365	2548.164637
444.587612	2551.017931
444.962800	2548.172199
445.337927	2553.200750
445.712995	2547.685728
446.088002	2553.639331
446.462949	2552.527756
446.837837	2550.191181
447.212664	2551.827036
447.587431	2559.325752
447.962139	2567.928481
448.336786	2574.913000
448.711374	2567.925961
449.085901	2562.216854
449.460369	2559.015721
449.834776	2560.359189
450.209124	2567.295816
450.583412	2566.035528
450.957640	2564.757595
451.331808	2560.641493
451.705917	2558.587223
452.079965	2558.037737
452.453954	2559.214847
452.827883	2559.676112
453.201752	2558.456153
453.575562	2562.030331
453.949311	2561.299364
454.323001	2561.049827
454.696632	2560.525547
455.070202	2564.954200
455.443713	2563.106617
455.817164	2563.146947
456.190556	2564.891186
456.563888	2561.861453
456.937160	2562.947821
457.310373	2559.620660
457.683526	2562.153839
458.056619	2562.746175
458.429653	2562.158881
458.802628	2562.209292
459.175542	2564.533264
459.548398	2564.818089
459.921194	2570.285221
460.293930	2571.769840
460.666607	2574.618092
461.039224	2577.849472
461.411782	2580.662436
461.784280	2574.504666
462.156719	2574.986097
462.529099	2574.998699
462.901419	2570.340673
463.273680	2570.065930
463.645882	2571.502659
464.018024	2571.517783
464.390106	2570.789336
464.762130	2580.430543
465.134094	2588.327510
465.505999	2597.018459
465.877845	2607.556992
466.249631	2612.855244
466.621358	2608.678648
466.993026	2606.170674
467.364634	2601.631115
467.736184	2594.674323
468.107674	2593.119127
468.479105	2589.960844
468.850477	2590.064188
469.221790	2585.897674
469.593043	2581.993300
469.964238	2579.818042
470.335373	2581.660584
470.706449	2583.019175
471.077467	2587.946903
471.448425	2595.770774
471.819324	2604.504573
472.190164	2598.697164
472.560945	2589.865062
472.931667	2582.482292
473.302330	2582.202508
473.672934	2576.049780
474.043479	2577.758731
474.413965	2576.511046
474.784393	2570.242371
475.154761	2574.779409
475.525070	2572.382341
475.895321	2571.185067
476.265513	2567.580642
476.635645	2575.026426
477.005719	2573.965263
477.375734	2573.042732
477.745691	2575.089440
478.115588	2578.749318
478.485427	2580.604462
478.855207	2585.000349
479.224928	2586.663929
479.594591	2590.739702
479.964194	2588.526636
480.333739	2588.866914
480.703226	2587.838518
481.072653	2585.761563
481.442022	2588.698035
481.811333	2587.727613
482.180584	2585.108733
482.549777	2583.394741
482.918912	2579.346695
483.287988	2577.753690
483.657005	2577.592373
484.025964	2578.419122
484.394864	2576.553895
484.763706	2578.083886
485.132489	2574.963411
485.501213	2575.205387
485.869879	2571.621126
486.238487	2573.141034
486.607036	2570.917885
486.975527	2570.247412
487.343959	2572.263873
487.712333	2572.684810
488.080648	2571.661456
488.448905	2570.817062
488.817104	2571.273287
489.185244	2570.517114
489.553326	2575.013823
489.921350	2578.963567
490.289315	2583.976994
490.657222	2584.907087
491.025070	2583.503126
491.392861	2582.583115
491.760593	2582.275605
492.128267	2577.738567
492.495883	2574.345870
492.863440	2572.513411
493.230939	2570.038204
493.598380	2569.211455
493.965763	2564.394632
494.333088	2566.065775
494.700354	2561.266596
495.067563	2566.544684
495.434713	2561.647203
495.801805	2561.493448
496.168839	2564.331618
496.535815	2566.169118
496.902733	2564.999571
497.269593	2566.501835
497.636395	2562.496638
498.003139	2566.912689
498.369825	2562.569735
498.736453	2563.464539
499.103023	2561.916905
499.469535	2563.792214
499.835989	2562.998233
500.202385	2561.034703
500.568723	2561.425393
500.935003	2561.019580
501.301226	2559.799621
501.667390	2560.470094
502.033497	2562.037893
502.399546	2563.487225
502.765537	2559.227450
503.131470	2560.757440
503.497345	2560.631411
503.863163	2558.294836
504.228923	2559.519837
504.594625	2558.844322
504.960269	2557.959599
505.325856	2558.070505
505.691385	2557.566389
506.056856	2557.304249
506.422270	2559.247614
506.787625	2558.007490
507.152924	2557.967161
507.518164	2558.186451
507.883347	2553.674619
508.248472	2556.273333
508.613540	2555.776780
508.978550	2557.092521
509.343503	2552.870555
509.708398	2556.921122
510.073236	2557.205947
510.438016	2557.314332
510.802738	2555.701162
511.167403	2555.300391
511.532010	2554.455997
511.896561	2557.079918
512.261053	2555.554969
512.625488	2551.743857
512.989866	2552.570606
513.354186	2551.249824
513.718449	2552.147149
514.082655	2552.558003
514.446803	2555.338199
514.810894	2554.818961
515.174927	2554.118240
515.538904	2553.387273
515.902822	2553.286450
516.266684	2553.142777
516.630488	2556.041440
516.994235	2553.470452
517.357925	2555.996070
517.721558	2555.512119
518.085133	2553.407437
518.448651	2555.398693
518.812112	2558.869528
519.175516	2556.434650
519.538863	2554.458518
519.902152	2553.725030
520.265385	2552.656306
520.628560	2551.585060
520.991678	2552.187478
521.354739	2551.257385
521.717743	2555.023127
522.080690	2552.066491
522.443580	2551.010369
522.806413	2553.384752
523.169189	2551.663198
523.531908	2553.586398
523.894569	2549.477858
524.257174	2551.421223
524.619722	2551.335523
524.982213	2553.568754
525.344647	2551.867365
525.707025	2551.489278
526.069345	2551.663198
526.431608	2549.828218
526.793815	2550.042467
527.155964	2550.050029
527.518057	2549.082127
527.880093	2550.050029
528.242072	2553.130174
528.603995	2552.875596
528.965860	2547.683207
529.327669	2548.905687
529.689421	2548.046170
530.051117	2550.501212
530.412755	2546.705223
530.774337	2550.355019
531.135862	2547.466438
531.497331	2549.039278
531.858743	2546.634647
532.220098	2547.380738
532.581396	2543.541899
532.942638	2542.453010
533.303824	2545.760007
533.664953	2548.593136
534.026025	2546.700182
534.387040	2548.633465
534.747999	2548.378887
535.108902	2547.461397
535.469748	2545.974256
535.830537	2545.386962
536.191270	2545.303783
536.551947	2546.269164
536.912567	2547.473999
537.273131	2544.643392
537.633638	2544.068700
537.994089	2547.824360
538.354483	2546.652291
538.714821	2548.751932
539.075103	2546.755635
539.435328	2543.378062
539.795497	2543.811601
540.155609	2545.727240
540.515665	2545.452497
540.875665	2545.427291
541.235609	2544.464431
541.595496	2545.576005
541.955328	2547.277394
542.315102	2547.970553
542.674821	2544.655994
543.034483	2545.107178
543.394090	2544.242620
543.753640	2542.483257
544.113134	2546.619524
544.472571	2544.872764
544.831953	2543.831766
545.191278	2543.993083
545.550548	2542.140459
545.909761	2544.514842
546.268918	2542.785726
546.628019	2545.177754
546.987064	2543.559543
547.346053	2546.667415
547.704986	2543.700696
548.063863	2546.266643
548.422684	2544.555171
548.781449	2542.594162
549.140158	2543.713299
549.498811	2544.313196
549.857408	2544.981149
550.215949	2540.572660
550.574434	2538.198276
550.932864	2543.173895
551.291237	2539.564429
551.649555	2542.057280
552.007817	2542.964687
552.366022	2541.376724
552.724173	2543.536858
553.082267	2541.961498
553.440305	2539.622402
553.798288	2541.888401
554.156215	2542.538710
554.514086	2542.740356
554.871902	2541.374203
555.229661	2542.485778
555.587365	2542.576518
555.945014	2541.200283
556.302606	2542.339584
556.660143	2541.928730
557.017625	2541.570808
557.375050	2541.734646
557.732421	2543.224307
558.089735	2541.235572
558.446994	2544.971067
558.804197	2541.848072
559.161345	2544.159441
559.518437	2541.666590
559.875474	2540.834800
560.232455	2539.705581
560.589381	2541.999306
560.946251	2541.366642
561.303065	2539.657690
561.659825	2539.274563
562.016528	2541.893442
562.373177	2539.287166
562.729770	2542.379913
563.086307	2541.243133
563.442789	2540.411343
563.799216	2540.144162
564.155587	2542.279090
564.511904	2542.135417
564.868164	2540.733977
565.224370	2541.492670
565.580520	2543.186498
565.936615	2540.870088
566.292654	2539.950077
566.648638	2542.188350
567.004567	2541.427135
567.360441	2541.414533
567.716260	2539.819007
568.072023	2540.774306
568.427732	2537.212731
568.783385	2538.067206
569.138982	2537.220292
569.494525	2535.395395
569.850013	2537.164840
570.205445	2543.178936
570.560823	2540.585263
570.916145	2539.214069
571.271412	2539.486291
571.626625	2538.122659
571.981782	2540.184491
572.336884	2539.708102
572.691931	2540.620551
573.046923	2539.566950
573.401860	2536.882535
573.756743	2539.541744
574.111570	2538.074768
574.466342	2537.212731
574.821059	2538.833462
575.175722	2536.887576
575.530330	2536.930426
575.884882	2536.176774
576.239380	2539.468647
576.593823	2538.314223
576.948211	2534.767771
577.302544	2539.009902
577.656823	2535.110570
578.011047	2538.241126
578.365216	2538.263811
578.719330	2538.601569
579.073389	2537.305992
579.427394	2535.223996
579.781344	2536.842206
580.135239	2536.607792
580.489080	2536.932947
580.842866	2534.997144
581.196597	2540.769265
581.550273	2539.183822
581.903895	2538.815818
582.257463	2538.606610
582.610975	2533.933460
582.964434	2535.758358
583.317837	2533.320960
583.671186	2537.444624
584.024481	2536.567463
584.377721	2536.287679
584.730906	2536.862371
585.084037	2536.103677
585.437113	2537.089223
585.790135	2535.105528
586.143103	2536.542257
586.496016	2536.932947
586.848874	2531.080167
587.201679	2533.210055
587.554428	2532.469005
587.907124	2536.005374
588.259765	2531.546474
588.612352	2533.199972
588.964884	2534.976979
589.317362	2534.987061
589.669786	2536.539737
590.022155	2536.506969
590.374470	2535.859181
590.726731	2534.523275
591.078937	2532.446320
591.431090	2534.457740
591.783188	2535.395395
592.135232	2534.397246
592.487222	2532.557225
592.839157	2532.695857
593.191038	2533.018491
593.542866	2536.605272
593.894639	2536.264994
594.246358	2532.257277
594.598022	2534.094777
594.949633	2534.203162
595.301190	2533.605785
595.652692	2533.230219
596.004141	2533.683923
596.355535	2537.394212
596.706876	2530.387008
597.058162	2532.920188
597.409395	2531.458254
597.760573	2529.638397
598.111698	2532.499252
598.462768	2530.381967
598.813785	2533.550332
599.164748	2534.157792
599.515657	2534.591331
599.866511	2534.883718
600.217312	2531.309540
600.568060	2533.268028
600.918753	2533.741896
601.269392	2533.043697
601.619978	2532.670651
601.970510	2533.089067
602.320988	2531.117976
602.671412	2531.657379
603.021783	2531.443130
603.372100	2528.458767
603.722363	2530.946577
604.072572	2531.503624
604.422728	2532.297606
604.772830	2530.253418
605.122878	2530.681916
605.472872	2529.482121
605.822813	2526.865763
606.172701	2531.523789
606.522534	2531.390198
606.872314	2534.621578
607.222041	2530.271062
607.571714	2532.007739
607.921333	2532.700898
608.270899	2532.723583
608.620411	2532.910106
608.969870	2531.722914
609.319276	2530.092101
609.668627	2533.459592
610.017926	2533.013450
610.367171	2533.774664
610.716362	2529.950949
611.065500	2533.217616
611.414585	2532.569828
611.763616	2533.406660
612.112594	2530.666793
612.461518	2531.286854
612.810389	2534.823224
613.159207	2532.037986
613.507971	2535.564273
613.856682	2530.447502
614.205340	2532.290044
614.553945	2533.449509
614.902496	2529.013294
615.250994	2531.029756
615.599439	2534.056968
615.947830	2532.516896
616.296169	2528.783922
616.644454	2535.297092
616.992686	2532.968079
617.340864	2533.179808
617.688990	2534.969417
618.037063	2533.913296
618.385082	2529.867770
618.733048	2533.071423
619.080961	2532.171577
619.428821	2531.826258
619.776628	2529.600588
620.124382	2533.706608
620.472083	2531.354910
620.819731	2532.353058
621.167326	2532.476567
621.514868	2533.205013
621.862357	2531.677544
622.209793	2535.990251
622.557176	2531.105373
622.904506	2529.847605
623.251783	2530.157636
623.599007	2529.691329
623.946179	2528.620084
624.293297	2529.162008
624.640363	2531.407842
624.987376	2527.579086
625.334336	2531.213758
625.681243	2530.182842
626.028097	2529.862728
626.374899	2529.477080
626.721647	2530.601258
627.068343	2531.422966
627.414987	2530.848274
627.761577	2530.903727
628.108115	2527.470701
628.454600	2526.490197
628.801032	2530.477749
629.147412	2529.918181
629.493739	2531.919519
629.840014	2530.795342
630.186236	2526.699404
630.532405	2530.019004
630.878521	2531.254087
631.224585	2529.809796
631.570597	2530.177801
631.916556	2529.653521
632.262462	2529.265352
632.608316	2528.957841
632.954117	2528.103366
633.299866	2529.303160
633.645562	2528.894827
633.991206	2528.373068
634.336797	2526.974147
634.682336	2527.011956
635.027823	2528.032790
635.373257	2525.986081
635.718639	2526.409538
636.063968	2527.294261
636.409245	2525.499610
636.754470	2528.806607
637.099642	2527.195958
637.444762	2527.775691
637.789829	2526.255783
638.134845	2526.152439
638.479808	2526.651513
638.824719	2524.912315
639.169577	2528.156298
639.514383	2528.015146
639.859137	2525.718900
640.203839	2527.538757
640.548489	2526.003725
640.893086	2524.995494
641.237632	2523.281502
641.582125	2523.296626
641.926566	2521.968282
642.270955	2524.617408
642.615292	2526.336441
642.959576	2525.819723
643.303809	2527.359796
643.647990	2527.344672
643.992118	2527.042203
644.336195	2527.132944
