Dividing Wavelength (nm)	Counts (n)	Blue Motor Position (mm): 0.000000	Red Motor Position (mm): 40.800000	
326.493990	2126.078908
326.888308	2126.078908
327.282561	2126.078908
327.676750	2095.300143
328.070874	2093.273600
328.464933	2098.193766
328.858929	2102.763572
329.252859	2112.883688
329.646726	2123.175204
330.040528	2133.985958
330.434265	2153.107055
330.827938	2170.635147
331.221547	2189.940245
331.615091	2209.144521
332.008571	2227.620350
332.401986	2249.289749
332.795338	2263.941863
333.188625	2285.074380
333.581847	2304.442493
333.975006	2323.813127
334.368100	2339.589418
334.761129	2358.589527
335.154095	2375.981507
335.546996	2394.457336
335.939833	2415.569688
336.332606	2431.270362
336.725315	2443.845520
337.117960	2453.211984
337.510540	2463.790846
337.903056	2472.993472
338.295508	2479.423464
338.687896	2489.203302
339.080220	2497.589262
339.472480	2506.625530
339.864676	2508.112670
340.256807	2513.620131
340.648875	2514.764473
341.040879	2518.005935
341.432818	2519.079700
341.824694	2523.742768
342.216506	2524.430885
342.608253	2525.464322
342.999937	2524.226718
343.391557	2521.438960
343.783113	2518.880575
344.174605	2521.660771
344.566033	2518.540297
344.957397	2517.554751
345.348697	2517.179185
345.739934	2516.362518
346.131106	2510.106447
346.522215	2510.625685
346.913260	2509.262053
347.304241	2506.496980
347.695159	2502.368275
348.086012	2506.764162
348.476802	2502.448934
348.867528	2501.032370
349.258191	2499.194869
349.648789	2498.302585
350.039324	2497.135558
350.429796	2497.503562
350.820203	2497.279231
351.210548	2494.345279
351.600828	2491.227325
351.991045	2494.017604
352.381198	2492.028869
352.771288	2493.485762
353.161314	2490.617346
353.551276	2491.459218
353.941175	2490.607263
354.331010	2490.854280
354.720782	2490.589619
355.110490	2488.631131
355.500135	2491.093735
355.889717	2489.735144
356.279235	2494.085660
356.668689	2491.910402
357.058080	2491.928046
357.447408	2488.923518
357.836672	2489.954434
358.225873	2493.689929
358.615010	2487.819505
359.004084	2493.493324
359.393095	2492.331338
359.782043	2496.013901
360.170927	2498.108500
360.559748	2497.816113
360.948505	2499.457009
361.337199	2499.111690
361.725830	2499.719149
362.114398	2499.368789
362.502903	2500.765188
362.891344	2500.412308
363.279722	2500.379540
363.668037	2502.353152
364.056289	2503.011023
364.444478	2503.121928
364.832603	2503.003461
365.220665	2504.581342
365.608665	2506.118894
365.996601	2503.255518
366.384474	2508.483195
366.772284	2510.103926
367.160031	2509.259533
367.547715	2510.852537
367.935336	2516.329751
368.322893	2515.593743
368.710388	2520.624814
369.097820	2529.913140
369.485189	2528.693181
369.872495	2536.935467
370.259738	2542.760521
370.646918	2550.765873
371.034035	2558.375495
371.421090	2567.134499
371.808081	2579.878536
372.195010	2588.224167
372.581875	2599.710436
372.968678	2613.888681
373.355418	2621.531070
373.742096	2640.730304
374.128710	2654.411996
374.515262	2672.971004
374.901751	2686.864424
375.288177	2699.157277
375.674540	2720.937583
376.060841	2738.692527
376.447079	2760.445105
376.833254	2778.091664
377.219367	2789.676236
377.605417	2830.302895
377.991404	2839.871005
378.377329	2859.990250
378.763191	2876.605893
379.148991	2915.815988
379.534727	2940.409257
379.920402	2966.905561
380.306013	2983.712768
380.691563	3031.286137
381.077049	3055.680280
381.462474	3071.012950
381.847835	3108.466202
382.233134	3132.870428
382.618371	3130.029738
383.003545	3200.996581
383.388657	3209.332129
383.773706	3239.148033
384.158693	3257.548245
384.543618	3281.034981
384.928480	3317.359015
385.313280	3363.843494
385.698017	3364.372816
386.082692	3417.022626
386.467305	3421.168975
386.851856	3451.219293
387.236344	3474.922799
387.620770	3505.003364
388.005133	3532.162580
388.389435	3560.861869
388.773674	3571.055082
389.157851	3614.356073
389.541965	3628.501551
389.926018	3595.096345
390.310008	3662.524298
390.693936	3685.416178
391.077802	3726.461252
391.461606	3715.290055
391.845348	3776.517389
392.229027	3777.460085
392.612645	3786.607259
392.996200	3866.880072
393.379694	3909.785332
393.763125	3970.017039
394.146494	3938.792132
394.529801	3998.199609
394.913047	4049.390006
395.296230	4014.873226
395.679351	4069.388263
396.062410	4090.225873
396.445408	4074.827668
396.828343	4107.847226
397.211217	4129.635093
397.594028	4051.855130
397.976778	4116.523052
398.359466	4142.764778
398.742092	4170.617153
399.124656	4097.333900
399.507158	4172.253008
399.889598	4199.634035
400.271977	4259.953961
400.654294	4229.530598
401.036549	4240.870673
401.418742	4208.345148
401.800874	4312.379440
402.182944	4335.525898
402.564952	4400.191299
402.946898	4385.413157
403.328783	4383.747055
403.710606	4294.846307
404.092367	4489.644054
404.474067	4453.887149
404.855705	4461.673212
405.237282	4389.988004
405.618797	4499.766691
406.000250	4530.076628
406.381642	4613.028815
406.762972	4575.757044
407.144240	4587.386986
407.525447	4585.678034
407.906593	4642.718690
408.287677	4687.239640
408.668700	4616.156851
409.049661	4669.404038
409.430560	4710.721335
409.811399	4639.779698
410.192176	4796.685611
410.572891	4733.847628
410.953545	4840.853680
411.334138	4718.724167
411.714669	4788.216472
412.095139	4681.775030
412.475547	4822.876926
412.855894	4806.238597
413.236180	4813.959125
413.616405	4765.647227
413.996568	4853.572512
414.376670	4794.515394
414.756711	4752.199949
415.136691	4782.729177
415.516609	4858.827914
415.896466	4897.216301
416.276262	4928.756280
416.655997	4912.370009
417.035670	5095.633596
417.415283	5184.536864
417.794834	5127.967557
418.174324	5082.445937
418.553753	4991.163244
418.933121	5172.518754
419.312428	5242.479887
419.691674	5178.651317
420.070859	5307.790555
420.449983	5217.518613
420.829045	5329.540614
421.208047	5241.645576
421.586988	5307.135205
421.965867	5322.488039
422.344686	5456.250016
422.723444	5309.363395
423.102141	5133.006190
423.480777	5426.701292
423.859352	5197.754770
424.237866	5456.008040
424.616319	5443.695022
424.994712	5558.860182
425.373044	5437.249907
425.751314	5575.342234
426.129524	5380.466350
426.507673	5573.701338
426.885762	5655.267208
427.263789	5589.558288
427.641756	5472.386749
428.019662	5590.793371
428.397508	5597.871151
428.775292	5543.865269
429.153016	5641.658613
429.530679	5571.190844
429.908282	5654.148072
430.285824	5525.669225
430.663305	5801.866482
431.040726	5535.801944
431.418086	5536.336306
431.795385	5636.914887
432.172624	5655.052959
432.549802	5650.039531
432.926920	5661.770296
433.303977	5667.943189
433.680974	5709.878027
434.057910	5724.394030
434.434786	5726.531479
434.811601	5700.806471
435.188355	5940.099962
435.565050	5808.059540
435.941683	5794.309793
436.318257	6007.837946
436.694770	5986.103011
437.071222	6021.456623
437.447614	5956.329957
437.823946	5863.323189
438.200218	6020.531571
438.576429	5883.870932
438.952580	5984.527651
439.328670	6028.670514
439.704700	5937.339930
440.080670	5925.473054
440.456580	6193.629671
440.832429	6078.361168
441.208218	5922.218989
441.583947	6078.406538
441.959616	6078.633390
442.335224	6009.410786
442.710773	6146.361292
443.086261	6171.468759
443.461689	5963.715247
443.837057	6115.819461
444.212365	6271.865858
444.587612	6163.027347
444.962800	6314.771118
445.337927	6299.912317
445.712995	5905.623511
446.088002	6483.536346
446.462949	6314.072919
446.837837	6249.757878
447.212664	6416.632673
447.587431	6563.579787
447.962139	7101.964936
448.336786	8026.971296
448.711374	7763.868436
449.085901	6841.168403
449.460369	6764.222751
449.834776	6698.728081
450.209124	7089.712411
450.583412	7235.779844
450.957640	7386.233080
451.331808	7152.411762
451.705917	6706.068001
452.079965	6627.536906
452.453954	6840.288722
452.827883	6719.187603
453.201752	6808.216901
453.575562	6611.521160
453.949311	6808.882333
454.323001	6700.260591
454.696632	6772.170130
455.070202	6913.327479
455.443713	7074.772952
455.817164	7165.324678
456.190556	7251.714931
456.563888	7321.663461
456.937160	7369.637602
457.310373	7023.685899
457.683526	7053.537091
458.056619	6943.503826
458.429653	6933.915552
458.802628	6865.257557
459.175542	6970.169009
459.548398	7328.040521
459.921194	7488.273596
460.293930	7491.691498
460.666607	8022.119185
461.039224	8327.086308
461.411782	8454.423333
461.784280	8469.572001
462.156719	8363.992595
462.529099	8244.000531
462.901419	7831.177922
463.273680	7724.960810
463.645882	7737.117553
464.018024	7604.540248
464.390106	7774.069210
464.762130	8159.752768
465.134094	8622.041699
465.505999	9647.233430
465.877845	10873.489062
466.249631	11512.624191
466.621358	11131.611262
466.993026	10507.980202
467.364634	10245.820038
467.736184	9882.201611
468.107674	9553.863699
468.479105	9581.872350
468.850477	9356.464718
469.221790	9124.735478
469.593043	8793.256928
469.964238	8654.783993
470.335373	8670.582969
470.706449	8729.009942
471.077467	8702.178401
471.448425	10014.821766
471.819324	11090.961918
472.190164	11113.160639
472.560945	9864.209733
472.931667	9077.787212
473.302330	8939.407539
473.672934	8585.163138
474.043479	8941.597921
474.413965	8888.234787
474.784393	8772.162219
475.154761	8924.823481
475.525070	9009.275411
475.895321	8831.052978
476.265513	9015.168520
476.635645	9186.653450
477.005719	9175.328498
477.375734	9295.146643
477.745691	9532.249752
478.115588	9665.240432
478.485427	9908.171115
478.855207	10445.802611
479.224928	11255.608524
479.594591	11887.126469
479.964194	11697.553878
480.333739	11633.228755
480.703226	11556.923330
481.072653	11648.095118
481.442022	11883.317877
481.811333	12071.945251
482.180584	11878.942156
482.549777	11591.246026
482.918912	11409.202399
483.287988	11432.280801
483.657005	11447.878131
484.025964	11125.750921
484.394864	11262.000707
484.763706	11228.605583
485.132489	10983.025773
485.501213	10946.232912
485.869879	11026.334326
486.238487	10855.386279
486.607036	10980.127110
486.975527	10757.630744
487.343959	10949.733993
487.712333	10995.084213
488.080648	10926.290108
488.448905	10964.476848
488.817104	10907.708414
489.185244	11172.260607
489.553326	11326.320789
489.921350	11869.469827
490.289315	12920.278182
490.657222	13271.238272
491.025070	13184.439685
491.392861	13053.528481
491.760593	12668.689317
492.128267	12325.260711
492.495883	11992.340391
492.863440	11652.528813
493.230939	11321.851806
493.598380	11260.087589
493.965763	11123.931065
494.333088	11027.385407
494.700354	10939.901223
495.067563	11010.379074
495.434713	10831.319810
495.801805	10960.239758
496.168839	10891.637216
496.535815	10821.081227
496.902733	10819.427728
497.269593	10762.124933
497.636395	10857.899294
498.003139	10843.703405
498.369825	10710.695081
498.736453	10868.894050
499.103023	10792.011413
499.469535	10824.070631
499.835989	10811.248456
500.202385	10776.540112
500.568723	10624.705599
500.935003	10847.111225
501.301226	10652.404219
501.667390	10913.593962
502.033497	11009.897644
502.399546	10873.756243
502.765537	10768.910326
503.131470	10857.460713
503.497345	11023.980107
503.863163	10638.480552
504.228923	10946.716863
504.594625	11012.652635
504.960269	10762.306414
505.325856	10979.824641
505.691385	10774.253949
506.056856	10928.856055
506.422270	10953.338418
506.787625	10838.964720
507.152924	10962.604059
507.518164	10946.033787
507.883347	10860.374500
508.248472	10784.041349
508.613540	11011.914106
508.978550	10892.894984
509.343503	10864.147804
509.708398	10992.563637
510.073236	11097.190264
510.438016	11107.365833
510.802738	11052.979345
511.167403	11107.423806
511.532010	10998.771818
511.896561	11236.318548
512.261053	11307.512244
512.625488	11177.730258
512.989866	11156.254943
513.354186	11147.153140
513.718449	11045.508355
514.082655	11240.946328
514.446803	11135.808023
514.810894	11255.628688
515.174927	11123.978956
515.538904	11148.723459
515.902822	11302.065277
516.266684	11188.034377
516.630488	11124.805705
516.994235	11182.136227
517.357925	11246.700805
517.721558	11337.653302
518.085133	11349.968841
518.448651	11360.746828
518.812112	11239.733930
519.175516	11257.037691
519.538863	11376.792821
519.902152	11295.847014
520.265385	11456.072527
520.628560	11367.975843
520.991678	11351.589572
521.354739	11401.234855
521.717743	11337.638179
522.080690	11315.862915
522.443580	11452.536157
522.806413	11403.558827
523.169189	11436.530494
523.531908	11490.745583
523.894569	11311.822430
524.257174	11319.409367
524.619722	11436.288519
524.982213	11383.283307
525.344647	11427.582446
525.707025	11381.110569
526.069345	11479.420631
526.431608	11396.768393
526.793815	11508.379539
527.155964	11294.990018
527.518057	11349.447082
527.880093	11302.367746
528.242072	11363.889988
528.603995	11271.203333
528.965860	11189.609737
529.327669	11241.823488
529.689421	11190.010509
530.051117	11160.166878
530.412755	11267.152766
530.774337	11163.194091
531.135862	11133.501695
531.497331	11164.761890
531.858743	11011.349496
532.220098	11180.573469
532.581396	11046.471215
532.942638	11034.362364
533.303824	10996.702424
533.664953	11006.625935
534.026025	10921.732904
534.387040	11021.547751
534.747999	11021.696465
535.108902	11079.463047
535.469748	10838.299288
535.830537	10941.834505
536.191270	10918.400702
536.551947	10939.329052
536.912567	10943.621594
537.273131	10868.349606
537.633638	10844.898158
537.994089	10840.731644
538.354483	10785.722574
538.714821	10932.641961
539.075103	10937.879720
539.435328	10901.006200
539.795497	10727.766948
540.155609	10887.110260
540.515665	10970.281737
540.875665	10714.816224
541.235609	10783.940526
541.595496	10776.792170
541.955328	10928.213308
542.315102	10803.553135
542.674821	10759.599314
543.034483	10755.445404
543.394090	10766.273802
543.753640	10691.082472
544.113134	10919.897924
544.472571	10772.708835
544.831953	10915.900289
545.191278	10719.965763
545.550548	10747.165308
545.909761	10887.702595
546.268918	10866.078566
546.628019	10943.828282
546.987064	10809.700822
547.346053	10731.162166
547.704986	10831.556744
548.063863	10811.510596
548.422684	10809.927674
548.781449	10721.652029
549.140158	10828.113636
549.498811	10705.419513
549.857408	10559.155476
550.215949	10784.507656
550.574434	10640.623042
550.932864	10739.283464
551.291237	10795.192381
551.649555	10743.926367
552.007817	10757.111505
552.366022	10722.264529
552.724173	10714.047448
553.082267	10694.273522
553.440305	10835.647641
553.798288	10634.694646
554.156215	10782.634867
554.514086	10765.038719
554.871902	10614.174629
555.229661	10649.664352
555.587365	10625.340785
555.945014	10521.881184
556.302606	10645.099587
556.660143	10537.596981
557.017625	10694.598677
557.375050	10590.849210
557.732421	10728.845755
558.089735	10640.771757
558.446994	10641.278393
558.804197	10674.630666
559.161345	10678.875318
559.518437	10527.819663
559.875474	10617.166554
560.232455	10643.809052
560.589381	10595.986146
560.946251	10589.210835
561.303065	10697.709069
561.659825	10632.882351
562.016528	10563.621938
562.373177	10441.890676
562.729770	10555.074662
563.086307	10470.315222
563.442789	10568.353061
563.799216	10438.939080
564.155587	10492.539148
564.511904	10440.222054
564.868164	10431.425240
565.224370	10449.941398
565.580520	10376.522034
565.936615	10375.544050
566.292654	10243.244008
566.648638	10379.455985
567.004567	10332.623666
567.360441	10319.355349
567.716260	10221.877078
568.072023	10319.635133
568.427732	10265.634293
568.783385	10182.578763
569.138982	10252.275235
569.494525	10268.265775
569.850013	10145.186004
570.205445	10218.323064
570.560823	10115.259194
570.916145	10034.477225
571.271412	10107.699984
571.626625	10054.024299
571.981782	10021.639926
572.336884	9996.250155
572.691931	10001.697122
573.046923	9952.719792
573.401860	9896.712572
573.756743	9844.334984
574.111570	9880.348987
574.466342	9861.570689
574.821059	9893.823991
575.175722	9785.716447
575.530330	9790.382035
575.884882	9788.668042
576.239380	9711.356907
576.593823	9683.055869
576.948211	9697.949958
577.302544	9576.634591
577.656823	9592.814174
578.011047	9596.779042
578.365216	9560.707066
578.719330	9483.579932
579.073389	9495.996294
579.427394	9446.219941
579.781344	9421.324203
580.135239	9369.423003
580.489080	9376.531030
580.842866	9273.250391
581.196597	9278.057131
581.550273	9314.386206
581.903895	9280.265157
582.257463	9344.807049
582.610975	9221.061846
582.964434	9243.167305
583.317837	9162.516406
583.671186	9142.210638
584.024481	9139.337180
584.377721	9053.922390
584.730906	9027.433647
585.084037	9058.976147
585.437113	8989.168769
585.790135	9008.899845
586.143103	8908.104494
586.496016	8879.218683
586.848874	8931.482845
587.201679	8916.619003
587.554428	8802.250346
587.907124	8848.591153
588.259765	8812.642685
588.612352	8815.193508
588.964884	8686.886061
589.317362	8696.396197
589.669786	8692.479221
590.022155	8741.849761
590.374470	8752.700845
590.726731	8687.238942
591.078937	8537.246971
591.431090	8644.668918
591.783188	8509.807970
592.135232	8498.132658
592.487222	8500.625508
592.839157	8542.971201
593.191038	8472.188360
593.542866	8417.257427
593.894639	8316.643558
594.246358	8353.582613
594.598022	8363.511165
594.949633	8268.692102
595.301190	8236.191783
595.652692	8253.866069
596.004141	8356.279630
596.355535	8136.994479
596.706876	8110.228472
597.058162	8050.261427
597.409395	8110.306610
597.760573	8163.513468
598.111698	8070.342863
598.462768	8046.828401
598.813785	8017.125922
599.164748	7975.498595
599.515657	7960.291954
599.866511	7866.912141
600.217312	7986.032086
600.568060	7842.233172
600.918753	7930.639887
601.269392	7896.143271
601.619978	7803.489384
601.970510	7857.417128
602.320988	7845.807350
602.671412	7888.952065
603.021783	7821.347672
603.372100	7787.892054
603.722363	7777.035929
604.072572	7754.391066
604.422728	7758.728979
604.772830	7679.119078
605.122878	7675.751587
605.472872	7664.797160
605.822813	7683.149480
606.172701	7617.869058
606.522534	7683.981271
606.872314	7673.427615
607.222041	7632.664845
607.571714	7671.847213
607.921333	7620.997094
608.270899	7620.465253
608.620411	7695.515431
608.969870	7592.093639
609.319276	7575.304076
609.668627	7581.769356
610.017926	7606.738191
610.367171	7625.294678
610.716362	7596.403825
611.065500	7575.621669
611.414585	7582.044099
611.763616	7562.491983
612.112594	7537.074486
612.461518	7533.467540
612.810389	7574.003458
613.159207	7502.537541
613.507971	7442.141997
613.856682	7533.470061
614.205340	7481.987277
614.553945	7539.557254
614.902496	7430.837210
615.250994	7462.631767
615.599439	7432.387364
615.947830	7434.723939
616.296169	7383.344499
616.644454	7387.994964
616.992686	7369.080554
617.340864	7399.035091
617.688990	7299.731922
618.037063	7366.791871
618.385082	7302.323075
618.733048	7354.677978
619.080961	7285.936804
619.428821	7286.292205
619.776628	7269.855523
620.124382	7218.801238
620.472083	7190.361568
620.819731	7196.973042
621.167326	7094.506548
621.514868	7089.961948
621.862357	6983.059240
622.209793	6987.190465
622.557176	6917.970382
622.904506	6874.800461
623.251783	6813.069012
623.599007	6757.515496
623.946179	6754.208499
624.293297	6701.503236
624.640363	6623.962728
624.987376	6595.041628
625.334336	6543.127826
625.681243	6482.177755
626.028097	6464.707637
626.374899	6430.745383
626.721647	6407.135139
627.068343	6342.426888
627.414987	6301.754859
627.761577	6252.091932
628.108115	6268.248830
628.454600	6168.575136
628.801032	6185.273958
629.147412	6146.845243
629.493739	6118.183762
629.840014	6051.249842
630.186236	6078.020890
630.532405	5974.599098
630.878521	5998.005175
631.224585	5947.991888
631.570597	5880.498400
631.916556	5884.962342
632.262462	5866.640268
632.608316	5821.768958
632.954117	5790.498680
633.299866	5771.085197
633.645562	5744.137709
633.991206	5675.265465
634.336797	5621.899810
634.682336	5571.672274
635.027823	5537.745309
635.373257	5524.179564
635.718639	5457.238082
636.063968	5452.912772
636.409245	5369.627869
636.754470	5349.901834
637.099642	5311.682326
637.444762	5260.610397
637.789829	5253.908183
638.134845	5205.412283
638.479808	5181.625598
638.824719	5168.879041
639.169577	5114.817707
639.514383	5112.823930
639.859137	5047.220875
640.203839	5046.532757
640.548489	5022.025188
