Dividing Wavelength (nm)	Counts (n)	Blue Motor Position (mm): 0.000000	Red Motor Position (mm): 33.000000	
326.493990	2079.372618
326.888308	2079.372618
327.282561	2079.372618
327.676750	2055.787580
328.070874	2056.037117
328.464933	2060.306974
328.858929	2072.262070
329.252859	2084.431416
329.646726	2100.497573
330.040528	2114.869903
330.434265	2134.679117
330.827938	2153.840543
331.221547	2174.060611
331.615091	2193.524506
332.008571	2215.695500
332.401986	2236.644015
332.795338	2255.117323
333.188625	2275.710437
333.581847	2293.520833
333.975006	2314.847435
334.368100	2329.290340
334.761129	2346.180726
335.154095	2361.992305
335.546996	2387.273692
335.939833	2425.785587
336.332606	2436.639191
336.725315	2450.502364
337.117960	2459.392439
337.510540	2465.688840
337.903056	2475.647639
338.295508	2480.784575
338.687896	2488.616008
339.080220	2493.291678
339.472480	2500.066989
339.864676	2505.415653
340.256807	2508.765500
340.648875	2506.804491
341.040879	2510.824811
341.432818	2511.477640
341.824694	2512.032167
342.216506	2511.001251
342.608253	2512.851355
342.999937	2508.974708
343.391557	2509.637619
343.783113	2507.379182
344.174605	2507.444717
344.566033	2502.363234
344.957397	2506.091168
345.348697	2499.426762
345.739934	2501.720487
346.131106	2499.638491
346.522215	2497.357368
346.913260	2495.610609
347.304241	2495.073726
347.695159	2493.485762
348.086012	2493.979795
348.476802	2489.919146
348.867528	2490.977788
349.258191	2487.711121
349.648789	2488.752119
350.039324	2484.028558
350.429796	2488.605925
350.820203	2484.794813
351.210548	2484.535194
351.600828	2485.881182
351.991045	2484.530153
352.381198	2483.078300
352.771288	2484.515029
353.161314	2485.127529
353.551276	2485.024186
353.941175	2484.479741
354.331010	2482.932107
354.720782	2486.564258
355.110490	2483.854638
355.500135	2486.871768
355.889717	2486.773466
356.279235	2485.994608
356.668689	2488.401759
357.058080	2488.527788
357.447408	2486.581902
357.836672	2486.113075
358.225873	2488.406800
358.615010	2486.506285
359.004084	2489.369660
359.393095	2492.089363
359.782043	2492.500217
360.170927	2495.111534
360.559748	2493.276554
360.948505	2495.940804
361.337199	2496.475167
361.725830	2497.637153
362.114398	2495.794611
362.502903	2498.657986
362.891344	2500.455157
363.279722	2500.666886
363.668037	2499.580517
364.056289	2501.644870
364.444478	2501.624705
364.832603	2503.076558
365.220665	2505.662669
365.608665	2505.750890
365.996601	2505.723163
366.384474	2505.392968
366.772284	2509.622496
367.160031	2508.190808
367.547715	2510.015706
367.935336	2510.461848
368.322893	2511.643998
368.710388	2509.214162
369.097820	2514.646006
369.485189	2513.385717
369.872495	2516.576768
370.259738	2515.439987
370.646918	2519.992149
371.034035	2521.635565
371.421090	2520.677746
371.808081	2528.675537
372.195010	2531.037317
372.581875	2536.244829
372.968678	2540.822197
373.355418	2547.282436
373.742096	2557.911708
374.128710	2567.966290
374.515262	2576.231262
374.901751	2591.543766
375.288177	2605.480036
375.674540	2620.459825
376.060841	2640.228710
376.447079	2661.106648
376.833254	2685.483148
377.219367	2706.449307
377.605417	2736.781929
377.991404	2762.443923
378.377329	2799.970272
378.763191	2829.566886
379.148991	2873.137579
379.534727	2923.019796
379.920402	2965.670478
380.306013	3009.576408
380.691563	3069.719894
381.077049	3122.142853
381.462474	3176.065555
381.847835	3244.146337
382.233134	3311.801143
382.618371	3366.752240
383.003545	3447.360290
383.388657	3525.200747
383.773706	3613.652832
384.158693	3678.507276
384.543618	3765.250411
384.928480	3843.695806
385.313280	3942.905713
385.698017	4039.814334
386.082692	4151.448166
386.467305	4213.726580
386.851856	4330.469621
387.236344	4480.751458
387.620770	4535.334552
388.005133	4651.800329
388.389435	4789.965753
388.773674	4876.242580
389.157851	4996.975694
389.541965	5127.029902
389.926018	5151.776926
390.310008	5320.794212
390.693936	5434.938538
391.077802	5548.041865
391.461606	5676.621535
391.845348	5789.152692
392.229027	5900.393313
392.612645	6114.465912
392.996200	6226.258539
393.379694	6395.918572
393.763125	6606.941272
394.146494	6703.300407
394.529801	6834.226734
394.913047	7065.051087
395.296230	7062.996816
395.679351	7121.345652
396.062410	7369.710699
396.445408	7270.515914
396.828343	7420.649038
397.211217	7553.730458
397.594028	7441.607635
397.976778	7642.679097
398.359466	7803.746483
398.742092	7785.537835
399.124656	7923.690657
399.507158	8115.249462
399.889598	8139.575549
400.271977	8345.773865
400.654294	8377.112198
401.036549	8576.136952
401.418742	8609.280018
401.800874	8895.851970
402.182944	8977.080082
402.564952	9333.068723
402.946898	9172.218106
403.328783	9223.451353
403.710606	9421.276312
404.092367	9666.352006
404.474067	10026.368529
404.855705	9833.940125
405.237282	9792.723651
405.618797	10206.085663
406.000250	10449.424680
406.381642	10800.508278
406.762972	10753.446586
407.144240	10573.338762
407.525447	10822.049128
407.906593	10766.558627
408.287677	11029.664008
408.668700	11172.575679
409.049661	11160.565130
409.430560	11321.032618
409.811399	11294.564040
410.192176	11456.606889
410.572891	11534.472552
410.953545	12009.379491
411.334138	11497.626758
411.714669	12072.071280
412.095139	11429.951788
412.475547	11898.968139
412.855894	11766.549631
413.236180	12089.357397
413.616405	11789.675924
413.996568	12054.523023
414.376670	12037.751105
414.756711	11928.466451
415.136691	12201.817977
415.516609	12365.070703
415.896466	12455.894652
416.276262	12748.669743
416.655997	13196.495604
417.035670	13244.210125
417.415283	13864.740876
417.794834	13946.659626
418.174324	13694.382643
418.553753	13604.395527
418.933121	14092.916102
419.312428	13920.405297
419.691674	13835.920599
420.070859	14293.354899
420.449983	13940.431280
420.829045	14504.962373
421.208047	14266.442699
421.586988	14707.820924
421.965867	14954.083810
422.344686	14956.858966
422.723444	15531.442119
423.102141	14233.080343
423.480777	15422.343988
423.859352	14915.813891
424.237866	16014.488001
424.616319	15731.109620
424.994712	16385.073303
425.373044	16172.792835
425.751314	16862.266405
426.129524	16001.635580
426.507673	17067.050678
426.885762	16789.870395
427.263789	16972.211450
427.641756	17165.121284
428.019662	17220.894090
428.397508	17276.147657
428.775292	17549.030356
429.153016	17545.216723
429.530679	17608.485724
429.908282	17662.690731
430.285824	17372.990743
430.663305	18086.939115
431.040726	17703.234211
431.418086	17537.022327
431.795385	18179.474535
432.172624	18621.843347
432.549802	18175.607970
432.926920	18391.691988
433.303977	18266.479809
433.680974	18539.904432
434.057910	18828.686930
434.434786	18871.440956
434.811601	18793.161919
435.188355	19843.529173
435.565050	19509.041053
435.941683	19474.254571
436.318257	20364.209789
436.694770	20170.982362
437.071222	20759.900037
437.447614	19836.743780
437.823946	19874.350787
438.200218	20047.335461
438.576429	19821.443878
438.952580	20122.257089
439.328670	20093.976216
439.704700	20518.955568
440.080670	20090.202913
440.456580	20699.940553
440.832429	20858.603308
441.208218	19883.450070
441.583947	20319.759415
441.959616	20443.373548
442.335224	20690.521157
442.710773	20827.595171
443.086261	21383.273998
443.461689	20715.177440
443.837057	20883.967874
444.212365	21544.306096
444.587612	21538.793594
444.962800	21141.114611
445.337927	21567.286195
445.712995	20283.062335
446.088002	22182.301923
446.462949	22380.991441
446.837837	22567.662847
447.212664	22591.888112
447.587431	25541.066455
447.962139	28512.753551
448.336786	30812.376701
448.711374	29142.433996
449.085901	25417.855614
449.460369	25444.493071
449.834776	25435.345898
450.209124	27993.340785
450.583412	27476.352814
450.957640	27957.306617
451.331808	26620.919418
451.705917	25240.543110
452.079965	25275.319510
452.453954	25672.980849
452.827883	25577.773617
453.201752	25376.797937
453.575562	25541.280704
453.949311	26679.051483
454.323001	26759.939318
454.696632	26539.373713
455.070202	28117.544733
455.443713	28306.822416
455.817164	28889.267249
456.190556	29467.089344
456.563888	28874.443737
456.937160	29290.628795
457.310373	27591.447398
457.683526	28032.467701
458.056619	28036.372074
458.429653	28012.013219
458.802628	28624.188257
459.175542	28756.226158
459.548398	30137.104061
459.921194	31771.743566
460.293930	32494.685357
460.666607	34589.851910
461.039224	36379.383387
461.411782	36738.487461
461.784280	35452.368127
462.156719	34895.514711
462.529099	34323.966332
462.901419	33003.602440
463.273680	31940.286983
463.645882	32073.600297
464.018024	32068.110480
464.390106	33012.487474
464.762130	35913.726965
465.134094	40249.474674
465.505999	45745.622902
465.877845	50270.282810
466.249631	51285.258643
466.621358	49401.460109
466.993026	47169.209460
467.364634	45042.626436
467.736184	43080.639606
468.107674	41799.079996
468.479105	41026.694568
468.850477	40286.655704
469.221790	38839.504273
469.593043	37059.293889
469.964238	36140.999825
470.335373	36098.180264
470.706449	37949.251627
471.077467	40730.748591
471.448425	45394.156176
471.819324	48152.456271
472.190164	46157.701941
472.560945	42509.960826
472.931667	39362.713027
473.302330	38259.343082
473.672934	37414.412930
474.043479	37944.502860
474.413965	37160.701739
474.784393	36785.786087
475.154761	37710.444608
475.525070	37763.691795
475.895321	37278.606766
476.265513	37909.335771
476.635645	38884.201663
477.005719	38742.709078
477.375734	39256.599260
477.745691	39974.895627
478.115588	41330.648419
478.485427	43464.415087
478.855207	46926.833304
479.224928	49582.238407
479.594591	51120.770834
479.964194	50019.528256
480.333739	50145.521814
480.703226	50234.498180
481.072653	50888.837428
481.442022	51349.213242
481.811333	51556.601270
482.180584	50267.656369
482.549777	49743.240258
482.918912	49203.405778
483.287988	48883.612622
483.657005	48055.230057
484.025964	47371.442908
484.394864	47351.127058
484.763706	46920.920030
485.132489	46023.849224
485.501213	45866.030862
485.869879	45995.230593
486.238487	45586.370331
486.607036	45766.760460
486.975527	45207.580552
487.343959	45418.515032
487.712333	45486.938613
488.080648	45364.867072
488.448905	45822.258523
488.817104	45618.769827
489.185244	46621.576315
489.553326	48389.234226
489.921350	51146.069865
490.289315	53972.135670
490.657222	54487.787735
491.025070	54699.513676
491.392861	53748.046299
491.760593	52466.322852
492.128267	50754.788106
492.495883	49190.157625
492.863440	47755.102442
493.230939	46373.949797
493.598380	45251.108395
493.965763	44899.215692
494.333088	44061.527157
494.700354	43545.698652
495.067563	43244.131787
495.434713	43061.994899
495.801805	43128.550733
496.168839	42693.957901
496.535815	42326.815707
496.902733	42318.545694
497.269593	41878.442881
497.636395	41779.515278
498.003139	42147.879951
498.369825	41549.278220
498.736453	41826.254336
499.103023	41317.649804
499.469535	41172.620849
499.835989	41215.634494
500.202385	40825.590339
500.568723	40809.607360
500.935003	40957.025822
501.301226	40703.914529
501.667390	41274.121961
502.033497	41440.837960
502.399546	40825.335760
502.765537	40103.117375
503.131470	40410.713459
503.497345	40704.093490
503.863163	39305.747989
504.228923	39873.119772
504.594625	40209.783149
504.960269	39412.958208
505.325856	40024.273729
505.691385	39328.120630
506.056856	39388.317048
506.422270	39740.623126
506.787625	39226.369981
507.152924	39352.192139
507.518164	39338.288637
507.883347	38498.414762
508.248472	38642.311978
508.613540	39011.321919
508.978550	39196.975013
509.343503	38852.810398
509.708398	38960.665885
510.073236	39337.960962
510.438016	39219.163651
510.802738	38591.212322
511.167403	39082.961757
511.532010	39170.382926
511.896561	39317.834155
512.261053	39982.953912
512.625488	39449.120925
512.989866	39192.269095
513.354186	38919.719113
513.718449	38770.848798
514.082655	39268.299778
514.446803	38812.639964
514.810894	39149.898197
515.174927	38917.783310
515.538904	38682.477372
515.902822	39137.433944
516.266684	38487.087290
516.630488	38713.886281
516.994235	38417.652957
517.357925	38773.722256
517.721558	38752.940099
518.085133	38850.589770
518.448651	38787.945872
518.812112	38407.217769
519.175516	38328.192641
519.538863	38436.506873
519.902152	38219.719613
520.265385	38439.871843
520.628560	38265.954556
520.991678	37901.280007
521.354739	37916.963037
521.717743	37981.590629
522.080690	37679.701131
522.443580	37934.571787
522.806413	37777.817108
523.169189	37533.411887
523.531908	37464.806825
523.894569	37126.684033
524.257174	37056.301964
524.619722	37076.998421
524.982213	36843.661053
525.344647	36556.290078
525.707025	36379.935393
526.069345	36466.887736
526.431608	36167.528897
526.793815	36195.232558
527.155964	35588.204538
527.518057	35507.357033
527.880093	35100.472903
528.242072	35276.051251
528.603995	34794.668949
528.965860	34548.030497
529.327669	34384.263573
529.689421	34068.871345
530.051117	33791.731392
530.412755	33659.930424
530.774337	33449.774803
531.135862	33062.982192
531.497331	32947.393575
531.858743	32630.080667
532.220098	32620.121867
532.581396	32152.930414
532.942638	31664.256084
533.303824	31639.486374
533.664953	31359.926667
534.026025	30921.270665
534.387040	30972.186319
534.747999	30686.834326
535.108902	30526.515552
535.469748	29946.568610
535.830537	29769.205694
536.191270	29629.381731
536.551947	29145.345262
536.912567	29086.472147
537.273131	28893.693383
537.633638	28317.025712
537.994089	28256.685621
538.354483	27729.799344
538.714821	27839.905706
539.075103	27767.880220
539.435328	27359.909722
539.795497	27020.224173
540.155609	26764.272189
540.515665	26761.794462
540.875665	26190.079725
541.235609	26111.427643
541.595496	25836.190725
541.955328	25947.096110
542.315102	25326.774567
542.674821	24946.434633
543.034483	24705.361615
543.394090	24433.167033
543.753640	24161.632843
544.113134	24414.827316
544.472571	23635.447287
544.831953	24004.452187
545.191278	23341.875693
545.550548	22950.546043
545.909761	22928.964864
546.268918	22763.554524
546.628019	22654.824397
546.987064	22192.706865
547.346053	21602.468408
547.704986	21746.322774
548.063863	21307.087040
548.422684	21136.043210
548.781449	20814.170578
549.140158	20752.272771
549.498811	20444.659043
549.857408	19952.649989
550.215949	20074.073741
550.574434	19797.037131
550.932864	19472.669128
551.291237	19519.163690
551.649555	19133.170102
552.007817	18991.344800
552.366022	18618.294374
552.724173	18456.664900
553.082267	18374.458804
553.440305	18241.420233
553.798288	17760.884846
554.156215	17636.985887
554.514086	17491.909041
554.871902	17177.769539
555.229661	16971.485524
555.587365	16704.821088
555.945014	16516.483581
556.302606	16291.121319
556.660143	16141.666231
557.017625	15967.174252
557.375050	15696.928077
557.732421	15596.581389
558.089735	15388.835439
558.446994	15165.590461
558.804197	15105.194917
559.161345	14893.176590
559.518437	14475.751407
559.875474	14377.431263
560.232455	14240.291714
560.589381	14107.757259
560.946251	13836.490250
561.303065	13823.577334
561.659825	13593.471346
562.016528	13340.171009
562.373177	13085.930498
562.729770	13031.392775
563.086307	12733.085016
563.442789	12674.773990
563.799216	12506.656550
564.155587	12297.526803
564.511904	12141.359419
564.868164	11992.158909
565.224370	11887.718804
565.580520	11691.070955
565.936615	11576.977040
566.292654	11371.441636
566.648638	11277.817327
567.004567	11117.808583
567.360441	10987.499797
567.716260	10820.259519
568.072023	10732.102341
568.427732	10592.628737
568.783385	10378.293999
569.138982	10315.634977
569.494525	10180.864771
569.850013	10012.218010
570.205445	9880.152382
570.560823	9751.900387
570.916145	9612.961146
571.271412	9496.656685
571.626625	9345.752266
571.981782	9230.395542
572.336884	9076.148837
572.691931	9005.701233
573.046923	8840.910955
573.401860	8715.970998
573.756743	8606.633412
574.111570	8512.071448
574.466342	8390.904795
574.821059	8304.716188
575.175722	8140.619068
575.530330	8045.013586
575.884882	7910.334119
576.239380	7810.630179
576.593823	7716.113585
576.948211	7616.011393
577.302544	7469.943961
577.656823	7384.995477
578.011047	7326.180335
578.365216	7213.485341
578.719330	7105.014834
579.073389	7014.115268
579.427394	6943.622293
579.781344	6862.379058
580.135239	6753.573314
580.489080	6688.315577
580.842866	6559.977883
581.196597	6533.867226
581.550273	6462.502132
581.903895	6380.820316
582.257463	6346.815213
582.610975	6228.998406
582.964434	6183.166756
583.317837	6089.182004
583.671186	6017.043093
584.024481	5967.632223
584.377721	5870.206884
584.730906	5826.469833
585.084037	5768.612511
585.437113	5686.008164
585.790135	5629.002796
586.143103	5539.970978
586.496016	5490.270242
586.848874	5435.505667
587.201679	5389.674017
587.554428	5297.960305
587.907124	5258.654429
588.259765	5196.665881
588.612352	5160.883771
588.964884	5076.071398
589.317362	5043.654258
589.669786	4992.668028
590.022155	4930.061939
590.374470	4908.286675
590.726731	4837.113144
591.078937	4765.125467
591.431090	4726.681628
591.783188	4662.119571
592.135232	4604.567238
592.487222	4577.980192
592.839157	4539.518709
593.191038	4482.886387
593.542866	4435.807051
593.894639	4371.270200
594.246358	4347.934698
594.598022	4308.233091
594.949633	4257.113271
595.301190	4216.163978
595.652692	4180.389430
596.004141	4160.451666
596.355535	4085.817384
596.706876	4053.140624
597.058162	4013.612937
597.409395	4000.112727
597.760573	3975.748831
598.111698	3931.472376
598.462768	3902.478180
598.813785	3877.423645
599.164748	3834.702387
599.515657	3822.152435
599.866511	3781.366979
600.217312	3777.283645
600.568060	3720.462279
600.918753	3724.533011
601.269392	3699.065102
601.619978	3670.756502
601.970510	3657.049605
602.320988	3639.695433
602.671412	3625.960809
603.021783	3602.292592
603.372100	3574.636822
603.722363	3553.557237
604.072572	3539.704146
604.422728	3525.420037
604.772830	3500.794000
605.122878	3484.410250
605.472872	3471.333497
605.822813	3458.292032
606.172701	3441.613375
606.522534	3433.683640
606.872314	3426.492434
607.222041	3405.430493
607.571714	3401.037128
607.921333	3373.635936
608.270899	3370.575955
608.620411	3363.604040
608.969870	3347.880681
609.319276	3332.384174
609.668627	3327.617763
610.017926	3322.049808
610.367171	3321.071825
610.716362	3308.262253
611.065500	3297.723721
611.414585	3290.192237
611.763616	3286.270219
612.112594	3275.908127
612.461518	3268.948814
612.810389	3267.355810
613.159207	3255.506578
613.507971	3246.760176
613.856682	3243.380082
614.205340	3234.487487
614.553945	3240.559557
614.902496	3222.630693
615.250994	3221.156155
615.599439	3215.021071
615.947830	3211.285576
616.296169	3204.487580
616.644454	3203.103783
616.992686	3197.583720
617.340864	3198.901982
617.688990	3184.688448
618.037063	3188.207174
618.385082	3181.847758
618.733048	3177.829959
619.080961	3174.759896
619.428821	3169.456602
619.776628	3164.783452
620.124382	3155.268275
620.472083	3151.830208
620.819731	3149.551606
621.167326	3136.663896
621.514868	3135.012918
621.862357	3117.447018
622.209793	3115.987604
622.557176	3103.924123
622.904506	3095.830550
623.251783	3083.714137
623.599007	3079.981162
623.946179	3070.004719
624.293297	3066.402815
624.640363	3057.762277
624.987376	3051.496123
625.334336	3046.878426
625.681243	3038.121942
626.028097	3030.857639
626.374899	3030.270344
626.721647	3023.863038
627.068343	3019.933458
627.414987	3013.319465
627.761577	3008.684124
628.108115	3006.955008
628.454600	2997.512927
628.801032	2995.562000
629.147412	2993.870693
629.493739	2988.201916
629.840014	2981.134218
630.186236	2984.141266
630.532405	2977.945688
630.878521	2974.749597
631.224585	2972.564256
631.570597	2969.133751
631.916556	2965.262145
632.262462	2961.251907
632.608316	2959.956331
632.954117	2957.090435
633.299866	2953.924590
633.645562	2948.475103
633.991206	2943.043259
634.336797	2934.261569
634.682336	2933.765016
635.027823	2925.716814
635.373257	2924.227153
635.718639	2917.968560
636.063968	2914.132242
636.409245	2907.087230
636.754470	2909.580080
637.099642	2901.204203
637.444762	2897.877042
637.789829	2893.798748
