Dividing Wavelength (nm)	Counts (n)	Blue Motor Position (mm): 0.000000	Red Motor Position (mm): 6.800000	
326.493990	2127.881121
326.888308	2127.881121
327.282561	2127.881121
327.676750	2095.279979
328.070874	2093.626480
328.464933	2094.410380
328.858929	2102.720722
329.252859	2110.398399
329.646726	2124.813579
330.040528	2138.787657
330.434265	2152.033289
330.827938	2170.657832
331.221547	2189.854546
331.615091	2210.435056
332.008571	2230.014898
332.401986	2249.783783
332.795338	2266.749786
333.188625	2287.486572
333.581847	2306.204376
333.975006	2322.305822
334.368100	2340.751404
334.761129	2361.006760
335.154095	2375.938658
335.546996	2389.338044
335.939833	2405.502504
336.332606	2424.089238
336.725315	2435.444437
337.117960	2444.034564
337.510540	2448.548917
337.903056	2465.285548
338.295508	2469.893162
338.687896	2479.801550
339.080220	2488.903353
339.472480	2494.897285
339.864676	2497.891731
340.256807	2503.673934
340.648875	2505.798781
341.040879	2506.925478
341.432818	2507.989162
341.824694	2510.103926
342.216506	2511.492764
342.608253	2511.959071
342.999937	2511.402023
343.391557	2511.210459
343.783113	2512.112826
344.174605	2509.970335
344.566033	2509.423370
344.957397	2504.372134
345.348697	2504.132679
345.739934	2504.911538
346.131106	2500.588748
346.522215	2500.576145
346.913260	2498.080774
347.304241	2498.181597
347.695159	2493.057264
348.086012	2493.571462
348.476802	2491.174393
348.867528	2488.913436
349.258191	2487.181799
349.648789	2489.488127
350.039324	2483.484113
350.429796	2488.222798
350.820203	2480.892960
351.210548	2483.325317
351.600828	2479.710809
351.991045	2478.936992
352.381198	2479.892291
352.771288	2481.976808
353.161314	2478.516056
353.551276	2479.433546
353.941175	2480.514873
354.331010	2479.914976
354.720782	2478.838690
355.110490	2477.270891
355.500135	2478.301807
355.889717	2476.277784
356.279235	2478.581591
356.668689	2479.857003
357.058080	2479.632672
357.447408	2479.441108
357.836672	2475.521611
358.225873	2478.062352
358.615010	2477.964050
359.004084	2478.006899
359.393095	2480.535038
359.782043	2483.108547
360.170927	2483.330358
360.559748	2484.250368
360.948505	2483.937817
361.337199	2485.462766
361.725830	2485.664412
362.114398	2486.594505
362.502903	2486.201295
362.891344	2485.089721
363.279722	2485.349340
363.668037	2489.178096
364.056289	2488.484938
364.444478	2486.599546
364.832603	2490.491317
365.220665	2487.660709
365.608665	2490.972747
365.996601	2490.559373
366.384474	2491.040803
366.772284	2493.715135
367.160031	2493.647079
367.547715	2498.758809
367.935336	2497.803511
368.322893	2499.149499
368.710388	2506.270128
369.097820	2510.827332
369.485189	2510.925634
369.872495	2519.155318
370.259738	2522.752181
370.646918	2531.763243
371.034035	2540.668442
371.421090	2548.056253
371.808081	2558.501523
372.195010	2566.393450
372.581875	2577.741087
372.968678	2587.805751
373.355418	2594.286154
373.742096	2607.877105
374.128710	2618.589557
374.515262	2628.601288
374.901751	2637.514048
375.288177	2642.900521
375.674540	2659.634631
376.060841	2666.851043
376.447079	2675.370593
376.833254	2684.840401
377.219367	2686.264527
377.605417	2707.213041
377.991404	2703.560725
378.377329	2708.798484
378.763191	2710.152034
379.148991	2725.320866
379.534727	2729.610888
379.920402	2736.819738
380.306013	2730.505693
380.691563	2746.995307
381.077049	2744.144534
381.462474	2740.013309
381.847835	2746.218969
382.233134	2740.925758
382.618371	2729.973851
383.003545	2741.686972
383.388657	2729.689026
383.773706	2726.319014
384.158693	2718.049002
384.543618	2710.600697
384.928480	2706.550130
385.313280	2702.315560
385.698017	2689.218643
386.082692	2687.975998
386.467305	2672.822290
386.851856	2667.193842
387.236344	2658.865855
387.620770	2651.558703
388.005133	2639.177629
388.389435	2632.535909
388.773674	2619.870010
389.157851	2611.274842
389.541965	2601.230343
389.926018	2590.265834
390.310008	2584.937334
390.693936	2575.901066
391.077802	2572.205900
391.461606	2565.503686
391.845348	2556.621173
392.229027	2550.516336
392.612645	2547.471479
392.996200	2544.308155
393.379694	2539.700540
393.763125	2536.769109
394.146494	2532.829447
394.529801	2528.705784
394.913047	2526.346524
395.296230	2523.773015
395.679351	2521.905267
396.062410	2519.840915
396.445408	2516.183557
396.828343	2517.466531
397.211217	2511.351612
397.594028	2513.252127
397.976778	2510.676097
398.359466	2511.359173
398.742092	2507.880777
399.124656	2513.809174
399.507158	2511.782630
399.889598	2512.405213
400.271977	2513.804133
400.654294	2513.315141
401.036549	2511.911180
401.418742	2514.409071
401.800874	2514.434277
402.182944	2513.161386
402.564952	2512.874040
402.946898	2512.763135
403.328783	2511.485202
403.710606	2511.676766
404.092367	2512.803464
404.474067	2511.691889
404.855705	2513.748680
405.237282	2512.861437
405.618797	2512.748011
406.000250	2514.973681
406.381642	2515.016530
406.762972	2513.491581
407.144240	2513.758763
407.525447	2516.208763
407.906593	2514.724143
408.287677	2516.496109
408.668700	2514.860255
409.049661	2516.246572
409.430560	2513.388238
409.811399	2518.580626
410.192176	2514.441839
410.572891	2515.838238
410.953545	2514.938392
411.334138	2518.941069
411.714669	2514.217507
412.095139	2516.571726
412.475547	2516.251613
412.855894	2518.005935
413.236180	2515.389576
413.616405	2518.104237
413.996568	2516.561644
414.376670	2518.585667
414.756711	2516.118023
415.136691	2515.523166
415.516609	2516.055008
415.896466	2516.294463
416.276262	2518.048784
416.655997	2514.789678
417.035670	2514.958557
417.415283	2518.867972
417.794834	2513.486540
418.174324	2516.125584
418.553753	2519.735050
418.933121	2518.666326
419.312428	2519.172962
419.691674	2520.347551
420.070859	2517.912673
420.449983	2518.252951
420.829045	2517.947961
421.208047	2519.757736
421.586988	2519.087262
421.965867	2519.702283
422.344686	2518.900739
422.723444	2520.743281
423.102141	2517.753877
423.480777	2519.714886
423.859352	2518.192457
424.237866	2520.158507
424.616319	2519.820750
424.994712	2521.025586
425.373044	2521.181862
425.751314	2523.730165
426.129524	2519.314114
426.507673	2524.526667
426.885762	2521.751512
427.263789	2522.232942
427.641756	2522.454753
428.019662	2524.632531
428.397508	2522.132119
428.775292	2522.243024
429.153016	2521.847294
429.530679	2520.778569
429.908282	2522.847963
430.285824	2523.586492
430.663305	2520.380318
431.040726	2523.694877
431.418086	2521.476769
431.795385	2523.775535
432.172624	2521.993487
432.549802	2525.164373
432.926920	2521.161697
433.303977	2525.794517
433.680974	2522.316121
434.057910	2523.084897
434.434786	2524.834177
434.811601	2523.866276
435.188355	2524.219157
435.565050	2525.623118
435.941683	2523.586492
436.318257	2522.172448
436.694770	2522.427027
437.071222	2522.003570
437.447614	2520.599608
437.823946	2522.101872
438.200218	2523.803262
438.576429	2523.394928
438.952580	2524.987933
439.328670	2524.367871
439.704700	2524.627490
440.080670	2524.753519
440.456580	2527.889117
440.832429	2528.000022
441.208218	2526.648993
441.583947	2525.582789
441.959616	2525.446678
442.335224	2525.378622
442.710773	2525.398787
443.086261	2526.033972
443.461689	2526.439785
443.837057	2527.516071
444.212365	2526.744775
444.587612	2521.973323
444.962800	2525.839888
445.337927	2528.133613
445.712995	2524.216636
446.088002	2525.847449
446.462949	2525.759229
446.837837	2526.356606
447.212664	2525.761750
447.587431	2527.609333
447.962139	2527.329549
448.336786	2530.061854
448.711374	2531.468336
449.085901	2528.577234
449.460369	2528.360465
449.834776	2525.761750
450.209124	2528.302491
450.583412	2528.244518
450.957640	2528.070598
451.331808	2531.241484
451.705917	2526.573376
452.079965	2527.120341
452.453954	2529.898017
452.827883	2529.343490
453.201752	2526.850639
453.575562	2525.403828
453.949311	2526.631349
454.323001	2527.863911
454.696632	2529.444313
455.070202	2529.466998
455.443713	2526.873324
455.817164	2528.078160
456.190556	2526.248221
456.563888	2526.964065
456.937160	2526.064219
457.310373	2528.352903
457.683526	2528.216792
458.056619	2528.945238
458.429653	2528.297450
458.802628	2528.405835
459.175542	2528.723428
459.548398	2531.123017
459.921194	2529.643438
460.293930	2528.181504
460.666607	2530.082019
461.039224	2530.137471
461.411782	2531.191072
461.784280	2533.308357
462.156719	2529.661082
462.529099	2530.674354
462.901419	2529.416586
463.273680	2531.997657
463.645882	2531.130579
464.018024	2530.936494
464.390106	2529.058664
464.762130	2530.770136
465.134094	2531.700229
465.505999	2532.426155
465.877845	2532.325332
466.249631	2534.704757
466.621358	2532.927750
466.993026	2534.891279
467.364634	2538.629295
467.736184	2532.244674
468.107674	2532.451361
468.479105	2530.429858
468.850477	2531.871628
469.221790	2535.211393
469.593043	2530.548325
469.964238	2533.336083
470.335373	2531.362472
470.706449	2533.136958
471.077467	2532.564787
471.448425	2534.820703
471.819324	2534.397246
472.190164	2532.748789
472.560945	2533.905734
472.931667	2532.118645
473.302330	2532.910106
473.672934	2532.509334
474.043479	2532.350538
474.413965	2532.544622
474.784393	2529.351051
475.154761	2530.432379
475.525070	2528.725948
475.895321	2526.432223
476.265513	2529.066226
476.635645	2531.755682
477.005719	2532.539581
477.375734	2532.995806
477.745691	2534.276259
478.115588	2534.422452
478.485427	2530.152595
478.855207	2530.702081
479.224928	2533.295754
479.594591	2535.710467
479.964194	2534.929088
480.333739	2536.343132
480.703226	2536.272556
481.072653	2534.051927
481.442022	2535.685261
481.811333	2534.283820
482.180584	2535.655014
482.549777	2534.997144
482.918912	2537.810108
483.287988	2533.782226
483.657005	2539.922351
484.025964	2534.344314
484.394864	2536.753986
484.763706	2536.128883
485.132489	2536.827083
485.501213	2534.674510
485.869879	2537.495035
486.238487	2536.272556
486.607036	2535.483615
486.975527	2535.029911
487.343959	2534.815662
487.712333	2535.198790
488.080648	2534.024201
488.448905	2534.286341
488.817104	2534.024201
489.185244	2534.319108
489.553326	2535.329860
489.921350	2538.621733
490.289315	2534.490508
490.657222	2537.139634
491.025070	2536.509490
491.392861	2535.289531
491.760593	2535.181146
492.128267	2534.230888
492.495883	2537.235416
492.863440	2538.223482
493.230939	2536.761547
493.598380	2534.835827
493.965763	2531.722914
494.333088	2532.670651
494.700354	2531.967410
495.067563	2533.678882
495.434713	2529.535053
495.801805	2536.806918
496.168839	2538.208359
496.535815	2535.549150
496.902733	2535.024870
497.269593	2537.437062
497.636395	2535.579397
498.003139	2539.551826
498.369825	2535.594520
498.736453	2535.120652
499.103023	2532.181659
499.469535	2538.223482
499.835989	2535.712988
500.202385	2535.816331
500.568723	2537.772299
500.935003	2538.576363
501.301226	2537.510159
501.667390	2536.144006
502.033497	2539.624923
502.399546	2538.798174
502.765537	2535.806249
503.131470	2537.338760
503.497345	2538.261291
503.863163	2538.634336
504.228923	2533.827596
504.594625	2537.580735
504.960269	2536.766589
505.325856	2537.989068
505.691385	2535.332380
506.056856	2538.936805
506.422270	2536.504449
506.787625	2535.866743
507.152924	2535.337422
507.518164	2538.223482
507.883347	2534.215765
508.248472	2538.563760
508.613540	2537.356404
508.978550	2540.020653
509.343503	2537.273225
509.708398	2540.287835
510.073236	2535.740714
510.438016	2539.080478
510.802738	2537.253060
511.167403	2538.147865
511.532010	2535.778522
511.896561	2540.171888
512.261053	2538.914120
512.625488	2534.944212
512.989866	2534.719880
513.354186	2535.692823
513.718449	2531.879190
514.082655	2537.472350
514.446803	2540.371014
514.810894	2539.486291
515.174927	2541.301107
515.538904	2538.891435
515.902822	2539.876981
516.266684	2535.251722
516.630488	2538.538554
516.994235	2539.120807
517.357925	2537.621064
517.721558	2538.591486
518.085133	2540.121477
518.448651	2537.346321
518.812112	2538.578883
519.175516	2537.593338
519.538863	2538.992258
519.902152	2539.461085
520.265385	2538.891435
520.628560	2537.139634
520.991678	2539.357742
521.354739	2540.116435
521.717743	2537.484953
522.080690	2540.292876
522.443580	2539.551826
522.806413	2538.185673
523.169189	2536.943029
523.531908	2538.788091
523.894569	2539.962680
524.257174	2539.748431
524.619722	2536.885056
524.982213	2538.704912
525.344647	2540.181970
525.707025	2536.917823
526.069345	2536.559901
526.431608	2537.910931
526.793815	2539.604758
527.155964	2538.591486
527.518057	2539.297248
527.880093	2541.729605
528.242072	2538.651980
528.603995	2541.580891
528.965860	2537.714326
529.327669	2540.010571
529.689421	2538.087371
530.051117	2539.453524
530.412755	2538.725077
530.774337	2536.204500
531.135862	2539.367824
531.497331	2538.415046
531.858743	2536.343132
532.220098	2537.064017
532.581396	2534.775333
532.942638	2535.486136
533.303824	2542.077444
533.664953	2539.176260
534.026025	2538.944367
534.387040	2539.705581
534.747999	2540.368493
535.108902	2541.104502
535.469748	2539.163657
535.830537	2538.218441
536.191270	2540.665921
536.551947	2538.936805
536.912567	2538.576363
537.273131	2539.498894
537.633638	2538.135262
537.994089	2540.307999
538.354483	2540.323123
538.714821	2537.764737
539.075103	2538.886394
539.435328	2539.105684
539.795497	2542.337064
540.155609	2539.894625
540.515665	2541.467465
540.875665	2540.862526
541.235609	2539.261960
541.595496	2540.408822
541.955328	2541.669111
542.315102	2541.475026
542.674821	2540.275232
543.034483	2540.527289
543.394090	2541.167516
543.753640	2537.850437
544.113134	2538.553678
544.472571	2539.153575
544.831953	2538.508307
545.191278	2540.754141
545.550548	2539.808925
545.909761	2541.837989
546.268918	2541.626261
546.628019	2542.175747
546.987064	2539.335057
547.346053	2541.348998
547.704986	2541.084337
548.063863	2541.810263
548.422684	2538.858667
548.781449	2542.291693
549.140158	2539.781199
549.498811	2541.895963
549.857408	2540.378575
550.215949	2537.212731
550.574434	2536.272556
550.932864	2538.762886
551.291237	2536.224665
551.649555	2539.637526
552.007817	2539.997968
552.366022	2540.779347
552.724173	2536.519572
553.082267	2541.757331
553.440305	2539.597197
553.798288	2540.950746
554.156215	2537.958822
554.514086	2538.520910
554.871902	2542.125335
555.229661	2540.776827
555.587365	2540.854964
555.945014	2542.077444
556.302606	2539.375386
556.660143	2538.430169
557.017625	2539.498894
557.375050	2542.952084
557.732421	2540.880170
558.089735	2540.139121
558.446994	2541.233051
558.804197	2540.759183
559.161345	2540.832279
559.518437	2537.910931
559.875474	2539.758513
560.232455	2539.655170
560.589381	2541.994265
560.946251	2542.223638
561.303065	2540.113915
561.659825	2542.274049
562.016528	2540.456713
562.373177	2540.123997
562.729770	2541.845551
563.086307	2541.205325
563.442789	2540.625592
563.799216	2541.424615
564.155587	2540.207176
564.511904	2541.044008
564.868164	2540.804553
565.224370	2541.530479
565.580520	2540.111394
565.936615	2541.210366
566.292654	2539.829090
566.648638	2538.876312
567.004567	2538.586445
567.360441	2541.502753
567.716260	2540.723894
568.072023	2541.374203
568.427732	2538.745242
568.783385	2536.774150
569.138982	2535.962525
569.494525	2536.887576
569.850013	2537.275745
570.205445	2542.203473
570.560823	2540.837320
570.916145	2542.629451
571.271412	2540.219779
571.626625	2540.391178
571.981782	2541.744728
572.336884	2540.227341
572.691931	2540.131559
573.046923	2540.880170
573.401860	2541.729605
573.756743	2542.715150
574.111570	2540.386137
574.466342	2537.474871
574.821059	2540.769265
575.175722	2541.427135
575.530330	2541.631302
575.884882	2540.862526
576.239380	2541.134748
576.593823	2540.733977
576.948211	2539.337577
577.302544	2538.863709
577.656823	2539.957639
578.011047	2543.035263
578.365216	2543.143648
578.719330	2540.418905
579.073389	2538.672145
579.427394	2540.739018
579.781344	2540.975952
580.135239	2540.875129
580.489080	2544.040974
580.842866	2539.347659
581.196597	2541.316230
581.550273	2540.174409
581.903895	2542.989893
582.257463	2541.270860
582.610975	2541.033925
582.964434	2540.774306
583.317837	2544.040974
583.671186	2540.325643
584.024481	2539.874460
584.377721	2541.961498
584.730906	2540.774306
585.084037	2543.264636
585.437113	2540.766744
585.790135	2539.357742
586.143103	2539.304810
586.496016	2539.135931
586.848874	2536.096115
587.201679	2539.274563
587.554428	2536.010416
587.907124	2539.188863
588.259765	2535.322298
588.612352	2540.766744
588.964884	2540.103833
589.317362	2541.583411
589.669786	2542.594163
590.022155	2543.393185
590.374470	2540.275232
590.726731	2541.475026
591.078937	2540.567619
591.431090	2542.367311
591.783188	2541.540561
592.135232	2540.865047
592.487222	2540.403781
592.839157	2538.702392
593.191038	2540.862526
593.542866	2540.181970
593.894639	2539.292207
594.246358	2541.112063
594.598022	2541.346477
594.949633	2537.323636
595.301190	2540.741538
595.652692	2540.401261
596.004141	2539.244316
596.355535	2541.338915
596.706876	2540.587783
597.058162	2541.170037
597.409395	2541.011240
597.760573	2541.475026
598.111698	2540.930582
598.462768	2540.746580
598.813785	2539.902186
599.164748	2540.807073
599.515657	2539.652649
599.866511	2541.170037
600.217312	2542.523586
600.568060	2538.467978
600.918753	2541.792619
601.269392	2541.210366
601.619978	2539.224151
601.970510	2538.389840
602.320988	2536.995961
602.671412	2541.101981
603.021783	2540.849923
603.372100	2538.813297
603.722363	2539.314892
604.072572	2539.962680
604.422728	2539.788760
604.772830	2536.582587
605.122878	2536.159130
605.472872	2536.421270
605.822813	2533.046217
606.172701	2538.692309
606.522534	2537.963863
606.872314	2541.711961
607.222041	2539.798843
607.571714	2539.952598
607.921333	2540.391178
608.270899	2542.717671
608.620411	2539.776158
608.969870	2541.248174
609.319276	2542.687424
609.668627	2544.421581
610.017926	2545.974256
610.367171	2547.232024
610.716362	2545.747404
611.065500	2548.986346
611.414585	2543.446118
611.763616	2542.027033
612.112594	2543.965356
612.461518	2539.995448
612.810389	2542.014430
613.159207	2539.718184
613.507971	2541.661549
613.856682	2540.275232
614.205340	2542.626930
614.553945	2540.565098
614.902496	2541.101981
615.250994	2539.579552
615.599439	2538.205838
615.947830	2540.318082
616.296169	2539.667773
616.644454	2542.863864
616.992686	2539.788760
617.340864	2540.376055
617.688990	2538.389840
618.037063	2540.880170
618.385082	2538.891435
618.733048	2540.265149
619.080961	2537.152237
619.428821	2543.297403
619.776628	2541.845551
620.124382	2541.596014
620.472083	2539.483771
620.819731	2541.495191
621.167326	2537.159799
621.514868	2539.939995
621.862357	2538.583925
622.209793	2538.813297
622.557176	2541.059131
622.904506	2535.344983
623.251783	2535.045035
623.599007	2536.827083
623.946179	2537.074099
624.293297	2536.441434
624.640363	2540.237423
624.987376	2540.930582
625.334336	2539.766075
625.681243	2541.490150
626.028097	2538.122659
626.374899	2541.069213
626.721647	2538.415046
627.068343	2539.062834
627.414987	2540.048380
627.761577	2540.950746
628.108115	2538.868750
628.454600	2540.552495
628.801032	2540.499563
629.147412	2540.330684
629.493739	2541.565767
629.840014	2540.580222
630.186236	2539.748431
630.532405	2538.410005
630.878521	2541.031405
631.224585	2541.938812
631.570597	2538.039480
631.916556	2540.313040
632.262462	2541.485109
632.608316	2541.613658
632.954117	2537.164840
633.299866	2541.989224
633.645562	2540.817156
633.991206	2539.105684
634.336797	2537.575694
634.682336	2539.226672
635.027823	2538.410005
635.373257	2540.161806
635.718639	2536.015457
636.063968	2540.600386
636.409245	2539.277083
636.754470	2540.171888
637.099642	2536.769109
637.444762	2540.111394
637.789829	2538.662062
638.134845	2538.725077
638.479808	2537.537885
638.824719	2536.872453
639.169577	2539.685417
639.514383	2537.421939
639.859137	2537.459747
640.203839	2540.696168
640.548489	2536.499408
640.893086	2537.676517
641.237632	2531.052441
641.582125	2534.334232
641.926566	2534.155271
642.270955	2538.808256
642.615292	2537.560570
642.959576	2536.804397
643.303809	2536.799356
643.647990	2538.778009
643.992118	2536.227185
644.336195	2539.645087
