Dividing Wavelength (nm)	Counts (n)	Blue Motor Position (mm): 0.000000	Red Motor Position (mm): 9.800000	
326.493990	2129.048148
326.888308	2129.048148
327.282561	2129.048148
327.676750	2096.807448
328.070874	2097.349373
328.464933	2098.302151
328.858929	2103.295413
329.252859	2113.786055
329.646726	2127.099742
330.040528	2137.650877
330.434265	2154.599236
330.827938	2172.137410
331.221547	2189.562159
331.615091	2212.285160
332.008571	2229.173025
332.401986	2245.536610
332.795338	2267.566453
333.188625	2286.853907
333.581847	2305.821249
333.975006	2323.462767
334.368100	2341.144614
334.761129	2359.922912
335.154095	2378.252547
335.546996	2393.786863
335.939833	2405.101733
336.332606	2420.986408
336.725315	2434.978131
337.117960	2445.534307
337.510540	2453.191820
337.903056	2467.012143
338.295508	2471.508852
338.687896	2478.755511
339.080220	2488.338744
339.472480	2494.514158
339.864676	2498.423573
340.256807	2503.885663
340.648875	2506.875067
341.040879	2509.897239
341.432818	2508.861282
341.824694	2513.489061
342.216506	2513.007631
342.608253	2513.015192
342.999937	2513.849503
343.391557	2514.582991
343.783113	2513.209277
344.174605	2509.221724
344.566033	2510.711385
344.957397	2507.510252
345.348697	2504.757782
345.739934	2505.123266
346.131106	2503.837772
346.522215	2500.051865
346.913260	2499.109169
347.304241	2499.993892
347.695159	2496.054230
348.086012	2496.200424
348.476802	2489.092397
348.867528	2491.192037
349.258191	2487.930411
349.648789	2489.225987
350.039324	2485.127529
350.429796	2489.276399
350.820203	2486.609628
351.210548	2482.884216
351.600828	2482.196098
351.991045	2484.343630
352.381198	2480.628299
352.771288	2482.692652
353.161314	2482.929586
353.551276	2482.180975
353.941175	2481.601242
354.331010	2482.085193
354.720782	2481.495378
355.110490	2481.182826
355.500135	2480.898001
355.889717	2479.831797
356.279235	2482.561582
356.668689	2480.918166
357.058080	2481.601242
357.447408	2479.302476
357.836672	2478.647126
358.225873	2480.255254
358.615010	2477.621251
359.004084	2483.403455
359.393095	2483.645430
359.782043	2485.127529
360.170927	2487.388487
360.559748	2484.580564
360.948505	2485.387149
361.337199	2489.127685
361.725830	2485.664412
362.114398	2491.272696
362.502903	2488.815133
362.891344	2488.391676
363.279722	2488.384115
363.668037	2491.605412
364.056289	2489.636841
364.444478	2492.497696
364.832603	2491.829743
365.220665	2491.847387
365.608665	2496.515496
365.996601	2493.261431
366.384474	2495.237563
366.772284	2496.510455
367.160031	2495.686226
367.547715	2498.211844
367.935336	2501.387771
368.322893	2505.166116
368.710388	2505.108143
369.097820	2516.440656
369.485189	2512.962260
369.872495	2523.344517
370.259738	2529.282996
370.646918	2536.932947
371.034035	2541.401930
371.421090	2552.341233
371.808081	2564.475291
372.195010	2570.431414
372.581875	2582.411716
372.968678	2598.492997
373.355418	2607.504059
373.742096	2625.062398
374.128710	2639.044038
374.515262	2656.073056
374.901751	2669.606034
375.288177	2681.157838
375.674540	2708.390151
376.060841	2724.935218
376.447079	2742.506159
376.833254	2764.510796
377.219367	2774.051180
377.605417	2810.271870
377.991404	2819.484579
378.377329	2839.916375
378.763191	2856.229549
379.148991	2888.787841
379.534727	2912.375400
379.920402	2933.341559
380.306013	2942.327416
380.691563	2983.987511
381.077049	2999.768843
381.462474	3008.812673
381.847835	3035.389636
382.233134	3049.028478
382.618371	3037.597662
383.003545	3090.592791
383.388657	3083.089034
383.773706	3095.707042
384.158693	3098.676282
384.543618	3108.524176
384.928480	3122.689818
385.313280	3142.279742
385.698017	3124.930611
386.082692	3145.869043
386.467305	3131.474028
386.851856	3136.094246
387.236344	3130.801034
387.620770	3129.228194
388.005133	3121.227883
388.389435	3116.973149
388.773674	3099.359358
389.157851	3101.053186
389.541965	3085.856627
389.926018	3042.389278
390.310008	3053.555434
390.693936	3034.872918
391.077802	3028.004346
391.461606	2994.740292
391.845348	2993.338851
392.229027	2970.777167
392.612645	2950.327727
392.996200	2947.025771
393.379694	2934.574121
393.763125	2925.545414
394.146494	2891.739437
394.529801	2881.150493
394.913047	2864.728934
395.296230	2832.268945
395.679351	2818.806543
396.062410	2799.400622
396.445408	2771.550767
396.828343	2754.244486
397.211217	2736.847464
397.594028	2704.689944
397.976778	2693.949766
398.359466	2680.683969
398.742092	2666.664520
399.124656	2645.610141
399.507158	2638.542444
399.889598	2627.998870
400.271977	2615.637961
400.654294	2609.351642
401.036549	2592.741040
401.418742	2587.301635
401.800874	2575.654049
402.182944	2572.188256
402.564952	2564.984447
402.946898	2559.885320
403.328783	2550.627241
403.710606	2543.378062
404.092367	2544.270346
404.474067	2539.219110
404.855705	2535.077802
405.237282	2534.036804
405.618797	2531.579241
406.000250	2531.571680
406.381642	2527.218643
406.762972	2527.795855
407.144240	2525.633200
407.525447	2527.337110
407.906593	2524.889630
408.287677	2525.023221
408.668700	2523.266379
409.049661	2524.380474
409.430560	2523.193282
409.811399	2522.326203
410.192176	2519.601460
410.572891	2520.188754
410.953545	2520.707993
411.334138	2522.593385
411.714669	2520.531553
412.095139	2519.482993
412.475547	2521.421316
412.855894	2520.803775
413.236180	2518.910822
413.616405	2521.706142
413.996568	2521.431399
414.376670	2520.488703
414.756711	2522.560617
415.136691	2520.292098
415.516609	2520.713034
415.896466	2522.202695
416.276262	2524.380474
416.655997	2518.893178
417.035670	2517.741274
417.415283	2519.871162
417.794834	2516.296983
418.174324	2520.609691
418.553753	2520.587005
418.933121	2522.250586
419.312428	2520.859228
419.691674	2523.594054
420.070859	2525.759229
420.449983	2522.043899
420.829045	2523.291584
421.208047	2521.721265
421.586988	2523.231091
421.965867	2522.550535
422.344686	2526.412059
422.723444	2523.541122
423.102141	2524.566996
423.480777	2525.809641
423.859352	2523.720082
424.237866	2523.687315
424.616319	2524.186389
424.994712	2524.680422
425.373044	2522.542973
425.751314	2524.874507
426.129524	2525.678571
426.507673	2522.174969
426.885762	2524.544311
427.263789	2525.734023
427.641756	2524.960206
428.019662	2525.050947
428.397508	2525.315608
428.775292	2525.618077
429.153016	2527.553880
429.530679	2527.311905
429.908282	2525.176976
430.285824	2524.141019
430.663305	2525.378622
431.040726	2526.079343
431.418086	2528.930115
431.795385	2525.081194
432.172624	2527.188396
432.549802	2529.381298
432.926920	2528.511699
433.303977	2527.621936
433.680974	2527.503468
434.057910	2526.331400
434.434786	2524.750998
434.811601	2525.229908
435.188355	2525.590351
435.565050	2527.548839
435.941683	2529.386339
436.318257	2526.623787
436.694770	2522.895854
437.071222	2527.435413
437.447614	2523.594054
437.823946	2525.285361
438.200218	2528.504137
438.576429	2527.831143
438.952580	2525.161852
439.328670	2529.651000
439.704700	2527.437933
440.080670	2531.823737
440.456580	2528.602440
440.832429	2529.587986
441.208218	2528.257121
441.583947	2530.714683
441.959616	2528.186545
442.335224	2529.295599
442.710773	2528.105886
443.086261	2532.131248
443.461689	2526.817872
443.837057	2530.165198
444.212365	2532.189221
444.587612	2528.970444
444.962800	2531.551515
445.337927	2529.656041
445.712995	2530.109745
446.088002	2530.281144
446.462949	2529.968593
446.837837	2530.087060
447.212664	2531.362472
447.587431	2532.088398
447.962139	2529.111597
448.336786	2536.479243
448.711374	2532.690816
449.085901	2531.937163
449.460369	2532.068233
449.834776	2533.215096
450.209124	2535.211393
450.583412	2535.034952
450.957640	2534.629139
451.331808	2533.696526
451.705917	2532.804242
452.079965	2533.540250
452.453954	2533.893131
452.827883	2533.578059
453.201752	2532.781557
453.575562	2534.735004
453.949311	2536.017977
454.323001	2531.753161
454.696632	2535.876825
455.070202	2535.249201
455.443713	2534.750127
455.817164	2530.041689
456.190556	2533.474715
456.563888	2532.801721
456.937160	2530.661751
457.310373	2535.274407
457.683526	2535.629808
458.056619	2533.265507
458.429653	2535.057637
458.802628	2535.662576
459.175542	2534.286341
459.548398	2534.377082
459.921194	2533.973789
460.293930	2535.619726
460.666607	2535.050076
461.039224	2537.038811
461.411782	2535.879346
461.784280	2538.513348
462.156719	2538.044521
462.529099	2538.301620
462.901419	2535.990251
463.273680	2538.016795
463.645882	2538.152906
464.018024	2535.365148
464.390106	2536.960673
464.762130	2538.934285
465.134094	2540.423946
465.505999	2538.563760
465.877845	2542.405119
466.249631	2542.468134
466.621358	2539.667773
466.993026	2544.076262
467.364634	2542.992414
467.736184	2541.522917
468.107674	2538.634336
468.479105	2540.139121
468.850477	2537.941178
469.221790	2539.657690
469.593043	2537.663914
469.964238	2538.276414
470.335373	2539.282124
470.706449	2542.362269
471.077467	2538.410005
471.448425	2542.800850
471.819324	2541.273380
472.190164	2543.302445
472.560945	2541.318751
472.931667	2539.340098
473.302330	2540.728936
473.672934	2541.038967
474.043479	2539.241795
474.413965	2539.191384
474.784393	2535.649973
475.154761	2535.758358
475.525070	2533.971269
475.895321	2538.039480
476.265513	2535.617206
476.635645	2539.758513
477.005719	2539.035108
477.375734	2539.007382
477.745691	2541.260777
478.115588	2540.920499
478.485427	2540.234903
478.855207	2539.587114
479.224928	2542.982331
479.594591	2540.963349
479.964194	2541.840510
480.333739	2542.105171
480.703226	2542.808412
481.072653	2543.022661
481.442022	2542.826056
481.811333	2545.023999
482.180584	2542.488298
482.549777	2543.080634
482.918912	2544.159441
483.287988	2541.633823
483.657005	2545.770089
484.025964	2542.294214
484.394864	2540.897814
484.763706	2542.581560
485.132489	2540.360931
485.501213	2540.638195
485.869879	2545.087013
486.238487	2539.879501
486.607036	2542.972249
486.975527	2545.797816
487.343959	2542.470654
487.712333	2542.311858
488.080648	2539.924872
488.448905	2541.638864
488.817104	2543.196580
489.185244	2542.589121
489.553326	2542.137938
489.921350	2543.597352
490.289315	2544.890408
490.657222	2545.220604
491.025070	2547.741181
491.392861	2547.131201
491.760593	2545.780172
492.128267	2545.807898
492.495883	2544.466951
492.863440	2545.331509
493.230939	2542.972249
493.598380	2541.984183
493.965763	2538.830941
494.333088	2542.982331
494.700354	2539.521579
495.067563	2543.730943
495.434713	2538.674665
495.801805	2544.224976
496.168839	2540.802032
496.535815	2543.821683
496.902733	2543.874616
497.269593	2544.676159
497.636395	2544.371169
498.003139	2541.313709
498.369825	2543.078113
498.736453	2545.023999
499.103023	2542.546272
499.469535	2545.407126
499.835989	2543.272198
500.202385	2544.358566
500.568723	2544.857641
500.935003	2543.448638
501.301226	2542.352187
501.667390	2544.560212
502.033497	2545.689431
502.399546	2547.138763
502.765537	2542.256405
503.131470	2544.189688
503.497345	2543.068031
503.863163	2544.320758
504.228923	2544.582898
504.594625	2547.390820
504.960269	2546.198587
505.325856	2544.666077
505.691385	2542.989893
506.056856	2544.426622
506.422270	2546.473330
506.787625	2543.088196
507.152924	2544.661036
507.518164	2544.658515
507.883347	2545.003834
508.248472	2544.555171
508.613540	2544.960984
508.978550	2543.851930
509.343503	2545.893598
509.708398	2546.619524
510.073236	2543.501570
510.438016	2545.845707
510.802738	2542.798329
511.167403	2546.193546
511.532010	2544.918134
511.896561	2547.085831
512.261053	2546.710265
512.625488	2542.367311
512.989866	2540.532331
513.354186	2542.488298
513.718449	2539.793802
514.082655	2545.835624
514.446803	2543.597352
514.810894	2545.613814
515.174927	2545.432332
515.538904	2547.088351
515.902822	2545.480223
516.266684	2543.257074
516.630488	2546.276725
516.994235	2544.666077
517.357925	2544.378731
517.721558	2548.212528
518.085133	2545.639019
518.448651	2546.007024
518.812112	2546.629606
519.175516	2543.998124
519.538863	2546.649771
519.902152	2548.169679
520.265385	2546.541386
520.628560	2547.229503
520.991678	2546.332178
521.354739	2545.346633
521.717743	2543.607434
522.080690	2545.949050
522.443580	2547.138763
522.806413	2545.911242
523.169189	2545.792775
523.531908	2545.129863
523.894569	2544.746735
524.257174	2547.584905
524.619722	2547.537014
524.982213	2547.191695
525.344647	2544.519883
525.707025	2547.032898
526.069345	2547.254709
526.431608	2546.412837
526.793815	2546.674977
527.155964	2548.719164
527.518057	2545.054246
527.880093	2549.727395
528.242072	2547.579864
528.603995	2549.437529
528.965860	2549.092210
529.327669	2548.116747
529.689421	2546.168341
530.051117	2547.809236
530.412755	2544.948381
530.774337	2548.313352
531.135862	2546.100285
531.497331	2546.017106
531.858743	2542.516025
532.220098	2543.436035
532.581396	2543.052907
532.942638	2543.040305
533.303824	2544.855120
533.664953	2547.486602
534.026025	2547.262271
534.387040	2548.875440
534.747999	2545.631458
535.108902	2546.969884
535.469748	2548.089020
535.830537	2545.800336
536.191270	2547.385779
536.551947	2544.121632
536.912567	2548.182282
537.273131	2547.211859
537.633638	2546.072559
537.994089	2548.719164
538.354483	2545.754966
538.714821	2545.623896
539.075103	2548.731767
539.435328	2547.597508
539.795497	2546.332178
540.155609	2550.317210
540.515665	2548.031047
540.875665	2546.473330
541.235609	2548.991387
541.595496	2547.877292
541.955328	2548.668753
542.315102	2547.252189
542.674821	2545.959133
543.034483	2548.842673
543.394090	2550.501212
543.753640	2549.198074
544.113134	2545.392003
544.472571	2547.854607
544.831953	2547.947868
545.191278	2550.589432
545.550548	2546.785882
545.909761	2547.685728
546.268918	2548.827549
546.628019	2543.932589
546.987064	2546.753114
547.346053	2544.600542
547.704986	2546.869061
548.063863	2547.660522
548.422684	2548.066335
548.781449	2548.600697
549.140158	2547.592467
549.498811	2549.182951
549.857408	2550.004659
550.215949	2545.540717
550.574434	2542.135417
550.932864	2545.543238
551.291237	2543.239430
551.649555	2546.027188
552.007817	2549.631613
552.366022	2546.669935
552.724173	2548.328475
553.082267	2547.471479
553.440305	2545.026519
553.798288	2545.954092
554.156215	2544.867723
554.514086	2548.267981
554.871902	2548.933413
555.229661	2548.729247
555.587365	2547.146324
555.945014	2548.862837
556.302606	2547.746222
556.660143	2547.836962
557.017625	2548.946016
557.375050	2545.996941
557.732421	2547.912580
558.089735	2548.913249
558.446994	2549.694628
558.804197	2546.947199
559.161345	2547.862168
559.518437	2547.647919
559.875474	2548.288146
560.232455	2549.828218
560.589381	2544.509801
560.946251	2550.922149
561.303065	2548.162117
561.659825	2550.919628
562.016528	2548.305790
562.373177	2543.998124
562.729770	2550.097920
563.086307	2547.108516
563.442789	2548.789741
563.799216	2545.853268
564.155587	2545.071890
564.511904	2547.421067
564.868164	2547.741181
565.224370	2549.150183
565.580520	2544.713968
565.936615	2548.603218
566.292654	2548.673794
566.648638	2548.421736
567.004567	2547.010213
567.360441	2547.133722
567.716260	2547.436191
568.072023	2547.375697
568.427732	2541.908566
568.783385	2545.523073
569.138982	2543.042825
569.494525	2547.413506
569.850013	2541.911086
570.205445	2549.452652
570.560823	2546.634647
570.916145	2547.680687
571.271412	2548.436860
571.626625	2550.319731
571.981782	2545.691952
572.336884	2547.574822
572.691931	2548.446942
573.046923	2548.202446
573.401860	2548.167158
573.756743	2545.570964
574.111570	2549.051881
574.466342	2544.666077
574.821059	2547.239586
575.175722	2548.290666
575.530330	2546.420398
575.884882	2547.816798
576.239380	2547.418547
576.593823	2549.203115
576.948211	2546.400234
577.302544	2546.795964
577.656823	2544.938299
578.011047	2548.129349
578.365216	2549.525749
578.719330	2548.562889
579.073389	2546.990049
579.427394	2547.537014
579.781344	2546.904349
580.135239	2546.004503
580.489080	2546.364946
580.842866	2549.624052
581.196597	2551.017931
581.550273	2546.334699
581.903895	2549.666901
582.257463	2547.312683
582.610975	2546.594318
582.964434	2548.373845
583.317837	2548.373845
583.671186	2546.783361
584.024481	2547.310162
584.377721	2544.537527
584.730906	2545.903680
585.084037	2549.263609
585.437113	2547.385779
585.790135	2546.029709
586.143103	2549.999618
586.496016	2547.239586
586.848874	2542.586601
587.201679	2544.605583
587.554428	2540.096271
587.907124	2543.567105
588.259765	2543.168854
588.612352	2545.144986
588.964884	2546.380069
589.317362	2544.436704
589.669786	2547.917621
590.022155	2551.580019
590.374470	2545.855789
590.726731	2547.151366
591.078937	2545.749925
591.431090	2546.178423
591.783188	2547.118598
592.135232	2545.717157
592.487222	2548.320913
592.839157	2548.204967
593.191038	2548.146993
593.542866	2547.910059
593.894639	2546.806047
594.246358	2547.300080
594.598022	2547.602549
594.949633	2544.351005
595.301190	2545.933927
595.652692	2546.627086
596.004141	2545.737322
596.355535	2548.043650
596.706876	2548.575492
597.058162	2545.341591
597.409395	2542.571477
597.760573	2550.937272
598.111698	2544.232538
598.462768	2546.680018
598.813785	2545.699513
599.164748	2543.141128
599.515657	2545.276056
599.866511	2546.228834
600.217312	2546.468289
600.568060	2546.773279
600.918753	2549.271171
601.269392	2545.724719
601.619978	2543.562064
601.970510	2543.257074
602.320988	2545.671787
602.671412	2547.224462
603.021783	2545.127342
603.372100	2546.213711
603.722363	2546.226314
604.072572	2544.973587
604.422728	2548.512477
604.772830	2541.974101
605.122878	2541.485109
605.472872	2544.282949
605.822813	2540.726415
606.172701	2545.691952
606.522534	2545.898639
606.872314	2549.137580
607.222041	2545.124822
607.571714	2546.226314
607.921333	2543.257074
608.270899	2544.471992
608.620411	2545.356715
608.969870	2545.754966
609.319276	2549.886192
609.668627	2551.091027
610.017926	2552.842828
610.367171	2555.812068
610.716362	2553.248641
611.065500	2549.303938
611.414585	2548.015923
611.763616	2547.453835
612.112594	2548.313352
612.461518	2547.952909
612.810389	2548.716644
613.159207	2547.083310
613.507971	2546.395192
613.856682	2547.085831
614.205340	2546.884184
614.553945	2547.025337
614.902496	2546.037271
615.250994	2547.214380
615.599439	2546.954761
615.947830	2546.707744
616.296169	2545.412167
616.644454	2548.819987
616.992686	2543.887218
617.340864	2547.806716
617.688990	2543.801519
618.037063	2547.312682
618.385082	2545.011396
618.733048	2545.429812
619.080961	2545.260933
619.428821	2547.322765
619.776628	2547.645399
620.124382	2549.182951
620.472083	2548.986346
620.819731	2546.105326
621.167326	2545.233207
621.514868	2546.213711
621.862357	2543.642722
622.209793	2544.955943
622.557176	2545.651622
622.904506	2544.237579
623.251783	2542.717671
623.599007	2544.769420
623.946179	2539.992927
624.293297	2541.366642
624.640363	2543.844369
624.987376	2547.703372
625.334336	2546.087682
625.681243	2543.577188
626.028097	2545.981818
626.374899	2544.890408
626.721647	2544.991231
627.068343	2544.661036
627.414987	2542.226158
627.761577	2545.293700
628.108115	2542.440407
628.454600	2545.855789
628.801032	2545.775131
629.147412	2544.976108
629.493739	2544.479554
629.840014	2545.026519
630.186236	2545.003834
630.532405	2545.334030
630.878521	2543.932589
631.224585	2543.856972
631.570597	2544.330840
631.916556	2543.746066
632.262462	2544.595501
632.608316	2543.531817
632.954117	2544.076262
633.299866	2543.735984
633.645562	2544.787064
633.991206	2546.475851
634.336797	2542.211035
634.682336	2544.703885
635.027823	2545.099616
635.373257	2541.366642
635.718639	2539.544264
636.063968	2544.325799
636.409245	2542.962167
636.754470	2543.972918
637.099642	2541.386806
637.444762	2544.277908
637.789829	2545.356715
638.134845	2540.179450
638.479808	2541.412012
638.824719	2539.403112
639.169577	2542.047197
639.514383	2543.403268
639.859137	2539.604758
640.203839	2542.977290
640.548489	2542.589121
640.893086	2540.134079
641.237632	2537.817669
641.582125	2538.931764
641.926566	2539.025026
642.270955	2540.804553
642.615292	2541.734646
642.959576	2544.040974
643.303809	2541.797660
643.647990	2541.928730
643.992118	2540.219779
644.336195	2543.889739
