Dividing Wavelength (nm)	Counts (n)	Blue Motor Position (mm): 0.000000	Red Motor Position (mm): 11.500000	
326.493990	2126.290637
326.888308	2126.290637
327.282561	2126.290637
327.676750	2092.409042
328.070874	2093.550863
328.464933	2096.424321
328.858929	2101.152923
329.252859	2113.045005
329.646726	2121.980450
330.040528	2138.946453
330.434265	2155.486479
330.827938	2170.584735
331.221547	2187.212981
331.615091	2207.700230
332.008571	2227.350648
332.401986	2246.494430
332.795338	2266.543098
333.188625	2287.501696
333.581847	2302.786474
333.975006	2323.014104
334.368100	2341.573112
334.761129	2355.910153
335.154095	2374.547299
335.546996	2392.191338
335.939833	2407.569377
336.332606	2418.982550
336.725315	2433.506114
337.117960	2442.983483
337.510540	2451.177879
337.903056	2462.517954
338.295508	2470.838379
338.687896	2481.255923
339.080220	2486.624752
339.472480	2493.442912
339.864676	2498.398367
340.256807	2501.372647
340.648875	2504.029336
341.040879	2508.032012
341.432818	2507.658966
341.824694	2509.577125
342.216506	2508.107629
342.608253	2512.289266
342.999937	2512.208608
343.391557	2511.039060
343.783113	2508.284069
344.174605	2506.063441
344.566033	2508.984790
344.957397	2504.064624
345.348697	2503.031187
345.739934	2506.244923
346.131106	2500.823162
346.522215	2500.150168
346.913260	2497.758140
347.304241	2496.482728
347.695159	2494.902327
348.086012	2490.743375
348.476802	2492.974085
348.867528	2488.512664
349.258191	2489.604074
349.648789	2485.848414
350.039324	2487.053250
350.429796	2484.031078
350.820203	2481.699545
351.210548	2482.407827
351.600828	2481.220635
351.991045	2480.104019
352.381198	2479.423464
352.771288	2478.816005
353.161314	2480.194760
353.551276	2482.213742
353.941175	2479.398258
354.331010	2479.383134
354.720782	2480.671149
355.110490	2478.379945
355.500135	2479.120994
355.889717	2479.688124
356.279235	2481.593680
356.668689	2482.291880
357.058080	2481.366828
357.447408	2480.522435
357.836672	2477.737198
358.225873	2478.873978
358.615010	2479.972949
359.004084	2482.831284
359.393095	2480.046046
359.782043	2482.760708
360.170927	2486.602067
360.559748	2482.256592
360.948505	2486.281953
361.337199	2485.273723
361.725830	2485.818167
362.114398	2485.997128
362.502903	2486.042499
362.891344	2491.313025
363.279722	2487.774135
363.668037	2489.094917
364.056289	2489.523415
364.444478	2490.783704
364.832603	2493.684888
365.220665	2491.368478
365.608665	2491.832264
365.996601	2492.026348
366.384474	2492.389311
366.772284	2493.155567
367.160031	2497.609426
367.547715	2498.247132
367.935336	2500.399705
368.322893	2504.021774
368.710388	2504.001609
369.097820	2512.422857
369.485189	2516.743126
369.872495	2520.246728
370.259738	2526.477594
370.646918	2534.235929
371.034035	2542.755479
371.421090	2551.146480
371.808081	2560.535629
372.195010	2570.275138
372.581875	2582.512539
372.968678	2596.405959
373.355418	2605.603544
373.742096	2622.655247
374.128710	2639.921199
374.515262	2654.611122
374.901751	2671.133503
375.288177	2682.995338
375.674540	2704.677341
376.060841	2725.555280
376.447079	2744.656212
376.833254	2763.384098
377.219367	2775.787857
377.605417	2812.595842
377.991404	2819.998776
378.377329	2841.257322
378.763191	2861.374047
379.148991	2899.656569
379.534727	2924.206988
379.920402	2951.890484
380.306013	2964.395067
380.691563	3015.154445
381.077049	3033.579862
381.462474	3051.932183
381.847835	3088.483068
382.233134	3110.074330
382.618371	3108.320009
383.003545	3175.692509
383.388657	3177.174609
383.773706	3205.808362
384.158693	3220.442832
384.543618	3238.349011
384.928480	3271.388733
385.313280	3306.303764
385.698017	3297.421251
386.082692	3337.052282
386.467305	3333.047086
386.851856	3351.424612
387.236344	3361.053216
387.620770	3376.738766
388.005133	3384.633213
388.389435	3393.702249
388.773674	3387.705796
389.157851	3404.069382
389.541965	3398.451016
389.926018	3353.020137
390.310008	3388.875344
390.693936	3383.370404
391.077802	3390.299470
391.461606	3359.876106
391.845348	3380.963253
392.229027	3355.616331
392.612645	3339.043538
392.996200	3359.727392
393.379694	3353.521732
393.763125	3367.808362
394.146494	3312.169147
394.529801	3317.570743
394.913047	3310.888694
395.296230	3261.346754
395.679351	3251.766042
396.062410	3227.583627
396.445408	3189.263296
396.828343	3169.426355
397.211217	3146.408447
397.594028	3079.245154
397.976778	3068.605799
398.359466	3047.410267
398.742092	3021.581916
399.124656	2972.080306
399.507158	2963.074284
399.889598	2945.140379
400.271977	2928.812082
400.654294	2895.043913
401.036549	2865.182638
401.418742	2834.633246
401.800874	2827.605877
402.182944	2805.971766
402.564952	2792.340486
402.946898	2768.084974
403.328783	2746.455903
403.710606	2714.749566
404.092367	2715.057077
404.474067	2695.625949
404.855705	2679.811850
405.237282	2659.463232
405.618797	2649.491830
406.000250	2639.805253
406.381642	2632.346866
406.762972	2617.977057
407.144240	2603.521548
407.525447	2597.320929
407.906593	2587.445308
408.287677	2578.043556
408.668700	2572.460478
409.049661	2565.055023
409.430560	2559.812223
409.811399	2554.085473
410.192176	2548.058773
410.572891	2545.896118
410.953545	2542.493339
411.334138	2538.800694
411.714669	2539.269522
412.095139	2534.467823
412.475547	2532.075795
412.855894	2530.044210
413.236180	2527.193438
413.616405	2526.374250
413.996568	2527.989940
414.376670	2525.703777
414.756711	2523.747809
415.136691	2524.819054
415.516609	2520.977695
415.896466	2527.357275
416.276262	2526.447347
416.655997	2522.784948
417.035670	2520.019876
417.415283	2523.493231
417.794834	2519.793024
418.174324	2520.566841
418.553753	2522.137160
418.933121	2522.868127
419.312428	2524.249404
419.691674	2521.133971
420.070859	2521.940555
420.449983	2524.065402
420.829045	2524.342665
421.208047	2526.016328
421.586988	2524.554393
421.965867	2528.708304
422.344686	2526.654034
422.723444	2523.291584
423.102141	2523.268899
423.480777	2523.944414
423.859352	2523.876358
424.237866	2522.069105
424.616319	2524.846780
424.994712	2526.059178
425.373044	2522.530370
425.751314	2527.896678
426.129524	2525.781914
426.507673	2526.190248
426.885762	2524.423323
427.263789	2525.229908
427.641756	2525.650844
428.019662	2524.574558
428.397508	2524.720752
428.775292	2526.422141
429.153016	2525.741585
429.530679	2527.137985
429.908282	2530.321473
430.285824	2528.410876
430.663305	2525.726462
431.040726	2527.137985
431.418086	2527.720238
431.795385	2527.682429
432.172624	2524.640093
432.549802	2527.538757
432.926920	2525.088756
433.303977	2529.096473
433.680974	2524.098169
434.057910	2527.518592
434.434786	2527.448016
434.811601	2526.545649
435.188355	2526.081863
435.565050	2528.690660
435.941683	2525.033303
436.318257	2525.935670
436.694770	2522.018693
437.071222	2527.211082
437.447614	2522.474918
437.823946	2524.375433
438.200218	2526.578417
438.576429	2526.119672
438.952580	2527.397604
439.328670	2528.761236
439.704700	2527.700073
440.080670	2531.213758
440.456580	2527.586647
440.832429	2527.906761
441.208218	2528.025228
441.583947	2528.420958
441.959616	2529.194776
442.335224	2529.610671
442.710773	2528.184024
443.086261	2530.586134
443.461689	2528.123530
443.837057	2530.298788
444.212365	2528.884745
444.587612	2529.242667
444.962800	2530.515558
445.337927	2530.437420
445.712995	2527.521113
446.088002	2530.510517
446.462949	2530.550846
446.837837	2528.491535
447.212664	2530.303829
447.587431	2530.331556
447.962139	2532.027904
448.336786	2535.599562
448.711374	2531.470857
449.085901	2532.554705
449.460369	2532.153933
449.834776	2531.947246
450.209124	2532.552184
450.583412	2532.486649
450.957640	2532.978162
451.331808	2534.571166
451.705917	2531.924560
452.079965	2533.767102
452.453954	2534.780374
452.827883	2531.072605
453.201752	2531.818696
453.575562	2533.018491
453.949311	2533.857843
454.323001	2532.695857
454.696632	2534.608975
455.070202	2532.617719
455.443713	2535.705426
455.817164	2534.084695
456.190556	2530.485311
456.563888	2533.595703
456.937160	2533.084026
457.310373	2535.919675
457.683526	2534.941691
458.056619	2533.731814
458.429653	2534.689633
458.802628	2534.954294
459.175542	2535.667617
459.548398	2535.743234
459.921194	2536.227185
460.293930	2534.921526
460.666607	2536.897659
461.039224	2538.336908
461.411782	2537.230375
461.784280	2538.772968
462.156719	2535.712988
462.529099	2536.607792
462.901419	2539.503935
463.273680	2533.814993
463.645882	2537.908410
464.018024	2537.737011
464.390106	2537.469830
464.762130	2538.934285
465.134094	2539.861857
465.505999	2540.802032
465.877845	2544.043494
466.249631	2545.356715
466.621358	2544.708927
466.993026	2546.359904
467.364634	2546.841335
467.736184	2542.142979
468.107674	2542.795809
468.479105	2540.817156
468.850477	2542.127856
469.221790	2544.650953
469.593043	2541.119625
469.964238	2542.647095
470.335373	2538.495704
470.706449	2543.284801
471.077467	2539.587114
471.448425	2542.876467
471.819324	2545.858310
472.190164	2546.385110
472.560945	2542.934440
472.931667	2540.552495
473.302330	2543.012578
473.672934	2538.835982
474.043479	2542.004348
474.413965	2541.890922
474.784393	2537.918492
475.154761	2539.140972
475.525070	2538.304141
475.895321	2542.445448
476.265513	2538.034439
476.635645	2541.114584
477.005719	2538.780530
477.375734	2543.141128
477.745691	2542.349667
478.115588	2541.291024
478.485427	2542.097609
478.855207	2542.402599
479.224928	2546.987528
479.594591	2544.971067
479.964194	2545.129863
480.333739	2544.247661
480.703226	2545.195398
481.072653	2546.097764
481.442022	2547.375697
481.811333	2548.767055
482.180584	2545.152548
482.549777	2547.726057
482.918912	2543.504091
483.287988	2546.987528
483.657005	2544.167002
484.025964	2546.427960
484.394864	2543.420912
484.763706	2546.208670
485.132489	2545.833104
485.501213	2545.449976
485.869879	2543.559543
486.238487	2543.695655
486.607036	2545.223124
486.975527	2543.834286
487.343959	2545.303783
487.712333	2545.409647
488.080648	2548.605738
488.448905	2546.158258
488.817104	2544.056097
489.185244	2545.061807
489.553326	2546.536345
489.921350	2547.816798
490.289315	2548.220090
490.657222	2549.344268
491.025070	2551.695966
491.392861	2550.274360
491.760593	2547.431150
492.128267	2547.607590
492.495883	2546.919472
492.863440	2547.935265
493.230939	2545.490305
493.598380	2548.109185
493.965763	2540.381096
494.333088	2543.504091
494.700354	2547.400903
495.067563	2542.342105
495.434713	2542.727753
495.801805	2543.735984
496.168839	2547.272353
496.535815	2547.161448
496.902733	2544.550130
497.269593	2547.370656
497.636395	2546.639688
498.003139	2543.604914
498.369825	2545.558361
498.736453	2544.366128
499.103023	2546.430481
499.469535	2544.071221
499.835989	2546.702703
500.202385	2542.712630
500.568723	2544.519883
500.935003	2548.026006
501.301226	2543.352856
501.667390	2545.167672
502.033497	2545.951571
502.399546	2544.915614
502.765537	2546.909390
503.131470	2546.473330
503.497345	2545.848227
503.863163	2546.362425
504.228923	2547.647919
504.594625	2547.821839
504.960269	2546.606921
505.325856	2546.707744
505.691385	2547.983156
506.056856	2544.015768
506.422270	2546.672456
506.787625	2545.036602
507.152924	2544.897970
507.518164	2544.613145
507.883347	2548.174720
508.248472	2545.916283
508.613540	2544.497198
508.978550	2546.304452
509.343503	2547.405944
509.708398	2549.182951
510.073236	2545.810419
510.438016	2548.555327
510.802738	2547.221942
511.167403	2547.675646
511.532010	2547.607590
511.896561	2548.845193
512.261053	2547.239586
512.625488	2544.716488
512.989866	2544.822353
513.354186	2544.918134
513.718449	2543.509132
514.082655	2548.756973
514.446803	2548.278063
514.810894	2548.058773
515.174927	2550.778476
515.538904	2549.152704
515.902822	2547.302600
516.266684	2547.844524
516.630488	2547.501726
516.994235	2548.847714
517.357925	2547.589946
517.721558	2550.297046
518.085133	2545.238248
518.448651	2548.575492
518.812112	2547.501726
519.175516	2546.659853
519.538863	2550.077755
519.902152	2546.246478
520.265385	2550.397869
520.628560	2549.243444
520.991678	2549.215718
521.354739	2550.347457
521.717743	2549.162786
522.080690	2548.210008
522.443580	2549.429967
522.806413	2548.749411
523.169189	2546.795964
523.531908	2550.357539
523.894569	2548.071376
524.257174	2549.276212
524.619722	2546.158258
524.982213	2549.187992
525.344647	2547.040460
525.707025	2549.772766
526.069345	2547.244627
526.431608	2548.083979
526.793815	2552.454659
527.155964	2549.119936
527.518057	2550.067673
527.880093	2549.780327
528.242072	2547.741181
528.603995	2549.863506
528.965860	2549.089689
529.327669	2547.905018
529.689421	2548.152035
530.051117	2549.167827
530.412755	2547.537014
530.774337	2549.649257
531.135862	2548.567930
531.497331	2543.569626
531.858743	2546.364946
532.220098	2545.399565
532.581396	2544.683721
532.942638	2542.821014
533.303824	2550.155893
533.664953	2548.116747
534.026025	2549.435008
534.387040	2549.261088
534.747999	2549.291335
535.108902	2549.361912
535.469748	2547.922662
535.830537	2549.505584
536.191270	2548.507436
536.551947	2551.612787
536.912567	2548.988866
537.273131	2549.319062
537.633638	2549.248486
537.994089	2549.218239
538.354483	2546.856458
538.714821	2550.380225
539.075103	2548.837632
539.435328	2546.942158
539.795497	2551.411141
540.155609	2549.036757
540.515665	2548.817467
540.875665	2548.101623
541.235609	2546.692621
541.595496	2548.888043
541.955328	2549.709751
542.315102	2548.174720
542.674821	2549.896274
543.034483	2552.121943
543.394090	2547.100954
543.753640	2549.838301
544.113134	2549.193033
544.472571	2550.349978
544.831953	2548.351160
545.191278	2545.691952
545.550548	2550.692776
545.909761	2551.885009
546.268918	2552.162272
546.628019	2553.382232
546.987064	2546.869061
547.346053	2547.295038
547.704986	2547.574823
548.063863	2550.765873
548.422684	2549.452652
548.781449	2547.000131
549.140158	2551.040616
549.498811	2550.203784
549.857408	2550.082797
550.215949	2545.893598
550.574434	2544.285470
550.932864	2548.330996
551.291237	2545.515511
551.649555	2550.221428
552.007817	2547.990718
552.366022	2550.075235
552.724173	2548.278063
553.082267	2547.211859
553.440305	2550.838970
553.798288	2549.825698
554.156215	2550.120605
554.514086	2551.063301
554.871902	2549.704710
555.229661	2551.345606
555.587365	2547.738660
555.945014	2550.591953
556.302606	2548.792261
556.660143	2550.269319
557.017625	2548.023485
557.375050	2546.821170
557.732421	2550.866696
558.089735	2551.902653
558.446994	2551.459032
558.804197	2549.772766
559.161345	2549.951727
559.518437	2548.981304
559.875474	2547.413506
560.232455	2550.397869
560.589381	2548.154555
560.946251	2552.394166
561.303065	2551.632951
561.659825	2549.185471
562.016528	2548.948537
562.373177	2546.596839
562.729770	2548.948537
563.086307	2550.964998
563.442789	2549.061963
563.799216	2551.832077
564.155587	2551.028013
564.511904	2549.140101
564.868164	2549.934082
565.224370	2550.077755
565.580520	2550.680173
565.936615	2552.036244
566.292654	2548.454504
566.648638	2549.009031
567.004567	2550.677653
567.360441	2551.451470
567.716260	2547.148845
568.072023	2548.441901
568.427732	2544.300593
568.783385	2547.889895
569.138982	2543.826725
569.494525	2547.020296
569.850013	2544.091385
570.205445	2548.303269
570.560823	2548.595656
570.916145	2549.724875
571.271412	2548.439380
571.626625	2546.155738
571.981782	2550.639844
572.336884	2550.770914
572.691931	2552.162273
573.046923	2549.671943
573.401860	2549.510626
573.756743	2551.655637
574.111570	2549.790410
574.466342	2550.569268
574.821059	2551.779145
575.175722	2551.542211
575.530330	2549.074566
575.884882	2551.083466
576.239380	2549.001469
576.593823	2549.119936
576.948211	2549.006510
577.302544	2550.307128
577.656823	2546.737991
578.011047	2550.284443
578.365216	2552.318548
578.719330	2550.266799
579.073389	2548.469627
579.427394	2547.456355
579.781344	2547.625234
580.135239	2548.320913
580.489080	2551.663198
580.842866	2549.573640
581.196597	2550.042467
581.550273	2549.818136
581.903895	2549.636654
582.257463	2551.040616
582.610975	2544.454348
582.964434	2549.989535
583.317837	2547.620193
583.671186	2549.603887
584.024481	2547.068187
584.377721	2548.484751
584.730906	2548.152035
585.084037	2550.082797
585.437113	2547.408464
585.790135	2548.220090
586.143103	2546.730429
586.496016	2549.346788
586.848874	2546.165820
587.201679	2546.828732
587.554428	2545.913762
587.907124	2546.662374
588.259765	2543.965356
588.612352	2549.329144
588.964884	2548.986346
589.317362	2549.145142
589.669786	2548.099103
590.022155	2550.511295
590.374470	2548.026006
590.726731	2549.659340
591.078937	2549.379556
591.431090	2549.989535
591.783188	2547.902497
592.135232	2549.419885
592.487222	2547.194215
592.839157	2549.583722
593.191038	2547.816798
593.542866	2548.986346
593.894639	2546.357384
594.246358	2547.105995
594.598022	2545.281097
594.949633	2547.237065
595.301190	2547.204298
595.652692	2547.574822
596.004141	2549.729916
596.355535	2549.646737
596.706876	2543.418391
597.058162	2546.032229
597.409395	2545.581046
597.760573	2545.079451
598.111698	2546.453166
598.462768	2545.860830
598.813785	2547.211859
599.164748	2547.312682
599.515657	2546.601880
599.866511	2549.422405
600.217312	2547.302600
600.568060	2543.461241
600.918753	2548.242775
601.269392	2548.381407
601.619978	2544.900490
601.970510	2546.750594
602.320988	2546.624565
602.671412	2546.329658
603.021783	2544.212373
603.372100	2550.778476
603.722363	2544.918134
604.072572	2546.516180
604.422728	2549.702189
604.772830	2543.335212
605.122878	2541.056611
605.472872	2544.267826
605.822813	2543.602393
606.172701	2543.763710
606.522534	2547.446273
606.872314	2548.895605
607.222041	2545.031560
607.571714	2546.964843
607.921333	2547.768907
608.270899	2545.661705
608.620411	2544.719009
608.969870	2546.760676
609.319276	2547.161448
609.668627	2554.055226
610.017926	2552.520194
610.367171	2554.667726
610.716362	2553.795606
611.065500	2550.728064
611.414585	2551.121274
611.763616	2549.896274
612.112594	2549.177909
612.461518	2548.822508
612.810389	2548.157076
613.159207	2548.993907
613.507971	2547.466438
613.856682	2551.383414
614.205340	2546.722868
614.553945	2546.806047
614.902496	2546.077600
615.250994	2546.768238
615.599439	2547.126160
615.947830	2547.839483
616.296169	2547.277394
616.644454	2549.477858
616.992686	2547.741181
617.340864	2544.199770
617.688990	2545.079451
618.037063	2546.932075
618.385082	2547.332847
618.733048	2550.493651
619.080961	2545.240768
619.428821	2545.780172
619.776628	2545.119781
620.124382	2548.756973
620.472083	2545.036602
620.819731	2547.746222
621.167326	2545.066848
621.514868	2545.339071
621.862357	2546.097764
622.209793	2546.498536
622.557176	2547.932744
622.904506	2544.567774
623.251783	2542.286652
623.599007	2544.464431
623.946179	2542.274049
624.293297	2541.384286
624.640363	2547.867209
624.987376	2546.692621
625.334336	2543.501570
625.681243	2545.719678
626.028097	2545.260933
626.374899	2544.784544
626.721647	2547.751263
627.068343	2545.167672
627.414987	2544.340922
627.761577	2544.494677
628.108115	2544.600542
628.454600	2543.776313
628.801032	2545.071890
629.147412	2546.453166
629.493739	2544.270346
629.840014	2546.009544
630.186236	2545.442414
630.532405	2545.639019
630.878521	2542.110212
631.224585	2550.365101
631.570597	2543.347815
631.916556	2544.598021
632.262462	2544.477033
632.608316	2540.214738
632.954117	2541.699358
633.299866	2543.463762
633.645562	2543.670449
633.991206	2544.146838
634.336797	2543.494008
634.682336	2544.232537
635.027823	2543.403268
635.373257	2541.890922
635.718639	2541.379244
636.063968	2542.647095
636.409245	2542.226158
636.754470	2543.471323
637.099642	2544.159441
637.444762	2543.453679
637.789829	2540.234903
638.134845	2543.950233
638.479808	2541.666590
638.824719	2543.088196
639.169577	2545.069369
639.514383	2540.759183
639.859137	2541.613658
640.203839	2543.814122
640.548489	2541.280942
640.893086	2536.930426
641.237632	2538.475540
641.582125	2540.426466
641.926566	2539.108205
642.270955	2543.451159
642.615292	2541.046528
642.959576	2543.262115
643.303809	2540.449152
643.647990	2544.048535
643.992118	2543.330171
644.336195	2541.911086
