Dividing Wavelength (nm)	Counts (n)	Blue Motor Position (mm): 0.900000	Red Motor Position (mm): 0.000000	
326.493990	2166.377892
326.888308	2166.377892
327.282561	2166.377892
327.676750	2123.918774
328.070874	2122.408948
328.464933	2120.241252
328.858929	2126.643518
329.252859	2126.933384
329.646726	2139.392596
330.040528	2151.516571
330.434265	2163.338076
330.827938	2183.633762
331.221547	2201.834848
331.615091	2215.264482
332.008571	2234.665362
332.401986	2251.588516
332.795338	2273.600714
333.188625	2294.027469
333.581847	2311.111940
333.975006	2328.012408
334.368100	2347.012517
334.761129	2365.687471
335.154095	2381.027702
335.546996	2397.040928
335.939833	2417.419792
336.332606	2428.432193
336.725315	2442.744028
337.117960	2454.386573
337.510540	2469.472226
337.903056	2476.529841
338.295508	2487.048209
338.687896	2495.315701
339.080220	2505.340036
339.472480	2510.545027
339.864676	2517.337982
340.256807	2519.137674
340.648875	2522.880730
341.040879	2525.585309
341.432818	2528.728469
341.824694	2532.708460
342.216506	2532.471526
342.608253	2535.909592
342.999937	2537.149716
343.391557	2536.673327
343.783113	2534.644263
344.174605	2533.104190
344.566033	2532.605116
344.957397	2532.153933
345.348697	2529.015815
345.739934	2527.024559
346.131106	2526.878365
346.522215	2524.438447
346.913260	2526.071781
347.304241	2520.357633
347.695159	2520.213960
348.086012	2518.741943
348.476802	2514.459483
348.867528	2510.136693
349.258191	2508.100067
349.648789	2508.977228
350.039324	2505.763493
350.429796	2510.315654
350.820203	2506.028153
351.210548	2505.178719
351.600828	2503.215189
351.991045	2504.442710
352.381198	2502.731238
352.771288	2501.468429
353.161314	2502.327946
353.551276	2501.042452
353.941175	2501.289468
354.331010	2499.676299
354.720782	2497.848881
355.110490	2501.455827
355.500135	2501.067658
355.889717	2499.724190
356.279235	2498.531957
356.668689	2499.756958
357.058080	2500.704695
357.447408	2499.096567
357.836672	2499.308295
358.225873	2500.591269
358.615010	2499.930877
359.004084	2503.252998
359.393095	2504.732577
359.782043	2502.605210
360.170927	2500.888697
360.559748	2502.476660
360.948505	2503.873060
361.337199	2505.299706
361.725830	2504.372134
362.114398	2506.703668
362.502903	2506.479336
362.891344	2508.765500
363.279722	2508.732732
363.668037	2509.188957
364.056289	2506.340705
364.444478	2508.866323
364.832603	2508.160561
365.220665	2508.634430
365.608665	2510.865140
365.996601	2509.037722
366.384474	2511.089472
366.772284	2510.658453
367.160031	2511.807836
367.547715	2512.311951
367.935336	2511.384379
368.322893	2509.181395
368.710388	2508.442866
369.097820	2509.690551
369.485189	2506.796929
369.872495	2513.463855
370.259738	2514.058711
370.646918	2513.955368
371.034035	2514.966119
371.421090	2512.196005
371.808081	2517.564834
372.195010	2513.718433
372.581875	2516.523835
372.968678	2514.605676
373.355418	2514.315810
373.742096	2516.680111
374.128710	2517.090965
374.515262	2519.982067
374.901751	2515.732374
375.288177	2517.204391
375.674540	2518.421830
376.060841	2517.055677
376.447079	2517.864782
376.833254	2518.162210
377.219367	2516.486027
377.605417	2518.721778
377.991404	2515.928979
378.377329	2518.464680
378.763191	2517.579957
379.148991	2516.392765
379.534727	2518.031140
379.920402	2516.148269
380.306013	2522.885772
380.691563	2518.840246
381.077049	2522.394259
381.462474	2520.990298
381.847835	2518.109278
382.233134	2520.566841
382.618371	2519.417458
383.003545	2519.311593
383.388657	2522.230422
383.773706	2522.288395
384.158693	2521.935514
384.543618	2521.733868
384.928480	2520.707993
385.313280	2522.364012
385.698017	2522.669002
386.082692	2523.127747
386.467305	2520.798734
386.851856	2524.894671
387.236344	2523.846111
387.620770	2520.592047
388.005133	2518.857890
388.389435	2520.597088
388.773674	2519.377128
389.157851	2524.587161
389.541965	2524.509023
389.926018	2524.357788
390.310008	2525.865093
390.693936	2524.924918
391.077802	2525.532377
391.461606	2526.956503
391.845348	2523.934332
392.229027	2529.729138
392.612645	2527.284178
392.996200	2526.104548
393.379694	2523.725124
393.763125	2528.204189
394.146494	2526.235618
394.529801	2528.940197
394.913047	2527.541277
395.296230	2527.899199
395.679351	2529.769467
396.062410	2528.758716
396.445408	2527.027079
396.828343	2529.714014
397.211217	2529.217461
397.594028	2528.851977
397.976778	2526.495238
398.359466	2526.712007
398.742092	2527.551359
399.124656	2532.249715
399.507158	2530.326515
399.889598	2530.475229
400.271977	2528.322656
400.654294	2532.456402
401.036549	2528.950280
401.418742	2531.130579
401.800874	2528.365506
402.182944	2529.290558
402.564952	2530.276103
402.946898	2534.372041
403.328783	2529.673685
403.710606	2532.963038
404.092367	2532.269879
404.474067	2531.160826
404.855705	2530.180321
405.237282	2527.790814
405.618797	2532.443799
406.000250	2534.540919
406.381642	2529.623274
406.762972	2529.524971
407.144240	2529.202337
407.525447	2529.653521
407.906593	2528.607481
408.287677	2531.450692
408.668700	2532.398429
409.049661	2533.031094
409.430560	2534.472864
409.811399	2535.201310
410.192176	2534.321629
410.572891	2536.161650
410.953545	2535.854140
411.334138	2536.645601
411.714669	2534.450178
412.095139	2532.000178
412.475547	2534.324150
412.855894	2535.125693
413.236180	2534.641742
413.616405	2536.549819
413.996568	2535.586959
414.376670	2535.977648
414.756711	2534.341794
415.136691	2536.456558
415.516609	2534.752648
415.896466	2535.836496
416.276262	2537.101825
416.655997	2535.574356
417.035670	2536.665766
417.415283	2538.616692
417.794834	2537.280786
418.174324	2535.680220
418.553753	2535.700385
418.933121	2538.508307
419.312428	2535.143337
419.691674	2536.693492
420.070859	2539.423277
420.449983	2538.727598
420.829045	2538.399922
421.208047	2538.921682
421.586988	2538.407484
421.965867	2537.885725
422.344686	2539.393030
422.723444	2539.360262
423.102141	2537.212731
423.480777	2540.739018
423.859352	2538.851106
424.237866	2538.520910
424.616319	2539.854295
424.994712	2539.607279
425.373044	2536.978317
425.751314	2536.973276
426.129524	2534.301464
426.507673	2535.793646
426.885762	2534.160312
427.263789	2538.772968
427.641756	2539.256919
428.019662	2542.001827
428.397508	2539.508976
428.775292	2543.478885
429.153016	2540.723894
429.530679	2543.798998
429.908282	2542.881508
430.285824	2539.319933
430.663305	2540.638195
431.040726	2539.965201
431.418086	2540.466796
431.795385	2541.815304
432.172624	2540.469316
432.549802	2542.553833
432.926920	2540.673483
433.303977	2538.846065
433.680974	2542.692465
434.057910	2541.797660
434.434786	2542.125335
434.811601	2543.151210
435.188355	2542.269008
435.565050	2544.774462
435.941683	2542.253885
436.318257	2542.987373
436.694770	2541.734646
437.071222	2541.016281
437.447614	2542.200953
437.823946	2546.271684
438.200218	2544.368649
438.576429	2543.945192
438.952580	2545.384441
439.328670	2542.498381
439.704700	2544.086344
440.080670	2544.348484
440.456580	2545.969215
440.832429	2545.500388
441.208218	2543.189019
441.583947	2545.858310
441.959616	2545.734801
442.335224	2545.157589
442.710773	2544.247661
443.086261	2545.601211
443.461689	2543.930068
443.837057	2546.001982
444.212365	2544.471992
444.587612	2540.466796
444.962800	2540.877650
445.337927	2541.464944
445.712995	2539.874460
446.088002	2543.988042
446.462949	2547.501726
446.837837	2547.642878
447.212664	2547.647919
447.587431	2546.044832
447.962139	2544.724050
448.336786	2548.441901
448.711374	2544.807229
449.085901	2547.484082
449.460369	2544.441745
449.834776	2545.752445
450.209124	2545.109698
450.583412	2547.005172
450.957640	2547.136242
451.331808	2546.601880
451.705917	2546.627086
452.079965	2547.738660
452.453954	2546.347302
452.827883	2548.242775
453.201752	2548.376366
453.575562	2548.189843
453.949311	2543.864533
454.323001	2546.559030
454.696632	2545.160110
455.070202	2544.134235
455.443713	2546.201108
455.817164	2546.977446
456.190556	2548.283105
456.563888	2548.709082
456.937160	2545.714637
457.310373	2546.450645
457.683526	2548.633465
458.056619	2550.115564
458.429653	2548.101623
458.802628	2548.885522
459.175542	2548.336037
459.548398	2546.770758
459.921194	2547.138763
460.293930	2549.379556
460.666607	2548.295708
461.039224	2549.510626
461.411782	2546.531304
461.784280	2550.357539
462.156719	2548.693959
462.529099	2551.007848
462.901419	2550.733105
463.273680	2545.654143
463.645882	2544.845038
464.018024	2547.055584
464.390106	2544.356046
464.762130	2548.099102
465.134094	2549.445091
465.505999	2551.295194
465.877845	2550.203784
466.249631	2549.891233
466.621358	2549.127498
466.993026	2548.409133
467.364634	2553.445246
467.736184	2549.739998
468.107674	2546.995090
468.479105	2551.484237
468.850477	2548.598177
469.221790	2549.631613
469.593043	2550.632282
469.964238	2553.586398
470.335373	2546.201108
470.706449	2551.166645
471.077467	2551.637993
471.448425	2549.306459
471.819324	2549.803012
472.190164	2548.346119
472.560945	2552.217725
472.931667	2551.980791
473.302330	2549.170348
473.672934	2551.527087
474.043479	2551.103630
474.413965	2550.438198
474.784393	2550.647406
475.154761	2549.835780
475.525070	2549.135060
475.895321	2549.525749
476.265513	2551.990873
476.635645	2553.460370
477.005719	2551.476676
477.375734	2551.711089
477.745691	2551.605225
478.115588	2554.773590
478.485427	2548.693959
478.855207	2552.825184
479.224928	2549.404761
479.594591	2551.322920
479.964194	2551.627910
480.333739	2550.823846
480.703226	2551.673281
481.072653	2553.162942
481.442022	2552.676470
481.811333	2547.894936
482.180584	2550.213867
482.549777	2549.046839
482.918912	2544.877805
483.287988	2550.730585
483.657005	2550.942313
484.025964	2551.975750
484.394864	2554.410627
484.763706	2554.130843
485.132489	2550.753270
485.501213	2551.007848
485.869879	2549.850903
486.238487	2552.089176
486.607036	2553.815771
486.975527	2555.305432
487.343959	2550.702858
487.712333	2553.790565
488.080648	2549.601366
488.448905	2553.195709
488.817104	2552.711758
489.185244	2554.985319
489.553326	2552.575647
489.921350	2551.920297
490.289315	2553.364588
490.657222	2552.195040
491.025070	2552.051367
491.392861	2552.857952
491.760593	2554.403065
492.128267	2550.959957
492.495883	2555.396173
492.863440	2552.217725
493.230939	2551.597663
493.598380	2553.339382
493.965763	2552.154711
494.333088	2554.186296
494.700354	2554.377860
495.067563	2553.702345
495.434713	2555.486913
495.801805	2553.208312
496.168839	2554.491286
496.535815	2554.582026
496.902733	2555.174362
497.269593	2554.438353
497.636395	2553.571275
498.003139	2553.939279
498.369825	2551.123795
498.736453	2554.657644
499.103023	2556.021276
499.469535	2554.516491
499.835989	2555.456667
500.202385	2552.167314
500.568723	2552.152190
500.935003	2551.532128
501.301226	2548.940975
501.667390	2553.218394
502.033497	2556.724517
502.399546	2556.391801
502.765537	2553.934238
503.131470	2555.607901
503.497345	2551.322920
503.863163	2554.473642
504.228923	2555.751574
504.594625	2556.346430
504.960269	2555.436502
505.325856	2553.357026
505.691385	2553.901471
506.056856	2553.793086
506.422270	2555.076059
506.787625	2556.008673
507.152924	2555.270144
507.518164	2555.875082
507.883347	2555.413817
508.248472	2555.378529
508.613540	2554.413148
508.978550	2554.546738
509.343503	2553.898950
509.708398	2554.995401
510.073236	2553.263765
510.438016	2553.888868
510.802738	2556.026317
511.167403	2554.672767
511.532010	2553.840977
511.896561	2556.011193
512.261053	2555.630586
512.625488	2557.566389
512.989866	2554.463559
513.354186	2554.781152
513.718449	2554.841646
514.082655	2557.034548
514.446803	2556.359033
514.810894	2556.676626
515.174927	2555.128992
515.538904	2554.642520
515.902822	2554.478683
516.266684	2554.304763
516.630488	2556.323745
516.994235	2555.612942
517.357925	2559.008159
517.721558	2556.603529
518.085133	2555.242417
518.448651	2553.475493
518.812112	2553.306614
519.175516	2553.619166
519.538863	2550.317210
519.902152	2554.065308
520.265385	2553.364588
520.628560	2555.592778
520.991678	2555.053374
521.354739	2557.400031
521.717743	2556.870710
522.080690	2556.227963
522.443580	2554.362736
522.806413	2555.219732
523.169189	2556.560679
523.531908	2555.691080
523.894569	2557.614280
524.257174	2553.946841
524.619722	2556.129661
524.982213	2556.167469
525.344647	2556.464897
525.707025	2555.071018
526.069345	2556.084290
526.431608	2557.339537
526.793815	2555.915412
527.155964	2557.876420
527.518057	2555.514640
527.880093	2555.181924
528.242072	2557.173179
528.603995	2555.862479
528.965860	2557.296688
529.327669	2557.112686
529.689421	2556.815258
530.051117	2555.592778
530.412755	2556.250648
530.774337	2556.250648
531.135862	2555.985988
531.497331	2556.215360
531.858743	2558.234342
532.220098	2555.161759
532.581396	2558.728375
532.942638	2559.671071
533.303824	2558.509085
533.664953	2559.620660
534.026025	2557.747871
534.387040	2557.258879
534.747999	2555.454146
535.108902	2558.604867
535.469748	2554.176213
535.830537	2555.302911
536.191270	2557.521019
536.551947	2554.362736
536.912567	2554.350133
537.273131	2553.707386
537.633638	2551.695966
537.994089	2558.138560
538.354483	2554.670247
538.714821	2559.005639
539.075103	2555.209650
539.435328	2556.807696
539.795497	2556.880792
540.155609	2559.507234
540.515665	2554.259392
540.875665	2559.313149
541.235609	2557.664692
541.595496	2556.752243
541.955328	2555.413817
542.315102	2555.789383
542.674821	2557.238714
543.034483	2555.738971
543.394090	2555.731409
543.753640	2556.671585
544.113134	2557.216029
544.472571	2559.388767
544.831953	2555.381049
545.191278	2557.248797
545.550548	2557.009342
545.909761	2558.065464
546.268918	2556.550597
546.628019	2557.130330
546.987064	2554.156049
547.346053	2555.567572
547.704986	2556.795093
548.063863	2555.328117
548.422684	2555.176882
548.781449	2561.155691
549.140158	2554.965154
549.498811	2562.199210
549.857408	2553.961964
550.215949	2556.626214
550.574434	2556.669064
550.932864	2556.623694
551.291237	2558.302398
551.649555	2554.703014
552.007817	2555.617983
552.366022	2555.554969
552.724173	2556.807696
553.082267	2557.692418
553.440305	2559.045968
553.798288	2557.505896
554.156215	2557.026986
554.514086	2555.895247
554.871902	2553.014228
555.229661	2556.227963
555.587365	2551.501881
555.945014	2556.956410
556.302606	2556.427089
556.660143	2557.205947
557.017625	2560.074363
557.375050	2557.412634
557.732421	2557.594116
558.089735	2557.284085
558.446994	2556.883313
558.804197	2557.014383
559.161345	2560.485217
559.518437	2561.092677
559.875474	2557.142932
560.232455	2559.802141
560.589381	2558.146122
560.946251	2555.862479
561.303065	2558.614949
561.659825	2558.700649
562.016528	2559.499672
562.373177	2557.563869
562.729770	2557.508416
563.086307	2558.781308
563.442789	2555.560010
563.799216	2559.111503
564.155587	2558.226781
564.511904	2555.464228
564.868164	2556.820299
565.224370	2556.069167
565.580520	2559.575289
565.936615	2558.957748
566.292654	2559.519837
566.648638	2555.668395
567.004567	2556.132181
567.360441	2557.170659
567.716260	2559.809703
568.072023	2559.361040
568.427732	2559.199723
568.783385	2558.128478
569.138982	2559.366081
569.494525	2559.650907
569.850013	2556.875751
570.205445	2557.284085
570.560823	2555.307952
570.916145	2559.839950
571.271412	2557.919270
571.626625	2558.768705
571.981782	2559.262738
572.336884	2555.310473
572.691931	2551.527087
573.046923	2556.666543
573.401860	2554.133364
573.756743	2557.513457
574.111570	2555.645710
574.466342	2558.607388
574.821059	2556.653941
575.175722	2557.261400
575.530330	2557.057233
575.884882	2556.689229
576.239380	2557.405073
576.593823	2558.468756
576.948211	2558.289795
577.302544	2556.774928
577.656823	2559.431616
578.011047	2559.151832
578.365216	2559.754250
578.719330	2559.540001
579.073389	2559.151832
579.427394	2558.120916
579.781344	2559.658468
580.135239	2558.559497
580.489080	2557.384908
580.842866	2557.150494
581.196597	2561.180897
581.550273	2556.517829
581.903895	2560.273489
582.257463	2558.146122
582.610975	2558.181410
582.964434	2559.426575
583.317837	2558.499003
583.671186	2558.325083
584.024481	2557.294167
584.377721	2558.239383
584.730906	2557.611760
585.084037	2558.148643
585.437113	2559.056050
585.790135	2557.584033
586.143103	2560.391956
586.496016	2561.105279
586.848874	2559.388767
587.201679	2558.183931
587.554428	2558.216698
587.907124	2557.863817
588.259765	2557.775597
588.612352	2559.285423
588.964884	2561.611915
589.317362	2556.444733
589.669786	2557.253838
590.022155	2557.498334
590.374470	2555.043292
590.726731	2555.320555
591.078937	2555.123950
591.431090	2555.998591
591.783188	2559.434137
592.135232	2557.793241
592.487222	2561.690053
592.839157	2558.917419
593.191038	2555.985988
593.542866	2558.186451
593.894639	2559.519837
594.246358	2559.870197
594.598022	2556.414486
594.949633	2556.157387
595.301190	2556.958930
595.652692	2558.614949
596.004141	2557.972202
596.355535	2558.158725
596.706876	2556.825340
597.058162	2557.841132
597.409395	2555.744012
597.760573	2558.667882
598.111698	2557.946997
598.462768	2562.199210
598.813785	2558.415824
599.164748	2556.946327
599.515657	2559.812223
599.866511	2560.586041
600.217312	2556.969013
600.568060	2559.189641
600.918753	2562.305074
601.269392	2559.368602
601.619978	2558.388098
601.970510	2557.813406
602.320988	2556.905998
602.671412	2557.538663
603.021783	2559.648386
603.372100	2557.268961
603.722363	2555.744012
604.072572	2559.252655
604.422728	2560.089487
604.772830	2560.356668
605.122878	2554.332489
605.472872	2556.956410
605.822813	2558.995557
606.172701	2558.619991
606.522534	2559.061092
606.872314	2560.449929
607.222041	2558.166287
607.571714	2557.410114
607.921333	2553.941800
608.270899	2557.344579
608.620411	2554.508930
608.969870	2558.325083
609.319276	2561.581668
609.668627	2566.088460
610.017926	2570.567525
610.367171	2574.383679
610.716362	2572.954512
611.065500	2570.353276
611.414585	2568.483008
611.763616	2569.019891
612.112594	2563.404046
612.461518	2560.613767
612.810389	2563.784653
613.159207	2562.395815
613.507971	2560.124775
613.856682	2560.807851
614.205340	2561.664847
614.553945	2559.971020
614.902496	2559.837429
615.250994	2560.086966
615.599439	2560.507903
615.947830	2562.000084
616.296169	2560.994374
616.644454	2557.934394
616.992686	2561.811041
617.340864	2559.787018
617.688990	2559.577810
618.037063	2560.394477
618.385082	2560.306257
618.733048	2558.912378
619.080961	2562.073181
619.428821	2561.196020
619.776628	2559.436657
620.124382	2559.504713
620.472083	2557.702501
620.819731	2558.461194
621.167326	2559.383725
621.514868	2558.438509
621.862357	2558.667882
622.209793	2561.216185
622.557176	2556.381718
622.904506	2559.550083
623.251783	2559.436657
623.599007	2558.788869
623.946179	2558.607388
624.293297	2561.695094
624.640363	2557.878941
624.987376	2558.352809
625.334336	2555.582695
625.681243	2553.808209
626.028097	2550.859134
626.374899	2560.104610
626.721647	2554.811399
627.068343	2559.103941
627.414987	2558.743499
627.761577	2558.226781
628.108115	2560.195351
628.454600	2559.537481
628.801032	2557.019424
629.147412	2562.010167
629.493739	2557.427758
629.840014	2558.241904
630.186236	2557.069836
630.532405	2558.854404
630.878521	2558.612429
631.224585	2558.630073
631.570597	2558.188972
631.916556	2560.901113
632.262462	2558.287274
632.608316	2557.304249
632.954117	2558.549414
633.299866	2559.497151
633.645562	2556.311142
633.991206	2555.456667
634.336797	2555.144115
634.682336	2556.996739
635.027823	2555.849877
635.373257	2557.924311
635.718639	2557.117727
636.063968	2559.124106
636.409245	2559.804662
636.754470	2557.664692
637.099642	2559.214847
637.444762	2559.471946
637.789829	2557.397511
638.134845	2559.655948
638.479808	2555.872562
638.824719	2559.698798
639.169577	2557.160577
639.514383	2558.274672
639.859137	2557.427758
640.203839	2556.008673
640.548489	2559.179559
640.893086	2557.407593
641.237632	2557.558828
641.582125	2559.164435
641.926566	2557.994888
642.270955	2556.227963
642.615292	2553.374670
642.959576	2558.085628
643.303809	2552.815102
643.647990	2557.319373
643.992118	2557.357182
644.336195	2557.410114
