Dividing Wavelength (nm)	Counts (n)	Blue Motor Position (mm): 0.000000	Red Motor Position (mm): 8.400000	
326.493990	2128.060082
326.888308	2128.060082
327.282561	2128.060082
327.676750	2096.444485
328.070874	2093.301326
328.464933	2095.529516
328.858929	2106.733480
329.252859	2113.440736
329.646726	2125.829371
330.040528	2139.561474
330.434265	2155.332724
330.827938	2173.372493
331.221547	2189.683146
331.615091	2209.149562
332.008571	2226.443240
332.401986	2249.844276
332.795338	2267.926895
333.188625	2287.957920
333.581847	2304.087092
333.975006	2323.180462
334.368100	2342.851044
334.761129	2359.786801
335.154095	2375.984028
335.546996	2394.822820
335.939833	2405.333626
336.332606	2423.365833
336.725315	2434.627771
337.117960	2447.144956
337.510540	2451.346757
337.903056	2465.824951
338.295508	2471.332412
338.687896	2479.325161
339.080220	2488.031234
339.472480	2495.880310
339.864676	2497.884169
340.256807	2504.886332
340.648875	2505.834069
341.040879	2508.523524
341.432818	2511.379338
341.824694	2512.841272
342.216506	2515.404699
342.608253	2515.044257
342.999937	2510.151817
343.391557	2512.344719
343.783113	2509.786333
344.174605	2512.463186
344.566033	2506.542351
344.957397	2507.454800
345.348697	2504.435148
345.739934	2504.152844
346.131106	2503.701661
346.522215	2502.733759
346.913260	2500.734942
347.304241	2498.380723
347.695159	2496.102121
348.086012	2492.333859
348.476802	2491.839826
348.867528	2489.314208
349.258191	2488.401759
349.648789	2487.544763
350.039324	2486.680205
350.429796	2488.167345
350.820203	2484.714155
351.210548	2482.339771
351.600828	2487.378404
351.991045	2482.380100
352.381198	2482.410347
352.771288	2482.649802
353.161314	2480.298104
353.551276	2481.475213
353.941175	2480.245172
354.331010	2480.041005
354.720782	2478.334574
355.110490	2481.485296
355.500135	2480.656026
355.889717	2481.782724
356.279235	2479.105871
356.668689	2481.818012
357.058080	2482.075111
357.447408	2477.477578
357.836672	2477.596045
358.225873	2479.516725
358.615010	2477.396920
359.004084	2482.866572
359.393095	2482.317086
359.782043	2485.424957
360.170927	2485.336737
360.559748	2486.130719
360.948505	2487.547283
361.337199	2487.567448
361.725830	2486.957468
362.114398	2486.516367
362.502903	2485.843373
362.891344	2488.071563
363.279722	2488.530308
363.668037	2490.209012
364.056289	2490.269506
364.444478	2491.459218
364.832603	2490.849239
365.220665	2490.685401
365.608665	2490.874445
365.996601	2494.378047
366.384474	2494.839312
366.772284	2494.894765
367.160031	2496.071874
367.547715	2498.952894
367.935336	2499.658655
368.322893	2501.907010
368.710388	2505.090498
369.097820	2512.866478
369.485189	2515.984432
369.872495	2519.304032
370.259738	2527.311905
370.646918	2534.810621
371.034035	2541.538041
371.421090	2551.736295
371.808081	2561.498489
372.195010	2570.539799
372.581875	2584.715523
372.968678	2596.032914
373.355418	2608.025819
373.742096	2624.719600
374.128710	2638.539923
374.515262	2652.665236
374.901751	2667.123265
375.288177	2680.837724
375.674540	2699.275745
376.060841	2714.857951
376.447079	2729.714232
376.833254	2746.952457
377.219367	2755.522419
377.605417	2783.901594
377.991404	2789.167079
378.377329	2801.759882
378.763191	2811.564926
379.148991	2836.034687
379.534727	2850.840556
379.920402	2868.492156
380.306013	2866.757999
380.691563	2895.986609
381.077049	2902.898031
381.462474	2905.930285
381.847835	2922.225815
382.233134	2925.253028
382.618371	2910.595873
383.003545	2944.457303
383.388657	2932.386260
383.773706	2937.739966
384.158693	2929.212854
384.543618	2925.598347
384.928480	2927.945004
385.313280	2934.438010
385.698017	2917.847573
386.082692	2924.433840
386.467305	2902.892990
386.851856	2896.107597
387.236344	2886.289949
387.620770	2877.495657
388.005133	2864.802031
388.389435	2853.043540
388.773674	2832.929336
389.157851	2829.340034
389.541965	2810.171047
389.926018	2782.028806
390.310008	2777.660646
390.693936	2764.883841
391.077802	2753.561410
391.461606	2732.068450
391.845348	2725.731720
392.229027	2706.910572
392.612645	2695.313398
392.996200	2687.199661
393.379694	2675.123577
393.763125	2669.303564
394.146494	2650.066521
394.529801	2641.592342
394.913047	2631.878038
395.296230	2617.767849
395.679351	2607.831734
396.062410	2596.547112
396.445408	2586.646285
396.828343	2576.518607
397.211217	2564.992009
397.594028	2555.726368
397.976778	2548.139432
398.359466	2548.026006
398.742092	2539.967721
399.124656	2536.635519
399.507158	2538.130221
399.889598	2533.457071
400.271977	2531.669982
400.654294	2526.318797
401.036549	2525.330731
401.418742	2525.005577
401.800874	2524.214116
402.182944	2520.095493
402.564952	2524.720752
402.946898	2521.859897
403.328783	2519.261182
403.710606	2518.701614
404.092367	2518.862931
404.474067	2519.193126
404.855705	2516.642302
405.237282	2512.135511
405.618797	2518.996521
406.000250	2516.198681
406.381642	2517.826974
406.762972	2516.833866
407.144240	2518.389062
407.525447	2516.982580
407.906593	2516.266737
408.287677	2516.778414
408.668700	2517.093486
409.049661	2517.900070
409.430560	2518.575585
409.811399	2519.971985
410.192176	2518.996521
410.572891	2518.139525
410.953545	2517.458969
411.334138	2517.703465
411.714669	2515.936541
412.095139	2517.395955
412.475547	2517.998373
412.855894	2519.092303
413.236180	2517.947961
413.616405	2520.266892
413.996568	2519.624145
414.376670	2520.284536
414.756711	2519.089783
415.136691	2519.982067
415.516609	2519.450225
415.896466	2521.083559
416.276262	2520.508868
416.655997	2516.637261
417.035670	2519.215812
417.415283	2517.244720
417.794834	2518.356295
418.174324	2520.032478
418.553753	2519.450225
418.933121	2522.485000
419.312428	2521.234794
419.691674	2518.784793
420.070859	2522.079187
420.449983	2521.330576
420.829045	2520.403003
421.208047	2522.608508
421.586988	2520.660102
421.965867	2519.906450
422.344686	2523.982223
422.723444	2523.014321
423.102141	2522.414424
423.480777	2522.452232
423.859352	2519.823271
424.237866	2526.301153
424.616319	2523.886441
424.994712	2524.630011
425.373044	2523.442819
425.751314	2525.328211
426.129524	2522.810154
426.507673	2523.939373
426.885762	2523.972140
427.263789	2523.717562
427.641756	2525.303005
428.019662	2524.050278
428.397508	2524.415762
428.775292	2523.152953
429.153016	2526.157480
429.530679	2526.732172
429.908282	2521.963240
430.285824	2524.375432
430.663305	2523.215967
431.040726	2525.885258
431.418086	2524.355268
431.795385	2527.511030
432.172624	2524.786287
432.549802	2523.621780
432.926920	2524.360309
433.303977	2524.481297
433.680974	2524.357788
434.057910	2525.759229
434.434786	2524.322500
434.811601	2525.676050
435.188355	2525.799558
435.565050	2527.569003
435.941683	2525.489528
436.318257	2526.210412
436.694770	2520.438291
437.071222	2523.074815
437.447614	2522.694208
437.823946	2525.237470
438.200218	2527.054806
438.576429	2525.151770
438.952580	2524.824095
439.328670	2524.957686
439.704700	2526.999353
440.080670	2527.080012
440.456580	2529.363654
440.832429	2527.203520
441.208218	2528.063037
441.583947	2527.687471
441.959616	2526.379291
442.335224	2528.872142
442.710773	2528.191586
443.086261	2523.856194
443.461689	2528.930115
443.837057	2530.699560
444.212365	2527.886596
444.587612	2529.759385
444.962800	2527.490866
445.337927	2528.158818
445.712995	2530.520599
446.088002	2531.692667
446.462949	2528.201668
446.837837	2529.633356
447.212664	2530.266021
447.587431	2530.114786
447.962139	2532.773995
448.336786	2531.644776
448.711374	2532.302647
449.085901	2531.100332
449.460369	2528.355423
449.834776	2530.041689
450.209124	2530.656710
450.583412	2529.361134
450.957640	2532.589993
451.331808	2530.601258
451.705917	2529.749303
452.079965	2528.670496
452.453954	2531.327184
452.827883	2529.436751
453.201752	2530.233253
453.575562	2528.834333
453.949311	2533.326001
454.323001	2528.947759
454.696632	2528.862059
455.070202	2531.642256
455.443713	2531.112935
455.817164	2530.939015
456.190556	2527.795855
456.563888	2531.372554
456.937160	2527.574045
457.310373	2531.818696
457.683526	2527.601771
458.056619	2533.711649
458.429653	2532.080836
458.802628	2530.228212
459.175542	2530.999509
459.548398	2530.865918
459.921194	2532.620240
460.293930	2533.595703
460.666607	2531.652338
461.039224	2535.271887
461.411782	2531.838861
461.784280	2535.017308
462.156719	2534.377082
462.529099	2533.532688
462.901419	2532.658048
463.273680	2533.472195
463.645882	2535.284489
464.018024	2535.498738
464.390106	2535.634850
464.762130	2535.259284
465.134094	2535.234078
465.505999	2536.658204
465.877845	2534.707277
466.249631	2540.310520
466.621358	2536.532175
466.993026	2539.703061
467.364634	2541.573329
467.736184	2537.913451
468.107674	2535.430683
468.479105	2535.786084
468.850477	2534.223327
469.221790	2536.632998
469.593043	2532.602596
469.964238	2535.455889
470.335373	2535.642411
470.706449	2537.621064
471.077467	2534.026722
471.448425	2538.031918
471.819324	2536.146527
472.190164	2536.267514
472.560945	2537.026208
472.931667	2536.426311
473.302330	2534.820703
473.672934	2535.871784
474.043479	2537.628626
474.413965	2537.142155
474.784393	2528.975485
475.154761	2534.077133
475.525070	2529.391381
475.895321	2531.632173
476.265513	2532.658048
476.635645	2537.011085
477.005719	2537.147196
477.375734	2538.455375
477.745691	2537.013605
478.115588	2533.399098
478.485427	2539.019984
478.855207	2535.108049
479.224928	2539.014943
479.594591	2538.679707
479.964194	2535.939839
480.333739	2540.789429
480.703226	2538.828421
481.072653	2537.638708
481.442022	2539.748431
481.811333	2538.578883
482.180584	2537.714326
482.549777	2536.650642
482.918912	2538.281455
483.287988	2540.023174
483.657005	2539.579552
484.025964	2539.203987
484.394864	2540.108874
484.763706	2538.641898
485.132489	2540.837320
485.501213	2539.203987
485.869879	2540.149203
486.238487	2539.478729
486.607036	2536.340611
486.975527	2538.896476
487.343959	2536.592669
487.712333	2541.207845
488.080648	2539.375386
488.448905	2540.676003
488.817104	2538.440252
489.185244	2538.972093
489.553326	2541.374203
489.921350	2537.991589
490.289315	2540.383617
490.657222	2540.915458
491.025070	2541.311189
491.392861	2543.105840
491.760593	2541.825387
492.128267	2542.430325
492.495883	2538.795653
492.863440	2538.210879
493.230939	2540.333205
493.598380	2540.431508
493.965763	2537.953780
494.333088	2537.018646
494.700354	2536.748945
495.067563	2536.625436
495.434713	2536.433873
495.801805	2537.588297
496.168839	2539.657690
496.535815	2540.192053
496.902733	2542.374872
497.269593	2538.462937
497.636395	2540.986034
498.003139	2539.062834
498.369825	2539.214069
498.736453	2541.316230
499.103023	2540.809594
499.469535	2538.846065
499.835989	2539.025026
500.202385	2541.104502
500.568723	2539.980324
500.935003	2541.356559
501.301226	2540.575180
501.667390	2541.580891
502.033497	2540.933102
502.399546	2539.095602
502.765537	2539.463606
503.131470	2540.602907
503.497345	2541.638864
503.863163	2541.394368
504.228923	2542.936961
504.594625	2542.049718
504.960269	2540.446631
505.325856	2540.670962
505.691385	2540.134079
506.056856	2546.337219
506.422270	2540.928061
506.787625	2539.443441
507.152924	2540.043339
507.518164	2540.297917
507.883347	2539.816487
508.248472	2541.338915
508.613540	2541.119625
508.978550	2540.834800
509.343503	2541.805222
509.708398	2542.488298
510.073236	2540.257588
510.438016	2543.446117
510.802738	2542.253885
511.167403	2539.670293
511.532010	2538.737680
511.896561	2542.500901
512.261053	2544.295552
512.625488	2539.514017
512.989866	2539.249357
513.354186	2540.461754
513.718449	2536.023018
514.082655	2541.792619
514.446803	2541.291024
514.810894	2540.439069
515.174927	2541.923689
515.538904	2543.614996
515.902822	2543.302445
516.266684	2539.516538
516.630488	2541.593493
516.994235	2544.446787
517.357925	2542.896632
517.721558	2541.807742
518.085133	2542.281611
518.448651	2544.988711
518.812112	2542.200953
519.175516	2544.247661
519.538863	2541.089378
519.902152	2543.594832
520.265385	2543.123484
520.628560	2543.665408
520.991678	2543.529297
521.354739	2543.718340
521.717743	2540.839841
522.080690	2543.889739
522.443580	2544.484595
522.806413	2543.226827
523.169189	2543.055428
523.531908	2539.657690
523.894569	2542.344625
524.257174	2542.634492
524.619722	2540.222300
524.982213	2542.505942
525.344647	2542.044677
525.707025	2545.689431
526.069345	2541.661549
526.431608	2544.925696
526.793815	2543.781354
527.155964	2542.692465
527.518057	2541.611138
527.880093	2541.903524
528.242072	2543.529297
528.603995	2541.280942
528.965860	2541.850592
529.327669	2544.250182
529.689421	2542.004347
530.051117	2546.753114
530.412755	2543.297403
530.774337	2544.600542
531.135862	2542.725233
531.497331	2542.200953
531.858743	2540.302958
532.220098	2541.222969
532.581396	2540.439069
532.942638	2539.350180
533.303824	2541.946374
533.664953	2543.602393
534.026025	2539.640046
534.387040	2542.407640
534.747999	2543.345294
535.108902	2545.669266
535.469748	2542.936961
535.830537	2545.175233
536.191270	2540.676003
536.551947	2543.068031
536.912567	2542.402599
537.273131	2544.401416
537.633638	2542.795809
537.994089	2546.858979
538.354483	2541.669111
538.714821	2543.040305
539.075103	2545.006355
539.435328	2544.696324
539.795497	2541.898483
540.155609	2543.695655
540.515665	2542.654656
540.875665	2543.620037
541.235609	2542.992414
541.595496	2543.763710
541.955328	2544.046015
542.315102	2543.466282
542.674821	2547.042981
543.034483	2545.202960
543.394090	2544.295552
543.753640	2543.988042
544.113134	2544.081303
544.472571	2546.317055
544.831953	2544.794626
545.191278	2542.122815
545.550548	2542.344625
545.909761	2544.401416
546.268918	2543.050387
546.628019	2544.771941
546.987064	2544.847558
547.346053	2544.005686
547.704986	2542.800850
548.063863	2542.858823
548.422684	2544.598021
548.781449	2543.773792
549.140158	2543.688093
549.498811	2544.214893
549.857408	2542.760521
550.215949	2540.998637
550.574434	2541.107022
550.932864	2540.678524
551.291237	2540.093750
551.649555	2542.566436
552.007817	2545.926365
552.366022	2545.102137
552.724173	2545.606252
553.082267	2544.252702
553.440305	2544.542568
553.798288	2546.826211
554.156215	2543.166333
554.514086	2543.340253
554.871902	2542.760521
555.229661	2544.393854
555.587365	2543.665408
555.945014	2545.644061
556.302606	2541.147351
556.660143	2543.085675
557.017625	2542.503422
557.375050	2544.396375
557.732421	2543.766231
558.089735	2546.349822
558.446994	2544.121632
558.804197	2543.685572
559.161345	2542.861344
559.518437	2543.254554
559.875474	2542.747918
560.232455	2542.755479
560.589381	2544.189688
560.946251	2547.229503
561.303065	2544.552651
561.659825	2544.764379
562.016528	2542.997455
562.373177	2543.486447
562.729770	2543.698175
563.086307	2543.678011
563.442789	2545.754966
563.799216	2543.534338
564.155587	2542.148020
564.511904	2544.814791
564.868164	2545.177754
565.224370	2542.281611
565.580520	2543.988042
565.936615	2544.885367
566.292654	2543.335212
566.648638	2545.081972
567.004567	2545.797816
567.360441	2545.938968
567.716260	2544.839997
568.072023	2543.564585
568.427732	2538.546116
568.783385	2543.494008
569.138982	2538.490663
569.494525	2543.327650
569.850013	2538.505787
570.205445	2545.074410
570.560823	2543.481406
570.916145	2545.414688
571.271412	2543.418391
571.626625	2545.573484
571.981782	2544.388813
572.336884	2546.904349
572.691931	2543.166333
573.046923	2542.705068
573.401860	2542.556354
573.756743	2544.940820
574.111570	2545.147507
574.466342	2546.574153
574.821059	2544.366128
575.175722	2543.743546
575.530330	2546.367466
575.884882	2546.422919
576.239380	2542.427804
576.593823	2545.349153
576.948211	2545.760007
577.302544	2543.788916
577.656823	2542.337064
578.011047	2546.967363
578.365216	2543.622558
578.719330	2544.303114
579.073389	2544.666077
579.427394	2545.389482
579.781344	2545.069369
580.135239	2545.165151
580.489080	2545.568443
580.842866	2545.429812
581.196597	2545.487785
581.550273	2544.416540
581.903895	2541.999306
582.257463	2543.660367
582.610975	2544.159441
582.964434	2544.545089
583.317837	2543.675490
583.671186	2544.779503
584.024481	2544.608103
584.377721	2546.080120
584.730906	2541.343956
585.084037	2545.233207
585.437113	2544.807229
585.790135	2543.284801
586.143103	2543.020140
586.496016	2545.656663
586.848874	2540.733977
587.201679	2539.035108
587.554428	2540.287835
587.907124	2540.297917
588.259765	2540.769265
588.612352	2544.731612
588.964884	2543.977959
589.317362	2542.805891
589.669786	2544.600542
590.022155	2547.358053
590.374470	2543.620037
590.726731	2546.881664
591.078937	2544.396375
591.431090	2546.236396
591.783188	2543.904862
592.135232	2544.855120
592.487222	2542.609286
592.839157	2541.285983
593.191038	2545.296221
593.542866	2544.502239
593.894639	2543.060469
594.246358	2544.383772
594.598022	2543.917465
594.949633	2540.043339
595.301190	2544.542568
595.652692	2543.320089
596.004141	2544.275387
596.355535	2546.606921
596.706876	2544.114070
597.058162	2544.043494
597.409395	2545.727240
597.760573	2543.466282
598.111698	2542.639533
598.462768	2543.909904
598.813785	2542.871426
599.164748	2542.289173
599.515657	2542.432846
599.866511	2542.758000
600.217312	2543.143648
600.568060	2543.970398
600.918753	2544.116591
601.269392	2541.328833
601.619978	2542.168185
601.970510	2544.265305
602.320988	2540.161806
602.671412	2541.858154
603.021783	2542.750438
603.372100	2543.254554
603.722363	2543.592311
604.072572	2543.904863
604.422728	2546.364946
604.772830	2538.962011
605.122878	2540.285314
605.472872	2542.614327
605.822813	2539.579553
606.172701	2540.048380
606.522534	2542.178267
606.872314	2541.913607
607.222041	2540.917979
607.571714	2543.062990
607.921333	2543.052907
608.270899	2543.529297
608.620411	2543.678011
608.969870	2543.741025
609.319276	2544.212373
609.668627	2547.080789
610.017926	2548.809905
610.367171	2552.439536
610.716362	2551.834598
611.065500	2548.285625
611.414585	2548.131870
611.763616	2546.327137
612.112594	2546.992569
612.461518	2544.872764
612.810389	2544.734132
613.159207	2543.625078
613.507971	2544.262784
613.856682	2546.080120
614.205340	2544.560213
614.553945	2544.945861
614.902496	2542.205994
615.250994	2545.815460
615.599439	2544.885367
615.947830	2541.190201
616.296169	2542.586601
616.644454	2542.649615
616.992686	2541.409491
617.340864	2544.663556
617.688990	2541.706919
618.037063	2543.841848
618.385082	2544.224976
618.733048	2546.402754
619.080961	2541.621220
619.428821	2541.596014
619.776628	2543.042825
620.124382	2544.212373
620.472083	2542.042156
620.819731	2545.838145
621.167326	2543.957795
621.514868	2542.939482
621.862357	2544.051056
622.209793	2543.541899
622.557176	2544.494677
622.904506	2541.684234
623.251783	2538.296579
623.599007	2541.268339
623.946179	2538.026877
624.293297	2536.459078
624.640363	2543.919986
624.987376	2541.971580
625.334336	2541.916127
625.681243	2542.337064
626.028097	2544.134235
626.374899	2543.123484
626.721647	2541.767413
627.068343	2543.481406
627.414987	2540.376055
627.761577	2539.894625
628.108115	2541.530479
628.454600	2541.283463
628.801032	2543.733463
629.147412	2544.073741
629.493739	2539.433359
629.840014	2542.079965
630.186236	2542.624409
630.532405	2542.150541
630.878521	2544.167003
631.224585	2542.006868
631.570597	2538.732639
631.916556	2544.897970
632.262462	2543.166333
632.608316	2544.595501
632.954117	2539.650129
633.299866	2541.684234
633.645562	2540.580222
633.991206	2540.360931
634.336797	2540.620551
634.682336	2542.705068
635.027823	2539.763555
635.373257	2541.379244
635.718639	2539.254398
636.063968	2539.753472
636.409245	2540.925541
636.754470	2541.807742
637.099642	2542.798329
637.444762	2542.102650
637.789829	2541.646426
638.134845	2538.004192
638.479808	2539.350180
638.824719	2538.626774
639.169577	2540.943185
639.514383	2540.635674
639.859137	2539.324974
640.203839	2542.178267
640.548489	2540.746580
640.893086	2539.345139
641.237632	2535.501259
641.582125	2538.049562
641.926566	2536.834644
642.270955	2540.991076
642.615292	2539.851775
642.959576	2541.596014
643.303809	2537.542926
643.647990	2542.778165
643.992118	2538.301620
644.336195	2539.695499
