Dividing Wavelength (nm)	Counts (n)	Blue Motor Position (mm): 0.000000	Red Motor Position (mm): 16.000000	
326.493990	2083.992835
326.888308	2083.992835
327.282561	2083.992835
327.676750	2059.923846
328.070874	2061.942828
328.464933	2066.462223
328.858929	2075.218707
329.252859	2089.999370
329.646726	2102.761051
330.040528	2119.490120
330.434265	2139.899232
330.827938	2157.727272
331.221547	2179.595798
331.615091	2199.878880
332.008571	2220.489638
332.401986	2241.299521
332.795338	2258.598240
333.188625	2278.825870
333.581847	2297.586524
333.975006	2313.894657
334.368100	2331.100115
334.761129	2352.426716
335.154095	2368.371886
335.546996	2384.649771
335.939833	2401.416649
336.332606	2412.169430
336.725315	2426.146029
337.117960	2437.097936
337.510540	2441.335026
337.903056	2450.073866
338.295508	2457.640638
338.687896	2461.348407
339.080220	2471.191259
339.472480	2477.558237
339.864676	2480.121663
340.256807	2481.699545
340.648875	2486.957468
341.040879	2487.023003
341.432818	2487.083497
341.824694	2488.288333
342.216506	2485.119968
342.608253	2486.816316
342.999937	2486.597026
343.391557	2487.096100
343.783113	2484.817498
344.174605	2484.172231
344.566033	2480.499750
344.957397	2479.330202
345.348697	2477.820377
345.739934	2476.703761
346.131106	2474.478092
346.522215	2472.658235
346.913260	2469.646146
347.304241	2473.179995
347.695159	2468.365693
348.086012	2464.594910
348.476802	2460.955197
348.867528	2465.555249
349.258191	2465.328398
349.648789	2464.126082
350.039324	2460.677933
350.429796	2462.659107
350.820203	2459.707511
351.210548	2458.948817
351.600828	2458.079218
351.991045	2459.397480
352.381198	2456.234156
352.771288	2458.036368
353.161314	2458.467387
353.551276	2459.536112
353.941175	2458.308591
354.331010	2458.011163
354.720782	2460.120886
355.110490	2459.079887
355.500135	2460.657768
355.889717	2459.112655
356.279235	2459.904116
356.668689	2462.432255
357.058080	2460.758592
357.447408	2459.198354
357.836672	2459.450412
358.225873	2460.582151
358.615010	2458.064095
359.004084	2466.129941
359.393095	2464.607512
359.782043	2470.467854
360.170927	2466.387040
360.559748	2467.531382
360.948505	2468.695888
361.337199	2469.885601
361.725830	2469.270580
362.114398	2469.958697
362.502903	2469.651187
362.891344	2473.948771
363.279722	2473.190077
363.668037	2473.875674
364.056289	2473.169912
364.444478	2474.772999
364.832603	2475.708133
365.220665	2475.408185
365.608665	2478.632003
365.996601	2477.873309
366.384474	2477.623772
366.772284	2476.224852
367.160031	2479.617548
367.547715	2482.697693
367.935336	2481.712148
368.322893	2480.114102
368.710388	2480.963536
369.097820	2485.298928
369.485189	2485.377066
369.872495	2486.433188
370.259738	2486.609628
370.646918	2486.657519
371.034035	2486.607108
371.421090	2493.374857
371.808081	2493.611791
372.195010	2502.700992
372.581875	2501.649911
372.968678	2509.733401
373.355418	2514.681294
373.742096	2525.386184
374.128710	2533.091587
374.515262	2543.002496
374.901751	2555.575134
375.288177	2568.737586
375.674540	2587.876327
376.060841	2606.742845
376.447079	2630.506844
376.833254	2653.439053
377.219367	2673.722136
377.605417	2706.668597
377.991404	2729.749520
378.377329	2764.871238
378.763191	2798.722587
379.148991	2840.700275
379.534727	2888.024106
379.920402	2930.306784
380.306013	2976.072899
380.691563	3035.044317
381.077049	3091.515322
381.462474	3140.311171
381.847835	3211.076368
382.233134	3275.769496
382.618371	3334.740913
383.003545	3413.829055
383.388657	3487.729850
383.773706	3574.682192
384.158693	3643.985455
384.543618	3732.188003
384.928480	3809.332780
385.313280	3903.625042
385.698017	4008.536495
386.082692	4116.555819
386.467305	4175.832227
386.851856	4299.912667
387.236344	4446.774081
387.620770	4507.618288
388.005133	4617.412098
388.389435	4752.018467
388.773674	4837.650027
389.157851	4962.189212
389.541965	5087.918110
389.926018	5113.113797
390.310008	5277.155463
390.693936	5400.482251
391.077802	5512.055589
391.461606	5636.763652
391.845348	5745.604685
392.229027	5865.727819
392.612645	6078.030972
392.996200	6193.165885
393.379694	6355.962387
393.763125	6574.531694
394.146494	6659.749879
394.529801	6793.443800
394.913047	7021.445106
395.296230	7025.299068
395.679351	7076.633137
396.062410	7322.112124
396.445408	7229.148206
396.828343	7372.856379
397.211217	7502.141810
397.594028	7398.283959
397.976778	7597.328877
398.359466	7754.186900
398.742092	7734.234013
399.124656	7875.671146
399.507158	8061.203251
399.889598	8084.102693
400.271977	8296.972975
400.654294	8321.099938
401.036549	8519.055967
401.418742	8540.261581
401.800874	8831.826796
402.182944	8914.723529
402.564952	9270.192931
402.946898	9103.814690
403.328783	9152.986104
403.710606	9335.738013
404.092367	9584.057690
404.474067	9927.254403
404.855705	9728.580009
405.237282	9678.591928
405.618797	10080.951622
406.000250	10306.175252
406.381642	10644.603033
406.762972	10575.062837
407.144240	10381.931192
407.525447	10602.196847
407.906593	10532.674295
408.287677	10764.464028
408.668700	10870.691222
409.049661	10828.559778
409.430560	10939.296284
409.811399	10876.473425
410.192176	10995.772331
410.572891	11018.704540
410.953545	11406.021431
411.334138	10873.237004
411.714669	11351.879439
412.095139	10687.442759
412.475547	11058.559902
412.855894	10870.907991
413.236180	11073.726213
413.616405	10725.516073
413.996568	10883.173119
414.376670	10780.149578
414.756711	10591.902811
415.136691	10725.309386
415.516609	10770.503330
415.896466	10730.433719
416.276262	10849.205824
416.655997	11092.494429
417.035670	11005.093424
417.415283	11356.681138
417.794834	11294.624534
418.174324	10962.795623
418.553753	10762.724830
418.933121	10970.876593
419.312428	10702.389780
419.691674	10487.656791
420.070859	10654.826493
420.449983	10268.177555
420.829045	10476.127672
421.208047	10158.081276
421.586988	10281.327405
421.965867	10264.711762
422.344686	10099.220763
422.723444	10254.150545
423.102141	9326.963885
423.480777	9825.279422
423.859352	9380.430363
424.237866	9792.093507
424.616319	9458.555645
424.994712	9605.916133
425.373044	9305.518817
425.751314	9449.191701
426.129524	8857.604736
426.507673	9140.778950
426.885762	8838.481119
427.263789	8713.921769
427.641756	8600.677289
428.019662	8436.615458
428.397508	8266.978110
428.775292	8177.434615
429.153016	7978.064542
429.530679	7818.638052
429.908282	7641.741443
430.285824	7380.133284
430.663305	7413.001607
431.040726	7124.491332
431.418086	6903.504791
431.795385	6908.482930
432.172624	6848.349527
432.549802	6575.023206
432.926920	6457.995340
433.303977	6273.272340
433.680974	6168.192009
434.057910	6074.260189
434.434786	5930.375576
434.811601	5769.192243
435.188355	5811.628677
435.565050	5610.789107
435.941683	5461.921314
436.318257	5461.636488
436.694770	5296.689935
437.071222	5247.626905
437.447614	4984.463551
437.823946	4861.819839
438.200218	4759.469293
438.576429	4618.387561
438.952580	4544.035583
439.328670	4435.164304
439.704700	4375.840006
440.080670	4233.218202
440.456580	4187.719268
440.832429	4110.314871
441.208218	3942.257925
441.583947	3890.860841
441.959616	3819.147907
442.335224	3757.280346
442.710773	3690.883309
443.086261	3651.290087
443.461689	3549.872154
443.837057	3492.317300
444.212365	3460.275726
444.587612	3406.922675
444.962800	3333.059688
445.337927	3298.850418
445.712995	3204.169988
446.088002	3227.956672
446.462949	3186.828418
446.837837	3152.160403
447.212664	3109.076182
447.587431	3154.076042
447.962139	3188.537369
448.336786	3214.733725
448.711374	3139.776809
449.085901	3024.528470
449.460369	2991.057729
449.834776	2964.642083
450.209124	2981.983652
450.583412	2952.324024
450.957640	2940.000923
451.331808	2900.238822
451.705917	2859.100486
452.079965	2846.578260
452.453954	2833.385560
452.827883	2817.145483
453.201752	2804.643422
453.575562	2799.521609
453.949311	2800.096301
454.323001	2790.686987
454.696632	2779.992179
455.070202	2790.737399
455.443713	2781.708692
455.817164	2777.549740
456.190556	2771.510438
456.563888	2764.200765
456.937160	2761.602050
457.310373	2747.222159
457.683526	2745.684607
458.056619	2737.780078
458.429653	2734.994840
458.802628	2735.987947
459.175542	2731.105590
459.548398	2742.112949
459.921194	2747.093609
460.293930	2749.762900
460.666607	2762.766557
461.039224	2772.687547
461.411782	2771.175201
461.784280	2762.559869
462.156719	2752.822881
462.529099	2748.182499
462.901419	2736.580283
463.273680	2731.506362
463.645882	2729.215157
464.018024	2727.619632
464.390106	2729.482338
464.762130	2749.107550
465.134094	2771.729728
465.505999	2809.036787
465.877845	2839.429904
466.249631	2846.595904
466.621358	2833.423369
466.993026	2818.032726
467.364634	2805.492856
467.736184	2787.808488
468.107674	2779.858589
468.479105	2773.814245
468.850477	2771.218051
469.221790	2761.891917
469.593043	2748.837849
469.964238	2744.394072
470.335373	2742.254102
470.706449	2755.721544
471.077467	2773.494132
471.448425	2806.301961
471.819324	2825.972544
472.190164	2816.969043
472.560945	2792.443829
472.931667	2772.286776
473.302330	2762.204468
473.672934	2760.359406
474.043479	2761.806217
474.413965	2756.533170
474.784393	2752.638879
475.154761	2761.511309
475.525070	2763.986516
475.895321	2759.691453
476.265513	2765.685385
476.635645	2776.743156
477.005719	2777.327930
477.375734	2779.561161
477.745691	2788.587347
478.115588	2797.537915
478.485427	2809.467806
478.855207	2835.933864
479.224928	2856.597553
479.594591	2869.656662
479.964194	2863.624922
480.333739	2865.316229
480.703226	2868.517362
481.072653	2872.436859
481.442022	2876.530276
481.811333	2881.052191
482.180584	2871.068185
482.549777	2866.868904
482.918912	2859.486134
483.287988	2859.259282
483.657005	2851.460617
484.025964	2847.818384
484.394864	2844.970132
484.763706	2844.513907
485.132489	2834.865139
485.501213	2833.287258
485.869879	2833.312464
486.238487	2826.378357
486.607036	2827.308449
486.975527	2824.644200
487.343959	2821.495999
487.712333	2825.105465
488.080648	2817.818477
488.448905	2822.262254
488.817104	2819.124136
489.185244	2821.851400
489.553326	2832.899089
489.921350	2850.694362
490.289315	2868.212372
490.657222	2871.726056
491.025070	2869.964173
491.392861	2860.932946
491.760593	2851.168231
492.128267	2836.982424
492.495883	2821.768221
492.863440	2813.654484
493.230939	2801.381795
493.598380	2796.486835
493.965763	2784.677932
494.333088	2782.835390
494.700354	2777.368259
495.067563	2775.651746
495.434713	2768.221085
495.801805	2770.527413
496.168839	2767.114552
496.535815	2765.773605
496.902733	2762.847215
497.269593	2761.317225
497.636395	2760.545928
498.003139	2760.684560
498.369825	2757.433016
498.736453	2757.324631
499.103023	2754.771287
499.469535	2752.974115
499.835989	2753.085021
500.202385	2749.588981
500.568723	2751.154259
500.935003	2750.904722
501.301226	2749.833477
501.667390	2752.419588
502.033497	2755.887902
502.399546	2751.436563
502.765537	2746.549165
503.131470	2750.254413
503.497345	2750.146028
503.863163	2740.915675
504.228923	2743.292579
504.594625	2746.700399
504.960269	2741.140007
505.325856	2744.298290
505.691385	2739.937692
506.056856	2741.313927
506.422270	2743.625296
506.787625	2739.015160
507.152924	2741.031622
507.518164	2740.207393
507.883347	2734.871332
508.248472	2735.703122
508.613540	2737.976683
508.978550	2738.614389
509.343503	2737.696899
509.708398	2736.877711
510.073236	2739.592372
510.438016	2740.729153
510.802738	2732.716239
511.167403	2737.641446
511.532010	2738.264028
511.896561	2737.903586
512.261053	2741.611355
512.625488	2737.031466
512.989866	2734.178173
513.354186	2734.268914
513.718449	2731.682802
514.082655	2736.764285
514.446803	2732.801938
514.810894	2736.303020
515.174927	2735.385530
515.538904	2734.760427
515.902822	2737.381827
516.266684	2728.826988
516.630488	2733.759757
516.994235	2730.719942
517.357925	2730.674571
517.721558	2731.781105
518.085133	2732.698595
518.448651	2731.834037
518.812112	2729.071484
519.175516	2728.968141
519.538863	2726.931515
519.902152	2728.721124
520.265385	2727.533932
520.628560	2727.523850
520.991678	2721.935731
521.354739	2722.326421
521.717743	2723.377501
522.080690	2721.376163
522.443580	2722.964127
522.806413	2726.051833
523.169189	2718.520349
523.531908	2719.347099
523.894569	2716.642520
524.257174	2716.708055
524.619722	2720.904815
524.982213	2716.957592
525.344647	2714.840307
525.707025	2716.907180
526.069345	2715.631768
526.431608	2709.675645
526.793815	2710.993907
527.155964	2708.798484
527.518057	2712.153372
527.880093	2708.100284
528.242072	2708.221272
528.603995	2703.714481
528.965860	2703.868236
529.327669	2702.779347
529.689421	2704.122814
530.051117	2698.998481
530.412755	2701.360262
530.774337	2698.985878
531.135862	2696.309026
531.497331	2693.813654
531.858743	2691.656041
532.220098	2692.523119
532.581396	2690.932635
532.942638	2687.078673
533.303824	2689.392562
533.664953	2688.245700
534.026025	2685.911646
534.387040	2686.680422
534.747999	2687.136646
535.108902	2687.567665
535.469748	2683.368384
535.830537	2684.389217
536.191270	2683.161696
536.551947	2680.527693
536.912567	2681.614062
537.273131	2681.125070
537.633638	2674.851354
537.994089	2675.950326
538.354483	2674.475788
538.714821	2676.061231
539.075103	2675.373114
539.435328	2675.042918
539.795497	2674.594255
540.155609	2673.031498
540.515665	2674.148113
540.875665	2668.776764
541.235609	2672.058555
541.595496	2671.756086
541.955328	2670.841116
542.315102	2668.761640
542.674821	2666.336845
543.034483	2666.788029
543.394090	2663.876762
543.753640	2663.231495
544.113134	2666.649397
544.472571	2660.905002
544.831953	2663.027328
545.191278	2663.387770
545.550548	2660.413490
545.909761	2662.079591
546.268918	2662.147647
546.628019	2661.593120
546.987064	2662.896258
547.346053	2657.734116
547.704986	2659.536329
548.063863	2658.419713
548.422684	2657.920639
548.781449	2656.178920
549.140158	2657.867707
549.498811	2656.806544
549.857408	2652.854279
550.215949	2652.589619
550.574434	2650.164824
550.932864	2648.551655
551.291237	2648.516367
551.649555	2652.382932
552.007817	2649.975781
552.366022	2649.950575
552.724173	2650.237921
553.082267	2650.880668
553.440305	2651.689773
553.798288	2648.042498
554.156215	2648.859165
554.514086	2649.065852
554.871902	2650.719351
555.229661	2647.671973
555.587365	2646.202477
555.945014	2645.380769
556.302606	2642.441776
556.660143	2647.926552
557.017625	2647.747591
557.375050	2643.142497
557.732421	2646.956129
558.089735	2644.795995
558.446994	2641.642753
558.804197	2644.480923
559.161345	2646.268012
559.518437	2642.497229
559.875474	2641.340284
560.232455	2642.056128
560.589381	2641.557054
560.946251	2644.410347
561.303065	2641.620068
561.659825	2640.533699
562.016528	2640.722743
562.373177	2641.642753
562.729770	2639.885911
563.086307	2639.631333
563.442789	2638.943215
563.799216	2640.591673
564.155587	2637.927423
564.511904	2639.674183
564.868164	2640.735346
565.224370	2637.415746
565.580520	2638.219810
565.936615	2639.338946
566.292654	2635.059006
566.648638	2637.687968
567.004567	2634.431383
567.360441	2635.795015
567.716260	2635.379120
568.072023	2636.289048
568.427732	2633.103039
568.783385	2635.258132
569.138982	2633.627319
569.494525	2631.331073
569.850013	2627.351082
570.205445	2633.813841
570.560823	2629.705301
570.916145	2631.928450
571.271412	2629.266721
571.626625	2631.951135
571.981782	2629.128089
572.336884	2628.457615
572.691931	2632.225878
573.046923	2630.789149
573.401860	2627.512399
573.756743	2629.385188
574.111570	2627.703963
574.466342	2628.172790
574.821059	2626.090794
575.175722	2626.204220
575.530330	2624.182717
575.884882	2625.218674
576.239380	2627.373767
576.593823	2621.899074
576.948211	2625.533746
577.302544	2621.836060
577.656823	2621.775566
578.011047	2622.115844
578.365216	2620.721965
578.719330	2621.389918
579.073389	2619.403703
579.427394	2618.226594
579.781344	2618.110647
580.135239	2619.930504
580.489080	2618.463528
580.842866	2619.315483
581.196597	2618.947479
581.550273	2618.342540
581.903895	2616.384052
582.257463	2616.701645
582.610975	2616.431943
582.964434	2613.119905
583.317837	2618.256841
583.671186	2616.167282
584.024481	2615.511932
584.377721	2614.347426
584.730906	2613.976901
585.084037	2614.365070
585.437113	2611.829369
585.790135	2610.667383
586.143103	2612.088989
586.496016	2613.689555
586.848874	2608.061107
587.201679	2610.062445
587.554428	2608.421549
587.907124	2608.986159
588.259765	2607.632609
588.612352	2608.479523
588.964884	2609.613782
589.317362	2609.654112
589.669786	2608.850047
590.022155	2610.952209
590.374470	2608.207300
590.726731	2606.909203
591.078937	2603.818976
591.431090	2604.968359
591.783188	2607.801487
592.135232	2605.220417
592.487222	2604.358379
592.839157	2605.023812
593.191038	2605.754779
593.542866	2603.556836
593.894639	2602.049531
594.246358	2601.331167
594.598022	2601.265632
594.949633	2599.818820
595.301190	2598.382092
595.652692	2599.554160
596.004141	2602.304109
596.355535	2599.624736
596.706876	2601.736979
597.058162	2598.901330
597.409395	2598.253542
597.760573	2598.787904
598.111698	2600.358224
598.462768	2599.586927
598.813785	2597.948552
599.164748	2597.225147
599.515657	2596.123655
599.866511	2593.754312
600.217312	2594.434868
600.568060	2594.606267
600.918753	2598.503079
601.269392	2596.899992
601.619978	2595.024683
601.970510	2595.919488
602.320988	2594.175249
602.671412	2594.674323
603.021783	2594.409662
603.372100	2594.881010
603.722363	2591.657192
604.072572	2592.042841
604.422728	2594.485280
604.772830	2589.504620
605.122878	2589.907912
605.472872	2590.316245
605.822813	2588.496389
606.172701	2591.251379
606.522534	2590.061667
606.872314	2591.871441
607.222041	2592.494024
607.571714	2592.176431
607.921333	2591.972264
608.270899	2588.955134
608.620411	2593.819847
608.969870	2592.720876
609.319276	2592.836822
609.668627	2592.657861
610.017926	2591.362285
610.367171	2593.726586
610.716362	2592.446133
611.065500	2591.742892
611.414585	2590.817840
611.763616	2591.019486
612.112594	2590.827922
612.461518	2591.999991
612.810389	2589.870103
613.159207	2590.346492
613.507971	2587.573858
613.856682	2593.076277
614.205340	2592.355392
614.553945	2594.850763
614.902496	2591.135433
615.250994	2591.659713
615.599439	2592.015114
615.947830	2594.611308
616.296169	2590.235587
616.644454	2592.194075
616.992686	2590.936307
617.340864	2592.914960
617.688990	2589.723910
618.037063	2592.955289
618.385082	2591.863880
618.733048	2593.414034
619.080961	2592.418407
619.428821	2595.705239
619.776628	2590.243149
620.124382	2592.148705
620.472083	2590.664085
620.819731	2592.219281
621.167326	2590.694332
621.514868	2591.304312
621.862357	2590.016297
622.209793	2588.478745
622.557176	2585.728795
622.904506	2586.878178
623.251783	2582.041191
623.599007	2585.343147
623.946179	2582.157138
624.293297	2584.224011
624.640363	2580.682600
624.987376	2582.091603
625.334336	2583.641758
625.681243	2583.256109
626.028097	2580.261664
626.374899	2584.705441
626.721647	2578.850141
627.068343	2582.517580
627.414987	2581.252251
627.761577	2580.720409
628.108115	2580.349884
628.454600	2584.523960
628.801032	2580.911973
629.147412	2580.551530
629.493739	2580.990111
629.840014	2579.233269
630.186236	2577.254616
630.532405	2578.325861
630.878521	2580.455748
631.224585	2576.364852
631.570597	2574.933164
631.916556	2576.074986
632.262462	2578.225038
632.608316	2576.866447
632.954117	2577.357959
633.299866	2575.840572
633.645562	2572.158009
633.991206	2575.359142
634.336797	2572.762948
634.682336	2575.684296
635.027823	2574.592887
635.373257	2571.754717
635.718639	2571.598441
636.063968	2572.999882
636.409245	2570.590210
636.754470	2569.970148
637.099642	2568.301527
637.444762	2569.748338
637.789829	2571.316137
638.134845	2570.663307
638.479808	2567.018553
638.824719	2566.524520
639.169577	2566.698440
639.514383	2564.888665
639.859137	2563.320867
640.203839	2571.127093
640.548489	2564.997050
640.893086	2563.784653
641.237632	2560.785166
641.582125	2565.047462
641.926566	2559.103941
642.270955	2565.909499
642.615292	2564.162739
642.959576	2562.433623
643.303809	2562.128634
643.647990	2565.357493
