Dividing Wavelength (nm)	Counts (n)	Blue Motor Position (mm): 0.000000	Red Motor Position (mm): 29.400000	
326.493990	2127.087139
326.888308	2127.087139
327.282561	2127.087139
327.676750	2096.593199
328.070874	2093.601275
328.464933	2097.485484
328.858929	2104.303644
329.252859	2112.193050
329.646726	2124.536315
330.040528	2138.338994
330.434265	2154.659730
330.827938	2170.942657
331.221547	2190.872859
331.615091	2208.927751
332.008571	2228.217726
332.401986	2249.163721
332.795338	2267.213572
333.188625	2287.438681
333.581847	2305.722946
333.975006	2323.684577
334.368100	2342.619151
334.761129	2361.669672
335.154095	2374.461599
335.546996	2393.423900
335.939833	2411.922414
336.332606	2426.932449
336.725315	2438.073399
337.117960	2450.310800
337.510540	2456.491255
337.903056	2465.966103
338.295508	2474.294090
338.687896	2479.141159
339.080220	2493.904178
339.472480	2499.462050
339.864676	2504.031856
340.256807	2505.594614
340.648875	2509.045284
341.040879	2510.323216
341.432818	2515.228259
341.824694	2514.146931
342.216506	2516.284381
342.608253	2519.034330
342.999937	2519.462828
343.391557	2517.592560
343.783113	2513.844462
344.174605	2514.532580
344.566033	2510.436642
344.957397	2511.238186
345.348697	2510.126611
345.739934	2509.834224
346.131106	2506.020591
346.522215	2505.957577
346.913260	2503.227792
347.304241	2499.812410
347.695159	2499.908192
348.086012	2499.850219
348.476802	2495.313181
348.867528	2495.245125
349.258191	2494.065495
349.648789	2490.587099
350.039324	2490.476193
350.429796	2490.461070
350.820203	2489.117602
351.210548	2487.658188
351.600828	2488.532829
351.991045	2485.830770
352.381198	2486.465956
352.771288	2488.187510
353.161314	2485.175420
353.551276	2482.611993
353.941175	2486.639875
354.331010	2482.811119
354.720782	2483.680718
355.110490	2483.736171
355.500135	2483.017806
355.889717	2487.761532
356.279235	2485.455204
356.668689	2486.740698
357.058080	2482.513691
357.447408	2481.442446
357.836672	2482.191057
358.225873	2484.842704
358.615010	2480.489668
359.004084	2489.992243
359.393095	2487.509474
359.782043	2489.644403
360.170927	2490.231698
360.559748	2490.093066
360.948505	2490.564414
361.337199	2492.152377
361.725830	2496.147492
362.114398	2492.469970
362.502903	2492.744713
362.891344	2496.636483
363.279722	2494.957779
363.668037	2498.189159
364.056289	2494.463746
364.444478	2498.791577
364.832603	2498.970538
365.220665	2498.186638
365.608665	2499.439365
365.996601	2499.348624
366.384474	2501.448265
366.772284	2500.215703
367.160031	2506.300375
367.547715	2503.918430
367.935336	2506.123935
368.322893	2512.460665
368.710388	2515.064421
369.097820	2520.821419
369.485189	2524.456091
369.872495	2529.928263
370.259738	2537.424459
370.646918	2544.945861
371.034035	2551.017931
371.421090	2564.273645
371.808081	2571.505180
372.195010	2579.709658
372.581875	2594.959148
372.968678	2607.383072
373.355418	2616.661315
373.742096	2635.588327
374.128710	2649.794299
374.515262	2664.809376
374.901751	2681.843435
375.288177	2691.542615
375.674540	2718.301059
376.060841	2733.364027
376.447079	2756.215577
376.833254	2775.664349
377.219367	2785.242541
377.605417	2824.349292
377.991404	2832.273986
378.377329	2856.562265
378.763191	2875.436345
379.148991	2910.437076
379.534727	2933.369285
379.920402	2962.086218
380.306013	2977.413846
380.691563	3025.077956
381.077049	3048.652912
381.462474	3065.999522
381.847835	3102.628546
382.233134	3125.099489
382.618371	3123.569499
383.003545	3193.722196
383.388657	3200.938608
383.773706	3234.749627
384.158693	3250.223448
384.543618	3278.055659
384.928480	3313.479847
385.313280	3358.018441
385.698017	3356.158255
386.082692	3411.431987
386.467305	3414.552461
386.851856	3446.483129
387.236344	3470.945328
387.620770	3498.807786
388.005133	3528.616128
388.389435	3553.869789
388.773674	3565.340934
389.157851	3606.456585
389.541965	3629.368629
389.926018	3586.682659
390.310008	3656.845438
390.693936	3676.596679
391.077802	3718.128225
391.461606	3706.402501
391.845348	3770.984723
392.229027	3772.867594
392.612645	3781.253553
392.996200	3862.464021
393.379694	3900.645721
393.763125	3965.921101
394.146494	3933.103190
394.529801	3995.550483
394.913047	4043.481774
395.296230	4007.553470
395.679351	4065.062953
396.062410	4092.391048
396.445408	4065.461204
396.828343	4098.490844
397.211217	4126.844814
397.594028	4043.257442
397.976778	4112.853092
398.359466	4134.777070
398.742092	4162.579033
399.124656	4088.262343
399.507158	4167.196730
399.889598	4193.163714
400.271977	4254.660749
400.654294	4225.719485
401.036549	4235.552256
401.418742	4205.706104
401.800874	4306.859377
402.182944	4324.684897
402.564952	4395.122419
402.946898	4380.777816
403.328783	4376.273545
403.710606	4288.844814
404.092367	4478.193073
404.474067	4447.195018
404.855705	4453.919917
405.237282	4380.621540
405.618797	4490.128004
406.000250	4526.550341
406.381642	4606.888689
406.762972	4569.596754
407.144240	4580.253753
407.525447	4576.490532
407.906593	4638.587465
408.287677	4680.781922
408.668700	4610.155357
409.049661	4659.699817
409.430560	4700.722206
409.811399	4629.654540
410.192176	4788.468530
410.572891	4729.146752
410.953545	4833.256662
411.334138	4713.463723
411.714669	4781.547026
412.095139	4676.895193
412.475547	4819.196883
412.855894	4800.390859
413.236180	4808.754133
413.616405	4761.016927
413.996568	4846.139330
414.376670	4787.878715
414.756711	4740.751488
415.136691	4776.170635
415.516609	4854.369014
415.896466	4895.388883
416.276262	4924.393161
416.655997	4906.446654
417.035670	5083.479374
417.415283	5176.947407
417.794834	5121.134273
418.174324	5078.846553
418.553753	4985.965814
418.933121	5169.478938
419.312428	5239.558538
419.691674	5172.150749
420.070859	5299.253361
420.449983	5213.662131
420.829045	5327.748483
421.208047	5233.509153
421.586988	5301.849556
421.965867	5319.223892
422.344686	5448.292554
422.723444	5306.540349
423.102141	5123.415395
423.480777	5421.647536
423.859352	5189.199932
424.237866	5452.118790
424.616319	5444.327687
424.994712	5551.427000
425.373044	5430.819915
425.751314	5572.937604
426.129524	5375.105083
426.507673	5570.222942
426.885762	5655.466333
427.263789	5584.776753
427.641756	5464.953568
428.019662	5584.484367
428.397508	5589.475109
428.775292	5539.814702
429.153016	5639.516122
429.530679	5561.978135
429.908282	5649.860570
430.285824	5521.772413
430.663305	5797.810874
431.040726	5526.589235
431.418086	5530.352457
431.795385	5629.751407
432.172624	5645.061392
432.549802	5642.981916
432.926920	5655.216796
433.303977	5662.264329
433.680974	5698.313620
434.057910	5721.331529
434.434786	5725.800512
434.811601	5694.900759
435.188355	5929.752993
435.565050	5799.071162
435.941683	5785.465088
436.318257	5995.013251
436.694770	5979.403318
437.071222	6012.185941
437.447614	5943.482576
437.823946	5861.210945
438.200218	6010.514799
438.576429	5879.661568
438.952580	5974.037009
439.328670	6015.291292
439.704700	5927.469351
440.080670	5913.291106
440.456580	6186.428383
440.832429	6067.401699
441.208218	5911.617443
441.583947	6069.839097
441.959616	6069.408078
442.335224	5998.786554
442.710773	6140.753008
443.086261	6164.590104
443.461689	5962.626358
443.837057	6107.970385
444.212365	6260.825731
444.587612	6154.671634
444.962800	6312.164842
445.337927	6286.626357
445.712995	5896.935082
446.088002	6476.171221
446.462949	6305.845756
446.837837	6236.779427
447.212664	6410.406848
447.587431	6553.386574
447.962139	7090.697957
448.336786	8022.517437
448.711374	7758.809638
449.085901	6834.650191
449.460369	6749.590802
449.834776	6687.274579
450.209124	7077.855617
450.583412	7232.203145
450.957640	7371.543158
451.331808	7143.073025
451.705917	6692.131731
452.079965	6614.986953
452.453954	6823.741134
452.827883	6701.087341
453.201752	6790.658562
453.575562	6594.444252
453.949311	6800.720705
454.323001	6687.430855
454.696632	6759.650425
455.070202	6897.352063
455.443713	7050.827471
455.817164	7150.508727
456.190556	7225.720221
456.563888	7304.117725
456.937160	7341.460072
457.310373	7000.768813
457.683526	7024.636156
458.056619	6912.619197
458.429653	6898.294758
458.802628	6832.550551
459.175542	6943.506347
459.548398	7287.824716
459.921194	7446.225332
460.293930	7445.930424
460.666607	7962.326060
461.039224	8261.778160
461.411782	8383.930359
461.784280	8393.385043
462.156719	8281.577292
462.529099	8157.978282
462.901419	7748.976867
463.273680	7631.628888
463.645882	7643.634396
464.018024	7506.295721
464.390106	7660.615523
464.762130	8031.800721
465.134094	8472.412691
465.505999	9444.374879
465.877845	10607.807652
466.249631	11230.324617
466.621358	10850.481236
466.993026	10229.895033
467.364634	9965.826792
467.736184	9600.650648
468.107674	9266.800235
468.479105	9272.368189
468.850477	9037.841109
469.221790	8799.102145
469.593043	8472.589131
469.964238	8316.204977
470.335373	8309.452352
470.706449	8349.494237
471.077467	8306.392371
471.448425	9492.424637
471.819324	10450.231265
472.190164	10457.787954
472.560945	9277.684086
472.931667	8523.827419
473.302330	8370.946867
473.672934	8019.500306
474.043479	8312.330851
474.413965	8232.368068
474.784393	8082.121519
475.154761	8198.436062
475.525070	8234.578614
475.895321	8048.799492
476.265513	8167.075044
476.635645	8282.275491
477.005719	8227.994867
477.375734	8290.797562
477.745691	8446.191129
478.115588	8511.514401
478.485427	8666.063575
478.855207	9048.150269
479.224928	9624.568402
479.594591	10084.293907
479.964194	9878.032577
480.333739	9784.262074
480.703226	9631.323549
481.072653	9643.644129
481.442022	9728.111182
481.811333	9800.630701
482.180584	9587.669677
482.549777	9287.778996
482.918912	9078.583715
483.287988	9018.120115
483.657005	8958.722720
484.025964	8651.093868
484.394864	8667.790170
484.763706	8566.546157
485.132489	8328.538160
485.501213	8223.500679
485.869879	8201.218779
486.238487	8000.129672
486.607036	8012.644337
486.975527	7768.503777
487.343959	7827.331521
487.712333	7768.133252
488.080648	7647.997514
488.448905	7574.978922
488.817104	7463.919782
489.185244	7537.775206
489.553326	7530.659618
489.921350	7751.938545
490.289315	8213.357877
490.657222	8320.275709
491.025070	8160.758478
491.392861	8005.967328
491.760593	7712.158800
492.128267	7438.499763
492.495883	7177.791451
492.863440	6922.310815
493.230939	6669.454100
493.598380	6555.251801
493.965763	6404.100365
494.333088	6287.969824
494.700354	6159.962325
495.067563	6120.895903
495.434713	5959.407581
495.801805	5940.551145
496.168839	5828.045194
496.535815	5722.443103
496.902733	5657.394575
497.269593	5545.140681
497.636395	5519.173698
498.003139	5430.288073
498.369825	5319.498635
498.736453	5291.618534
499.103023	5205.135019
499.469535	5139.589937
499.835989	5071.025203
500.202385	4981.761492
500.568723	4870.883834
500.935003	4881.772726
501.301226	4743.632508
501.667390	4761.886526
502.033497	4716.846337
502.399546	4620.409064
502.765537	4529.378428
503.131470	4485.258250
503.497345	4459.006441
503.863163	4322.582736
504.228923	4321.574505
504.594625	4280.448772
504.960269	4173.183100
505.325856	4160.766738
505.691385	4069.421031
506.056856	4044.878173
506.422270	3997.987881
506.787625	3933.246862
507.152924	3896.877458
507.518164	3851.330633
507.883347	3787.234883
508.248472	3737.183787
508.613540	3723.368504
508.978550	3662.168897
509.343503	3619.059470
509.708398	3594.667847
510.073236	3566.399577
510.438016	3528.865666
510.802738	3482.005620
511.167403	3454.251548
511.532010	3402.063002
511.896561	3396.273237
512.261053	3366.086808
512.625488	3316.696103
512.989866	3283.273253
513.354186	3252.557503
513.718449	3212.409753
514.082655	3201.200748
514.446803	3165.542146
514.810894	3148.918941
515.174927	3114.336626
515.538904	3092.263934
515.902822	3076.500246
516.266684	3046.288611
516.630488	3021.423119
516.994235	3006.085409
517.357925	2988.340547
517.721558	2971.861015
518.085133	2953.730506
518.448651	2937.472784
518.812112	2913.340781
519.175516	2897.874521
519.538863	2886.925135
519.902152	2869.250849
520.265385	2857.956144
520.628560	2842.197497
520.991678	2823.361226
521.354739	2818.410813
521.717743	2803.758699
522.080690	2794.677061
522.443580	2786.699435
522.806413	2775.873557
523.169189	2765.884510
523.531908	2760.752616
523.894569	2746.851634
524.257174	2738.261508
524.619722	2733.275807
524.982213	2729.905795
525.344647	2721.361040
525.707025	2715.621686
526.069345	2708.599359
526.431608	2701.587114
526.793815	2699.106866
527.155964	2692.197965
527.518057	2688.396935
527.880093	2685.215967
528.242072	2681.165399
528.603995	2677.283711
528.965860	2670.823472
529.327669	2668.653256
529.689421	2667.032525
530.051117	2663.579334
530.412755	2660.698315
530.774337	2655.601708
531.135862	2655.021976
531.497331	2649.151552
531.858743	2647.225831
532.220098	2646.265491
532.581396	2640.306847
532.942638	2641.980511
533.303824	2643.366828
533.664953	2640.566467
534.026025	2640.987403
534.387040	2640.357259
534.747999	2636.276445
535.108902	2635.295941
535.469748	2631.147071
535.830537	2632.351907
536.191270	2630.184211
536.551947	2630.779067
536.912567	2630.781587
537.273131	2628.891155
537.633638	2625.606843
537.994089	2624.167593
538.354483	2626.683129
538.714821	2626.252111
539.075103	2624.971657
539.435328	2625.339662
539.795497	2621.377315
540.155609	2624.233128
540.515665	2622.158694
540.875665	2621.624331
541.235609	2620.341358
541.595496	2620.147273
541.955328	2619.459156
542.315102	2616.197529
542.674821	2617.483023
543.034483	2615.451438
543.394090	2615.703496
543.753640	2615.927827
544.113134	2616.126953
544.472571	2617.069649
544.831953	2615.529576
545.191278	2615.020420
545.550548	2614.639813
545.909761	2614.458331
546.268918	2614.957405
546.628019	2616.822632
546.987064	2613.296345
547.346053	2615.383383
547.704986	2609.815428
548.063863	2613.185440
548.422684	2615.612755
548.781449	2612.285594
549.140158	2612.835080
549.498811	2612.255347
549.857408	2611.602518
550.215949	2607.713267
550.574434	2607.131014
550.932864	2610.748042
551.291237	2609.386930
551.649555	2610.236365
552.007817	2609.734770
552.366022	2608.086313
552.724173	2611.746190
553.082267	2605.679162
553.440305	2613.031685
553.798288	2608.905500
554.156215	2610.795933
554.514086	2611.786520
554.871902	2607.937599
555.229661	2610.064966
555.587365	2609.800305
555.945014	2609.462548
556.302606	2609.591097
556.660143	2609.165120
557.017625	2608.532455
557.375050	2608.293000
557.732421	2608.028339
558.089735	2608.056066
558.446994	2605.260746
558.804197	2610.427929
559.161345	2608.071189
559.518437	2607.783843
559.875474	2606.503390
560.232455	2608.661004
560.589381	2605.043976
560.946251	2608.411467
561.303065	2609.044132
561.659825	2606.047166
562.016528	2606.911724
562.373177	2607.304934
562.729770	2607.062958
563.086307	2607.027670
563.442789	2607.017588
563.799216	2608.214862
564.155587	2606.649584
564.511904	2607.173864
564.868164	2603.939964
565.224370	2607.756117
565.580520	2604.771754
565.936615	2606.798298
566.292654	2602.689757
566.648638	2604.053390
567.004567	2605.656477
567.360441	2605.603544
567.716260	2605.976590
568.072023	2606.967177
568.427732	2602.115066
568.783385	2606.238730
569.138982	2601.749582
569.494525	2602.919130
569.850013	2599.932246
570.205445	2604.118925
570.560823	2605.543051
570.916145	2603.766044
571.271412	2600.922833
571.626625	2604.076075
571.981782	2602.112545
572.336884	2602.515838
572.691931	2602.707402
573.046923	2600.955601
573.401860	2603.405601
573.756743	2601.679006
574.111570	2601.421907
574.466342	2603.314861
574.821059	2604.887701
575.175722	2601.850405
575.530330	2601.258070
575.884882	2602.641867
576.239380	2601.366455
576.593823	2601.900817
576.948211	2600.529623
577.302544	2599.710436
577.656823	2600.600199
578.011047	2599.274376
578.365216	2598.611464
578.719330	2600.496856
579.073389	2597.671289
579.427394	2598.866042
579.781344	2599.919643
580.135239	2599.153388
580.489080	2599.589448
580.842866	2596.978130
581.196597	2601.379057
581.550273	2598.568614
581.903895	2596.574838
582.257463	2597.267997
582.610975	2600.275045
582.964434	2596.879828
583.317837	2597.182297
583.671186	2596.781525
584.024481	2598.724890
584.377721	2598.117431
584.730906	2594.823037
585.084037	2596.509303
585.437113	2596.395877
585.790135	2600.353183
586.143103	2597.031062
586.496016	2594.991916
586.848874	2592.922522
587.201679	2595.687595
587.554428	2592.128540
587.907124	2594.364292
588.259765	2590.464959
588.612352	2594.916298
588.964884	2593.666092
589.317362	2597.169694
589.669786	2594.959148
590.022155	2595.218768
590.374470	2595.430496
590.726731	2595.455702
591.078937	2594.379415
591.431090	2596.562235
591.783188	2593.436720
592.135232	2591.720207
592.487222	2595.299426
592.839157	2592.562079
593.191038	2592.052923
593.542866	2596.179107
593.894639	2589.955803
594.246358	2592.083170
594.598022	2593.648448
594.949633	2590.969075
595.301190	2589.126533
595.652692	2590.956472
596.004141	2591.964703
596.355535	2592.791452
596.706876	2592.269692
597.058162	2587.871286
597.409395	2591.372367
597.760573	2592.504106
598.111698	2589.802048
598.462768	2594.260948
598.813785	2590.222984
599.164748	2587.379773
599.515657	2590.303642
599.866511	2586.386666
600.217312	2588.020000
600.568060	2588.125864
600.918753	2592.100814
601.269392	2586.250555
601.619978	2590.719538
601.970510	2589.358426
602.320988	2588.773652
602.671412	2589.434043
603.021783	2587.455391
603.372100	2590.558221
603.722363	2587.510843
604.072572	2588.526636
604.422728	2588.725761
604.772830	2584.382807
605.122878	2583.755184
605.472872	2585.927921
605.822813	2582.971284
606.172701	2585.461614
606.522534	2585.554876
606.872314	2587.893971
607.222041	2586.147211
607.571714	2588.521595
607.921333	2588.929928
608.270899	2590.144846
608.620411	2590.681729
608.969870	2591.082501
609.319276	2588.735844
609.668627	2592.383118
610.017926	2594.245825
610.367171	2597.081474
610.716362	2594.891093
611.065500	2592.262131
611.414585	2592.884713
611.763616	2593.540063
612.112594	2593.519899
612.461518	2592.909919
612.810389	2590.323807
613.159207	2590.109558
613.507971	2591.132912
613.856682	2591.039651
614.205340	2592.499065
614.553945	2591.074939
614.902496	2591.032089
615.250994	2590.051585
615.599439	2590.359095
615.947830	2590.507809
616.296169	2590.021338
616.644454	2587.367170
616.992686	2590.888416
617.340864	2590.323807
617.688990	2588.060329
618.037063	2591.014445
618.385082	2590.449836
618.733048	2590.404466
619.080961	2590.051585
619.428821	2592.080649
619.776628	2592.032758
620.124382	2590.901019
620.472083	2590.381780
620.819731	2589.456729
621.167326	2587.994794
621.514868	2590.356575
621.862357	2587.820874
622.209793	2589.784404
622.557176	2589.870103
622.904506	2586.512695
623.251783	2582.099165
623.599007	2585.643096
623.946179	2581.332909
624.293297	2584.420616
624.640363	2585.827098
624.987376	2586.268199
625.334336	2584.440781
625.681243	2586.167376
626.028097	2582.578074
626.374899	2585.275092
626.721647	2585.002869
627.068343	2583.553537
627.414987	2583.137642
627.761577	2581.960533
628.108115	2582.250399
628.454600	2583.470358
628.801032	2582.096644
629.147412	2583.369535
629.493739	2583.891295
629.840014	2583.056984
630.186236	2584.622262
630.532405	2583.004052
630.878521	2580.564133
631.224585	2580.685121
631.570597	2578.325861
631.916556	2580.402816
632.262462	2580.725450
632.608316	2579.316448
632.954117	2579.225707
633.299866	2579.974318
633.645562	2578.303176
633.991206	2576.833679
634.336797	2580.541448
634.682336	2578.270408
635.027823	2579.180337
635.373257	2578.567836
635.718639	2577.115984
636.063968	2575.928792
636.409245	2579.296283
636.754470	2578.333423
637.099642	2575.870819
637.444762	2576.667321
637.789829	2577.388206
638.134845	2575.918710
638.479808	2575.830490
638.824719	2575.379307
639.169577	2571.941240
639.514383	2572.314285
639.859137	2575.026426
640.203839	2574.565160
640.548489	2573.234296
640.893086	2573.035170
641.237632	2569.526527
641.582125	2571.424521
641.926566	2570.012998
642.270955	2572.462999
642.615292	2569.917216
642.959576	2572.442834
643.303809	2572.682289
643.647990	2574.103895
643.992118	2576.485840
644.336195	2573.118349
