Dividing Wavelength (nm)	Counts (n)	Blue Motor Position (mm): 0.000000	Red Motor Position (mm): 13.000000	
326.493990	2147.735705
326.888308	2147.735705
327.282561	2147.735705
327.676750	2121.791407
328.070874	2124.296860
328.464933	2129.096039
328.858929	2136.408233
329.252859	2148.171765
329.646726	2163.128868
330.040528	2179.109326
330.434265	2195.578776
330.827938	2213.762218
331.221547	2237.616958
331.615091	2256.826274
332.008571	2275.176074
332.401986	2295.154167
332.795338	2315.681746
333.188625	2334.664210
333.581847	2353.039216
333.975006	2374.015457
334.368100	2391.551111
334.761129	2409.817732
335.154095	2427.466812
335.546996	2445.045315
335.939833	2456.183744
336.332606	2472.799388
336.725315	2482.322127
337.117960	2488.144660
337.510540	2497.354848
337.903056	2507.101919
338.295508	2514.189781
338.687896	2516.365039
339.080220	2528.733510
339.472480	2534.298944
339.864676	2537.721887
340.256807	2545.805377
340.648875	2543.798998
341.040879	2548.814946
341.432818	2546.039791
341.824694	2547.917621
342.216506	2546.097764
342.608253	2544.913093
342.999937	2549.803012
343.391557	2546.453166
343.783113	2544.542568
344.174605	2543.763710
344.566033	2539.967721
344.957397	2540.481919
345.348697	2537.759696
345.739934	2535.896990
346.131106	2533.396577
346.522215	2533.298275
346.913260	2529.184693
347.304241	2529.519930
347.695159	2523.848632
348.086012	2525.204702
348.476802	2524.446009
348.867528	2521.814526
349.258191	2519.031809
349.648789	2521.103724
350.039324	2518.709176
350.429796	2521.348220
350.820203	2517.012827
351.210548	2515.724813
351.600828	2516.039885
351.991045	2516.975019
352.381198	2514.182219
352.771288	2515.792868
353.161314	2516.546521
353.551276	2517.766480
353.941175	2515.717251
354.331010	2515.926459
354.720782	2516.385204
355.110490	2515.066942
355.500135	2518.099196
355.889717	2515.560975
356.279235	2516.153311
356.668689	2520.403003
357.058080	2516.894360
357.447408	2516.002076
357.836672	2514.681294
358.225873	2516.352436
358.615010	2513.494102
359.004084	2521.154135
359.393095	2518.346213
359.782043	2520.632376
360.170927	2521.181862
360.559748	2521.628004
360.948505	2522.346368
361.337199	2520.435771
361.725830	2522.860566
362.114398	2522.966430
362.502903	2524.211595
362.891344	2523.626821
363.279722	2524.342665
363.668037	2526.344003
364.056289	2526.475073
364.444478	2524.516585
364.832603	2527.087573
365.220665	2525.799558
365.608665	2525.928108
365.996601	2529.676206
366.384474	2527.790814
366.772284	2527.969775
367.160031	2528.695701
367.547715	2529.378778
367.935336	2530.586134
368.322893	2528.138654
368.710388	2527.485824
369.097820	2530.482790
369.485189	2529.872811
369.872495	2529.620753
370.259738	2530.818027
370.646918	2530.311391
371.034035	2530.538243
371.421090	2531.667462
371.808081	2533.295754
372.195010	2531.344828
372.581875	2532.393388
372.968678	2536.096115
373.355418	2534.205683
373.742096	2536.330529
374.128710	2538.034439
374.515262	2535.566794
374.901751	2541.008720
375.288177	2540.227341
375.674540	2539.514018
376.060841	2542.631971
376.447079	2543.902342
376.833254	2547.368135
377.219367	2542.387475
377.605417	2547.968033
377.991404	2547.784030
378.377329	2551.461552
378.763191	2553.830894
379.148991	2559.908005
379.534727	2561.243911
379.920402	2569.846640
380.306013	2570.272618
380.691563	2574.371076
381.077049	2580.329720
381.462474	2583.936665
381.847835	2590.212902
382.233134	2596.652976
382.618371	2598.651793
383.003545	2607.113370
383.388657	2613.898763
383.773706	2618.213991
384.158693	2623.300515
384.543618	2632.611526
384.928480	2637.733338
385.313280	2646.041160
385.698017	2654.326296
386.082692	2661.121772
386.467305	2665.578152
386.851856	2675.073165
387.236344	2687.595391
387.620770	2693.468335
388.005133	2702.000488
388.389435	2713.406099
388.773674	2716.672767
389.157851	2728.020404
389.541965	2738.241343
389.926018	2742.899369
390.310008	2756.263468
390.693936	2764.588934
391.077802	2768.011877
391.461606	2781.736419
391.845348	2790.868469
392.229027	2796.380971
392.612645	2812.489978
392.996200	2820.389466
393.379694	2833.924964
393.763125	2850.913652
394.146494	2858.997143
394.529801	2869.381919
394.913047	2886.118550
395.296230	2886.899929
395.679351	2894.960734
396.062410	2911.687283
396.445408	2904.322157
396.828343	2916.272212
397.211217	2920.113571
397.594028	2916.809095
397.976778	2927.985333
398.359466	2939.756427
398.742092	2935.027825
399.124656	2948.124743
399.507158	2959.240487
399.889598	2964.077474
400.271977	2975.238588
400.654294	2977.353353
401.036549	2985.489775
401.418742	2986.525732
401.800874	3004.585666
402.182944	3006.650018
402.564952	3029.282278
402.946898	3014.582274
403.328783	3016.543283
403.710606	3025.730785
404.092367	3039.599000
404.474067	3054.072152
404.855705	3038.913403
405.237282	3033.093391
405.618797	3051.806154
406.000250	3062.344686
406.381642	3077.631985
406.762972	3069.248546
407.144240	3051.838921
407.525447	3061.654048
407.906593	3050.376987
408.287677	3057.588357
408.668700	3059.272103
409.049661	3048.083262
409.430560	3048.020247
409.811399	3038.338711
410.192176	3038.918444
410.572891	3032.145654
410.953545	3046.588559
411.334138	3009.205883
411.714669	3028.460570
412.095139	2987.113026
412.475547	3000.260356
412.855894	2983.216214
413.236180	2986.913901
413.616405	2960.299129
413.996568	2959.235446
414.376670	2944.674073
414.756711	2928.184458
415.136691	2929.414500
415.516609	2921.197419
415.896466	2912.766089
416.276262	2906.192425
416.655997	2901.862074
417.035670	2891.341186
417.415283	2900.876528
417.794834	2890.123747
418.174324	2871.584904
418.553753	2858.031762
418.933121	2854.185361
419.312428	2839.608865
419.691674	2821.286791
420.070859	2819.068683
420.449983	2799.297278
420.829045	2795.529016
421.208047	2783.614248
421.586988	2775.021602
421.965867	2768.228647
422.344686	2759.204982
422.723444	2752.580905
423.102141	2723.052347
423.480777	2730.442678
423.859352	2718.225442
424.237866	2719.150494
424.616319	2703.558205
424.994712	2701.198945
425.373044	2688.033972
425.751314	2685.470545
426.129524	2670.457989
426.507673	2670.087464
426.885762	2660.131185
427.263789	2655.755463
427.641756	2647.225831
428.019662	2640.662249
428.397508	2633.927267
428.775292	2632.432565
429.153016	2625.601802
429.530679	2620.023765
429.908282	2614.470934
430.285824	2609.727208
430.663305	2606.024481
431.040726	2600.673296
431.418086	2596.670620
431.795385	2597.179776
432.172624	2592.630135
432.549802	2588.793817
432.926920	2586.091758
433.303977	2588.151070
433.680974	2584.844073
434.057910	2581.781572
434.434786	2581.690831
434.811601	2577.355439
435.188355	2578.139338
435.565050	2577.665470
435.941683	2577.753690
436.318257	2569.355128
436.694770	2571.275807
437.071222	2574.509707
437.447614	2569.650035
437.823946	2569.244222
438.200218	2573.196487
438.576429	2571.734552
438.952580	2571.926116
439.328670	2570.504511
439.704700	2569.042576
440.080670	2569.841599
440.456580	2571.656414
440.832429	2569.760941
441.208218	2569.387895
441.583947	2571.873184
441.959616	2569.453430
442.335224	2569.027453
442.710773	2573.093143
443.086261	2570.360838
443.461689	2571.923596
443.837057	2569.382854
444.212365	2569.960066
444.587612	2568.349417
444.962800	2569.171126
445.337927	2571.868143
445.712995	2568.293965
446.088002	2570.570046
446.462949	2570.633060
446.837837	2568.898903
447.212664	2568.634243
447.587431	2572.253791
447.962139	2571.134655
448.336786	2574.902917
448.711374	2574.242526
449.085901	2572.246229
449.460369	2568.921588
449.834776	2571.926116
450.209124	2572.389902
450.583412	2572.336970
450.957640	2573.231775
451.331808	2569.758420
451.705917	2573.405695
452.079965	2571.200190
452.453954	2573.239337
452.827883	2570.766651
453.201752	2571.588359
453.575562	2574.227403
453.949311	2572.868812
454.323001	2574.696230
454.696632	2571.921075
455.070202	2570.675910
455.443713	2573.151117
455.817164	2574.020716
456.190556	2573.032649
456.563888	2573.788822
456.937160	2569.705488
457.310373	2575.154975
457.683526	2573.965263
458.056619	2576.047259
458.429653	2574.766806
458.802628	2574.519790
459.175542	2577.950295
459.548398	2574.673545
459.921194	2576.483319
460.293930	2577.496591
460.666607	2575.427198
461.039224	2578.265367
461.411782	2577.587332
461.784280	2576.206056
462.156719	2577.955336
462.529099	2579.757549
462.901419	2576.243864
463.273680	2577.547003
463.645882	2575.018864
464.018024	2579.364339
464.390106	2579.389544
464.762130	2577.433577
465.134094	2580.012127
465.505999	2583.530852
465.877845	2585.038157
466.249631	2588.244331
466.621358	2586.187540
466.993026	2587.195771
467.364634	2586.643765
467.736184	2582.177302
468.107674	2583.064546
468.479105	2580.743094
468.850477	2583.412385
469.221790	2583.019175
469.593043	2582.522622
469.964238	2581.668146
470.335373	2580.175964
470.706449	2581.390882
471.077467	2581.204360
471.448425	2584.836511
471.819324	2583.193095
472.190164	2584.382807
472.560945	2583.982036
472.931667	2583.742581
473.302330	2582.333578
473.672934	2583.845924
474.043479	2584.108064
474.413965	2580.848958
474.784393	2577.688155
475.154761	2579.059349
475.525070	2578.078844
475.895321	2580.417940
476.265513	2580.029771
476.635645	2584.032447
477.005719	2582.633527
477.375734	2585.028075
477.745691	2581.201839
478.115588	2584.014803
478.485427	2586.303487
478.855207	2584.128229
479.224928	2588.521595
479.594591	2586.794999
479.964194	2588.624938
480.333739	2589.224836
480.703226	2586.628641
481.072653	2590.729620
481.442022	2589.880186
481.811333	2587.044537
482.180584	2587.379773
482.549777	2588.146029
482.918912	2587.697366
483.287988	2588.251893
483.657005	2587.591502
484.025964	2587.294074
484.394864	2585.857345
484.763706	2587.911615
485.132489	2585.690987
485.501213	2585.696028
485.869879	2587.374732
486.238487	2582.991449
486.607036	2584.806264
486.975527	2587.102510
487.343959	2582.436922
487.712333	2584.874320
488.080648	2584.932293
488.448905	2583.684607
488.817104	2586.111923
489.185244	2587.278950
489.553326	2585.234762
489.921350	2585.595205
490.289315	2590.006214
490.657222	2588.561924
491.025070	2589.804568
491.392861	2588.839187
491.760593	2589.953282
492.128267	2589.338262
492.495883	2590.986719
492.863440	2586.991604
493.230939	2585.396079
493.598380	2585.350709
493.965763	2583.437591
494.333088	2583.614031
494.700354	2584.234093
495.067563	2582.935996
495.434713	2581.564802
495.801805	2584.551686
496.168839	2584.859196
496.535815	2584.027406
496.902733	2585.287694
497.269593	2586.744588
497.636395	2585.660740
498.003139	2587.026892
498.369825	2585.819536
498.736453	2584.886923
499.103023	2585.023034
499.469535	2585.403641
499.835989	2584.367684
500.202385	2585.307859
500.568723	2584.160997
500.935003	2585.746439
501.301226	2583.334247
501.667390	2587.694845
502.033497	2584.019844
502.399546	2584.471028
502.765537	2586.492530
503.131470	2585.166707
503.497345	2586.295925
503.863163	2585.461614
504.228923	2583.654361
504.594625	2584.924731
504.960269	2583.122519
505.325856	2582.522622
505.691385	2585.144022
506.056856	2586.923549
506.422270	2586.663929
506.787625	2587.551172
507.152924	2584.808785
507.518164	2586.134608
507.883347	2580.203691
508.248472	2583.830801
508.613540	2585.025554
508.978550	2585.247365
509.343503	2584.869279
509.708398	2588.425813
510.073236	2585.227201
510.438016	2585.222159
510.802738	2583.840883
511.167403	2587.531008
511.532010	2584.851635
511.896561	2585.146542
512.261053	2584.957499
512.625488	2580.390213
512.989866	2584.367684
513.354186	2581.960533
513.718449	2582.026068
514.082655	2583.102354
514.446803	2583.568661
514.810894	2582.580595
515.174927	2586.079156
515.538904	2581.857189
515.902822	2584.758373
516.266684	2584.670153
516.630488	2584.891964
516.994235	2584.465986
517.357925	2584.176120
517.721558	2587.026892
518.085133	2581.287539
518.448651	2587.226018
518.812112	2585.806933
519.175516	2584.660071
519.538863	2587.289032
519.902152	2588.501430
520.265385	2586.739547
520.628560	2583.949268
520.991678	2583.951789
521.354739	2583.235945
521.717743	2584.511357
522.080690	2586.197623
522.443580	2586.389187
522.806413	2585.683425
523.169189	2585.635534
523.531908	2583.654361
523.894569	2586.348857
524.257174	2586.139649
524.619722	2585.622931
524.982213	2585.915318
525.344647	2585.461614
525.707025	2585.247365
526.069345	2584.395410
526.431608	2584.518918
526.793815	2586.001018
527.155964	2586.333734
527.518057	2584.637386
527.880093	2584.440781
528.242072	2585.569999
528.603995	2585.050760
528.965860	2587.707448
529.327669	2584.579412
529.689421	2583.316603
530.051117	2586.089238
530.412755	2584.970102
530.774337	2585.060842
531.135862	2588.781214
531.497331	2582.878023
531.858743	2580.329720
532.220098	2583.233424
532.581396	2580.876685
532.942638	2580.581777
533.303824	2586.416913
533.664953	2583.987077
534.026025	2585.771645
534.387040	2584.806264
534.747999	2583.286356
535.108902	2583.311562
535.469748	2585.307859
535.830537	2585.776686
536.191270	2583.997159
536.551947	2587.533528
536.912567	2584.292067
537.273131	2588.191399
537.633638	2585.491861
537.994089	2583.949268
538.354483	2584.350040
538.714821	2585.199474
539.075103	2587.528487
539.435328	2585.784248
539.795497	2583.568661
540.155609	2587.289033
540.515665	2586.021182
540.875665	2585.391038
541.235609	2586.915987
541.595496	2583.490523
541.955328	2585.196954
542.315102	2583.992118
542.674821	2582.436922
543.034483	2583.273753
543.394090	2585.186871
543.753640	2585.305338
544.113134	2586.147211
544.472571	2582.716706
544.831953	2584.516398
545.191278	2583.596387
545.550548	2585.270050
545.909761	2584.060173
546.268918	2583.142683
546.628019	2585.406162
546.987064	2584.261820
547.346053	2584.909608
547.704986	2581.753846
548.063863	2584.576892
548.422684	2586.374063
548.781449	2584.723085
549.140158	2583.944227
549.498811	2586.484968
549.857408	2585.670822
550.215949	2578.928279
550.574434	2581.388362
550.932864	2580.145717
551.291237	2581.509350
551.649555	2585.728795
552.007817	2584.649988
552.366022	2584.770976
552.724173	2585.055801
553.082267	2582.270564
553.440305	2585.670822
553.798288	2585.585122
554.156215	2586.081676
554.514086	2583.072107
554.871902	2586.384145
555.229661	2585.449011
555.587365	2583.094793
555.945014	2586.205184
556.302606	2582.026068
556.660143	2583.989597
557.017625	2584.279464
557.375050	2585.789289
557.732421	2585.577561
558.089735	2588.355237
558.446994	2583.651840
558.804197	2585.370873
559.161345	2584.176120
559.518437	2583.258630
559.875474	2585.121336
560.232455	2584.110585
560.589381	2583.407344
560.946251	2587.261306
561.303065	2585.580081
561.659825	2585.411203
562.016528	2583.505647
562.373177	2583.513208
562.729770	2583.528332
563.086307	2583.462797
563.442789	2584.849114
563.799216	2584.188723
564.155587	2583.193095
564.511904	2584.072776
564.868164	2586.106882
565.224370	2585.030596
565.580520	2581.237127
565.936615	2584.985225
566.292654	2585.557396
566.648638	2586.137129
567.004567	2584.614700
567.360441	2585.829618
567.716260	2585.524629
568.072023	2582.426840
568.427732	2582.358784
568.783385	2581.698393
569.138982	2580.962384
569.494525	2581.688311
569.850013	2581.090934
570.205445	2584.720565
570.560823	2582.555389
570.916145	2585.438929
571.271412	2584.927252
571.626625	2585.527149
571.981782	2582.888105
572.336884	2582.961202
572.691931	2584.450863
573.046923	2586.739547
573.401860	2585.776686
573.756743	2585.428847
574.111570	2581.617734
574.466342	2583.863568
574.821059	2586.336254
575.175722	2584.816347
575.530330	2584.733168
575.884882	2583.747622
576.239380	2586.149732
576.593823	2587.215936
576.948211	2584.854155
577.302544	2585.154104
577.656823	2583.941706
578.011047	2585.575040
578.365216	2583.389700
578.719330	2583.866089
579.073389	2583.283836
579.427394	2584.405492
579.781344	2584.518918
580.135239	2583.435070
580.489080	2584.889443
580.842866	2583.641758
581.196597	2584.697879
581.550273	2584.816347
581.903895	2584.816347
582.257463	2581.123701
582.610975	2584.483630
582.964434	2586.129567
583.317837	2583.119998
583.671186	2585.363312
584.024481	2581.113619
584.377721	2582.837694
584.730906	2583.704772
585.084037	2580.513722
585.437113	2581.617734
585.790135	2584.050091
586.143103	2586.842890
586.496016	2582.472210
586.848874	2582.308372
587.201679	2582.535224
587.554428	2581.653023
587.907124	2581.811819
588.259765	2577.799060
588.612352	2583.727457
588.964884	2582.938517
589.317362	2586.376584
589.669786	2584.518918
590.022155	2586.439598
590.374470	2583.228383
590.726731	2582.530183
591.078937	2582.285687
591.431090	2582.641089
591.783188	2582.436922
592.135232	2582.331058
592.487222	2582.754515
592.839157	2583.424988
593.191038	2581.035481
593.542866	2583.452714
593.894639	2580.745615
594.246358	2585.005390
594.598022	2584.909608
594.949633	2583.467838
595.301190	2581.179154
595.652692	2582.283167
596.004141	2580.977508
596.355535	2585.106213
596.706876	2582.550348
597.058162	2582.333578
597.409395	2583.031778
597.760573	2581.199319
598.111698	2582.807447
598.462768	2581.526994
598.813785	2580.420460
599.164748	2580.911973
599.515657	2584.602097
599.866511	2581.973136
600.217312	2582.585636
600.568060	2582.245358
600.918753	2582.462128
601.269392	2582.918352
601.619978	2583.256109
601.970510	2583.946747
602.320988	2581.655543
602.671412	2583.515729
603.021783	2584.599577
603.372100	2581.211922
603.722363	2584.160997
604.072572	2583.621593
604.422728	2583.283836
604.772830	2579.150090
605.122878	2581.043043
605.472872	2579.760069
605.822813	2578.051118
606.172701	2577.761252
606.522534	2581.158989
606.872314	2584.755853
607.222041	2582.683938
607.571714	2583.934145
607.921333	2582.421798
608.270899	2581.622776
608.620411	2583.545976
608.969870	2581.564802
609.319276	2582.142014
609.668627	2584.218970
610.017926	2583.432550
610.367171	2584.234093
610.716362	2583.760225
611.065500	2583.545976
611.414585	2581.479103
611.763616	2581.136304
612.112594	2582.875502
612.461518	2584.453383
612.810389	2581.753846
613.159207	2584.725606
613.507971	2583.374577
613.856682	2581.998342
614.205340	2582.081521
614.553945	2582.925914
614.902496	2583.412385
615.250994	2582.111767
615.599439	2584.191243
615.947830	2585.237283
616.296169	2583.485482
616.644454	2583.949268
616.992686	2581.020358
617.340864	2585.746439
617.688990	2580.574216
618.037063	2584.564289
618.385082	2584.206367
618.733048	2584.763414
619.080961	2581.824422
619.428821	2581.804257
619.776628	2580.541448
620.124382	2585.809454
620.472083	2584.355081
620.819731	2584.367684
621.167326	2583.419947
621.514868	2581.209401
621.862357	2581.900039
622.209793	2583.117478
622.557176	2582.963723
622.904506	2582.154617
623.251783	2577.153793
623.599007	2576.674883
623.946179	2578.109091
624.293297	2580.435584
624.640363	2581.849627
624.987376	2582.167220
625.334336	2582.560430
625.681243	2580.778382
626.028097	2581.889957
626.374899	2580.854000
626.721647	2579.727302
627.068343	2581.572364
627.414987	2581.426171
627.761577	2582.736871
628.108115	2580.279308
628.454600	2582.048753
628.801032	2580.914493
629.147412	2581.857189
629.493739	2580.307034
629.840014	2583.062025
630.186236	2581.847107
630.532405	2585.519587
630.878521	2581.741243
631.224585	2581.779051
631.570597	2581.456418
631.916556	2579.003896
632.262462	2579.485326
632.608316	2583.248548
632.954117	2579.132446
633.299866	2582.197467
633.645562	2579.815522
633.991206	2582.021027
634.336797	2581.925245
634.682336	2582.487333
635.027823	2578.461972
635.373257	2579.316448
635.718639	2578.235120
636.063968	2583.765266
636.409245	2581.113619
636.754470	2580.869123
637.099642	2581.935327
637.444762	2579.351736
637.789829	2578.162023
638.134845	2579.800398
638.479808	2580.909452
638.824719	2580.796026
639.169577	2580.546489
639.514383	2580.803588
639.859137	2579.825604
640.203839	2580.443146
640.548489	2581.597570
640.893086	2576.558937
641.237632	2577.178998
641.582125	2576.589183
641.926566	2574.915520
642.270955	2581.776531
642.615292	2579.326530
642.959576	2579.823084
643.303809	2580.685121
643.647990	2580.531366
643.992118	2579.757549
644.336195	2577.781416
