Dividing Wavelength (nm)	Counts (n)	Blue Motor Position (mm): 0.000000	Red Motor Position (mm): 41.900000	
326.493990	2126.824999
326.888308	2126.824999
327.282561	2126.824999
327.676750	2097.382140
328.070874	2093.911306
328.464933	2097.664445
328.858929	2102.763572
329.252859	2113.385283
329.646726	2125.947838
330.040528	2136.239354
330.434265	2154.979843
330.827938	2173.551454
331.221547	2187.555779
331.615091	2208.332895
332.008571	2228.686554
332.401986	2246.320510
332.795338	2268.035280
333.188625	2286.687549
333.581847	2305.090281
333.975006	2323.891265
334.368100	2340.249809
334.761129	2360.772346
335.154095	2373.781044
335.546996	2397.502193
335.939833	2420.353743
336.332606	2436.024170
336.725315	2443.280911
337.117960	2453.615277
337.510540	2465.252780
337.903056	2475.221662
338.295508	2481.399596
338.687896	2490.186327
339.080220	2496.616319
339.472480	2507.444717
339.864676	2510.234996
340.256807	2513.899915
340.648875	2517.365708
341.040879	2523.263858
341.432818	2519.367046
341.824694	2522.696728
342.216506	2523.132788
342.608253	2524.776204
342.999937	2522.981553
343.391557	2522.626152
343.783113	2522.540452
344.174605	2522.341327
344.566033	2517.496778
344.957397	2517.466531
345.348697	2516.362518
345.739934	2514.603156
346.131106	2512.112826
346.522215	2511.447393
346.913260	2510.119049
347.304241	2506.118894
347.695159	2507.752228
348.086012	2508.137876
348.476802	2503.280724
348.867528	2502.542195
349.258191	2499.736793
349.648789	2499.194869
350.039324	2496.568428
350.429796	2496.906185
350.820203	2493.662203
351.210548	2496.787718
351.600828	2492.832933
351.991045	2496.064313
352.381198	2491.986019
352.771288	2495.169508
353.161314	2491.502068
353.551276	2491.436533
353.941175	2492.296050
354.331010	2491.696153
354.720782	2489.437716
355.110490	2491.459218
355.500135	2489.888899
355.889717	2491.313025
356.279235	2493.420227
356.668689	2495.098932
357.058080	2492.301091
357.447408	2493.236225
357.836672	2489.490648
358.225873	2491.522233
358.615010	2489.730103
359.004084	2494.965341
359.393095	2498.342914
359.782043	2495.227481
360.170927	2497.412821
360.559748	2498.292502
360.948505	2498.952894
361.337199	2501.801146
361.725830	2500.462719
362.114398	2501.591938
362.502903	2503.694099
362.891344	2501.907010
363.279722	2503.505056
363.668037	2500.694612
364.056289	2502.320384
364.444478	2505.246774
364.832603	2504.636795
365.220665	2505.012361
365.608665	2506.073523
365.996601	2506.983452
366.384474	2505.582011
366.772284	2513.058042
367.160031	2509.251971
367.547715	2514.416633
367.935336	2516.886798
368.322893	2518.784793
368.710388	2519.641789
369.097820	2529.267872
369.485189	2530.921371
369.872495	2538.772968
370.259738	2541.772454
370.646918	2550.564227
371.034035	2558.544373
371.421090	2569.287072
371.808081	2578.204873
372.195010	2587.614187
372.581875	2601.512648
372.968678	2615.201901
373.355418	2624.031482
373.742096	2640.632002
374.128710	2656.133550
374.515262	2671.602331
374.901751	2687.660926
375.288177	2699.237936
375.674540	2724.471432
376.060841	2741.941550
376.447079	2759.756988
376.833254	2780.216511
377.219367	2791.914508
377.605417	2828.062102
377.991404	2839.593741
378.377329	2861.873121
378.763191	2878.214021
379.148991	2919.430495
379.534727	2942.642488
379.920402	2970.247846
380.306013	2985.305773
380.691563	3033.905016
381.077049	3054.966957
381.462474	3071.141499
381.847835	3113.809825
382.233134	3132.048720
382.618371	3130.891775
383.003545	3198.927187
383.388657	3206.476315
383.773706	3238.969072
384.158693	3255.302411
384.543618	3281.425670
384.928480	3318.515960
385.313280	3363.997250
385.698017	3364.087990
386.082692	3417.133532
386.467305	3422.336003
386.851856	3452.295580
387.236344	3476.104949
387.620770	3507.655011
388.005133	3533.606871
388.389435	3560.740881
388.773674	3572.043148
389.157851	3615.266001
389.541965	3631.009525
389.926018	3595.698763
390.310008	3664.644103
390.693936	3684.002134
391.077802	3726.851942
391.461606	3713.381979
391.845348	3772.164353
392.229027	3773.974127
392.612645	3788.442239
392.996200	3865.730689
393.379694	3906.619488
393.763125	3969.457471
394.146494	3941.317750
394.529801	3999.487624
394.913047	4050.453689
395.296230	4015.135366
395.679351	4067.979261
396.062410	4093.651337
396.445408	4074.933532
396.828343	4109.014253
397.211217	4131.596102
397.594028	4051.976118
397.976778	4117.301910
398.359466	4142.868122
398.742092	4175.678472
399.124656	4094.596553
399.507158	4172.263090
399.889598	4199.402142
400.271977	4262.766925
400.654294	4233.039241
401.036549	4240.863111
401.418742	4210.585941
401.800874	4313.838854
402.182944	4332.541535
402.564952	4396.304570
402.946898	4388.944485
403.328783	4380.792939
403.710606	4295.042912
404.092367	4486.483250
404.474067	4457.478972
404.855705	4462.721772
405.237282	4390.436667
405.618797	4501.846167
406.000250	4528.725599
406.381642	4613.961428
406.762972	4574.625305
407.144240	4582.860029
407.525447	4582.560081
407.906593	4646.537364
408.287677	4684.955998
408.668700	4615.199031
409.049661	4673.487373
409.430560	4705.002146
409.811399	4637.312053
410.192176	4798.875992
410.572891	4734.792845
410.953545	4839.510213
411.334138	4718.915731
411.714669	4785.176657
412.095139	4680.111449
412.475547	4824.648891
412.855894	4803.206343
413.236180	4811.080626
413.616405	4766.589922
413.996568	4855.866237
414.376670	4794.959016
414.756711	4750.213734
415.136691	4776.231129
415.516609	4857.411350
415.896466	4897.526332
416.276262	4934.367084
416.655997	4912.420421
417.035670	5095.817598
417.415283	5186.399571
417.794834	5126.765241
418.174324	5083.018108
418.553753	4990.868337
418.933121	5174.610833
419.312428	5238.552828
419.691674	5178.376574
420.070859	5305.958096
420.449983	5217.359817
420.829045	5337.593857
421.208047	5238.008383
421.586988	5315.246422
421.965867	5325.293442
422.344686	5453.762206
422.723444	5308.037572
423.102141	5131.448473
423.480777	5425.899749
423.859352	5198.798289
424.237866	5455.637515
424.616319	5451.539057
424.994712	5557.519235
425.373044	5430.983752
425.751314	5576.630249
426.129524	5378.074322
426.507673	5567.556172
426.885762	5659.113608
427.263789	5585.487556
427.641756	5472.943797
428.019662	5584.532257
428.397508	5601.054639
428.775292	5545.390218
429.153016	5648.680940
429.530679	5570.651440
429.908282	5655.516745
430.285824	5527.277353
430.663305	5801.170803
431.040726	5535.494433
431.418086	5532.673908
431.795385	5644.438809
432.172624	5654.926930
432.549802	5650.329397
432.926920	5659.370707
433.303977	5668.568292
433.680974	5705.257810
434.057910	5723.479060
434.434786	5730.299742
434.811601	5699.747829
435.188355	5936.235917
435.565050	5810.393594
435.941683	5793.041942
436.318257	5999.610783
436.694770	5989.042004
437.071222	6017.912692
437.447614	5949.726045
437.823946	5865.306883
438.200218	6020.082909
438.576429	5884.490994
438.952580	5986.720553
439.328670	6029.756883
439.704700	5935.285660
440.080670	5924.215286
440.456580	6191.749321
440.832429	6076.899233
441.208218	5924.515235
441.583947	6078.698925
441.959616	6081.078350
442.335224	6009.902298
442.710773	6144.251569
443.086261	6175.645355
443.461689	5967.894363
443.837057	6116.109328
444.212365	6268.218583
444.587612	6162.989538
444.962800	6317.947045
445.337927	6297.651360
445.712995	5907.216515
446.088002	6486.447613
446.462949	6313.972096
446.837837	6250.861891
447.212664	6413.867600
447.587431	6560.376134
447.962139	7101.806139
448.336786	8025.229577
448.711374	7770.177440
449.085901	6844.135122
449.460369	6763.390961
449.834776	6696.636002
450.209124	7088.215188
450.583412	7242.792089
450.957640	7387.727783
451.331808	7150.261710
451.705917	6706.171344
452.079965	6626.140506
452.453954	6840.616397
452.827883	6715.550411
453.201752	6807.543907
453.575562	6612.922601
453.949311	6811.672612
454.323001	6702.214038
454.696632	6777.627179
455.070202	6910.650627
455.443713	7068.703402
455.817164	7169.410533
456.190556	7249.201916
456.563888	7323.831157
456.937160	7372.400154
457.310373	7028.601024
457.683526	7052.506175
458.056619	6938.530728
458.429653	6930.338853
458.802628	6870.550768
459.175542	6973.579350
459.548398	7326.208062
459.921194	7486.819223
460.293930	7491.134451
460.666607	8019.807816
461.039224	8331.245260
461.411782	8453.583981
461.784280	8474.663566
462.156719	8365.620888
462.529099	8241.500118
462.901419	7839.543717
463.273680	7730.977427
463.645882	7742.604849
464.018024	7603.768951
464.390106	7770.507635
464.762130	8160.196389
465.134094	8631.037638
465.505999	9650.144697
465.877845	10872.700122
466.249631	11519.079388
466.621358	11136.947324
466.993026	10508.496921
467.364634	10244.524461
467.736184	9885.881653
468.107674	9550.513852
468.479105	9584.902083
468.850477	9351.922638
469.221790	9122.842525
469.593043	8793.468656
469.964238	8656.364395
470.335373	8674.817538
470.706449	8728.170590
471.077467	8706.470943
471.448425	10017.516263
471.819324	11093.212794
472.190164	11111.423962
472.560945	9866.710145
472.931667	9081.878109
473.302330	8941.608003
473.672934	8589.609436
474.043479	8942.139845
474.413965	8883.228921
474.784393	8765.311291
475.154761	8925.433461
475.525070	9017.197584
475.895321	8833.268566
476.265513	9018.566258
476.635645	9185.730919
477.005719	9179.190022
477.375734	9297.354668
477.745691	9527.984936
478.115588	9666.699846
478.485427	9911.102546
478.855207	10446.551222
479.224928	11257.519121
479.594591	11884.905841
479.964194	11698.552027
480.333739	11641.304684
480.703226	11558.367621
481.072653	11644.334417
481.442022	11885.843495
481.811333	12075.388359
482.180584	11880.570448
482.549777	11593.033115
482.918912	11407.090156
483.287988	11436.422109
483.657005	11446.443923
484.025964	11129.413319
484.394864	11258.219841
484.763706	11228.653474
485.132489	10980.779939
485.501213	10951.037132
485.869879	11030.014368
486.238487	10866.766683
486.607036	10974.418003
486.975527	10760.708368
487.343959	10949.504621
487.712333	10990.395940
488.080648	10925.612072
488.448905	10971.070677
488.817104	10906.528784
489.185244	11177.740341
489.553326	11330.630975
489.921350	11861.814835
490.289315	12921.649376
490.657222	13269.083178
491.025070	13180.225280
491.392861	13047.990774
491.760593	12679.366481
492.128267	12322.344404
492.495883	11995.105464
492.863440	11661.028198
493.230939	11326.625778
493.598380	11260.082548
493.965763	11127.417022
494.333088	11027.229131
494.700354	10944.758375
495.067563	11009.771615
495.434713	10834.878865
495.801805	10968.943310
496.168839	10887.533717
496.535815	10825.046094
496.902733	10824.806639
497.269593	10755.221072
497.636395	10852.122132
498.003139	10841.628970
498.369825	10708.416479
498.736453	10870.045954
499.103023	10793.460745
499.469535	10819.309261
499.835989	10812.390277
500.202385	10772.146746
500.568723	10633.094079
500.935003	10851.653304
501.301226	10659.862606
501.667390	10910.934753
502.033497	11018.732266
502.399546	10873.352951
502.765537	10781.551019
503.131470	10845.997130
503.497345	11026.011692
503.863163	10635.349996
504.228923	10947.732655
504.594625	11016.304951
504.960269	10759.919428
505.325856	10986.874694
505.691385	10766.800603
506.056856	10932.720099
506.422270	10957.756990
506.787625	10847.809424
507.152924	10956.942843
507.518164	10933.630027
507.883347	10862.355674
508.248472	10778.042376
508.613540	11014.386792
508.978550	10896.229707
509.343503	10868.684843
509.708398	10990.821918
510.073236	11098.972312
510.438016	11106.445822
510.802738	11051.935826
511.167403	11109.760381
511.532010	11001.362971
511.896561	11236.956254
512.261053	11312.616412
512.625488	11174.390494
512.989866	11161.555716
513.354186	11148.287399
513.718449	11049.818541
514.082655	11248.250960
514.446803	11137.012859
514.810894	11262.751839
515.174927	11127.243103
515.538904	11153.315950
515.902822	11305.677264
516.266684	11187.726867
516.630488	11133.269802
516.994235	11190.915396
517.357925	11252.614078
517.721558	11336.065339
518.085133	11359.904956
518.448651	11365.856038
518.812112	11251.910837
519.175516	11265.189237
519.538863	11378.030424
519.902152	11299.171655
520.265385	11452.624378
520.628560	11370.055319
520.991678	11349.053872
521.354739	11415.271948
521.717743	11341.497182
522.080690	11319.873153
522.443580	11456.347270
522.806413	11409.744323
523.169189	11441.579210
523.531908	11495.060811
523.894569	11316.140178
524.257174	11318.449027
524.619722	11439.953437
524.982213	11383.489994
525.344647	11437.568972
525.707025	11388.516024
526.069345	11484.555046
526.431608	11400.214022
526.793815	11510.882472
527.155964	11300.111830
527.518057	11352.496980
527.880093	11305.896554
528.242072	11362.806140
528.603995	11277.998808
528.965860	11195.298680
529.327669	11245.178376
529.689421	11199.145080
530.051117	11166.420430
530.412755	11273.688622
530.774337	11162.395068
531.135862	11138.099227
531.497331	11166.062508
531.858743	11013.262614
532.220098	11186.653101
532.581396	11055.580580
532.942638	11036.562827
533.303824	10994.073462
533.664953	11014.515341
534.026025	10923.343553
534.387040	11028.335664
534.747999	11036.499813
535.108902	11080.680485
535.469748	10840.741727
535.830537	10954.903697
536.191270	10922.554612
536.551947	10951.246340
536.912567	10945.983375
537.273131	10862.736281
537.633638	10851.229847
537.994089	10834.737713
538.354483	10788.464961
538.714821	10926.479151
539.075103	10936.536253
539.435328	10903.791438
539.795497	10727.494726
540.155609	10891.274253
540.515665	10976.053858
540.875665	10711.841943
541.235609	10780.489856
541.595496	10776.076326
541.955328	10934.358474
542.315102	10819.347070
542.674821	10764.713565
543.034483	10765.976374
543.394090	10770.831005
543.753640	10702.712414
544.113134	10918.635115
544.472571	10773.059195
544.831953	10922.292472
545.191278	10723.769313
545.550548	10758.422205
545.909761	10893.512525
546.268918	10859.739315
546.628019	10948.680392
546.987064	10812.697788
547.346053	10733.886909
547.704986	10830.853503
548.063863	10818.721967
548.422684	10804.480707
548.781449	10723.250075
549.140158	10830.364512
549.498811	10708.565193
549.857408	10560.728316
550.215949	10783.562439
550.574434	10648.479681
550.932864	10733.259286
551.291237	10796.951744
551.649555	10747.225802
552.007817	10762.210632
552.366022	10721.399971
552.724173	10717.137676
553.082267	10704.663340
553.440305	10838.886582
553.798288	10635.050047
554.156215	10797.395365
554.514086	10774.518609
554.871902	10617.935330
555.229661	10654.100567
555.587365	10633.875458
555.945014	10524.991576
556.302606	10645.124793
556.660143	10551.135000
557.017625	10704.993536
557.375050	10606.691036
557.732421	10733.408000
558.089735	10649.613940
558.446994	10648.595627
558.804197	10684.813797
559.161345	10690.835455
559.518437	10537.967506
559.875474	10625.834818
560.232455	10655.058387
560.589381	10614.323343
560.946251	10602.763977
561.303065	10709.631397
561.659825	10651.537141
562.016528	10571.914636
562.373177	10455.274939
562.729770	10571.183669
563.086307	10479.953908
563.442789	10577.727087
563.799216	10450.100195
564.155587	10498.981743
564.511904	10449.676738
564.868164	10442.006622
565.224370	10461.639396
565.580520	10390.599456
565.936615	10388.222552
566.292654	10265.364591
566.648638	10392.371421
567.004567	10345.052631
567.360441	10330.982770
567.716260	10244.509338
568.072023	10332.938738
568.427732	10288.206059
568.783385	10194.218787
569.138982	10261.583726
569.494525	10283.747159
569.850013	10161.214353
570.205445	10238.160005
570.560823	10134.637390
570.916145	10058.326923
571.271412	10130.675043
571.626625	10069.351927
571.981782	10045.101456
572.336884	10017.685141
572.691931	10026.610504
573.046923	9975.503286
573.401860	9928.023179
573.756743	9869.117296
574.111570	9908.345035
574.466342	9891.563034
574.821059	9921.638558
575.175722	9817.624430
575.530330	9821.876643
575.884882	9813.815838
576.239380	9739.587369
576.593823	9719.364780
576.948211	9730.775432
577.302544	9619.285273
577.656823	9632.288930
578.011047	9633.460998
578.365216	9602.014280
578.719330	9530.908805
579.073389	9532.683291
579.427394	9484.419284
579.781344	9462.056726
580.135239	9413.782637
580.489080	9418.647350
580.842866	9319.560951
581.196597	9326.936159
581.550273	9368.502993
581.903895	9334.674330
582.257463	9397.439216
582.610975	9280.192060
582.964434	9305.107963
583.317837	9225.455211
583.671186	9210.578766
584.024481	9194.555459
584.377721	9124.281774
584.730906	9098.327394
585.084037	9129.035582
585.437113	9059.281137
585.790135	9088.106454
586.143103	8978.698292
586.496016	8961.843194
586.848874	9012.519393
587.201679	8996.967434
587.554428	8884.685814
587.907124	8935.268752
588.259765	8907.048373
588.612352	8902.181139
588.964884	8785.705279
589.317362	8799.686919
589.669786	8789.816340
590.022155	8846.617541
590.374470	8865.544553
590.726731	8805.635481
591.078937	8650.836770
591.431090	8758.263758
591.783188	8631.161146
592.135232	8625.230229
592.487222	8627.067729
592.839157	8675.951798
593.191038	8608.435625
593.542866	8552.561996
593.894639	8451.444012
594.246358	8502.473091
594.598022	8516.101851
594.949633	8419.634331
595.301190	8385.604022
595.652692	8416.186182
596.004141	8529.087863
596.355535	8304.355745
596.706876	8280.127960
597.058162	8208.939306
597.409395	8289.146584
597.760573	8345.902415
598.111698	8256.779856
598.462768	8243.430880
598.813785	8206.597690
599.164748	8173.494953
599.515657	8166.134868
599.866511	8074.590035
600.217312	8195.418931
600.568060	8054.301912
600.918753	8150.882857
601.269392	8123.771532
601.619978	8035.664766
601.970510	8093.877490
602.320988	8084.959689
602.671412	8144.503277
603.021783	8077.788647
603.372100	8050.873927
603.722363	8051.841828
604.072572	8026.096656
604.422728	8034.870784
604.772830	7967.609189
605.122878	7968.985424
605.472872	7964.395453
605.822813	7986.871438
606.172701	7935.716329
606.522534	8004.054211
606.872314	7998.314857
607.222041	7970.664128
607.571714	8022.552725
607.921333	7981.013617
608.270899	7978.145200
608.620411	8071.885456
608.969870	7969.391237
609.319276	7964.382850
609.668627	7970.533058
610.017926	8003.986155
610.367171	8045.041312
610.716362	8019.570882
611.065500	8004.523038
611.414585	8023.439968
611.763616	8008.664346
612.112594	7993.785380
612.461518	7997.881318
612.810389	8055.380718
613.159207	7987.088207
613.507971	7937.009385
613.856682	8045.709265
614.205340	7995.113724
614.553945	8064.147285
614.902496	7960.312119
615.250994	8011.379007
615.599439	7989.613825
615.947830	7995.764033
616.296169	7952.233670
616.644454	7972.925086
616.992686	7960.319680
617.340864	8003.895414
617.688990	7909.582988
618.037063	7987.365471
618.385082	7933.079806
618.733048	8001.352152
619.080961	7937.740352
619.428821	7947.895757
619.776628	7942.121115
620.124382	7886.411324
620.472083	7862.939712
620.819731	7884.039461
621.167326	7779.150693
621.514868	7782.515664
621.862357	7664.081316
622.209793	7682.068153
622.557176	7608.553006
622.904506	7574.623520
623.251783	7507.366966
623.599007	7455.410314
623.946179	7452.189017
624.293297	7404.192191
624.640363	7322.921229
624.987376	7296.107332
625.334336	7249.108655
625.681243	7190.701846
626.028097	7175.273395
626.374899	7150.065105
626.721647	7131.503577
627.068343	7057.534726
627.414987	7024.860487
627.761577	6972.682025
628.108115	6997.204718
628.454600	6894.506331
628.801032	6925.668224
629.147412	6884.222378
629.493739	6863.568770
629.840014	6795.228368
630.186236	6836.830490
630.532405	6721.897224
630.878521	6755.977944
631.224585	6705.957095
631.570597	6632.862885
631.916556	6650.423744
632.262462	6638.813967
632.608316	6590.126503
632.954117	6564.245219
633.299866	6542.288474
633.645562	6528.478233
633.991206	6446.562003
634.336797	6389.430607
634.682336	6346.401838
635.027823	6308.714172
635.373257	6294.404857
635.718639	6224.395833
636.063968	6227.377675
636.409245	6129.483509
636.754470	6118.503876
637.099642	6073.859417
637.444762	6020.524010
637.789829	6016.813720
638.134845	5956.939936
638.479808	5932.076965
638.824719	5926.496408
639.169577	5862.440987
639.514383	5871.031113
639.859137	5801.012007
640.203839	5799.981091
640.548489	5776.627945
