Dividing Wavelength (nm)	Counts (n)	Blue Motor Position (mm): 0.000000	Red Motor Position (mm): 23.500000	
326.493990	2127.588734
326.888308	2127.588734
327.282561	2127.588734
327.676750	2095.710998
328.070874	2095.799218
328.464933	2098.831472
328.858929	2103.204673
329.252859	2111.714140
329.646726	2126.066305
330.040528	2137.504683
330.434265	2154.024545
330.827938	2169.009374
331.221547	2188.528722
331.615091	2211.108050
332.008571	2228.681513
332.401986	2248.586508
332.795338	2267.284148
333.188625	2286.634617
333.581847	2304.145065
333.975006	2322.842705
334.368100	2341.331136
334.761129	2356.494927
335.154095	2376.586446
335.546996	2392.186296
335.939833	2408.630540
336.332606	2425.251224
336.725315	2436.321598
337.117960	2446.960953
337.510540	2454.192489
337.903056	2463.193469
338.295508	2473.817701
338.687896	2480.116622
339.080220	2489.321769
339.472480	2496.850733
339.864676	2499.814931
340.256807	2507.411950
340.648875	2507.510252
341.040879	2510.315654
341.432818	2510.769358
341.824694	2517.763959
342.216506	2515.520646
342.608253	2514.572909
342.999937	2516.533918
343.391557	2515.845800
343.783113	2511.704492
344.174605	2512.984945
344.566033	2512.173320
344.957397	2512.024606
345.348697	2510.660973
345.739934	2507.316168
346.131106	2504.959428
346.522215	2506.348266
346.913260	2499.971207
347.304241	2501.377689
347.695159	2494.599857
348.086012	2496.858294
348.476802	2492.913591
348.867528	2493.412666
349.258191	2490.272027
349.648789	2491.343272
350.039324	2487.547283
350.429796	2487.673312
350.820203	2487.685915
351.210548	2486.042499
351.600828	2483.655512
351.991045	2482.554020
352.381198	2483.514360
352.771288	2483.877323
353.161314	2481.485296
353.551276	2482.795996
353.941175	2483.514360
354.331010	2484.136942
354.720782	2483.315234
355.110490	2481.550831
355.500135	2484.013434
355.889717	2482.080152
356.279235	2481.530666
356.668689	2484.394041
357.058080	2488.152222
357.447408	2480.502271
357.836672	2481.581077
358.225873	2483.199288
358.615010	2481.490337
359.004084	2484.883033
359.393095	2485.109885
359.782043	2488.996615
360.170927	2486.322283
360.559748	2488.706748
360.948505	2490.014928
361.337199	2491.282778
361.725830	2494.060454
362.114398	2491.396204
362.502903	2492.981647
362.891344	2494.287306
363.279722	2493.798314
363.668037	2494.925012
364.056289	2493.377377
364.444478	2496.611278
364.832603	2497.276710
365.220665	2496.956597
365.608665	2497.007008
365.996601	2496.989364
366.384474	2498.496669
366.772284	2501.342401
367.160031	2501.909530
367.547715	2503.568070
367.935336	2507.626199
368.322893	2509.899759
368.710388	2511.011334
369.097820	2520.297139
369.485189	2521.554907
369.872495	2528.920033
370.259738	2533.320960
370.646918	2539.889583
371.034035	2545.883515
371.421090	2558.209137
371.808081	2571.611044
372.195010	2578.628330
372.581875	2591.074939
372.968678	2604.103801
373.355418	2614.082765
373.742096	2632.188069
374.128710	2645.322796
374.515262	2661.366268
374.901751	2677.762621
375.288177	2687.953313
375.674540	2715.578836
376.060841	2731.695405
376.447079	2751.176944
376.833254	2774.449431
377.219367	2782.840431
377.605417	2823.265444
377.991404	2831.646362
378.377329	2850.754856
378.763191	2873.460213
379.148991	2909.320461
379.534727	2932.136723
379.920402	2961.521609
380.306013	2974.248002
380.691563	3023.182482
381.077049	3044.294834
381.462474	3061.016342
381.847835	3102.321036
382.233134	3121.076649
382.618371	3121.883233
383.003545	3193.462577
383.388657	3197.485417
383.773706	3232.687795
384.158693	3244.577356
384.543618	3273.904269
384.928480	3306.757468
385.313280	3356.480889
385.698017	3353.352853
386.082692	3406.327818
386.467305	3413.703027
386.851856	3445.064045
387.236344	3466.625060
387.620770	3496.014987
388.005133	3526.138401
388.389435	3553.320303
388.773674	3561.345820
389.157851	3603.661265
389.541965	3620.478554
389.926018	3584.512442
390.310008	3655.328051
390.693936	3672.631812
391.077802	3712.905590
391.461606	3701.903271
391.845348	3769.240484
392.229027	3769.205196
392.612645	3780.373872
392.996200	3860.329093
393.379694	3896.035585
393.763125	3962.649392
394.146494	3929.912139
394.529801	3991.068897
394.913047	4039.693347
395.296230	4005.844519
395.679351	4061.158580
396.062410	4084.388217
396.445408	4065.763674
396.828343	4099.292388
397.211217	4121.992704
397.594028	4041.871125
397.976778	4105.293882
398.359466	4136.314622
398.742092	4166.644724
399.124656	4087.178495
399.507158	4164.461904
399.889598	4189.486192
400.271977	4252.591356
400.654294	4221.578177
401.036549	4231.967995
401.418742	4201.590002
401.800874	4307.272752
402.182944	4324.642047
402.564952	4392.034712
402.946898	4372.845560
403.328783	4374.446127
403.710606	4283.607055
404.092367	4480.086026
404.474067	4439.265283
404.855705	4448.772899
405.237282	4379.716653
405.618797	4493.107326
406.000250	4522.532541
406.381642	4603.927011
406.762972	4565.183223
407.144240	4574.766457
407.525447	4576.498093
407.906593	4637.344820
408.287677	4677.348897
408.668700	4603.059933
409.049661	4655.676976
409.430560	4696.495199
409.811399	4621.679435
410.192176	4784.438128
410.572891	4723.931679
410.953545	4827.676104
411.334138	4707.956262
411.714669	4778.048465
412.095139	4668.640303
412.475547	4813.979289
412.855894	4796.768790
413.236180	4804.635511
413.616405	4757.029374
413.996568	4842.696222
414.376670	4784.198673
414.756711	4740.822065
415.136691	4770.461529
415.516609	4847.475236
415.896466	4882.801122
416.276262	4918.590793
416.655997	4902.159152
417.035670	5084.946350
417.415283	5170.295605
417.794834	5118.560763
418.174324	5071.922529
418.553753	4979.601358
418.933121	5159.764634
419.312428	5227.389193
419.691674	5164.528525
420.070859	5291.789933
420.449983	5205.578641
420.829045	5318.913861
421.208047	5225.718050
421.586988	5296.266478
421.965867	5307.861132
422.344686	5439.210916
422.723444	5293.171209
423.102141	5113.726297
423.480777	5405.755298
423.859352	5178.479918
424.237866	5431.868475
424.616319	5424.825983
424.994712	5531.368249
425.373044	5405.967027
425.751314	5547.421803
426.129524	5347.560218
426.507673	5535.890164
426.885762	5616.326815
427.263789	5543.053644
427.641756	5423.023771
428.019662	5536.414444
428.397508	5533.712386
428.775292	5479.600640
429.153016	5564.581891
429.530679	5487.041383
429.908282	5560.380089
430.285824	5424.833545
430.663305	5673.022152
431.040726	5411.522378
431.418086	5397.094596
431.795385	5487.394264
432.172624	5486.454089
432.549802	5463.789061
432.926920	5464.086489
433.303977	5457.827897
433.680974	5476.825485
434.057910	5472.706862
434.434786	5459.088185
434.811601	5413.732924
435.188355	5604.737202
435.565050	5468.948682
435.941683	5431.555923
436.318257	5594.203711
436.694770	5555.165016
437.071222	5559.359256
437.447614	5475.355989
437.823946	5370.875555
438.200218	5474.244414
438.576429	5329.056663
438.952580	5382.245877
439.328670	5383.657400
439.704700	5272.237818
440.080670	5232.251386
440.456580	5405.276388
440.832429	5273.626656
441.208218	5120.685610
441.583947	5202.614442
441.959616	5164.641951
442.335224	5066.253751
442.710773	5119.135455
443.086261	5093.100416
443.461689	4914.341101
443.837057	4968.324297
444.212365	5020.366648
444.587612	4910.761881
444.962800	4956.359118
445.337927	4895.313265
445.712995	4605.479687
446.088002	4904.926746
446.462949	4755.965691
446.837837	4661.796937
447.212664	4716.667376
447.587431	4729.103902
447.962139	4959.880364
448.336786	5381.497266
448.711374	5191.962484
449.085901	4662.505219
449.460369	4552.469433
449.834776	4463.646823
450.209124	4589.395885
450.583412	4585.375565
450.957640	4605.116724
451.331808	4434.297226
451.705917	4189.791182
452.079965	4103.000157
452.453954	4123.084113
452.827883	4031.274620
453.201752	4010.905837
453.575562	3888.975449
453.949311	3896.111203
454.323001	3822.684276
454.696632	3795.141932
455.070202	3783.635499
455.443713	3780.373872
455.817164	3755.006786
456.190556	3724.187692
456.563888	3692.607384
456.937160	3652.462155
457.310373	3532.061757
457.683526	3490.227742
458.056619	3421.753749
458.429653	3376.804301
458.802628	3323.766321
459.175542	3310.848365
459.548398	3327.804286
459.921194	3322.785817
460.293930	3292.344809
460.666607	3332.265707
461.039224	3344.919003
461.411782	3320.313131
461.784280	3278.002727
462.156719	3214.280022
462.529099	3157.461177
462.901419	3072.575707
463.273680	3032.357382
463.645882	3003.075840
464.018024	2957.970116
464.390106	2946.728343
464.762130	2952.165227
465.134094	2967.462609
465.505999	3038.522713
465.877845	3099.868514
466.249631	3102.129472
466.621358	3027.348996
466.993026	2952.949127
467.364634	2909.295255
467.736184	2864.943183
468.107674	2827.545384
468.479105	2808.484781
468.850477	2781.673404
469.221790	2756.823036
469.593043	2730.959397
469.964238	2712.075234
470.335373	2703.205324
470.706449	2692.815506
471.077467	2682.660102
471.448425	2705.645242
471.819324	2721.663509
472.190164	2709.337888
472.560945	2678.042405
472.931667	2654.137253
473.302330	2644.261633
473.672934	2634.895169
474.043479	2634.670837
474.413965	2628.681947
474.784393	2617.213322
475.154761	2623.764301
475.525070	2616.978908
475.895321	2613.157713
476.265513	2609.583535
476.635645	2614.581839
477.005719	2610.218721
477.375734	2609.815428
477.745691	2613.034205
478.115588	2608.172012
478.485427	2611.252157
478.855207	2616.023609
479.224928	2620.714403
479.594591	2622.952675
479.964194	2620.817747
480.333739	2622.841770
480.703226	2616.931017
481.072653	2618.183744
481.442022	2617.281377
481.811333	2617.417488
482.180584	2613.548403
482.549777	2611.778958
482.918912	2608.043463
483.287988	2607.125973
483.657005	2609.328957
484.025964	2603.203955
484.394864	2604.784357
484.763706	2603.193873
485.132489	2603.171188
485.501213	2602.793101
485.869879	2600.373347
486.238487	2597.857812
486.607036	2599.329828
486.975527	2599.254211
487.343959	2596.627770
487.712333	2599.349993
488.080648	2596.713470
488.448905	2598.094746
488.817104	2592.985536
489.185244	2598.152719
489.553326	2599.304623
489.921350	2601.142123
490.289315	2608.860130
490.657222	2608.144286
491.025070	2607.630088
491.392861	2610.813577
491.760593	2606.195880
492.128267	2607.693103
492.495883	2599.912082
492.863440	2599.329828
493.230939	2594.361771
493.598380	2592.993098
493.965763	2591.659713
494.333088	2591.203488
494.700354	2586.822726
495.067563	2588.481265
495.434713	2586.071594
495.801805	2592.599888
496.168839	2590.578385
496.535815	2591.455546
496.902733	2588.730802
497.269593	2591.614343
497.636395	2587.956985
498.003139	2589.353385
498.369825	2585.506985
498.736453	2587.556214
499.103023	2587.619228
499.469535	2591.286667
499.835989	2587.228539
500.202385	2587.294074
500.568723	2587.273909
500.935003	2588.037644
501.301226	2585.811974
501.667390	2586.159814
502.033497	2590.298601
502.399546	2587.742736
502.765537	2585.789289
503.131470	2586.321131
503.497345	2586.192582
503.863163	2585.622931
504.228923	2587.382294
504.594625	2584.644947
504.960269	2585.822057
505.325856	2587.813312
505.691385	2586.817685
506.056856	2586.784917
506.422270	2586.492530
506.787625	2586.729464
507.152924	2586.646285
507.518164	2585.948086
507.883347	2584.448342
508.248472	2582.499936
508.613540	2584.891964
508.978550	2582.999011
509.343503	2587.352047
509.708398	2585.300297
510.073236	2584.496233
510.438016	2589.096286
510.802738	2586.875658
511.167403	2587.200812
511.532010	2586.250555
511.896561	2588.108220
512.261053	2587.445308
512.625488	2584.564289
512.989866	2581.310224
513.354186	2586.300966
513.718449	2579.523135
514.082655	2587.377253
514.446803	2584.453383
514.810894	2588.977819
515.174927	2588.871955
515.538904	2584.806264
515.902822	2587.324321
516.266684	2586.245514
516.630488	2585.383476
516.994235	2584.833991
517.357925	2588.851790
517.721558	2588.461101
518.085133	2587.624269
518.448651	2589.832295
518.812112	2589.038313
519.175516	2587.838518
519.538863	2589.693663
519.902152	2590.984198
520.265385	2589.108889
520.628560	2588.463621
520.991678	2586.497571
521.354739	2587.649475
521.717743	2585.698548
522.080690	2591.775659
522.443580	2590.016297
522.806413	2592.143664
523.169189	2588.856831
523.531908	2593.406473
523.894569	2587.049578
524.257174	2589.676019
524.619722	2587.410020
524.982213	2589.691142
525.344647	2590.210381
525.707025	2591.100145
526.069345	2590.222984
526.431608	2590.026379
526.793815	2590.570824
527.155964	2590.349013
527.518057	2589.260124
527.880093	2589.761718
528.242072	2588.153590
528.603995	2588.259455
528.965860	2588.692994
529.327669	2591.553849
529.689421	2588.377922
530.051117	2591.072418
530.412755	2587.011769
530.774337	2588.423292
531.135862	2588.516553
531.497331	2587.737695
531.858743	2584.229052
532.220098	2586.507654
532.581396	2583.825760
532.942638	2586.414392
533.303824	2588.340113
533.664953	2588.713158
534.026025	2588.433374
534.387040	2590.308684
534.747999	2587.372212
535.108902	2591.999991
535.469748	2587.467993
535.830537	2586.109402
536.191270	2590.222984
536.551947	2589.638210
536.912567	2590.396904
537.273131	2589.607963
537.633638	2587.082345
537.994089	2590.870772
538.354483	2588.284660
538.714821	2590.311204
539.075103	2587.916656
539.435328	2590.139805
539.795497	2589.812130
540.155609	2590.495206
540.515665	2590.749785
540.875665	2587.868765
541.235609	2588.357757
541.595496	2587.788107
541.955328	2587.193251
542.315102	2590.525453
542.674821	2589.988570
543.034483	2590.747264
543.394090	2588.458580
543.753640	2589.749116
544.113134	2589.129054
544.472571	2589.098807
544.831953	2591.942018
545.191278	2591.208530
545.550548	2588.173755
545.909761	2589.454208
546.268918	2586.376584
546.628019	2592.153746
546.987064	2588.844228
547.346053	2589.872624
547.704986	2588.274578
548.063863	2591.326997
548.422684	2589.045875
548.781449	2590.616194
549.140158	2591.813468
549.498811	2590.187696
549.857408	2585.501943
550.215949	2587.740216
550.574434	2587.193251
550.932864	2587.044537
551.291237	2586.787438
551.649555	2590.459918
552.007817	2589.071080
552.366022	2591.158118
552.724173	2590.669126
553.082267	2589.118971
553.440305	2590.616194
553.798288	2587.702407
554.156215	2589.759198
554.514086	2590.177614
554.871902	2587.266347
555.229661	2592.481421
555.587365	2587.052098
555.945014	2588.680391
556.302606	2589.156780
556.660143	2590.681729
557.017625	2589.189547
557.375050	2590.611153
557.732421	2589.572675
558.089735	2590.709455
558.446994	2589.948241
558.804197	2594.298757
559.161345	2591.339600
559.518437	2590.568303
559.875474	2589.963365
560.232455	2589.252562
560.589381	2590.888416
560.946251	2590.812799
561.303065	2590.883375
561.659825	2590.792634
562.016528	2589.136615
562.373177	2589.045875
562.729770	2589.698704
563.086307	2592.110896
563.442789	2588.657706
563.799216	2590.127202
564.155587	2587.591502
564.511904	2591.949579
564.868164	2590.432192
565.224370	2591.871441
565.580520	2589.277768
565.936615	2590.233066
566.292654	2588.246852
566.648638	2589.486976
567.004567	2587.573858
567.360441	2585.945565
567.716260	2586.747108
568.072023	2591.410176
568.427732	2584.294587
568.783385	2588.614856
569.138982	2587.541090
569.494525	2583.641758
569.850013	2581.728640
570.205445	2586.895822
570.560823	2586.847932
570.916145	2587.296594
571.271412	2587.251224
571.626625	2589.978488
571.981782	2588.393045
572.336884	2589.010587
572.691931	2589.502099
573.046923	2587.079825
573.401860	2587.659557
573.756743	2587.188209
574.111570	2586.852973
574.466342	2586.608477
574.821059	2586.951275
575.175722	2584.445822
575.530330	2588.564444
575.884882	2589.106368
576.239380	2586.794999
576.593823	2590.414548
576.948211	2587.258786
577.302544	2585.348188
577.656823	2586.883220
578.011047	2586.328693
578.365216	2586.081676
578.719330	2585.418764
579.073389	2588.277099
579.427394	2585.290215
579.781344	2584.082859
580.135239	2584.352560
580.489080	2582.590677
580.842866	2584.385328
581.196597	2586.706779
581.550273	2587.120154
581.903895	2585.310380
582.257463	2585.161666
582.610975	2582.981367
582.964434	2582.933476
583.317837	2582.714185
583.671186	2584.617221
584.024481	2582.129412
584.377721	2584.009762
584.730906	2582.817529
585.084037	2583.888774
585.437113	2583.770307
585.790135	2585.287694
586.143103	2582.041191
586.496016	2584.244176
586.848874	2579.853331
587.201679	2581.569843
587.554428	2577.869637
587.907124	2581.093454
588.259765	2577.514235
588.612352	2580.561613
588.964884	2580.037333
589.317362	2580.680080
589.669786	2579.127404
590.022155	2583.694690
590.374470	2581.418609
590.726731	2581.713516
591.078937	2579.071952
591.431090	2580.327199
591.783188	2580.972467
592.135232	2580.667477
592.487222	2579.820563
592.839157	2584.710482
593.191038	2578.351067
593.542866	2580.475913
593.894639	2580.937179
594.246358	2580.445666
594.598022	2578.212435
594.949633	2579.732343
595.301190	2580.780903
595.652692	2576.211097
596.004141	2579.288721
596.355535	2579.452559
596.706876	2575.553226
597.058162	2577.925089
597.409395	2579.823084
597.760573	2579.903742
598.111698	2577.080696
598.462768	2577.360480
598.813785	2576.185891
599.164748	2577.075655
599.515657	2579.245872
599.866511	2575.129769
600.217312	2582.051274
600.568060	2574.978535
600.918753	2576.163206
601.269392	2574.194635
601.619978	2577.972980
601.970510	2575.865778
602.320988	2577.814184
602.671412	2577.889801
603.021783	2573.007444
603.372100	2578.121694
603.722363	2575.172619
604.072572	2575.855696
604.422728	2578.396437
604.772830	2574.464337
605.122878	2573.017526
605.472872	2574.401323
605.822813	2569.886969
606.172701	2573.819069
606.522534	2577.438618
606.872314	2576.563978
607.222041	2576.397620
607.571714	2574.086251
607.921333	2575.908628
608.270899	2575.039029
608.620411	2576.725295
608.969870	2578.219997
609.319276	2578.615727
609.668627	2578.948443
610.017926	2583.228383
610.367171	2585.297777
610.716362	2585.582602
611.065500	2581.746284
611.414585	2579.487847
611.763616	2582.386510
612.112594	2578.043556
612.461518	2578.225038
612.810389	2577.325192
613.159207	2578.769482
613.507971	2577.305027
613.856682	2577.073134
614.205340	2578.290573
614.553945	2578.441807
614.902496	2577.337795
615.250994	2576.982393
615.599439	2577.667990
615.947830	2576.369893
616.296169	2577.720922
616.644454	2578.361149
616.992686	2577.710840
617.340864	2578.121694
617.688990	2576.591704
618.037063	2576.919379
618.385082	2574.960891
618.733048	2577.461303
619.080961	2574.650860
619.428821	2576.810994
619.776628	2577.690676
620.124382	2577.877198
620.472083	2574.623133
620.819731	2575.596076
621.167326	2576.868967
621.514868	2575.102043
621.862357	2576.367373
622.209793	2576.258988
622.557176	2576.117836
622.904506	2572.251271
623.251783	2571.081723
623.599007	2573.352763
623.946179	2567.275652
624.293297	2569.186249
624.640363	2572.878894
624.987376	2569.907134
625.334336	2572.541137
625.681243	2568.956877
626.028097	2570.307906
626.374899	2572.367217
626.721647	2572.399985
627.068343	2569.450910
627.414987	2570.875036
627.761577	2569.178687
628.108115	2571.280848
628.454600	2571.006106
628.801032	2569.692885
629.147412	2568.392267
629.493739	2571.855540
629.840014	2569.037535
630.186236	2568.540981
630.532405	2570.471743
630.878521	2570.847309
631.224585	2569.040056
631.570597	2568.921588
631.916556	2567.242884
632.262462	2569.652556
632.608316	2570.035683
632.954117	2568.556105
633.299866	2570.136507
633.645562	2568.213306
633.991206	2568.863615
634.336797	2564.142575
634.682336	2567.484860
635.027823	2566.224571
635.373257	2567.026115
635.718639	2567.323543
636.063968	2566.708522
636.409245	2566.890003
636.754470	2565.065106
637.099642	2563.146947
637.444762	2564.475291
637.789829	2561.947152
638.134845	2564.235836
638.479808	2564.722307
638.824719	2565.806155
639.169577	2559.174517
639.514383	2563.512430
639.859137	2563.187276
640.203839	2565.367575
640.548489	2560.787687
640.893086	2560.946483
641.237632	2559.048489
641.582125	2560.891030
641.926566	2558.940104
642.270955	2562.869683
642.615292	2561.432954
642.959576	2563.809858
643.303809	2561.884138
643.647990	2564.802966
643.992118	2563.094015
644.336195	2562.126113
