Dividing Wavelength (nm)	Counts (n)	Blue Motor Position (mm): 23.900000	Red Motor Position (mm): 0.000000	
326.493990	2196.387881
326.888308	2196.387881
327.282561	2196.387881
327.676750	2157.056799
328.070874	2154.808444
328.464933	2151.080511
328.858929	2155.420944
329.252859	2160.434372
329.646726	2170.133552
330.040528	2181.491271
330.434265	2194.315967
330.827938	2210.798019
331.221547	2229.596482
331.615091	2246.706158
332.008571	2265.875146
332.401986	2283.521705
332.795338	2302.579787
333.188625	2322.063846
333.581847	2337.835096
333.975006	2357.362006
334.368100	2378.025695
334.761129	2397.676113
335.154095	2412.562640
335.546996	2441.350149
335.939833	2474.493215
336.332606	2487.759012
336.725315	2499.835096
337.117960	2512.763135
337.510540	2523.992305
337.903056	2535.660055
338.295508	2543.617517
338.687896	2554.647561
339.080220	2557.342058
339.472480	2569.150961
339.864676	2572.861250
340.256807	2576.304358
340.648875	2585.499423
341.040879	2584.554207
341.432818	2588.216605
341.824694	2588.970257
342.216506	2591.964703
342.608253	2591.813468
342.999937	2592.836822
343.391557	2593.373705
343.783113	2592.257090
344.174605	2591.316914
344.566033	2589.252562
344.957397	2586.679053
345.348697	2587.394897
345.739934	2585.832139
346.131106	2586.442119
346.522215	2584.798702
346.913260	2578.537589
347.304241	2581.705955
347.695159	2575.948957
348.086012	2577.637743
348.476802	2574.723957
348.867528	2569.947463
349.258191	2564.177863
349.648789	2562.617626
350.039324	2563.678788
350.429796	2564.800445
350.820203	2563.179714
351.210548	2560.323901
351.600828	2559.247614
351.991045	2559.381205
352.381198	2558.173848
352.771288	2557.339538
353.161314	2555.812068
353.551276	2560.021431
353.941175	2559.136709
354.331010	2557.394990
354.720782	2557.452963
355.110490	2557.140412
355.500135	2556.348951
355.889717	2556.583364
356.279235	2559.860114
356.668689	2557.818447
357.058080	2558.698128
357.447408	2558.428427
357.836672	2556.036399
358.225873	2558.897254
358.615010	2557.495813
359.004084	2558.993036
359.393095	2557.712583
359.782043	2559.134188
360.170927	2561.196020
360.559748	2559.366081
360.948505	2562.577296
361.337199	2565.203738
361.725830	2561.385063
362.114398	2563.777091
362.502903	2565.390260
362.891344	2565.110476
363.279722	2563.600651
363.668037	2563.477142
364.056289	2564.024107
364.444478	2567.048800
364.832603	2567.200034
365.220665	2567.542833
365.608665	2569.317319
365.996601	2567.515107
366.384474	2569.009809
366.772284	2566.408573
367.160031	2566.763975
367.547715	2569.569377
367.935336	2571.215313
368.322893	2567.797411
368.710388	2566.567370
369.097820	2568.432597
369.485189	2567.378995
369.872495	2568.886300
370.259738	2570.557443
370.646918	2572.717577
371.034035	2573.806467
371.421090	2570.479305
371.808081	2571.805128
372.195010	2572.387382
372.581875	2571.036353
372.968678	2573.352763
373.355418	2575.432239
373.742096	2574.209759
374.128710	2572.520972
374.515262	2574.378637
374.901751	2572.500808
375.288177	2573.509038
375.674540	2576.780747
376.060841	2575.475088
376.447079	2576.677404
376.833254	2577.128587
377.219367	2577.045408
377.605417	2577.617579
377.991404	2576.891653
378.377329	2576.080027
378.763191	2577.151272
379.148991	2576.453072
379.534727	2580.047415
379.920402	2577.902404
380.306013	2578.222517
380.691563	2580.060018
381.077049	2578.416602
381.462474	2580.380131
381.847835	2578.943402
382.233134	2581.436253
382.618371	2582.825091
383.003545	2580.208732
383.388657	2580.264185
383.773706	2580.995152
384.158693	2579.586149
384.543618	2583.016655
384.928480	2581.708475
385.313280	2582.159658
385.698017	2584.299628
386.082692	2582.000862
386.467305	2582.784762
386.851856	2587.445308
387.236344	2581.612693
387.620770	2580.405337
388.005133	2580.980028
388.389435	2583.329206
388.773674	2580.092785
389.157851	2582.429360
389.541965	2582.749473
389.926018	2588.022520
390.310008	2582.383990
390.693936	2582.532704
391.077802	2584.629824
391.461606	2587.009248
391.845348	2583.719896
392.229027	2584.922211
392.612645	2585.121336
392.996200	2588.844228
393.379694	2587.233580
393.763125	2587.818354
394.146494	2587.304156
394.529801	2584.604618
394.913047	2590.190217
395.296230	2589.429002
395.679351	2592.357913
396.062410	2589.590319
396.445408	2591.216091
396.828343	2589.088724
397.211217	2591.027048
397.594028	2589.492017
397.976778	2590.386822
398.359466	2588.859352
398.742092	2590.341451
399.124656	2590.190217
399.507158	2588.808940
399.889598	2592.622573
400.271977	2591.095104
400.654294	2590.986719
401.036549	2590.520412
401.418742	2589.789445
401.800874	2590.863211
402.182944	2593.436720
402.564952	2594.024014
402.946898	2591.558890
403.328783	2593.091401
403.710606	2591.619384
404.092367	2593.416555
404.474067	2593.789600
404.855705	2594.346648
405.237282	2596.952924
405.618797	2595.639704
406.000250	2594.071905
406.381642	2596.332862
406.762972	2593.073757
407.144240	2592.249528
407.525447	2596.012749
407.906593	2590.376739
408.287677	2596.378233
408.668700	2598.359406
409.049661	2597.419231
409.430560	2598.467791
409.811399	2599.733121
410.192176	2596.226998
410.572891	2599.579366
410.953545	2597.746906
411.334138	2598.286310
411.714669	2598.581217
412.095139	2600.590117
412.475547	2602.079778
412.855894	2600.708584
413.236180	2601.205138
413.616405	2598.157760
413.996568	2598.634149
414.376670	2600.698502
414.756711	2600.020467
415.136691	2600.312853
415.516609	2600.607761
415.896466	2600.380909
416.276262	2600.902668
416.655997	2603.382916
417.035670	2603.072885
417.415283	2601.321084
417.794834	2603.607247
418.174324	2602.276383
418.553753	2602.387288
418.933121	2604.328133
419.312428	2603.982813
419.691674	2604.277721
420.070859	2600.978286
420.449983	2604.436517
420.829045	2603.077926
421.208047	2605.238061
421.586988	2603.912237
421.965867	2605.580859
422.344686	2607.972887
422.723444	2605.013729
423.102141	2604.605396
423.480777	2603.650097
423.859352	2605.898452
424.237866	2606.238730
424.616319	2609.699482
424.994712	2608.608072
425.373044	2610.163268
425.751314	2606.362238
426.129524	2604.807042
426.507673	2608.721498
426.885762	2604.010540
427.263789	2610.964812
427.641756	2610.165789
428.019662	2610.425408
428.397508	2611.531941
428.775292	2608.484564
429.153016	2610.072527
429.530679	2610.596807
429.908282	2611.247116
430.285824	2612.615789
430.663305	2611.239554
431.040726	2612.877929
431.418086	2611.093361
431.795385	2613.250975
432.172624	2611.456324
432.549802	2612.709051
432.926920	2612.507405
433.303977	2613.896242
433.680974	2612.449431
434.057910	2613.172837
434.434786	2613.530759
434.811601	2611.836931
435.188355	2613.845831
435.565050	2614.970008
435.941683	2615.645523
436.318257	2617.248610
436.694770	2617.142746
437.071222	2615.262395
437.447614	2617.760287
437.823946	2616.235338
438.200218	2617.417488
438.576429	2617.616614
438.952580	2615.862292
439.328670	2621.140381
439.704700	2617.346912
440.080670	2616.943620
440.456580	2619.277674
440.832429	2621.589043
441.208218	2620.459825
441.583947	2622.151132
441.959616	2620.379166
442.335224	2621.551235
442.710773	2622.637603
443.086261	2623.454270
443.461689	2622.597274
443.837057	2624.472583
444.212365	2625.551390
444.587612	2621.863786
444.962800	2621.959568
445.337927	2622.927470
445.712995	2620.822788
446.088002	2627.832512
446.462949	2626.030300
446.837837	2629.085239
447.212664	2626.783952
447.587431	2628.318984
447.962139	2630.431227
448.336786	2633.702936
448.711374	2637.020015
449.085901	2632.603964
449.460369	2635.598410
449.834776	2632.430045
450.209124	2634.834675
450.583412	2639.207876
450.957640	2642.101498
451.331808	2638.812145
451.705917	2639.379275
452.079965	2640.460603
452.453954	2644.251550
452.827883	2645.645429
453.201752	2646.714154
453.575562	2644.254071
453.949311	2648.861686
454.323001	2650.840338
454.696632	2656.085659
455.070202	2656.002480
455.443713	2661.270486
455.817164	2666.029335
456.190556	2670.934378
456.563888	2676.230110
456.937160	2680.749504
457.310373	2682.634896
457.683526	2690.161338
458.056619	2694.342976
458.429653	2701.360262
458.802628	2704.437886
459.175542	2714.684031
459.548398	2731.040055
459.921194	2749.999835
460.293930	2761.602050
460.666607	2790.162707
461.039224	2828.944304
461.411782	2860.121320
461.784280	2876.852909
462.156719	2890.900085
462.529099	2912.826583
462.901419	2910.530338
463.273680	2925.787390
463.645882	2945.702468
464.018024	2971.989565
464.390106	3007.128928
464.762130	3067.292578
465.134094	3145.448107
465.505999	3293.471507
465.877845	3541.619785
466.249631	3745.952874
466.621358	3771.128396
466.993026	3747.482864
467.364634	3779.398409
467.736184	3773.573356
468.107674	3794.269813
468.479105	3882.918503
468.850477	3937.887245
469.221790	3983.272753
469.593043	4003.099611
469.964238	4045.271383
470.335373	4091.032457
470.706449	4219.012230
471.077467	4253.395420
471.448425	4558.687697
471.819324	5177.060833
472.190164	5571.440381
472.560945	5262.150469
472.931667	5036.826016
473.302330	5060.650509
473.672934	5091.217545
474.043479	5278.067912
474.413965	5368.957396
474.784393	5434.149597
475.154761	5676.054406
475.525070	5804.210619
475.895321	5858.713053
476.265513	6114.556652
476.635645	6360.958170
477.005719	6471.992104
477.375734	6656.762995
477.745691	6933.971004
478.115588	7189.711259
478.485427	7506.898139
478.855207	7937.957122
479.224928	8591.885517
479.594591	9452.246641
479.964194	9661.227673
480.333739	9973.559922
480.703226	9976.519079
481.072653	10126.765628
481.442022	10550.671214
481.811333	11062.003010
482.180584	11297.011520
482.549777	11159.178812
482.918912	11295.111005
483.287988	11556.061293
483.657005	11669.736792
484.025964	11773.894592
484.394864	11975.888585
484.763706	12080.467322
485.132489	12115.145419
485.501213	12367.392155
485.869879	12604.225562
486.238487	12652.353458
486.607036	13054.844222
486.975527	13092.168925
487.343959	13466.255308
487.712333	13710.695817
488.080648	13713.781003
488.448905	14205.895921
488.817104	14284.787458
489.185244	14848.343088
489.553326	15113.046515
489.921350	15795.389373
490.289315	17304.947769
490.657222	18644.994846
491.025070	19210.793789
491.392861	19377.655981
491.760593	19117.774418
492.128267	18915.810672
492.495883	18470.202918
492.863440	18189.640022
493.230939	17808.390159
493.598380	17952.574721
493.965763	17875.641672
494.333088	17786.645142
494.700354	17935.225590
495.067563	18091.415660
495.434713	18096.852544
495.801805	18347.372684
496.168839	18459.140106
496.535815	18504.671808
496.902733	18833.100460
497.269593	18726.096929
497.636395	19084.522967
498.003139	19232.097705
498.369825	19246.822915
498.736453	19511.125570
499.103023	19582.253731
499.469535	19765.413973
499.835989	20084.299722
500.202385	20278.061511
500.568723	20024.763695
500.935003	20355.788541
501.301226	20163.400467
501.667390	20945.900969
502.033497	21319.115233
502.399546	21190.180161
502.765537	21025.173114
503.131470	21457.764608
503.497345	21702.212678
503.863163	21114.537648
504.228923	21798.949900
504.594625	22070.317732
504.960269	21713.129297
505.325856	22279.865894
505.691385	21862.700331
506.056856	22490.003872
506.422270	22564.905336
506.787625	22272.069750
507.152924	22757.495057
507.518164	22837.427592
507.883347	22737.988312
508.248472	22538.023383
508.613540	23329.177026
508.978550	23196.851779
509.343503	23257.363269
509.708398	23591.488426
510.073236	23800.328306
510.438016	24053.616040
510.802738	23819.169618
511.167403	24106.830460
511.532010	23858.881308
511.896561	24660.628936
512.261053	24686.243039
512.625488	24577.540638
512.989866	24515.615105
513.354186	24416.032152
513.718449	24544.372367
514.082655	24948.264572
514.446803	24749.476752
514.810894	25207.515991
515.174927	24734.323044
515.538904	24797.004751
515.902822	25306.783872
516.266684	25099.990700
516.630488	25025.563104
516.994235	25052.460181
517.357925	25331.477964
517.721558	25558.836523
518.085133	25661.600444
518.448651	25605.832679
518.812112	25338.712019
519.175516	25536.489088
519.538863	25726.127213
519.902152	25526.351327
520.265385	25838.073596
520.628560	25629.606761
520.991678	25653.902602
521.354739	25742.495840
521.717743	25817.006614
522.080690	25599.944612
522.443580	25956.858304
522.806413	25973.168957
523.169189	26059.513840
523.531908	26122.119930
523.894569	25746.047332
524.257174	25797.003316
524.619722	26023.981268
524.982213	25704.518307
525.344647	25791.190865
525.707025	25897.329839
526.069345	25921.045947
526.431608	25866.961928
526.793815	26060.257411
527.155964	25509.544120
527.518057	25689.208323
527.880093	25611.438443
528.242072	25853.065988
528.603995	25541.346239
528.965860	25355.763722
529.327669	25410.850931
529.689421	25400.075465
530.051117	25231.819393
530.412755	25416.865027
530.774337	25230.498611
531.135862	25093.485091
531.497331	25300.681555
531.858743	24841.790361
532.220098	25329.607696
532.581396	25014.338975
532.942638	24962.921727
533.303824	25046.146135
533.664953	25075.326854
534.026025	24745.925259
534.387040	24971.862213
534.747999	25037.503077
535.108902	25204.501381
535.469748	24688.715725
535.830537	24883.483224
536.191270	25002.462017
536.551947	24891.710387
536.912567	24571.599639
537.273131	24866.852458
537.633638	24588.981537
537.994089	24795.386540
538.354483	24356.591907
538.714821	24855.845098
539.075103	24897.956377
539.435328	24698.941705
539.795497	24239.601849
540.155609	24636.743949
540.515665	24928.984679
540.875665	24182.488097
541.235609	24446.639517
541.595496	24423.296454
541.955328	24781.994715
542.315102	24698.263670
542.674821	24267.454224
543.034483	24136.432115
543.394090	24308.388393
543.753640	24099.253606
544.113134	24727.272990
544.472571	24340.815616
544.831953	24620.634942
545.191278	24220.468150
545.550548	24164.309696
545.909761	24382.846236
546.268918	24600.266160
546.628019	24556.428286
546.987064	24259.884932
547.346053	24026.169478
547.704986	24158.109077
548.063863	24309.396624
548.422684	24300.539317
548.781449	23867.279870
549.140158	24268.979173
549.498811	23839.344316
549.857408	23573.173914
550.215949	24026.476988
550.574434	23692.777809
550.932864	23915.427931
551.291237	24055.304826
551.649555	23934.085241
552.007817	23981.053671
552.366022	23849.010729
552.724173	23908.115737
553.082267	23826.481812
553.440305	24308.645492
553.798288	23583.704884
554.156215	24108.120995
554.514086	24187.967831
554.871902	23557.006933
555.229661	23848.977961
555.587365	23706.396486
555.945014	23547.252301
556.302606	23811.779287
556.660143	23745.483073
557.017625	24013.891747
557.375050	23552.149782
557.732421	23932.721609
558.089735	23742.828905
558.446994	23814.062930
558.804197	23829.680424
559.161345	23785.502273
559.518437	23519.026880
559.875474	23733.807760
560.232455	23910.757302
560.589381	23754.463888
560.946251	23696.639333
561.303065	24048.191758
561.659825	24121.313695
562.016528	23730.556216
562.373177	23461.527479
562.729770	23819.769516
563.086307	23699.505229
563.442789	23867.272308
563.799216	23692.979455
564.155587	23695.515156
564.511904	23686.403270
564.868164	23606.533749
565.224370	23601.437143
565.580520	23500.266226
565.936615	23642.724193
566.292654	23303.116782
566.648638	23623.532520
567.004567	23443.991826
567.360441	23399.133118
567.716260	23120.783288
568.072023	23456.940029
568.427732	23207.455846
568.783385	22996.251665
569.138982	23217.727197
569.494525	23269.099075
569.850013	23012.101052
570.205445	23114.345735
570.560823	22917.118152
570.916145	22679.538654
571.271412	22857.561961
571.626625	22614.701853
571.981782	22713.929405
572.336884	22521.130476
572.691931	22661.297238
573.046923	22395.184809
573.401860	22284.902007
573.756743	22278.109052
574.111570	22208.939380
574.466342	22135.963637
574.821059	22220.100495
575.175722	21919.640164
575.530330	21911.470974
575.884882	21926.405393
576.239380	21849.789936
576.593823	21726.949620
576.948211	21716.932847
577.302544	21551.865306
577.656823	21425.861665
578.011047	21519.725429
578.365216	21405.991958
578.719330	21288.270933
579.073389	21180.067607
579.427394	21320.932569
579.781344	21103.011050
580.135239	20988.511322
580.489080	20963.860080
580.842866	20727.145139
581.196597	20900.603682
581.550273	20898.884648
581.903895	20789.920108
582.257463	21100.351841
582.610975	20623.965323
582.964434	20932.083167
583.317837	20650.950620
583.671186	20743.024774
584.024481	20701.543640
584.377721	20484.910135
584.730906	20539.326871
585.084037	20575.930689
585.437113	20454.869900
585.790135	20660.324645
586.143103	20134.638163
586.496016	20146.671398
586.848874	20384.092100
587.201679	20333.781384
587.554428	19995.855198
587.907124	20325.859211
588.259765	20109.356777
588.612352	20188.775114
588.964884	19760.329970
589.317362	19922.181255
589.669786	19978.927003
590.022155	20033.920951
590.374470	20195.799962
590.726731	20015.182982
591.078937	19757.080946
591.431090	19866.594972
591.783188	19603.658470
592.135232	19586.793290
592.487222	19676.687145
592.839157	19707.304593
593.191038	19595.040617
593.542866	19486.121447
593.894639	19200.610658
594.246358	19419.873124
594.598022	19335.191822
594.949633	19081.657071
595.301190	19042.489827
595.652692	19203.158961
596.004141	19448.809347
596.355535	18781.272358
596.706876	18783.492986
597.058162	18681.500361
597.409395	18905.108302
597.760573	18990.845726
598.111698	18765.564122
598.462768	18708.609166
598.813785	18656.917175
599.164748	18492.492380
599.515657	18510.990894
599.866511	18302.950037
600.217312	18668.801695
600.568060	18206.706848
600.918753	18510.814454
601.269392	18420.421524
601.619978	18189.070371
601.970510	18409.630934
602.320988	18345.613322
602.671412	18564.071724
603.021783	18465.703689
603.372100	18195.359211
603.722363	18339.168207
604.072572	18266.661291
604.422728	18407.354853
604.772830	18165.051794
605.122878	18118.653014
605.472872	18108.792517
605.822813	18095.572091
606.172701	18057.886945
606.522534	18266.447042
606.872314	18281.303322
607.222041	18121.042521
607.571714	18335.490685
607.921333	18163.252102
608.270899	18239.721365
608.620411	18428.303368
608.969870	18185.314712
609.319276	18195.991876
609.668627	18222.241164
610.017926	18352.529785
610.367171	18465.807032
610.716362	18508.636675
611.065500	18329.784099
611.414585	18463.646898
611.763616	18449.077963
612.112594	18405.076252
612.461518	18363.708543
612.810389	18560.288338
613.159207	18411.982633
613.507971	18308.923804
613.856682	18597.426518
614.205340	18527.483029
614.553945	18673.411830
614.902496	18414.387263
615.250994	18660.072937
615.599439	18594.253112
615.947830	18582.701308
616.296169	18623.711094
616.644454	18584.150639
616.992686	18557.563594
617.340864	18770.459083
617.688990	18540.290080
618.037063	18713.279795
618.385082	18559.998471
618.733048	18845.400876
619.080961	18695.388740
619.428821	18742.054701
619.776628	18640.893867
620.124382	18554.170898
620.472083	18588.980065
620.819731	18620.812431
621.167326	18305.299214
621.514868	18360.315847
621.862357	18115.963558
622.209793	18124.306668
622.557176	17960.093602
622.904506	17786.922406
623.251783	17692.945216
623.599007	17460.222869
623.946179	17419.359276
624.293297	17348.561311
624.640363	17111.246473
624.987376	17124.088813
625.334336	16920.680776
625.681243	16768.924401
626.028097	16769.637724
626.374899	16711.858539
626.721647	16576.957262
627.068343	16407.241777
627.414987	16330.230590
627.761577	16311.747200
628.108115	16350.710278
628.454600	16063.926597
628.801032	16170.746127
629.147412	16110.532064
629.493739	16126.104189
629.840014	15931.482883
630.186236	16036.722010
630.532405	15793.768642
630.878521	15991.906153
631.224585	15892.953344
631.570597	15701.875969
631.916556	15741.207051
632.262462	15722.978239
632.608316	15630.899043
632.954117	15582.516569
633.299866	15580.056486
633.645562	15495.400390
633.991206	15259.227373
634.336797	15129.551252
634.682336	15093.539770
635.027823	14985.346526
635.373257	14867.552405
635.718639	14757.065436
636.063968	14714.376945
636.409245	14465.817813
636.754470	14495.331249
637.099642	14340.666128
637.444762	14107.003606
637.789829	14152.573116
