Dividing Wavelength (nm)	Counts (n)	Blue Motor Position (mm): 0.000000	Red Motor Position (mm): 16.500000	
326.493990	2146.717392
326.888308	2146.717392
327.282561	2146.717392
327.676750	2121.355347
328.070874	2122.749226
328.464933	2127.016563
328.858929	2136.027625
329.252859	2147.859213
329.646726	2160.419248
330.040528	2177.627227
330.434265	2194.913343
330.827938	2213.747094
331.221547	2234.657800
331.615091	2252.180851
332.008571	2273.343615
332.401986	2293.591409
332.795338	2310.562454
333.188625	2334.417194
333.581847	2353.497961
333.975006	2371.416743
334.368100	2391.195710
334.761129	2407.861764
335.154095	2424.467325
335.546996	2440.483071
335.939833	2454.326079
336.332606	2466.651700
336.725315	2481.785244
337.117960	2489.969558
337.510540	2495.756802
337.903056	2503.074037
338.295508	2511.956550
338.687896	2518.484844
339.080220	2529.378778
339.472480	2533.883049
339.864676	2536.648122
340.256807	2540.585263
340.648875	2540.766744
341.040879	2544.540048
341.432818	2546.135573
341.824694	2546.382590
342.216506	2544.721529
342.608253	2545.659184
342.999937	2543.791437
343.391557	2546.301931
343.783113	2543.627599
344.174605	2540.650798
344.566033	2537.414377
344.957397	2537.374048
345.348697	2537.363965
345.739934	2534.901362
346.131106	2530.394570
346.522215	2528.415917
346.913260	2530.444982
347.304241	2529.154446
347.695159	2525.335772
348.086012	2525.287881
348.476802	2523.067253
348.867528	2521.711183
349.258191	2520.397962
349.648789	2518.431912
350.039324	2516.942251
350.429796	2519.614063
350.820203	2516.468383
351.210548	2517.393434
351.600828	2517.229597
351.991045	2513.017713
352.381198	2511.477640
352.771288	2514.023423
353.161314	2513.231962
353.551276	2514.328413
353.941175	2514.124246
354.331010	2512.432939
354.720782	2512.780779
355.110490	2513.957888
355.500135	2514.598115
355.889717	2515.651716
356.279235	2514.961078
356.668689	2515.056860
357.058080	2515.099709
357.447408	2514.214987
357.836672	2511.795233
358.225873	2516.748167
358.615010	2513.141221
359.004084	2519.051974
359.393095	2518.331089
359.782043	2518.996521
360.170927	2518.893178
360.559748	2518.956192
360.948505	2520.750843
361.337199	2522.789990
361.725830	2523.503313
362.114398	2521.975843
362.502903	2519.482993
362.891344	2522.434588
363.279722	2523.228570
363.668037	2522.825278
364.056289	2524.733354
364.444478	2526.144878
364.832603	2526.585978
365.220665	2525.426513
365.608665	2526.759898
365.996601	2529.257790
366.384474	2526.217974
366.772284	2523.389887
367.160031	2527.775691
367.547715	2527.455577
367.935336	2524.604805
368.322893	2524.501461
368.710388	2528.282327
369.097820	2529.908099
369.485189	2527.488345
369.872495	2528.849457
370.259738	2527.589168
370.646918	2529.257790
371.034035	2529.056144
371.421090	2531.601927
371.808081	2530.061854
372.195010	2529.892975
372.581875	2531.223840
372.968678	2531.785929
373.355418	2532.085877
373.742096	2538.460416
374.128710	2534.772812
374.515262	2535.952442
374.901751	2536.517052
375.288177	2537.386651
375.674540	2537.691640
376.060841	2542.039636
376.447079	2543.675490
376.833254	2543.133566
377.219367	2542.551313
377.605417	2546.745553
377.991404	2551.567416
378.377329	2549.127498
378.763191	2552.966337
379.148991	2561.314487
379.534727	2561.107800
379.920402	2567.489901
380.306013	2570.693554
380.691563	2576.417784
381.077049	2579.805440
381.462474	2582.789803
381.847835	2589.232397
382.233134	2593.489652
382.618371	2598.097266
383.003545	2607.204111
383.388657	2610.962291
383.773706	2619.093672
384.158693	2622.967799
384.543618	2630.920219
384.928480	2636.122690
385.313280	2645.307672
385.698017	2650.757159
386.082692	2663.352482
386.467305	2666.246105
386.851856	2677.374452
387.236344	2687.509692
387.620770	2689.569003
388.005133	2698.396063
388.389435	2709.660522
388.773674	2716.740822
389.157851	2728.156515
389.541965	2737.744790
389.926018	2740.953484
390.310008	2751.275247
390.693936	2761.450816
391.077802	2771.235695
391.461606	2781.829680
391.845348	2790.253448
392.229027	2798.480611
392.612645	2808.240285
392.996200	2823.797286
393.379694	2835.054182
393.763125	2851.027078
394.146494	2859.075280
394.529801	2869.185314
394.913047	2886.108468
395.296230	2888.964282
395.679351	2893.975188
396.062410	2910.835328
396.445408	2908.105543
396.828343	2920.693304
397.211217	2927.045158
397.594028	2925.106834
397.976778	2936.053700
398.359466	2949.221193
398.742092	2949.503498
399.124656	2962.723924
399.507158	2976.841675
399.889598	2981.575319
400.271977	2996.701301
400.654294	2999.564676
401.036549	3014.136132
401.418742	3020.588808
401.800874	3041.686037
402.182944	3050.006462
402.564952	3079.015782
402.946898	3068.487332
403.328783	3077.241295
403.710606	3092.536156
404.092367	3115.969960
404.474067	3140.386788
404.855705	3129.089563
405.237282	3128.353554
405.618797	3161.370591
406.000250	3183.914631
406.381642	3216.316648
406.762972	3217.511401
407.144240	3205.364741
407.525447	3226.537587
407.906593	3225.017679
408.287677	3245.101636
408.668700	3263.738782
409.049661	3258.846342
409.430560	3275.449382
409.811399	3274.262191
410.192176	3292.415386
410.572891	3297.093576
410.953545	3332.802590
411.334138	3296.513844
411.714669	3346.002851
412.095139	3290.315745
412.475547	3337.037159
412.855894	3324.262875
413.236180	3342.244671
413.616405	3318.397493
413.996568	3335.754185
414.376670	3333.974658
414.756711	3323.436126
415.136691	3342.095957
415.516609	3353.244468
415.896466	3354.754294
416.276262	3367.188300
416.655997	3384.073645
417.035670	3378.311606
417.415283	3424.675098
417.794834	3435.173301
418.174324	3410.116246
418.553753	3399.854977
418.933121	3426.827671
419.312428	3406.501738
419.691674	3386.284191
420.070859	3405.647263
420.449983	3373.893035
420.829045	3398.088053
421.208047	3373.149464
421.586988	3390.690159
421.965867	3395.169224
422.344686	3385.515415
422.723444	3396.389184
423.102141	3318.664674
423.480777	3365.983464
423.859352	3327.557269
424.237866	3374.414794
424.616319	3344.445134
424.994712	3360.975078
425.373044	3335.923064
425.751314	3354.295549
426.129524	3296.160963
426.507673	3326.506188
426.885762	3293.771456
427.263789	3286.345836
427.641756	3266.617281
428.019662	3259.544542
428.397508	3238.500245
428.775292	3235.339442
429.153016	3216.067111
429.530679	3198.050027
429.908282	3179.107891
430.285824	3150.585043
430.663305	3156.296670
431.040726	3116.867285
431.418086	3091.835436
431.795385	3097.736106
432.172624	3086.572471
432.549802	3052.922769
432.926920	3037.121273
433.303977	3017.110412
433.680974	3006.667662
434.057910	2992.615446
434.434786	2975.586428
434.811601	2953.002059
435.188355	2956.994653
435.565050	2931.657813
435.941683	2913.111408
436.318257	2908.334915
436.694770	2889.317162
437.071222	2880.820298
437.447614	2853.648478
437.823946	2837.302537
438.200218	2824.939107
438.576429	2805.974286
438.952580	2796.184366
439.328670	2782.084258
439.704700	2775.195522
440.080670	2756.092069
440.456580	2751.111409
440.832429	2740.981210
441.208218	2721.416492
441.583947	2714.217725
441.959616	2704.536189
442.335224	2695.789787
442.710773	2690.534384
443.086261	2685.631862
443.461689	2671.781292
443.837057	2666.215858
444.212365	2661.184786
444.587612	2653.907881
444.962800	2645.411016
445.337927	2641.113432
445.712995	2631.315950
446.088002	2631.583131
446.462949	2624.893520
446.837837	2623.058540
447.212664	2618.342540
447.587431	2617.649382
447.962139	2623.005607
448.336786	2624.570886
448.711374	2622.776235
449.085901	2610.803495
449.460369	2605.381734
449.834776	2599.312184
450.209124	2601.666403
450.583412	2600.648090
450.957640	2601.058944
451.331808	2593.572831
451.705917	2590.253231
452.079965	2594.162646
452.453954	2591.326997
452.827883	2587.344485
453.201752	2586.419433
453.575562	2587.465473
453.949311	2587.672160
454.323001	2585.844742
454.696632	2583.931624
455.070202	2585.355750
455.443713	2586.633682
455.817164	2580.102868
456.190556	2582.197467
456.563888	2582.832652
456.937160	2578.676221
457.310373	2583.780389
457.683526	2583.891295
458.056619	2582.323496
458.429653	2580.559092
458.802628	2581.887436
459.175542	2580.614545
459.548398	2585.575040
459.921194	2580.758218
460.293930	2584.977663
460.666607	2585.005390
461.039224	2583.984556
461.411782	2583.818198
461.784280	2589.711307
462.156719	2586.086717
462.529099	2584.776017
462.901419	2583.661922
463.273680	2582.757035
463.645882	2584.576892
464.018024	2583.225863
464.390106	2580.685121
464.762130	2583.051943
465.134094	2587.059660
465.505999	2589.308015
465.877845	2592.962851
466.249631	2593.489652
466.621358	2594.722214
466.993026	2594.598706
467.364634	2594.938983
467.736184	2592.282295
468.107674	2590.195258
468.479105	2590.953951
468.850477	2588.173755
469.221790	2592.105855
469.593043	2585.426326
469.964238	2587.495720
470.335373	2587.336923
470.706449	2588.445977
471.077467	2587.805751
471.448425	2590.076791
471.819324	2594.865887
472.190164	2594.114755
472.560945	2591.425299
472.931667	2589.613004
473.302330	2591.629466
473.672934	2592.728437
474.043479	2589.519743
474.413965	2586.119485
474.784393	2583.586305
475.154761	2586.800041
475.525070	2586.492530
475.895321	2585.320462
476.265513	2583.649319
476.635645	2591.795824
477.005719	2590.291040
477.375734	2588.637541
477.745691	2592.264651
478.115588	2591.735330
478.485427	2595.054930
478.855207	2596.093408
479.224928	2597.956114
479.594591	2599.604571
479.964194	2598.193048
480.333739	2598.661876
480.703226	2597.562904
481.072653	2599.899479
481.442022	2598.674478
481.811333	2600.869901
482.180584	2599.377719
482.549777	2600.670775
482.918912	2597.436875
483.287988	2596.468974
483.657005	2596.829416
484.025964	2595.120465
484.394864	2595.922008
484.763706	2596.668099
485.132489	2597.419231
485.501213	2596.988212
485.869879	2596.204313
486.238487	2594.684405
486.607036	2594.928901
486.975527	2595.939652
487.343959	2592.625094
487.712333	2593.635845
488.080648	2594.568459
488.448905	2596.330342
488.817104	2594.883531
489.185244	2593.681216
489.553326	2595.753130
489.921350	2598.629108
490.289315	2598.833275
490.657222	2602.359562
491.025070	2601.447113
491.392861	2602.021805
491.760593	2595.523757
492.128267	2600.708584
492.495883	2599.539036
492.863440	2594.601226
493.230939	2595.044848
493.598380	2597.542739
493.965763	2589.746595
494.333088	2593.529981
494.700354	2589.199630
495.067563	2592.335227
495.434713	2586.825246
495.801805	2591.483272
496.168839	2591.319435
496.535815	2591.505958
496.902733	2590.152408
497.269593	2595.014601
497.636395	2591.085021
498.003139	2592.413365
498.369825	2595.906885
498.736453	2593.393870
499.103023	2593.880341
499.469535	2592.541915
499.835989	2591.919332
500.202385	2592.436051
500.568723	2591.654672
500.935003	2592.680547
501.301226	2593.111565
501.667390	2593.361102
502.033497	2594.550815
502.399546	2593.373705
502.765537	2592.342789
503.131470	2590.222984
503.497345	2593.184662
503.863163	2594.293716
504.228923	2591.276585
504.594625	2590.817840
504.960269	2592.488983
505.325856	2593.361102
505.691385	2590.233066
506.056856	2593.383788
506.422270	2593.043510
506.787625	2592.458736
507.152924	2592.766246
507.518164	2592.672985
507.883347	2593.298088
508.248472	2592.809096
508.613540	2592.700711
508.978550	2590.170052
509.343503	2591.425299
509.708398	2592.834302
510.073236	2593.411514
510.438016	2592.796493
510.802738	2592.226843
511.167403	2593.756833
511.532010	2591.453026
511.896561	2592.015114
512.261053	2591.425299
512.625488	2589.239959
512.989866	2587.483117
513.354186	2588.090576
513.718449	2586.500092
514.082655	2591.468149
514.446803	2591.384970
514.810894	2591.175762
515.174927	2594.155084
515.538904	2593.973602
515.902822	2590.747264
516.266684	2591.387491
516.630488	2591.004363
516.994235	2590.096955
517.357925	2590.747264
517.721558	2592.254569
518.085133	2592.680547
518.448651	2591.531163
518.812112	2593.474528
519.175516	2590.873293
519.538863	2590.288519
519.902152	2590.901019
520.265385	2589.597881
520.628560	2592.443612
520.991678	2591.662233
521.354739	2589.638210
521.717743	2591.790783
522.080690	2593.897985
522.443580	2592.022676
522.806413	2593.928232
523.169189	2593.870259
523.531908	2593.434199
523.894569	2591.284147
524.257174	2591.566452
524.619722	2594.298757
524.982213	2591.944538
525.344647	2592.483942
525.707025	2593.230032
526.069345	2592.370516
526.431608	2593.943356
526.793815	2592.761205
527.155964	2590.979157
527.518057	2590.666606
527.880093	2592.597367
528.242072	2591.954620
528.603995	2593.928232
528.965860	2590.976637
529.327669	2592.514188
529.689421	2591.190886
530.051117	2593.182141
530.412755	2589.509661
530.774337	2591.359764
531.135862	2592.914960
531.497331	2587.987232
531.858743	2587.440267
532.220098	2588.652665
532.581396	2588.100658
532.942638	2589.565113
533.303824	2593.436720
533.664953	2592.075608
534.026025	2592.461256
534.387040	2592.592326
534.747999	2591.667275
535.108902	2593.204827
535.469748	2593.078798
535.830537	2589.789445
536.191270	2592.985536
536.551947	2589.736513
536.912567	2592.773808
537.273131	2590.961513
537.633638	2590.603591
537.994089	2591.856318
538.354483	2590.769949
538.714821	2590.177614
539.075103	2590.427151
539.435328	2587.956985
539.795497	2590.046544
540.155609	2592.667944
540.515665	2589.184506
540.875665	2593.056113
541.235609	2590.785073
541.595496	2590.772470
541.955328	2589.981009
542.315102	2591.321956
542.674821	2591.107707
543.034483	2592.935125
543.394090	2588.861872
543.753640	2589.865062
544.113134	2586.729464
544.472571	2590.865731
544.831953	2589.670978
545.191278	2590.666606
545.550548	2590.699373
545.909761	2591.500917
546.268918	2592.453695
546.628019	2590.172572
546.987064	2590.122161
547.346053	2589.055957
547.704986	2592.937645
548.063863	2590.737182
548.422684	2590.162490
548.781449	2590.134764
549.140158	2589.497058
549.498811	2592.226843
549.857408	2588.652665
550.215949	2587.364650
550.574434	2586.643765
550.932864	2588.118302
551.291237	2586.600915
551.649555	2590.732141
552.007817	2590.059147
552.366022	2590.273396
552.724173	2588.720720
553.082267	2590.931266
553.440305	2591.495875
553.798288	2591.858838
554.156215	2590.848087
554.514086	2590.631318
554.871902	2591.533684
555.229661	2587.669640
555.587365	2588.574527
555.945014	2589.101327
556.302606	2589.814651
556.660143	2590.185175
557.017625	2591.455546
557.375050	2587.954465
557.732421	2589.812130
558.089735	2591.742892
558.446994	2590.696853
558.804197	2589.086204
559.161345	2589.542428
559.518437	2590.810278
559.875474	2592.630135
560.232455	2592.567121
560.589381	2591.616863
560.946251	2595.594333
561.303065	2589.502099
561.659825	2594.084508
562.016528	2589.502099
562.373177	2589.739033
562.729770	2590.228025
563.086307	2590.999322
563.442789	2590.417068
563.799216	2589.607963
564.155587	2591.775659
564.511904	2589.880186
564.868164	2588.637541
565.224370	2591.828592
565.580520	2590.044023
565.936615	2591.218612
566.292654	2589.978488
566.648638	2590.603591
567.004567	2593.247676
567.360441	2589.955803
567.716260	2589.055957
568.072023	2591.813468
568.427732	2586.122005
568.783385	2586.888261
569.138982	2587.004207
569.494525	2587.193251
569.850013	2586.835329
570.205445	2592.413365
570.560823	2592.171390
570.916145	2589.615525
571.271412	2589.068560
571.626625	2588.047726
571.981782	2590.044023
572.336884	2591.387491
572.691931	2590.807758
573.046923	2588.503951
573.401860	2589.532346
573.756743	2590.901019
574.111570	2590.593509
574.466342	2589.237438
574.821059	2590.177614
575.175722	2591.715166
575.530330	2589.192068
575.884882	2591.367326
576.239380	2588.952613
576.593823	2593.104003
576.948211	2589.585278
577.302544	2592.204157
577.656823	2587.762901
578.011047	2589.166862
578.365216	2590.197778
578.719330	2588.377922
579.073389	2588.655185
579.427394	2588.088055
579.781344	2590.139805
580.135239	2588.561924
580.489080	2589.613004
580.842866	2587.561255
581.196597	2588.965216
581.550273	2588.695514
581.903895	2588.559403
582.257463	2589.174424
582.610975	2587.193251
582.964434	2587.354567
583.317837	2589.383632
583.671186	2587.825915
584.024481	2589.681060
584.377721	2589.439085
584.730906	2587.571337
585.084037	2589.000504
585.437113	2588.377922
585.790135	2588.209043
586.143103	2589.555031
586.496016	2588.113261
586.848874	2582.968764
587.201679	2584.128229
587.554428	2585.640575
587.907124	2586.351378
588.259765	2585.650657
588.612352	2589.986050
588.964884	2586.565627
589.317362	2589.176945
589.669786	2588.657706
590.022155	2588.771132
590.374470	2586.676532
590.726731	2587.644434
591.078937	2586.603436
591.431090	2586.265678
591.783188	2587.989753
592.135232	2588.687953
592.487222	2588.115782
592.839157	2585.713672
593.191038	2588.750967
593.542866	2586.628641
593.894639	2586.298446
594.246358	2589.088724
594.598022	2588.887078
594.949633	2588.040164
595.301190	2586.048909
595.652692	2585.955647
596.004141	2588.632500
596.355535	2587.452870
596.706876	2586.442119
597.058162	2584.627303
597.409395	2586.764752
597.760573	2587.646954
598.111698	2584.332396
598.462768	2589.827253
598.813785	2584.715523
599.164748	2586.447160
599.515657	2587.369691
599.866511	2587.334403
600.217312	2585.300297
600.568060	2586.084197
600.918753	2588.907243
601.269392	2585.244845
601.619978	2583.495564
601.970510	2589.363467
602.320988	2584.952458
602.671412	2586.900864
603.021783	2586.958837
603.372100	2586.926069
603.722363	2583.624114
604.072572	2585.257447
604.422728	2589.476893
604.772830	2584.990266
605.122878	2583.649319
605.472872	2579.029102
605.822813	2582.736871
606.172701	2583.845924
606.522534	2585.549834
606.872314	2584.113106
607.222041	2585.781727
607.571714	2589.149218
607.921333	2586.406831
608.270899	2586.636203
608.620411	2584.755853
608.969870	2587.019331
609.319276	2583.240986
609.668627	2587.697366
610.017926	2586.666450
610.367171	2584.990266
610.716362	2587.402458
611.065500	2585.983374
611.414585	2586.091758
611.763616	2586.598394
612.112594	2586.999166
612.461518	2587.079825
612.810389	2587.457911
613.159207	2585.559917
613.507971	2584.952458
613.856682	2585.512026
614.205340	2585.025554
614.553945	2586.374063
614.902496	2589.620566
615.250994	2585.113775
615.599439	2586.918508
615.947830	2588.216605
616.296169	2587.031934
616.644454	2586.784917
616.992686	2586.048909
617.340864	2586.996646
617.688990	2585.885071
618.037063	2584.599577
618.385082	2587.127716
618.733048	2586.411872
619.080961	2584.995307
619.428821	2588.821543
619.776628	2586.326172
620.124382	2586.122005
620.472083	2587.525967
620.819731	2587.631831
621.167326	2585.350709
621.514868	2586.288363
621.862357	2584.655030
622.209793	2587.140318
622.557176	2585.330544
622.904506	2582.469689
623.251783	2584.337437
623.599007	2579.928948
623.946179	2583.321644
624.293297	2580.150759
624.640363	2582.996490
624.987376	2586.318610
625.334336	2583.261151
625.681243	2584.032447
626.028097	2587.306677
626.374899	2584.990266
626.721647	2586.895822
627.068343	2585.285174
627.414987	2582.744432
627.761577	2586.336254
628.108115	2584.609659
628.454600	2584.105544
628.801032	2585.083528
629.147412	2585.615369
629.493739	2583.422468
629.840014	2585.043198
630.186236	2580.208732
630.532405	2583.417426
630.878521	2585.451532
631.224585	2585.277612
631.570597	2583.591346
631.916556	2587.435226
632.262462	2585.675863
632.608316	2583.619072
632.954117	2583.687128
633.299866	2584.138311
633.645562	2584.655030
633.991206	2587.089907
634.336797	2582.845255
634.682336	2585.910277
635.027823	2583.361974
635.373257	2582.361305
635.718639	2582.643609
636.063968	2583.722416
636.409245	2581.552199
636.754470	2584.899526
637.099642	2583.361974
637.444762	2583.747622
637.789829	2583.417426
638.134845	2582.724268
638.479808	2582.431881
638.824719	2581.703434
639.169577	2580.589339
639.514383	2581.406006
639.859137	2581.811819
640.203839	2585.161666
640.548489	2582.893146
640.893086	2578.877867
641.237632	2578.174626
641.582125	2577.562126
641.926566	2578.159503
642.270955	2583.233424
642.615292	2582.711665
642.959576	2583.152766
643.303809	2582.870461
643.647990	2582.136973
643.992118	2582.535224
644.336195	2582.373908
