Dividing Wavelength (nm)	Counts (n)	Blue Motor Position (mm): 0.000000	Red Motor Position (mm): 35.500000	
326.493990	2079.004614
326.888308	2079.004614
327.282561	2079.004614
327.676750	2054.978474
328.070874	2056.243804
328.464933	2062.875442
328.858929	2072.176371
329.252859	2085.434605
329.646726	2099.373396
330.040528	2115.542897
330.434265	2133.870012
330.827938	2152.665954
331.221547	2173.596824
331.615091	2193.713549
332.008571	2213.832794
332.401986	2237.324571
332.795338	2257.234608
333.188625	2274.545930
333.581847	2296.245577
333.975006	2314.018165
334.368100	2328.738334
334.761129	2346.301714
335.154095	2365.233767
335.546996	2391.528426
335.939833	2431.550146
336.332606	2442.232351
336.725315	2459.309260
337.117960	2462.964096
337.510540	2470.984572
337.903056	2481.384473
338.295508	2486.569299
338.687896	2492.913591
339.080220	2501.526403
339.472480	2505.405571
339.864676	2509.955212
340.256807	2513.252127
340.648875	2517.716068
341.040879	2516.980060
341.432818	2518.381501
341.824694	2519.193126
342.216506	2517.960564
342.608253	2518.716737
342.999937	2515.560975
343.391557	2518.094155
343.783113	2515.750018
344.174605	2512.901766
344.566033	2510.502177
344.957397	2511.830521
345.348697	2511.238186
345.739934	2506.640653
346.131106	2504.568739
346.522215	2505.191322
346.913260	2501.498676
347.304241	2502.670745
347.695159	2500.434993
348.086012	2501.105466
348.476802	2497.168325
348.867528	2496.943994
349.258191	2494.614981
349.648789	2495.101452
350.039324	2494.103304
350.429796	2492.225474
350.820203	2492.021307
351.210548	2491.310504
351.600828	2492.449805
351.991045	2491.643221
352.381198	2490.266986
352.771288	2490.503920
353.161314	2492.512820
353.551276	2492.162459
353.941175	2492.870742
354.331010	2490.778663
354.720782	2489.949393
355.110490	2493.095073
355.500135	2491.544918
355.889717	2491.865031
356.279235	2493.352172
356.668689	2493.526092
357.058080	2495.877790
357.447408	2491.552480
357.836672	2490.871924
358.225873	2492.074239
358.615010	2493.836123
359.004084	2497.362410
359.393095	2498.668068
359.782043	2499.998933
360.170927	2503.409274
360.559748	2499.797287
360.948505	2500.981958
361.337199	2500.795435
361.725830	2503.116887
362.114398	2503.865498
362.502903	2508.465551
362.891344	2507.590911
363.279722	2505.594614
363.668037	2507.568226
364.056289	2508.044615
364.444478	2511.094513
364.832603	2511.134842
365.220665	2511.008813
365.608665	2509.738442
365.996601	2513.463855
366.384474	2516.390245
366.772284	2513.708351
367.160031	2516.196160
367.547715	2516.904443
367.935336	2518.414268
368.322893	2516.894360
368.710388	2519.258661
369.097820	2519.639268
369.485189	2518.862931
369.872495	2524.042716
370.259738	2525.590351
370.646918	2526.712007
371.034035	2530.414735
371.421090	2531.483459
371.808081	2534.193080
372.195010	2540.403781
372.581875	2541.860675
372.968678	2547.637837
373.355418	2555.015566
373.742096	2562.786504
374.128710	2572.667166
374.515262	2582.331058
374.901751	2596.489138
375.288177	2612.882971
375.674540	2628.064405
376.060841	2647.407313
376.447079	2666.767864
376.833254	2692.114786
377.219367	2714.918445
377.605417	2747.156624
377.991404	2767.747217
378.377329	2805.563432
378.763191	2835.318843
379.148991	2881.896584
379.534727	2928.013059
379.920402	2969.058134
380.306013	3018.602594
380.691563	3078.877150
381.077049	3129.127371
381.462474	3182.036802
381.847835	3252.796957
382.233134	3322.604335
382.618371	3376.116183
383.003545	3457.019141
383.388657	3532.333979
383.773706	3619.792957
384.158693	3690.033875
384.543618	3779.733646
384.928480	3849.838452
385.313280	3954.535655
385.698017	4051.298083
386.082692	4165.966689
386.467305	4227.173858
386.851856	4343.226261
387.236344	4491.736132
387.620770	4554.548909
388.005133	4666.212988
388.389435	4803.889420
388.773674	4890.352770
389.157851	5012.890617
389.541965	5140.371316
389.926018	5164.430222
390.310008	5332.769473
390.693936	5452.892607
391.077802	5566.558023
391.461606	5692.753228
391.845348	5799.572757
392.229027	5918.337301
392.612645	6132.354446
392.996200	6244.784780
393.379694	6413.202168
393.763125	6627.531865
394.146494	6717.244239
394.529801	6847.159814
394.913047	7081.029024
395.296230	7081.071873
395.679351	7136.217055
396.062410	7384.274592
396.445408	7282.652492
396.828343	7441.398427
397.211217	7565.131027
397.594028	7457.144471
397.976778	7652.461456
398.359466	7816.409862
398.742092	7802.846637
399.124656	7939.459386
399.507158	8130.161195
399.889598	8157.580030
400.271977	8363.168367
400.654294	8390.937562
401.036549	8589.685053
401.418742	8617.769321
401.800874	8911.454341
402.182944	8997.138833
402.564952	9348.983645
402.946898	9189.816774
403.328783	9242.360721
403.710606	9433.105379
404.092367	9689.281694
404.474067	10040.506445
404.855705	9847.168112
405.237282	9805.538264
405.618797	10219.386748
406.000250	10460.845414
406.381642	10820.357821
406.762972	10770.725141
407.144240	10585.268653
407.525447	10836.192085
407.906593	10784.122007
408.287677	11045.568849
408.668700	11189.193842
409.049661	11178.352841
409.430560	11332.319762
409.811399	11310.466360
410.192176	11475.070115
410.572891	11550.062320
410.953545	12018.377950
411.334138	11510.774087
411.714669	12091.056265
412.095139	11447.860487
412.475547	11916.130748
412.855894	11783.979420
413.236180	12102.260230
413.616405	11800.647995
413.996568	12070.770662
414.376670	12057.444372
414.756711	11933.227821
415.136691	12215.444216
415.516609	12386.818241
415.896466	12465.225827
416.276262	12752.967327
416.655997	13216.894633
417.035670	13260.997168
417.415283	13874.296383
417.794834	13962.166215
418.174324	13711.068863
418.553753	13632.973828
418.933121	14113.763793
419.312428	13940.310293
419.691674	13844.911497
420.070859	14316.697962
420.449983	13967.081340
420.829045	14519.155742
421.208047	14279.133804
421.586988	14728.323297
421.965867	14969.555112
422.344686	14975.135669
422.723444	15540.460743
423.102141	14251.243621
423.480777	15431.619711
423.859352	14931.459112
424.237866	16034.856783
424.616319	15748.085706
424.994712	16401.484779
425.373044	16197.111361
425.751314	16885.511166
426.129524	16022.639547
426.507673	17094.519925
426.885762	16819.439283
427.263789	16987.781054
427.641756	17188.938216
428.019662	17251.728307
428.397508	17290.005789
428.775292	17582.775839
429.153016	17564.347902
429.530679	17631.937172
429.908282	17667.189961
430.285824	17404.621462
430.663305	18116.868445
431.040726	17733.420640
431.418086	17565.570381
431.795385	18199.066979
432.172624	18633.324575
432.549802	18198.512452
432.926920	18414.420031
433.303977	18287.390515
433.680974	18543.960040
434.057910	18853.028142
434.434786	18892.170181
434.811601	18818.760898
435.188355	19866.015239
435.565050	19529.336739
435.941683	19493.599999
436.318257	20384.883561
436.694770	20189.057419
437.071222	20787.603698
437.447614	19867.073882
437.823946	19882.285563
438.200218	20063.963707
438.576429	19846.647126
438.952580	20144.811212
439.328670	20106.818556
439.704700	20537.302847
440.080670	20106.669842
440.456580	20724.826209
440.832429	20888.635982
441.208218	19910.395037
441.583947	20338.353711
441.959616	20469.411108
442.335224	20713.342460
442.710773	20852.407730
443.086261	21408.517576
443.461689	20735.483208
443.837057	20924.009759
444.212365	21558.988456
444.587612	21565.272254
444.962800	21170.093684
445.337927	21600.104107
445.712995	20307.312806
446.088002	22201.959903
446.462949	22407.699474
446.837837	22592.031785
447.212664	22612.889559
447.587431	25567.910600
447.962139	28535.569813
448.336786	30831.001244
448.711374	29181.291209
449.085901	25449.902229
449.460369	25472.312679
449.834776	25460.702901
450.209124	28009.076747
450.583412	27495.776380
450.957640	27997.330858
451.331808	26637.083878
451.705917	25271.657112
452.079965	25306.373018
452.453954	25694.622522
452.827883	25615.645285
453.201752	25405.313223
453.575562	25566.201648
453.949311	26694.628649
454.323001	26770.193024
454.696632	26548.246144
455.070202	28145.863415
455.443713	28334.556324
455.817164	28924.555326
456.190556	29473.310128
456.563888	28889.176509
456.937160	29327.988786
457.310373	27627.385783
457.683526	28068.043123
458.056619	28067.294512
458.429653	28039.303505
458.802628	28656.237392
459.175542	28790.644636
459.548398	30181.078046
459.921194	31789.811061
460.293930	32535.007026
460.666607	34618.145386
461.039224	36420.199089
461.411782	36764.184743
461.784280	35487.331049
462.156719	34942.223522
462.529099	34358.430181
462.901419	33024.379556
463.273680	31980.250730
463.645882	32123.999232
464.018024	32121.718110
464.390106	33052.078176
464.762130	35966.855686
465.134094	40297.874792
465.505999	45793.912115
465.877845	50324.210553
466.249631	51332.932835
466.621358	49472.351335
466.993026	47236.178668
467.364634	45104.746055
467.736184	43142.371056
468.107674	41859.132741
468.479105	41087.148085
468.850477	40353.443431
469.221790	38912.961446
469.593043	37128.685371
469.964238	36227.420325
470.335373	36164.794071
470.706449	38030.000829
471.077467	40802.474128
471.448425	45483.979456
471.819324	48234.264115
472.190164	46267.299146
472.560945	42617.740696
472.931667	39455.548396
473.302330	38335.661110
473.672934	37511.528238
474.043479	38043.942140
474.413965	37249.410924
474.784393	36876.529377
475.154761	37792.590209
475.525070	37849.923252
475.895321	37367.961218
476.265513	38003.156685
476.635645	39005.363275
477.005719	38824.532046
477.375734	39335.306795
477.745691	40084.399571
478.115588	41447.197375
478.485427	43569.465171
478.855207	47042.885706
479.224928	49701.880111
479.594591	51254.512646
479.964194	50147.376959
480.333739	50274.512338
480.703226	50344.748214
481.072653	50990.237717
481.442022	51481.732573
481.811333	51682.113397
482.180584	50397.002294
482.549777	49864.515296
482.918912	49341.064566
483.287988	49013.409730
483.657005	48197.352787
484.025964	47502.651540
484.394864	47475.517529
484.763706	47039.992084
485.132489	46164.643610
485.501213	45991.182547
485.869879	46146.155178
486.238487	45727.782258
486.607036	45911.534837
486.975527	45371.050048
487.343959	45572.242498
487.712333	45631.062681
488.080648	45518.208890
488.448905	45981.858933
488.817104	45783.055990
489.185244	46782.089174
489.553326	48560.567922
489.921350	51317.879950
490.289315	54146.577237
490.657222	54653.346789
491.025070	54905.618731
491.392861	53970.338499
491.760593	52693.898180
492.128267	50993.872389
492.495883	49431.102094
492.863440	48006.789610
493.230939	46621.069679
493.598380	45515.390885
493.965763	45188.585484
494.333088	44345.971742
494.700354	43858.716497
495.067563	43553.237697
495.434713	43391.121751
495.801805	43486.780166
496.168839	43076.747836
496.535815	42727.179104
496.902733	42746.970674
497.269593	42317.424038
497.636395	42251.596651
498.003139	42639.793223
498.369825	42082.798655
498.736453	42374.003428
499.103023	41893.818400
499.469535	41777.065277
499.835989	41845.309898
500.202385	41508.621314
500.568723	41516.367047
500.935003	41708.717313
501.301226	41496.777123
501.667390	42104.901594
502.033497	42354.254708
502.399546	41774.937910
502.765537	41063.258057
503.131470	41445.581686
503.497345	41801.595532
503.863163	40426.918248
504.228923	41068.284088
504.594625	41476.176448
504.960269	40725.193239
505.325856	41425.696854
505.691385	40797.090175
506.056856	40923.605493
506.422270	41347.634587
506.787625	40910.730386
507.152924	41109.288833
507.518164	41189.677593
507.883347	40398.231562
508.248472	40643.720631
508.613540	41127.996555
508.978550	41404.622311
509.343503	41152.867088
509.708398	41349.499814
510.073236	41870.026675
510.438016	41860.622402
510.802738	41312.356592
511.167403	41932.811725
511.532010	42141.999445
511.896561	42437.032974
512.261053	43262.902524
512.625488	42789.276038
512.989866	42667.615351
513.354186	42491.089267
513.718449	42482.799089
514.082655	43139.011127
514.446803	42784.192034
514.810894	43327.847709
515.174927	43191.625649
515.538904	43104.756486
515.902822	43754.835960
516.266684	43174.521014
516.630488	43600.498514
516.994235	43422.649127
517.357925	44000.627498
517.721558	44142.566226
518.085133	44428.591213
518.448651	44519.374832
518.812112	44283.274912
519.175516	44361.566552
519.538863	44672.396536
519.902152	44606.569149
520.265385	45051.181274
520.628560	45044.899997
520.991678	44816.598742
521.354739	45030.104210
521.717743	45300.242001
522.080690	45163.840981
522.443580	45700.615480
522.806413	45692.660540
523.169189	45612.783457
523.531908	45754.850734
523.894569	45582.382779
524.257174	45705.999433
524.619722	45960.733978
524.982213	45896.242497
525.344647	45776.855371
525.707025	45802.293033
526.069345	46152.267577
526.431608	46027.259564
526.793815	46296.298383
527.155964	45784.825435
527.518057	45915.477019
527.880093	45627.110416
528.242072	46105.646986
528.603995	45758.525735
528.965860	45706.785853
529.327669	45731.396766
529.689421	45601.352641
530.051117	45494.540673
530.412755	45591.154386
530.774337	45600.745182
531.135862	45351.674373
531.497331	45466.017824
531.858743	45319.355536
532.220098	45578.579228
532.581396	45226.149642
532.942638	44824.566286
533.303824	45064.207616
533.664953	44965.325383
534.026025	44612.976456
534.387040	44993.805382
534.747999	44868.590682
535.108902	44972.922402
535.469748	44411.431125
535.830537	44442.015805
536.191270	44551.839863
536.551947	44135.982479
536.912567	44334.941698
537.273131	44388.040171
537.633638	43803.609123
537.994089	44042.017892
538.354483	43572.918362
538.714821	44039.255339
539.075103	44256.319862
539.435328	43946.198160
539.795497	43730.056168
540.155609	43636.870439
540.515665	43991.225746
540.875665	43355.657234
541.235609	43564.756734
541.595496	43448.968992
541.955328	43971.164474
542.315102	43252.890792
542.674821	42947.233032
543.034483	42890.215061
543.394090	42751.278340
543.753640	42606.226700
544.113134	43435.680510
544.472571	42384.584810
544.831953	43418.621245
545.191278	42573.917945
545.550548	42209.192985
545.909761	42510.994263
546.268918	42561.869588
546.628019	42721.512848
546.987064	42186.661548
547.346053	41398.134346
547.704986	42067.481109
548.063863	41558.054869
548.422684	41576.790317
548.781449	41301.989459
549.140158	41536.970243
549.498811	41252.296285
549.857408	40605.629673
550.215949	41219.569115
550.574434	41011.293843
550.932864	40656.517600
551.291237	41141.453915
551.649555	40651.484008
552.007817	40718.627136
552.366022	40265.823136
552.724173	40249.724211
553.082267	40436.735896
553.440305	40520.925685
553.798288	39766.569944
554.156215	39878.798632
554.514086	39889.251464
554.871902	39511.893373
555.229661	39352.517294
555.587365	39040.114469
555.945014	38962.584044
556.302606	38734.252542
556.660143	38732.271369
557.017625	38639.221751
557.375050	38284.468193
557.732421	38404.094774
558.089735	38207.691420
558.446994	37966.875501
558.804197	38146.862337
559.161345	37898.877897
559.518437	37113.718186
559.875474	37175.724378
560.232455	37150.679926
560.589381	37088.086439
560.946251	36660.979720
561.303065	37010.508122
561.659825	36644.898440
562.016528	36196.288679
562.373177	35791.539478
562.729770	35976.176779
563.086307	35409.760295
563.442789	35552.818158
563.799216	35385.961007
564.155587	35032.876071
564.511904	34842.690981
564.868164	34696.797468
565.224370	34692.658681
565.580520	34277.776760
565.936615	34220.610076
566.292654	33801.601971
566.648638	33775.834113
567.004567	33541.410377
567.360441	33350.552292
567.716260	33036.606875
568.072023	33032.629404
568.427732	32792.920018
568.783385	32257.972937
569.138982	32315.547955
569.494525	32072.153485
569.850013	31672.528617
570.205445	31450.480914
570.560823	31205.319520
570.916145	30903.742573
571.271412	30697.277076
571.626625	30307.308538
571.981782	30111.137077
572.336884	29693.500167
572.691931	29665.534366
573.046923	29207.396825
573.401860	28877.234015
573.756743	28630.240162
574.111570	28487.724222
574.466342	28174.015739
574.821059	28018.430608
575.175722	27501.120003
575.530330	27298.878993
575.884882	26907.256956
576.239380	26660.671437
576.593823	26427.646621
576.948211	26172.034915
577.302544	25671.549161
577.656823	25460.609640
578.011047	25384.710028
578.365216	25025.495049
578.719330	24679.830691
579.073389	24379.070412
579.427394	24199.761610
579.781344	23965.479027
580.135239	23579.682043
580.489080	23397.386358
580.842866	22903.249938
581.196597	22908.946442
581.550273	22672.904495
581.903895	22399.678998
582.257463	22384.671483
582.610975	21876.964276
582.964434	21802.577010
583.317837	21410.347514
583.671186	21120.642485
584.024481	21022.874348
584.377721	20587.880744
584.730906	20511.945843
585.084037	20323.313428
585.437113	19995.154478
585.790135	19794.239291
586.143103	19423.666592
586.496016	19272.381565
586.848874	19080.782431
587.201679	18882.576865
587.554428	18474.941603
587.907124	18350.503241
588.259765	18050.577272
588.612352	17958.916493
588.964884	17510.372267
589.317362	17437.686391
589.669786	17222.366107
590.022155	16938.831450
590.374470	16909.333138
590.726731	16560.061835
591.078937	16192.528952
591.431090	16055.775051
591.783188	15745.648308
592.135232	15464.588857
592.487222	15374.135434
592.839157	15218.204984
593.191038	14947.089209
593.542866	14697.264748
593.894639	14348.371532
594.246358	14269.442186
594.598022	14092.023817
594.949633	13818.566427
595.301190	13644.331547
595.652692	13433.830607
596.004141	13368.351059
596.355535	12935.290738
596.706876	12747.331317
597.058162	12557.158829
597.409395	12514.374557
597.760573	12396.449365
598.111698	12139.456383
598.462768	11990.986841
598.813785	11858.805267
599.164748	11582.610530
599.515657	11538.334075
599.866511	11290.256374
600.217312	11290.531117
600.568060	10934.728999
600.918753	10965.023813
601.269392	10817.827162
601.619978	10618.154620
601.970510	10535.446929
602.320988	10450.059865
602.671412	10383.950174
603.021783	10209.296878
603.372100	10023.487509
603.722363	9920.416078
604.072572	9815.854985
604.422728	9705.728459
604.772830	9549.598883
605.122878	9454.245458
605.472872	9332.060492
605.822813	9263.324359
606.172701	9132.519020
606.522534	9062.073936
606.872314	9009.338425
607.222041	8860.571455
607.571714	8819.153335
607.921333	8629.074108
608.270899	8573.286179
608.620411	8530.547277
608.969870	8405.967763
609.319276	8308.108884
609.668627	8221.189310
610.017926	8198.282307
610.367171	8128.605999
610.716362	8054.919453
611.065500	7950.645706
611.414585	7880.770273
611.763616	7842.911207
612.112594	7749.780931
612.461518	7687.583175
612.810389	7647.513564
613.159207	7546.297277
613.507971	7476.366391
613.856682	7446.565610
614.205340	7363.373968
614.553945	7360.797939
614.902496	7224.454892
615.250994	7199.521345
615.599439	7136.605224
615.947830	7078.843683
616.296169	7023.980806
616.644454	6966.778833
616.992686	6917.937614
617.340864	6912.135246
617.688990	6816.996070
618.037063	6810.994577
618.385082	6749.522747
618.733048	6712.810544
619.080961	6654.406256
619.428821	6592.546257
619.776628	6540.544235
620.124382	6454.572397
620.472083	6399.454941
620.819731	6346.099369
621.167326	6255.716522
621.514868	6182.629873
621.862357	6084.879380
622.209793	6025.050966
622.557176	5933.833808
622.904506	5848.681157
623.251783	5762.530359
623.599007	5689.433628
623.946179	5619.008709
624.293297	5554.948246
624.640363	5464.709072
624.987376	5410.123458
625.334336	5345.523592
625.681243	5275.915340
626.028097	5228.715016
626.374899	5175.031769
626.721647	5135.120954
627.068343	5084.517852
627.414987	5030.063308
627.761577	4980.370134
628.108115	4960.933965
628.454600	4888.394282
628.801032	4865.058781
629.147412	4824.424560
629.493739	4795.692504
629.840014	4738.651848
630.186236	4724.463520
630.532405	4671.939738
630.878521	4652.170854
631.224585	4618.226244
631.570597	4573.296961
631.916556	4551.423394
632.262462	4518.834855
632.608316	4493.825691
632.954117	4460.110454
633.299866	4426.140639
633.645562	4388.624372
633.991206	4342.868339
634.336797	4283.418012
634.682336	4253.523969
635.027823	4211.526117
635.373257	4174.032535
635.718639	4128.861276
636.063968	4098.455556
636.409245	4043.912792
