Dividing Wavelength (nm)	Counts (n)	Blue Motor Position (mm): 0.000000	Red Motor Position (mm): 0.300000	
326.493990	2130.598303
326.888308	2130.598303
327.282561	2130.598303
327.676750	2096.729311
328.070874	2096.389033
328.464933	2098.554208
328.858929	2105.387492
329.252859	2113.702876
329.646726	2124.400204
330.040528	2137.585342
330.434265	2155.292395
330.827938	2173.609427
331.221547	2188.783300
331.615091	2208.670652
332.008571	2230.703015
332.401986	2247.868144
332.795338	2269.880342
333.188625	2286.511109
333.581847	2304.790333
333.975006	2323.949238
334.368100	2343.254337
334.761129	2361.707480
335.154095	2378.199615
335.546996	2395.452964
335.939833	2408.852351
336.332606	2423.138981
336.725315	2438.368307
337.117960	2443.865685
337.510540	2449.912549
337.903056	2465.681278
338.295508	2472.070941
338.687896	2483.509319
339.080220	2488.999135
339.472480	2495.726555
339.864676	2500.407267
340.256807	2504.704850
340.648875	2504.528410
341.040879	2511.207939
341.432818	2510.550068
341.824694	2513.950326
342.216506	2512.473268
342.608253	2515.215656
342.999937	2512.914369
343.391557	2513.980573
343.783113	2512.226252
344.174605	2509.040243
344.566033	2508.831035
344.957397	2506.418843
345.348697	2505.030005
345.739934	2504.014212
346.131106	2503.487412
346.522215	2503.769716
346.913260	2496.802842
347.304241	2497.622029
347.695159	2494.229332
348.086012	2494.108345
348.476802	2491.862511
348.867528	2492.812768
349.258191	2490.330000
349.648789	2490.599702
350.039324	2486.712972
350.429796	2487.632983
350.820203	2482.526294
351.210548	2481.596201
351.600828	2483.274905
351.991045	2480.177116
352.381198	2483.055615
352.771288	2482.165851
353.161314	2479.065542
353.551276	2478.896663
353.941175	2478.536221
354.331010	2480.708958
354.720782	2478.581591
355.110490	2480.656026
355.500135	2477.583443
355.889717	2479.055459
356.279235	2479.846921
356.668689	2480.789616
357.058080	2477.245685
357.447408	2477.933803
357.836672	2476.665953
358.225873	2479.846921
358.615010	2476.870119
359.004084	2480.630820
359.393095	2482.443115
359.782043	2483.000162
360.170927	2483.360605
360.559748	2484.215080
360.948505	2486.521408
361.337199	2484.003352
361.725830	2483.950420
362.114398	2486.700369
362.502903	2485.661892
362.891344	2487.784217
363.279722	2486.627273
363.668037	2487.701038
364.056289	2487.229690
364.444478	2489.004177
364.832603	2489.485607
365.220665	2489.266317
365.608665	2490.849239
365.996601	2490.055257
366.384474	2492.054075
366.772284	2491.126502
367.160031	2492.028869
367.547715	2491.754126
367.935336	2490.743375
368.322893	2494.544405
368.710388	2491.602891
369.097820	2496.225629
369.485189	2492.222953
369.872495	2492.958962
370.259738	2495.908037
370.646918	2494.068016
371.034035	2495.053561
371.421090	2496.775115
371.808081	2493.090032
372.195010	2494.390649
372.581875	2494.801503
372.968678	2494.113386
373.355418	2498.204282
373.742096	2496.379385
374.128710	2498.547081
374.515262	2497.029693
374.901751	2498.027842
375.288177	2497.301916
375.674540	2496.124806
376.060841	2497.944663
376.447079	2496.515496
376.833254	2498.073212
377.219367	2494.352841
377.605417	2496.744868
377.991404	2495.842502
378.377329	2495.562718
378.763191	2494.231853
379.148991	2499.378871
379.534727	2498.554643
379.920402	2498.461381
380.306013	2501.334839
380.691563	2498.705877
381.077049	2502.194356
381.462474	2502.257370
381.847835	2500.001454
382.233134	2500.583707
382.618371	2501.014726
383.003545	2500.498007
383.388657	2502.585045
383.773706	2501.662514
384.158693	2501.518841
384.543618	2502.330467
384.928480	2503.346259
385.313280	2504.170488
385.698017	2502.285096
386.082692	2504.992196
386.467305	2502.214520
386.851856	2505.231651
387.236344	2502.214520
387.620770	2503.026146
388.005133	2502.627895
388.389435	2505.392968
388.773674	2505.322392
389.157851	2504.379696
389.541965	2504.523369
389.926018	2504.223420
390.310008	2504.147803
390.693936	2506.459172
391.077802	2503.056393
391.461606	2505.365241
391.845348	2506.239882
392.229027	2509.362876
392.612645	2507.442197
392.996200	2506.323061
393.379694	2508.584018
393.763125	2507.227948
394.146494	2507.112001
394.529801	2512.543844
394.913047	2508.256343
395.296230	2505.909686
395.679351	2509.904800
396.062410	2505.992865
396.445408	2508.682321
396.828343	2507.845489
397.211217	2504.523369
397.594028	2506.398678
397.976778	2503.862978
398.359466	2508.296672
398.742092	2506.421363
399.124656	2508.442866
399.507158	2510.088803
399.889598	2508.349604
400.271977	2509.251971
400.654294	2510.207270
401.036549	2510.928155
401.418742	2510.305572
401.800874	2508.521004
402.182944	2509.448576
402.564952	2509.771210
402.946898	2513.703310
403.328783	2512.178361
403.710606	2511.056704
404.092367	2511.646519
404.474067	2511.255830
404.855705	2513.484020
405.237282	2511.147445
405.618797	2515.235821
406.000250	2512.601818
406.381642	2510.156858
406.762972	2513.713392
407.144240	2516.324710
407.525447	2516.183558
407.906593	2514.046108
408.287677	2511.979235
408.668700	2515.901253
409.049661	2512.548886
409.430560	2514.973681
409.811399	2516.256654
410.192176	2513.405882
410.572891	2515.175327
410.953545	2519.452746
411.334138	2516.912004
411.714669	2517.151459
412.095139	2512.097702
412.475547	2517.128774
412.855894	2516.170955
413.236180	2514.978722
413.616405	2517.164062
413.996568	2515.865965
414.376670	2514.744308
414.756711	2517.428723
415.136691	2515.999555
415.516609	2515.447549
415.896466	2515.170286
416.276262	2518.187416
416.655997	2514.451921
417.035670	2510.907990
417.415283	2513.892353
417.794834	2513.715913
418.174324	2514.293125
418.553753	2517.234638
418.933121	2517.481655
419.312428	2515.631551
419.691674	2519.021727
420.070859	2514.567868
420.449983	2517.098527
420.829045	2517.380832
421.208047	2518.749505
421.586988	2518.099196
421.965867	2521.650689
422.344686	2518.663805
422.723444	2517.645492
423.102141	2520.715555
423.480777	2518.391583
423.859352	2519.873682
424.237866	2516.664988
424.616319	2520.133302
424.994712	2519.732530
425.373044	2518.895698
425.751314	2520.269413
426.129524	2517.804288
426.507673	2520.226563
426.885762	2518.636079
427.263789	2521.161697
427.641756	2520.897036
428.019662	2521.285205
428.397508	2521.121368
428.775292	2520.637417
429.153016	2520.776049
429.530679	2519.203209
429.908282	2520.922242
430.285824	2519.609022
430.663305	2521.247397
431.040726	2518.928466
431.418086	2521.476769
431.795385	2521.701100
432.172624	2522.190092
432.549802	2520.730678
432.926920	2524.375433
433.303977	2523.031965
433.680974	2522.444671
434.057910	2520.460977
434.434786	2524.783766
434.811601	2522.401821
435.188355	2521.665812
435.565050	2522.124557
435.941683	2522.815195
436.318257	2522.263189
436.694770	2517.501819
437.071222	2519.798065
437.447614	2519.538445
437.823946	2520.574402
438.200218	2522.580782
438.576429	2524.093128
438.952580	2523.810823
439.328670	2521.441481
439.704700	2525.015659
440.080670	2523.566327
440.456580	2525.204702
440.832429	2524.594723
441.208218	2522.056502
441.583947	2525.285361
441.959616	2525.174455
442.335224	2525.066071
442.710773	2524.017511
443.086261	2523.261338
443.461689	2524.282171
443.837057	2525.479445
444.212365	2527.906761
444.587612	2523.710000
444.962800	2525.708818
445.337927	2525.015659
445.712995	2526.447347
446.088002	2523.906605
446.462949	2524.367871
446.837837	2525.650844
447.212664	2523.001718
447.587431	2524.700587
447.962139	2524.503982
448.336786	2526.220495
448.711374	2526.291071
449.085901	2525.892820
449.460369	2526.855680
449.834776	2525.744106
450.209124	2525.527336
450.583412	2526.051616
450.957640	2523.689836
451.331808	2525.983561
451.705917	2529.860208
452.079965	2525.073632
452.453954	2526.049096
452.827883	2527.309384
453.201752	2524.733354
453.575562	2524.677902
453.949311	2525.769312
454.323001	2528.121010
454.696632	2527.586647
455.070202	2528.743592
455.443713	2525.902902
455.817164	2527.826102
456.190556	2524.148581
456.563888	2527.788294
456.937160	2523.997346
457.310373	2527.626977
457.683526	2530.155115
458.056619	2527.722759
458.429653	2529.613191
458.802628	2526.381812
459.175542	2528.529343
459.548398	2528.050434
459.921194	2528.675537
460.293930	2527.546318
460.666607	2529.938346
461.039224	2526.132275
461.411782	2530.949097
461.784280	2526.742254
462.156719	2530.903727
462.529099	2526.374250
462.901419	2531.168387
463.273680	2526.666637
463.645882	2527.574045
464.018024	2528.221833
464.390106	2528.045393
464.762130	2528.778880
465.134094	2530.112266
465.505999	2528.768798
465.877845	2527.924405
466.249631	2527.906761
466.621358	2529.766947
466.993026	2532.481608
467.364634	2534.702236
467.736184	2529.706453
468.107674	2531.506145
468.479105	2526.873324
468.850477	2530.233253
469.221790	2532.234591
469.593043	2529.530012
469.964238	2531.677544
470.335373	2530.429858
470.706449	2530.298788
471.077467	2527.982378
471.448425	2529.955990
471.819324	2530.054292
472.190164	2531.009591
472.560945	2532.723583
472.931667	2531.556556
473.302330	2532.756351
473.672934	2533.772143
474.043479	2531.060002
474.413965	2530.621422
474.784393	2523.969620
475.154761	2530.210568
475.525070	2527.558921
475.895321	2529.066226
476.265513	2529.477080
476.635645	2531.738038
477.005719	2529.789632
477.375734	2532.693336
477.745691	2528.148736
478.115588	2532.259797
478.485427	2528.773839
478.855207	2532.814324
479.224928	2531.480939
479.594591	2532.393388
479.964194	2531.513706
480.333739	2533.646114
480.703226	2528.970444
481.072653	2532.443799
481.442022	2533.888090
481.811333	2531.228881
482.180584	2530.782739
482.549777	2530.984385
482.918912	2531.629653
483.287988	2534.210724
483.657005	2532.547143
484.025964	2532.348017
484.394864	2530.520599
484.763706	2532.504293
485.132489	2531.322143
485.501213	2533.089067
485.869879	2533.089067
486.238487	2530.931453
486.607036	2533.096629
486.975527	2534.281300
487.343959	2532.481608
487.712333	2533.078985
488.080648	2533.446989
488.448905	2533.262987
488.817104	2533.704088
489.185244	2534.457740
489.553326	2533.900693
489.921350	2534.520755
490.289315	2532.461443
490.657222	2533.431865
491.025070	2533.630991
491.392861	2537.782381
491.760593	2530.074457
492.128267	2532.421114
492.495883	2533.436907
492.863440	2535.118131
493.230939	2528.907430
493.598380	2533.474715
493.965763	2530.548325
494.333088	2530.349200
494.700354	2530.939015
495.067563	2533.636032
495.434713	2529.169570
495.801805	2533.499921
496.168839	2531.352389
496.535815	2535.972607
496.902733	2533.406660
497.269593	2533.177287
497.636395	2534.170394
498.003139	2532.085877
498.369825	2532.680733
498.736453	2535.166022
499.103023	2535.052596
499.469535	2532.879859
499.835989	2533.436907
500.202385	2532.847092
500.568723	2534.319108
500.935003	2535.682741
501.301226	2534.309026
501.667390	2533.444468
502.033497	2535.823893
502.399546	2532.816845
502.765537	2533.532688
503.131470	2536.373379
503.497345	2533.436907
503.863163	2536.234747
504.228923	2532.211906
504.594625	2533.177287
504.960269	2532.889941
505.325856	2534.732483
505.691385	2533.802390
506.056856	2536.234747
506.422270	2534.225847
506.787625	2537.880684
507.152924	2533.908254
507.518164	2536.015457
507.883347	2534.651825
508.248472	2533.762061
508.613540	2532.698377
508.978550	2534.366999
509.343503	2533.855322
509.708398	2538.404964
510.073236	2535.841537
510.438016	2535.372710
510.802738	2534.498069
511.167403	2533.799870
511.532010	2531.612009
511.896561	2533.729293
512.261053	2536.943029
512.625488	2531.261649
512.989866	2529.875331
513.354186	2532.579910
513.718449	2530.417255
514.082655	2533.157122
514.446803	2534.432534
514.810894	2535.080323
515.174927	2537.618544
515.538904	2531.969931
515.902822	2535.319778
516.266684	2535.680220
516.630488	2534.913965
516.994235	2534.926567
517.357925	2535.077802
517.721558	2534.651825
518.085133	2535.097967
518.448651	2535.997813
518.812112	2534.288862
519.175516	2531.995137
519.538863	2535.216434
519.902152	2536.292720
520.265385	2533.807431
520.628560	2538.213400
520.991678	2535.949922
521.354739	2538.147865
521.717743	2533.237781
522.080690	2535.372710
522.443580	2533.540250
522.806413	2536.164171
523.169189	2533.986392
523.531908	2536.388502
523.894569	2534.341794
524.257174	2536.827082
524.619722	2534.344314
524.982213	2539.642567
525.344647	2537.951260
525.707025	2537.091743
526.069345	2534.303985
526.431608	2536.786753
526.793815	2536.138965
527.155964	2536.166691
527.518057	2537.963863
527.880093	2536.564943
528.242072	2537.679038
528.603995	2535.123173
528.965860	2535.413039
529.327669	2533.618388
529.689421	2537.091743
530.051117	2536.741383
530.412755	2538.588966
530.774337	2534.205682
531.135862	2534.792977
531.497331	2533.255425
531.858743	2536.111239
532.220098	2535.632329
532.581396	2530.641587
532.942638	2530.046731
533.303824	2533.578059
533.664953	2538.614172
534.026025	2533.210055
534.387040	2536.264994
534.747999	2536.643080
535.108902	2540.149203
535.469748	2535.839016
535.830537	2538.430169
536.191270	2534.445137
536.551947	2537.658873
536.912567	2534.220806
537.273131	2537.064017
537.633638	2537.099305
537.994089	2533.913296
538.354483	2537.827752
538.714821	2537.991589
539.075103	2538.092412
539.435328	2536.900179
539.795497	2535.251722
540.155609	2536.902700
540.515665	2536.448996
540.875665	2539.692978
541.235609	2534.956814
541.595496	2540.088709
541.955328	2535.622247
542.315102	2536.421270
542.674821	2536.133924
543.034483	2536.338091
543.394090	2536.847247
543.753640	2537.305992
544.113134	2537.956301
544.472571	2538.871270
544.831953	2540.474357
545.191278	2538.420087
545.550548	2535.594520
545.909761	2536.446475
546.268918	2535.556712
546.628019	2537.731970
546.987064	2534.601413
547.346053	2536.542257
547.704986	2539.786240
548.063863	2536.360776
548.422684	2535.012267
548.781449	2538.578883
549.140158	2535.781043
549.498811	2537.852957
549.857408	2536.262473
550.215949	2534.891279
550.574434	2532.900024
550.932864	2535.806249
551.291237	2531.740558
551.649555	2537.734490
552.007817	2535.639891
552.366022	2536.998482
552.724173	2534.946732
553.082267	2536.169212
553.440305	2538.452855
553.798288	2535.886907
554.156215	2536.098636
554.514086	2536.360776
554.871902	2535.806249
555.229661	2536.993441
555.587365	2537.971424
555.945014	2536.275076
556.302606	2538.722556
556.660143	2536.690971
557.017625	2534.495549
557.375050	2537.447144
557.732421	2537.492515
558.089735	2535.879346
558.446994	2539.151054
558.804197	2538.309182
559.161345	2538.029398
559.518437	2536.184335
559.875474	2536.834644
560.232455	2538.437731
560.589381	2537.358924
560.946251	2538.916641
561.303065	2536.564942
561.659825	2536.559901
562.016528	2537.121990
562.373177	2536.522093
562.729770	2536.542257
563.086307	2538.223482
563.442789	2537.406815
563.799216	2537.459747
564.155587	2539.390509
564.511904	2538.588966
564.868164	2536.517052
565.224370	2539.824048
565.580520	2535.912113
565.936615	2538.611651
566.292654	2536.693492
566.648638	2537.510159
567.004567	2539.095602
567.360441	2537.598379
567.716260	2533.983872
568.072023	2535.796167
568.427732	2533.356248
568.783385	2536.224665
569.138982	2532.773995
569.494525	2535.818852
569.850013	2533.830117
570.205445	2537.845396
570.560823	2538.687268
570.916145	2537.376568
571.271412	2538.858668
571.626625	2537.066537
571.981782	2537.598379
572.336884	2537.311033
572.691931	2537.167360
573.046923	2537.857998
573.401860	2538.488143
573.756743	2534.820703
574.111570	2537.404295
574.466342	2536.622916
574.821059	2537.595858
575.175722	2537.845396
575.530330	2539.181301
575.884882	2537.240457
576.239380	2538.893956
576.593823	2539.584594
576.948211	2536.494366
577.302544	2536.650642
577.656823	2536.275076
578.011047	2538.115097
578.365216	2539.385468
578.719330	2539.584594
579.073389	2538.306661
579.427394	2537.739531
579.781344	2535.967566
580.135239	2539.163657
580.489080	2537.812628
580.842866	2538.747762
581.196597	2539.735828
581.550273	2537.835313
581.903895	2535.967566
582.257463	2536.839685
582.610975	2537.734490
582.964434	2536.746424
583.317837	2538.813297
583.671186	2536.635519
584.024481	2537.565612
584.377721	2537.822710
584.730906	2538.014274
585.084037	2537.464788
585.437113	2537.870601
585.790135	2539.987886
586.143103	2541.071734
586.496016	2539.811446
586.848874	2533.633512
587.201679	2537.482432
587.554428	2535.960004
587.907124	2534.792977
588.259765	2535.047555
588.612352	2539.090561
588.964884	2537.648791
589.317362	2536.680889
589.669786	2536.252391
590.022155	2538.546116
590.374470	2537.177443
590.726731	2537.366486
591.078937	2539.206507
591.431090	2540.171888
591.783188	2537.477391
592.135232	2539.382948
592.487222	2539.665252
592.839157	2539.264480
593.191038	2538.571322
593.542866	2538.001671
593.894639	2536.005374
594.246358	2538.120138
594.598022	2538.475540
594.949633	2535.055117
595.301190	2538.528472
595.652692	2536.612833
596.004141	2537.484953
596.355535	2537.691640
596.706876	2535.087884
597.058162	2535.796167
597.409395	2537.323636
597.760573	2538.079809
598.111698	2540.451672
598.462768	2540.217258
598.813785	2538.034439
599.164748	2538.261291
599.515657	2537.510159
599.866511	2536.854809
600.217312	2536.287679
600.568060	2539.458565
600.918753	2537.893287
601.269392	2536.965714
601.619978	2535.188708
601.970510	2537.346321
602.320988	2538.094933
602.671412	2542.533669
603.021783	2538.331867
603.372100	2536.882535
603.722363	2536.174253
604.072572	2538.362114
604.422728	2539.004861
604.772830	2533.744417
605.122878	2535.947401
605.472872	2534.835827
605.822813	2533.172246
606.172701	2537.429500
606.522534	2538.084850
606.872314	2538.011754
607.222041	2539.753472
607.571714	2537.308513
607.921333	2536.433872
608.270899	2538.430169
608.620411	2537.827752
608.969870	2540.875129
609.319276	2539.531662
609.668627	2542.563916
610.017926	2542.032074
610.367171	2548.111705
610.716362	2546.238917
611.065500	2544.439225
611.414585	2539.680376
611.763616	2540.469316
612.112594	2543.867054
612.461518	2540.287835
612.810389	2538.956970
613.159207	2538.034439
613.507971	2540.789429
613.856682	2540.539892
614.205340	2538.097453
614.553945	2540.560057
614.902496	2540.721374
615.250994	2539.516538
615.599439	2538.921682
615.947830	2537.033770
616.296169	2538.604089
616.644454	2540.302958
616.992686	2536.882535
617.340864	2537.714326
617.688990	2538.359593
618.037063	2537.142155
618.385082	2537.036290
618.733048	2540.033256
619.080961	2537.905889
619.428821	2536.887576
619.776628	2538.490663
620.124382	2537.689120
620.472083	2538.649460
620.819731	2536.900179
621.167326	2536.398584
621.514868	2539.511497
621.862357	2540.426466
622.209793	2536.973276
622.557176	2541.427135
622.904506	2534.311547
623.251783	2534.908923
623.599007	2534.311547
623.946179	2535.871784
624.293297	2536.128883
624.640363	2537.671476
624.987376	2539.791281
625.334336	2536.086033
625.681243	2537.754655
626.028097	2540.688606
626.374899	2537.822710
626.721647	2537.800025
627.068343	2537.043852
627.414987	2537.686599
627.761577	2536.703574
628.108115	2539.151054
628.454600	2537.240457
628.801032	2539.173740
629.147412	2539.456044
629.493739	2538.515869
629.840014	2538.442772
630.186236	2541.316230
630.532405	2540.534851
630.878521	2537.971424
631.224585	2537.895807
631.570597	2538.530992
631.916556	2536.970755
632.262462	2538.904038
632.608316	2539.216589
632.954117	2534.976979
633.299866	2535.944881
633.645562	2538.326826
633.991206	2535.712987
634.336797	2538.200797
634.682336	2536.632998
635.027823	2535.463450
635.373257	2537.099305
635.718639	2535.473533
636.063968	2537.638708
636.409245	2539.617361
636.754470	2536.317926
637.099642	2536.965714
637.444762	2538.573842
637.789829	2536.038142
638.134845	2537.064017
638.479808	2536.080992
638.824719	2537.149716
639.169577	2538.294058
639.514383	2538.868750
639.859137	2536.506969
640.203839	2538.236085
640.548489	2538.435211
640.893086	2535.826413
641.237632	2534.472864
641.582125	2534.671989
641.926566	2532.295085
642.270955	2537.575694
642.615292	2537.134593
642.959576	2535.954963
643.303809	2539.451003
643.647990	2536.413708
643.992118	2538.863709
644.336195	2537.265663
