Dividing Wavelength (nm)	Counts (n)	Blue Motor Position (mm): 0.000000	Red Motor Position (mm): 34.700000	
326.493990	2127.384567
326.888308	2127.384567
327.282561	2127.384567
327.676750	2092.734196
328.070874	2093.961717
328.464933	2096.366348
328.858929	2104.490167
329.252859	2112.959305
329.646726	2124.206120
330.040528	2136.430918
330.434265	2154.929432
330.827938	2171.434169
331.221547	2189.108455
331.615091	2210.876157
332.008571	2227.660679
332.401986	2246.227248
332.795338	2266.376740
333.188625	2286.422889
333.581847	2305.170940
333.975006	2324.508806
334.368100	2340.942968
334.761129	2359.875021
335.154095	2379.026364
335.546996	2397.635784
335.939833	2415.123546
336.332606	2431.149374
336.725315	2442.340736
337.117960	2451.051850
337.510540	2457.683488
337.903056	2471.876856
338.295508	2478.400109
338.687896	2485.379587
339.080220	2494.607419
339.472480	2501.659993
339.864676	2506.766682
340.256807	2511.049142
340.648875	2512.679956
341.040879	2515.059380
341.432818	2517.232118
341.824694	2519.853518
342.216506	2519.722448
342.608253	2519.117509
342.999937	2517.486696
343.391557	2519.329237
343.783113	2518.482324
344.174605	2518.938548
344.566033	2514.666170
344.957397	2512.805984
345.348697	2512.939575
345.739934	2512.989987
346.131106	2507.442197
346.522215	2509.496467
346.913260	2504.253667
347.304241	2507.474964
347.695159	2501.218892
348.086012	2501.874242
348.476802	2498.443737
348.867528	2497.788387
349.258191	2497.049858
349.648789	2494.539363
350.039324	2492.238077
350.429796	2495.608088
350.820203	2493.158087
351.210548	2494.065495
351.600828	2487.060812
351.991045	2490.158601
352.381198	2489.024341
352.771288	2490.551811
353.161314	2489.412510
353.551276	2488.550473
353.941175	2487.456542
354.331010	2487.297746
354.720782	2488.086687
355.110490	2487.335555
355.500135	2490.607263
355.889717	2489.556183
356.279235	2489.467963
356.668689	2488.857983
357.058080	2491.103817
357.447408	2488.709269
357.836672	2487.678353
358.225873	2490.458549
358.615010	2486.539052
359.004084	2491.287819
359.393095	2490.723210
359.782043	2492.853098
360.170927	2492.772439
360.559748	2494.337717
360.948505	2495.093890
361.337199	2496.573469
361.725830	2497.629591
362.114398	2497.816113
362.502903	2495.416524
362.891344	2497.904334
363.279722	2496.041627
363.668037	2501.415497
364.056289	2495.671103
364.444478	2499.270486
364.832603	2500.558501
365.220665	2502.212000
365.608665	2503.003461
365.996601	2504.452793
366.384474	2502.287617
366.772284	2503.885663
367.160031	2505.082937
367.547715	2511.311282
367.935336	2511.938906
368.322893	2516.874196
368.710388	2514.328413
369.097820	2527.180835
369.485189	2525.887779
369.872495	2534.404808
370.259738	2540.595345
370.646918	2549.644216
371.034035	2553.901471
371.421090	2565.975034
371.808081	2575.117167
372.195010	2583.646799
372.581875	2598.654314
372.968678	2609.817949
373.355418	2621.692387
373.742096	2642.424132
374.128710	2652.995432
374.515262	2667.725683
374.901751	2683.007941
375.288177	2695.746937
375.674540	2718.245607
376.060841	2737.875860
376.447079	2757.306987
376.833254	2777.756428
377.219367	2790.165228
377.605417	2824.969354
377.991404	2834.766837
378.377329	2860.065867
378.763191	2875.333002
379.148991	2910.880698
379.534727	2938.481015
379.920402	2965.572176
380.306013	2981.419043
380.691563	3029.151208
381.077049	3050.651729
381.462474	3065.986919
381.847835	3111.153137
382.233134	3128.668626
382.618371	3126.594192
383.003545	3196.804862
383.388657	3205.077395
383.773706	3236.261973
384.158693	3251.975249
384.543618	3275.434259
384.928480	3314.596463
385.313280	3359.152701
385.698017	3360.627238
386.082692	3411.928540
386.467305	3417.090682
386.851856	3451.501598
387.236344	3475.938591
387.620770	3505.671317
388.005133	3530.047816
388.389435	3552.549006
388.773674	3573.036256
389.157851	3610.560084
389.541965	3627.291674
389.926018	3589.258689
390.310008	3662.178979
390.693936	3683.898790
391.077802	3724.396900
391.461606	3709.535578
391.845348	3777.896145
392.229027	3770.730145
392.612645	3791.154380
392.996200	3866.169269
393.379694	3902.594127
393.763125	3966.447902
394.146494	3935.873304
394.529801	3999.069208
394.913047	4046.256929
395.296230	4012.624871
395.679351	4065.869538
396.062410	4090.067076
396.445408	4070.570414
396.828343	4103.842029
397.211217	4127.727016
397.594028	4048.343967
397.976778	4112.737145
398.359466	4141.706136
398.742092	4172.681506
399.124656	4089.066407
399.507158	4171.474149
399.889598	4195.908622
400.271977	4257.566975
400.654294	4231.882296
401.036549	4238.634921
401.418742	4208.806414
401.800874	4308.313750
402.182944	4328.760670
402.564952	4393.894898
402.946898	4381.309658
403.328783	4380.256056
403.710606	4297.346720
404.092367	4486.692458
404.474067	4453.483857
404.855705	4457.426039
405.237282	4385.851737
405.618797	4495.401051
406.000250	4531.397410
406.381642	4610.288948
406.762972	4570.920057
407.144240	4581.337601
407.525447	4585.113425
407.906593	4642.580058
408.287677	4682.286707
408.668700	4610.669555
409.049661	4666.182741
409.430560	4704.931570
409.811399	4632.646465
410.192176	4793.338285
410.572891	4732.625148
410.953545	4838.718752
411.334138	4717.330288
411.714669	4783.944095
412.095139	4680.696223
412.475547	4820.595804
412.855894	4804.048216
413.236180	4809.051561
413.616405	4762.279736
413.996568	4850.699054
414.376670	4792.909787
414.756711	4745.127210
415.136691	4778.537457
415.516609	4856.962687
415.896466	4895.938368
416.276262	4929.305766
416.655997	4907.427158
417.035670	5093.629737
417.415283	5184.983007
417.794834	5124.060662
418.174324	5079.670782
418.553753	4991.097709
418.933121	5172.196120
419.312428	5239.613991
419.691674	5179.445299
420.070859	5304.236542
420.449983	5217.264035
420.829045	5330.473227
421.208047	5239.553497
421.586988	5308.498837
421.965867	5317.640970
422.344686	5450.409839
422.723444	5304.685205
423.102141	5125.817504
423.480777	5427.137352
423.859352	5193.462227
424.237866	5452.466630
424.616319	5448.340445
424.994712	5558.439245
425.373044	5432.687662
425.751314	5573.802162
426.129524	5380.206730
426.507673	5572.032717
426.885762	5653.288555
427.263789	5584.134006
427.641756	5468.474814
428.019662	5589.465027
428.397508	5593.671869
428.775292	5544.636566
429.153016	5640.536956
429.530679	5567.162962
429.908282	5654.425335
430.285824	5526.241396
430.663305	5798.940092
431.040726	5534.297159
431.418086	5533.561151
431.795385	5636.456142
432.172624	5650.377288
432.549802	5649.386702
432.926920	5664.260626
433.303977	5664.847921
433.680974	5706.568510
434.057910	5721.565943
434.434786	5729.122632
434.811601	5696.143404
435.188355	5935.179796
435.565050	5808.248583
435.941683	5786.506086
436.318257	6005.342575
436.694770	5984.389019
437.071222	6015.981930
437.447614	5950.336025
437.823946	5863.464341
438.200218	6015.293813
438.576429	5884.773298
438.952580	5984.555377
439.328670	6026.606162
439.704700	5937.990239
440.080670	5924.689154
440.456580	6191.194794
440.832429	6069.297173
441.208218	5921.074647
441.583947	6070.363377
441.959616	6078.925777
442.335224	6006.108830
442.710773	6145.453884
443.086261	6174.042268
443.461689	5962.626358
443.837057	6114.017249
444.212365	6272.138080
444.587612	6163.899466
444.962800	6318.922509
445.337927	6296.615403
445.712995	5903.042440
446.088002	6484.000132
446.462949	6311.985881
446.837837	6246.884420
447.212664	6416.962869
447.587431	6559.272121
447.962139	7105.246727
448.336786	8026.320987
448.711374	7765.927747
449.085901	6846.688467
449.460369	6762.813749
449.834776	6698.977618
450.209124	7086.909530
450.583412	7237.488795
450.957640	7384.698049
451.331808	7144.504712
451.705917	6702.907197
452.079965	6624.429035
452.453954	6835.703792
452.827883	6717.947480
453.201752	6806.724719
453.575562	6607.957064
453.949311	6809.174720
454.323001	6701.079779
454.696632	6776.046778
455.070202	6914.350833
455.443713	7071.564257
455.817164	7170.030595
456.190556	7256.695591
456.563888	7325.194790
456.937160	7369.798919
457.310373	7022.733121
457.683526	7048.634569
458.056619	6941.663805
458.429653	6926.978924
458.802628	6866.883329
459.175542	6968.621375
459.548398	7326.833165
459.921194	7482.904767
460.293930	7491.106724
460.666607	8023.384515
461.039224	8336.392278
461.411782	8457.828633
461.784280	8473.370510
462.156719	8362.626443
462.529099	8245.152434
462.901419	7827.810431
463.273680	7724.643218
463.645882	7735.751400
464.018024	7602.637212
464.390106	7769.214579
464.762130	8152.397724
465.134094	8621.524981
465.505999	9648.312237
465.877845	10872.995029
466.249631	11519.041580
466.621358	11128.057249
466.993026	10503.594399
467.364634	10251.224155
467.736184	9882.909893
468.107674	9553.498216
468.479105	9583.651877
468.850477	9346.314354
469.221790	9118.469324
469.593043	8794.454202
469.964238	8652.699476
470.335373	8666.444182
470.706449	8718.216832
471.077467	8705.009009
471.448425	10009.175673
471.819324	11088.892525
472.190164	11117.453182
472.560945	9859.899546
472.931667	9073.461902
473.302330	8941.071120
473.672934	8586.826719
474.043479	8936.113145
474.413965	8881.320844
474.784393	8766.662320
475.154761	8917.271833
475.525070	9007.601748
475.895321	8837.861057
476.265513	9010.215586
476.635645	9180.528448
477.005719	9177.612141
477.375734	9293.903998
477.745691	9534.974496
478.115588	9661.827571
478.485427	9907.435107
478.855207	10439.544018
479.224928	11257.498956
479.594591	11888.270811
479.964194	11693.336953
480.333739	11638.063222
480.703226	11550.052238
481.072653	11640.082204
481.442022	11883.627908
481.811333	12075.665623
482.180584	11870.457894
482.549777	11587.896179
482.918912	11410.830692
483.287988	11429.336767
483.657005	11441.125506
484.025964	11127.114553
484.394864	11256.629357
484.763706	11226.508463
485.132489	10979.247429
485.501213	10947.160484
485.869879	11019.516166
486.238487	10862.927845
486.607036	10967.688063
486.975527	10750.396688
487.343959	10939.737385
487.712333	10989.841413
488.080648	10926.330437
488.448905	10964.623041
488.817104	10899.017465
489.185244	11167.073259
489.553326	11318.610344
489.921350	11857.844927
490.289315	12916.913212
490.657222	13255.555242
491.025070	13171.221779
491.392861	13042.533725
491.760593	12667.585304
492.128267	12311.702528
492.495883	11983.288999
492.863440	11647.651497
493.230939	11313.019704
493.598380	11250.592576
493.965763	11115.469488
494.333088	11012.955104
494.700354	10926.711044
495.067563	10996.861220
495.434713	10823.627009
495.801805	10950.477564
496.168839	10873.983095
496.535815	10812.662500
496.902733	10803.008690
497.269593	10736.893958
497.636395	10835.594709
498.003139	10827.102885
498.369825	10694.157576
498.736453	10844.063847
499.103023	10773.097004
499.469535	10801.655140
499.835989	10780.320977
500.202385	10747.697150
500.568723	10595.131670
500.935003	10811.992026
501.301226	10620.556730
501.667390	10871.540656
502.033497	10967.536828
502.399546	10819.208438
502.765537	10734.080994
503.131470	10795.081476
503.497345	10970.677467
503.863163	10579.942674
504.228923	10883.296627
504.594625	10937.559607
504.960269	10679.870946
505.325856	10905.971737
505.691385	10695.185971
506.056856	10847.935453
506.422270	10861.753256
506.787625	10745.027859
507.152924	10857.420384
507.518164	10830.278812
507.883347	10739.263300
508.248472	10657.984776
508.613540	10872.657272
508.978550	10751.266287
509.343503	10719.678417
509.708398	10834.722589
510.073236	10933.330079
510.438016	10925.672566
510.802738	10862.484223
511.167403	10907.859649
511.532010	10801.350151
511.896561	11012.899651
512.261053	11068.367467
512.625488	10929.849162
512.989866	10896.678370
513.354186	10873.395801
513.718449	10764.829512
514.082655	10940.410379
514.446803	10825.270426
514.810894	10930.295304
515.174927	10781.230906
515.538904	10787.839858
515.902822	10918.536813
516.266684	10789.815991
516.630488	10718.806298
516.994235	10749.085988
517.357925	10785.644436
517.721558	10857.450631
518.085133	10854.282266
518.448651	10834.420120
518.812112	10708.842457
519.175516	10697.663698
519.538863	10785.445310
519.902152	10689.330671
520.265385	10805.015069
520.628560	10703.035048
520.991678	10652.444548
521.354739	10687.735146
521.717743	10598.927659
522.080690	10556.055166
522.443580	10637.537856
522.806413	10568.451363
523.169189	10575.035110
523.531908	10586.075237
523.894569	10391.756401
524.257174	10368.373008
524.619722	10434.961610
524.982213	10356.916986
525.344647	10361.494354
525.707025	10285.861923
526.069345	10330.602163
526.431608	10216.893897
526.793815	10282.194483
527.155964	10047.533813
527.518057	10071.015508
527.880093	9983.312034
528.242072	10009.725159
528.603995	9880.911076
528.965860	9779.178070
529.327669	9773.917626
529.689421	9694.705976
530.051117	9633.087952
530.412755	9662.402262
530.774337	9536.665803
531.135862	9469.721800
531.497331	9456.531621
531.858743	9278.946895
532.220098	9378.678562
532.581396	9230.256910
532.942638	9168.003702
533.303824	9092.903112
533.664953	9051.152276
534.026025	8947.594373
534.387040	8966.730593
534.747999	8927.003780
535.108902	8917.763345
535.469748	8689.197430
535.830537	8719.963592
536.191270	8656.240887
536.551947	8618.878375
536.912567	8572.393895
537.273131	8467.981517
537.633638	8402.948112
537.994089	8344.770676
538.354483	8253.407324
538.714821	8311.390675
539.075103	8261.354703
539.435328	8186.390225
539.795497	8024.735544
540.155609	8071.779592
540.515665	8080.649502
540.875665	7856.045934
541.235609	7843.478337
541.595496	7789.280892
541.955328	7827.092067
542.315102	7703.833334
542.674821	7616.860828
543.034483	7567.016419
543.394090	7514.225456
543.753640	7419.600478
544.113134	7486.131106
544.472571	7353.788214
544.831953	7379.593881
545.191278	7213.641617
545.550548	7185.733789
545.909761	7209.812860
546.268918	7137.847869
546.628019	7131.362424
546.987064	6992.917216
547.346053	6916.921822
547.704986	6901.269039
548.063863	6850.199630
548.422684	6808.176572
548.781449	6699.363266
549.140158	6698.339912
549.498811	6586.196924
549.857408	6475.188196
550.215949	6512.459967
550.574434	6399.913686
550.932864	6385.979937
551.291237	6370.193564
551.649555	6279.241066
552.007817	6247.804431
552.366022	6180.139543
552.724173	6122.551922
553.082267	6079.087094
553.440305	6061.168312
553.798288	5948.107835
554.156215	5946.560200
554.514086	5886.351179
554.871902	5786.322084
555.229661	5749.907309
555.587365	5691.649215
555.945014	5612.021669
556.302606	5596.631027
556.660143	5526.004461
557.017625	5518.903996
557.375050	5440.123364
557.732421	5436.047592
558.089735	5359.626220
558.446994	5317.714067
558.804197	5280.018839
559.161345	5235.283640
559.518437	5149.576463
559.875474	5120.957832
560.232455	5085.972224
560.589381	5039.681829
560.946251	4975.054237
561.303065	4980.029856
561.659825	4912.881687
562.016528	4851.727449
562.373177	4785.012819
562.729770	4761.062297
563.086307	4706.327969
563.442789	4695.625600
563.799216	4611.483701
564.155587	4590.328499
564.511904	4531.273902
564.868164	4499.912884
565.224370	4468.135971
565.580520	4406.470056
565.936615	4383.079103
566.292654	4306.808965
566.648638	4309.001867
567.004567	4260.851286
567.360441	4228.988673
567.716260	4170.826361
568.072023	4162.957120
568.427732	4107.282617
568.783385	4073.915219
569.138982	4043.824572
569.494525	4015.631919
569.850013	3964.242397
570.205445	3945.499387
570.560823	3907.484046
570.916145	3854.297352
571.271412	3839.153726
571.626625	3806.497131
571.981782	3775.670476
572.336884	3739.371647
572.691931	3719.645612
573.046923	3680.858975
573.401860	3647.809170
573.756743	3614.356073
574.111570	3592.754729
574.466342	3570.142633
574.821059	3550.983728
575.175722	3511.269518
575.530330	3487.780262
575.884882	3465.213537
576.239380	3433.507199
576.593823	3406.186666
576.948211	3388.270405
577.302544	3360.677650
577.656823	3337.069926
578.011047	3321.512926
578.365216	3298.084163
578.719330	3274.196656
579.073389	3254.979777
579.427394	3234.729462
579.781344	3217.224055
580.135239	3195.080787
580.489080	3181.751976
580.842866	3155.759787
581.196597	3141.082468
581.550273	3131.171559
581.903895	3111.309413
582.257463	3106.356479
582.610975	3082.801688
582.964434	3071.549833
583.317837	3048.955381
583.671186	3042.396840
584.024481	3026.721372
584.377721	3011.824763
584.730906	2997.394460
585.084037	2986.939107
585.437113	2973.764051
585.790135	2962.098821
586.143103	2946.572067
586.496016	2931.526743
586.848874	2923.919642
587.201679	2915.503436
587.554428	2896.523492
587.907124	2892.457801
588.259765	2881.458003
588.612352	2874.821324
588.964884	2862.339427
589.317362	2851.682428
589.669786	2845.718743
590.022155	2844.216479
590.374470	2833.178873
590.726731	2823.202430
591.078937	2810.082827
591.431090	2810.070224
591.783188	2793.855352
592.135232	2792.000208
592.487222	2782.933693
592.839157	2784.357819
593.191038	2771.339039
593.542866	2762.953079
593.894639	2756.893612
594.246358	2755.250196
594.598022	2747.925400
594.949633	2740.149420
595.301190	2733.492576
595.652692	2728.766495
596.004141	2727.201216
596.355535	2720.544373
596.706876	2713.645554
597.058162	2707.863350
597.409395	2704.568956
597.760573	2705.163812
598.111698	2696.949252
598.462768	2695.845239
598.813785	2692.147553
599.164748	2684.268230
599.515657	2683.297807
599.866511	2677.250943
600.217312	2678.299503
600.568060	2674.185922
600.918753	2673.714574
601.269392	2669.333811
601.619978	2667.506393
601.970510	2667.024963
602.320988	2660.453819
602.671412	2658.863335
603.021783	2656.143632
603.372100	2657.461894
603.722363	2653.277736
604.072572	2650.495019
604.422728	2650.061480
604.772830	2646.041160
605.122878	2639.351549
605.472872	2643.281128
605.822813	2641.972949
606.172701	2640.891621
606.522534	2639.109573
606.872314	2639.081847
607.222041	2637.451034
607.571714	2638.877680
607.921333	2637.319964
608.270899	2634.020529
608.620411	2636.193266
608.969870	2633.067751
609.319276	2634.295272
609.668627	2637.042700
610.017926	2638.310551
610.367171	2639.560757
610.716362	2638.698719
611.065500	2634.202010
611.414585	2634.532206
611.763616	2632.029273
612.112594	2629.289406
612.461518	2628.470218
612.810389	2627.416617
613.159207	2627.247738
613.507971	2623.693725
613.856682	2624.104579
614.205340	2622.526698
614.553945	2627.225053
614.902496	2620.500154
615.250994	2623.199692
615.599439	2622.753550
615.947830	2624.265896
616.296169	2621.886471
616.644454	2619.829681
616.992686	2621.836060
617.340864	2622.516616
617.688990	2616.842797
618.037063	2619.436471
618.385082	2616.638630
618.733048	2620.149794
619.080961	2618.609721
619.428821	2616.938579
619.776628	2616.890688
620.124382	2618.065277
620.472083	2617.498147
620.819731	2617.563682
621.167326	2611.088320
621.514868	2613.989504
621.862357	2612.202415
622.209793	2612.076386
622.557176	2611.055552
622.904506	2605.729573
623.251783	2605.898452
623.599007	2607.698144
623.946179	2602.936774
624.293297	2603.009871
624.640363	2601.578183
624.987376	2603.035077
625.334336	2603.556836
625.681243	2603.014912
626.028097	2603.423245
626.374899	2601.013574
626.721647	2597.409149
627.068343	2602.054572
627.414987	2599.942329
627.761577	2602.016763
628.108115	2599.985178
628.454600	2600.486773
628.801032	2598.659355
629.147412	2595.745568
629.493739	2597.386464
629.840014	2600.302771
630.186236	2598.593820
630.532405	2596.557194
630.878521	2593.983685
631.224585	2597.121803
631.570597	2594.117275
631.916556	2594.334045
632.262462	2595.997626
632.608316	2597.295723
632.954117	2594.255907
633.299866	2597.656165
633.645562	2592.226843
633.991206	2591.508478
634.336797	2589.847418
634.682336	2592.804055
635.027823	2590.152408
635.373257	2589.504620
635.718639	2587.636872
636.063968	2588.728282
636.409245	2587.563775
636.754470	2587.175607
637.099642	2588.365319
637.444762	2587.956985
637.789829	2589.494537
638.134845	2586.921028
638.479808	2586.921028
638.824719	2587.891450
639.169577	2585.446491
639.514383	2587.021851
639.859137	2582.951120
640.203839	2584.213929
640.548489	2585.398600
640.893086	2580.823753
641.237632	2578.033474
641.582125	2581.080852
641.926566	2578.882908
642.270955	2583.261151
