Dividing Wavelength (nm)	Counts (n)	Blue Motor Position (mm): 0.000000	Red Motor Position (mm): 38.000000	
326.493990	2127.606378
326.888308	2127.606378
327.282561	2127.606378
327.676750	2092.940883
328.070874	2093.122365
328.464933	2096.555391
328.858929	2105.357245
329.252859	2111.325972
329.646726	2126.041100
330.040528	2136.710702
330.434265	2153.228042
330.827938	2171.194715
331.221547	2190.381346
331.615091	2206.654191
332.008571	2227.524568
332.401986	2248.094996
332.795338	2267.503438
333.188625	2286.269133
333.581847	2304.538275
333.975006	2323.021666
334.368100	2342.508246
334.761129	2358.423168
335.154095	2375.386651
335.546996	2396.032697
335.939833	2416.368711
336.332606	2430.241967
336.725315	2441.932402
337.117960	2454.923456
337.510540	2463.253963
337.903056	2471.496249
338.295508	2476.814667
338.687896	2487.796820
339.080220	2497.317039
339.472480	2502.998420
339.864676	2510.582836
340.256807	2508.881446
340.648875	2516.009638
341.040879	2516.586850
341.432818	2518.346212
341.824694	2520.839063
342.216506	2517.998373
342.608253	2520.687828
342.999937	2523.082377
343.391557	2521.917870
343.783113	2521.365864
344.174605	2520.155987
344.566033	2518.260513
344.957397	2516.329751
345.348697	2513.846983
345.739934	2508.871364
346.131106	2510.688700
346.522215	2510.658453
346.913260	2508.742814
347.304241	2506.474295
347.695159	2504.893893
348.086012	2503.815087
348.476802	2501.213851
348.867528	2498.562204
349.258191	2498.476505
349.648789	2498.431134
350.039324	2494.113386
350.429796	2493.858808
350.820203	2496.071874
351.210548	2490.977788
351.600828	2490.274547
351.991045	2489.722541
352.381198	2491.698673
352.771288	2490.579537
353.161314	2491.043323
353.551276	2490.088025
353.941175	2489.737664
354.331010	2489.964516
354.720782	2489.382263
355.110490	2489.949393
355.500135	2489.243631
355.889717	2490.385453
356.279235	2492.918633
356.668689	2490.861842
357.058080	2487.569968
357.447408	2490.733292
357.836672	2487.764053
358.225873	2490.047695
358.615010	2487.191882
359.004084	2493.097593
359.393095	2493.304281
359.782043	2495.567759
360.170927	2492.472490
360.559748	2497.254025
360.948505	2494.040289
361.337199	2497.662358
361.725830	2497.347286
362.114398	2497.400218
362.502903	2500.311485
362.891344	2499.807369
363.279722	2501.919613
363.668037	2501.339880
364.056289	2502.514469
364.444478	2501.521362
364.832603	2504.435148
365.220665	2503.028667
365.608665	2504.609068
365.996601	2505.566888
366.384474	2504.982114
366.772284	2507.033863
367.160031	2509.120901
367.547715	2508.568895
367.935336	2513.852024
368.322893	2515.921417
368.710388	2518.323527
369.097820	2529.119158
369.485189	2528.652852
369.872495	2534.997144
370.259738	2540.335726
370.646918	2549.485420
371.034035	2555.055895
371.421090	2566.274983
371.808081	2576.737898
372.195010	2585.446491
372.581875	2599.334870
372.968678	2612.104112
373.355418	2622.433437
373.742096	2640.838689
374.128710	2654.638848
374.515262	2669.827844
374.901751	2681.901408
375.288177	2697.702905
375.674540	2720.186451
376.060841	2739.940212
376.447079	2757.362440
376.833254	2778.653753
377.219367	2791.654889
377.605417	2833.110817
377.991404	2837.491580
378.377329	2862.808255
378.763191	2875.307796
379.148991	2915.947058
379.534727	2941.951850
379.920402	2969.090901
380.306013	2982.795278
380.691563	3031.923843
381.077049	3054.223387
381.462474	3071.290213
381.847835	3111.964763
382.233134	3133.051910
382.618371	3132.504944
383.003545	3204.043959
383.388657	3208.066799
383.773706	3238.051582
384.158693	3258.614449
384.543618	3284.120167
384.928480	3317.212821
385.313280	3365.413814
385.698017	3362.326107
386.082692	3417.504057
386.467305	3420.198553
386.851856	3453.434881
387.236344	3474.330463
387.620770	3506.913961
388.005133	3531.971016
388.389435	3561.774318
388.773674	3570.676996
389.157851	3615.084520
389.541965	3627.027013
389.926018	3596.396962
390.310008	3667.008404
390.693936	3682.663708
391.077802	3724.328844
391.461606	3714.778378
391.845348	3777.182822
392.229027	3773.389353
392.612645	3791.245120
392.996200	3867.036348
393.379694	3906.354827
393.763125	3971.529385
394.146494	3940.067544
394.529801	4003.949045
394.913047	4050.851941
395.296230	4014.215355
395.679351	4071.107297
396.062410	4095.496399
396.445408	4078.147268
396.828343	4107.753965
397.211217	4136.057523
397.594028	4052.069379
397.976778	4119.514977
398.359466	4145.618071
398.742092	4174.740817
399.124656	4095.072942
399.507158	4174.904654
399.889598	4201.564797
400.271977	4262.968571
400.654294	4233.329107
401.036549	4241.911671
401.418742	4212.786405
401.800874	4315.903207
402.182944	4338.031352
402.564952	4398.507554
402.946898	4389.017582
403.328783	4385.350142
403.710606	4295.514260
404.092367	4489.918797
404.474067	4454.792037
404.855705	4461.834528
405.237282	4391.986821
405.618797	4503.625694
406.000250	4536.352865
406.381642	4614.873877
406.762972	4574.370726
407.144240	4589.481585
407.525447	4589.151389
407.906593	4645.909741
408.287677	4691.509498
408.668700	4617.117190
409.049661	4669.159542
409.430560	4713.405749
409.811399	4639.482269
410.192176	4799.521260
410.572891	4740.287702
410.953545	4842.416438
411.334138	4723.447728
411.714669	4790.384169
412.095139	4684.661090
412.475547	4826.821629
412.855894	4808.403773
413.236180	4813.225637
413.616405	4765.506074
413.996568	4856.491340
414.376670	4798.976815
414.756711	4754.309672
415.136691	4789.743942
415.516609	4861.159448
415.896466	4897.836363
416.276262	4934.402372
416.655997	4913.476543
417.035670	5097.823977
417.415283	5184.730949
417.794834	5129.502588
418.174324	5088.366773
418.553753	4991.853882
418.933121	5180.871946
419.312428	5246.709415
419.691674	5188.342936
420.070859	5309.890196
420.449983	5222.653029
420.829045	5336.474721
421.208047	5241.814454
421.586988	5315.881607
421.965867	5326.815870
422.344686	5457.659018
422.723444	5316.126103
423.102141	5134.223628
423.480777	5430.766983
423.859352	5202.359864
424.237866	5463.421057
424.616319	5449.237771
424.994712	5564.546603
425.373044	5439.954486
425.751314	5577.310805
426.129524	5383.430548
426.507673	5578.591258
426.885762	5660.053783
427.263789	5590.478298
427.641756	5475.933201
428.019662	5598.090441
428.397508	5602.304845
428.775292	5549.266866
429.153016	5647.561804
429.530679	5572.718313
429.908282	5657.956663
430.285824	5526.990007
430.663305	5803.787162
431.040726	5540.840577
431.418086	5535.746491
431.795385	5648.474253
432.172624	5660.104195
432.549802	5651.990458
432.926920	5666.755997
433.303977	5673.148180
433.680974	5711.471032
434.057910	5731.219752
434.434786	5733.846193
434.811601	5705.260330
435.188355	5942.444098
435.565050	5813.592206
435.941683	5795.088651
436.318257	6008.871383
436.694770	5990.055276
437.071222	6025.655904
437.447614	5960.047808
437.823946	5869.082707
438.200218	6023.813363
438.576429	5888.670110
438.952580	5987.975800
439.328670	6031.584301
439.704700	5942.703718
440.080670	5931.225010
440.456580	6202.040836
440.832429	6079.581127
441.208218	5923.938023
441.583947	6080.304533
441.959616	6082.288227
442.335224	6012.052351
442.710773	6153.870091
443.086261	6178.402866
443.461689	5975.864428
443.837057	6119.824658
444.212365	6278.852897
444.587612	6169.424571
444.962800	6327.462223
445.337927	6301.296114
445.712995	5913.802783
446.088002	6493.515310
446.462949	6324.003992
446.837837	6258.496718
447.212664	6424.862357
447.587431	6565.404685
447.962139	7112.490865
448.336786	8034.512862
448.711374	7776.141125
449.085901	6855.001329
449.460369	6774.108454
449.834776	6707.887857
450.209124	7094.330108
450.583412	7245.751246
450.957640	7388.693163
451.331808	7158.715725
451.705917	6712.611418
452.079965	6636.348843
452.453954	6843.613363
452.827883	6722.590382
453.201752	6815.188817
453.575562	6619.483663
453.949311	6819.148643
454.323001	6708.230656
454.696632	6782.723786
455.070202	6919.472646
455.443713	7075.408137
455.817164	7177.675505
456.190556	7258.855726
456.563888	7333.220307
456.937160	7384.854325
457.310373	7031.676128
457.683526	7057.096146
458.056619	6949.449867
458.429653	6937.958557
458.802628	6874.896243
459.175542	6978.683518
459.548398	7332.091088
459.921194	7494.403639
460.293930	7499.782550
460.666607	8033.204683
461.039224	8333.831372
461.411782	8459.741751
461.784280	8480.970050
462.156719	8370.256229
462.529099	8252.998990
462.901419	7840.589756
463.273680	7734.223930
463.645882	7745.430415
464.018024	7615.713965
464.390106	7780.479038
464.762130	8164.932553
465.134094	8629.585786
465.505999	9647.089757
465.877845	10877.353107
466.249631	11526.134483
466.621358	11145.439147
466.993026	10515.214258
467.364634	10254.125339
467.736184	9893.345082
468.107674	9562.685718
468.479105	9595.538918
468.850477	9358.801292
469.221790	9130.830233
469.593043	8808.042632
469.964238	8668.939553
470.335373	8672.859050
470.706449	8736.677537
471.077467	8716.202891
471.448425	10021.108085
471.819324	11094.868813
472.190164	11133.489092
472.560945	9873.989571
472.931667	9085.492616
473.302330	8952.922873
473.672934	8591.726720
474.043479	8957.679201
474.413965	8893.994305
474.784393	8777.523486
475.154761	8933.567362
475.525070	9020.776803
475.895321	8844.631326
476.265513	9023.234366
476.635645	9193.022948
477.005719	9193.587557
477.375734	9303.923292
477.745691	9544.953460
478.115588	9674.669910
478.485427	9916.854503
478.855207	10459.121339
479.224928	11273.429002
479.594591	11897.302038
479.964194	11710.499562
480.333739	11644.261321
480.703226	11565.790720
481.072653	11660.256902
481.442022	11891.960935
481.811333	12086.050400
482.180584	11892.288610
482.549777	11600.221801
482.918912	11428.003382
483.287988	11444.835795
483.657005	11458.111674
484.025964	11138.137036
484.394864	11270.270720
484.763706	11239.312994
485.132489	11002.966057
485.501213	10962.233534
485.869879	11035.476459
486.238487	10883.034487
486.607036	10988.422329
486.975527	10769.321180
487.343959	10953.688779
487.712333	11003.865903
488.080648	10935.399472
488.448905	10977.167953
488.817104	10917.768037
489.185244	11185.450786
489.553326	11337.265134
489.921350	11873.754808
490.289315	12935.502467
490.657222	13273.925207
491.025070	13193.360007
491.392861	13064.477867
491.760593	12687.475177
492.128267	12335.552227
492.495883	12014.118175
492.863440	11671.468428
493.230939	11337.174393
493.598380	11269.058322
493.965763	11137.741306
494.333088	11042.211440
494.700354	10956.176588
495.067563	11014.076761
495.434713	10845.213230
495.801805	10971.176541
496.168839	10898.145346
496.535815	10833.588329
496.902733	10838.783238
497.269593	10765.000911
497.636395	10866.985974
498.003139	10854.347801
498.369825	10723.194622
498.736453	10878.119362
499.103023	10804.223608
499.469535	10833.084214
499.835989	10821.590383
500.202385	10786.153592
500.568723	10627.689962
500.935003	10860.916424
501.301226	10662.083234
501.667390	10923.073851
502.033497	11018.888542
502.399546	10875.795390
502.765537	10791.998810
503.131470	10867.003618
503.497345	11036.623321
503.863163	10643.839299
504.228923	10960.249840
504.594625	11027.579491
504.960269	10768.794379
505.325856	10990.554737
505.691385	10787.277770
506.056856	10938.681264
506.422270	10961.368977
506.787625	10849.876298
507.152924	10972.146963
507.518164	10944.523961
507.883347	10866.920439
508.248472	10788.374221
508.613540	11026.150324
508.978550	10901.631303
509.343503	10883.747810
509.708398	10998.262661
510.073236	11105.296439
510.438016	11114.118459
510.802738	11060.810777
511.167403	11117.972421
511.532010	11015.687409
511.896561	11245.876576
512.261053	11320.223513
512.625488	11184.858450
512.989866	11158.795685
513.354186	11156.932978
513.718449	11059.197608
514.082655	11246.778943
514.446803	11140.811368
514.810894	11269.043199
515.174927	11138.270627
515.538904	11157.734522
515.902822	11317.425673
516.266684	11194.313134
516.630488	11138.510082
516.994235	11201.370749
517.357925	11253.397978
517.721558	11346.956752
518.085133	11354.667197
518.448651	11365.356963
518.812112	11249.181053
519.175516	11268.866758
519.538863	11380.019159
519.902152	11309.687502
520.265385	11465.176851
520.628560	11374.007583
520.991678	11344.481545
521.354739	11418.715056
521.717743	11349.003460
522.080690	11316.271248
522.443580	11457.579832
522.806413	11415.377813
523.169189	11440.850763
523.531908	11497.576347
523.894569	11316.031794
524.257174	11321.428349
524.619722	11437.745412
524.982213	11387.807742
525.344647	11441.259096
525.707025	11389.932588
526.069345	11487.615027
526.431608	11396.657488
526.793815	11512.586382
527.155964	11295.733588
527.518057	11351.879439
527.880093	11300.192488
528.242072	11361.482837
528.603995	11275.521081
528.965860	11200.848990
529.327669	11243.504713
529.689421	11195.656602
530.051117	11168.585605
530.412755	11264.395255
530.774337	11156.645632
531.135862	11136.259206
531.497331	11153.240333
531.858743	11013.746565
532.220098	11170.286995
532.581396	11046.536750
532.942638	11026.233503
533.303824	10985.004426
533.664953	10993.972639
534.026025	10908.152036
534.387040	11007.382108
534.747999	11010.336224
535.108902	11066.139277
535.469748	10822.064252
535.830537	10925.672566
536.191270	10902.319421
536.551947	10920.157544
536.912567	10918.486401
537.273131	10846.274393
537.633638	10814.583179
537.994089	10808.753085
538.354483	10748.702860
538.714821	10899.773638
539.075103	10896.108719
539.435328	10869.340193
539.795497	10693.600528
540.155609	10842.024700
540.515665	10925.362535
540.875665	10665.181023
541.235609	10730.247196
541.595496	10718.345032
541.955328	10873.428568
542.315102	10750.961297
542.674821	10696.824346
543.034483	10694.271002
543.394090	10693.703872
543.753640	10618.235278
544.113134	10838.584113
544.472571	10681.784064
544.831953	10821.318161
545.191278	10627.626948
545.550548	10648.870370
545.909761	10780.847778
546.268918	10754.152348
546.628019	10828.020375
546.987064	10689.365959
547.346053	10606.670871
547.704986	10693.955930
548.063863	10677.317601
548.422684	10659.842442
548.781449	10576.020656
549.140158	10665.191106
549.498811	10537.627228
549.857408	10393.893850
550.215949	10602.655592
550.574434	10447.710688
550.932864	10538.285099
551.291237	10594.297359
551.649555	10533.362412
552.007817	10533.904336
552.366022	10490.487399
552.724173	10470.234563
553.082267	10449.036511
553.440305	10572.428834
553.798288	10371.856446
554.156215	10510.445327
554.514086	10470.519388
554.871902	10322.866513
555.229661	10343.885604
555.587365	10310.954266
555.945014	10193.928921
556.302606	10303.390015
556.660143	10190.810967
557.017625	10314.152878
557.375050	10213.475995
557.732421	10324.393982
558.089735	10233.895188
558.446994	10222.408919
558.804197	10229.532070
559.161345	10224.261543
559.518437	10073.931815
559.875474	10131.907605
560.232455	10140.958997
560.589381	10080.450027
560.946251	10049.343587
561.303065	10142.965376
561.659825	10060.005628
562.016528	9985.837652
562.373177	9861.205205
562.729770	9941.220920
563.086307	9839.752575
563.442789	9909.978369
563.799216	9774.434345
564.155587	9809.964397
564.511904	9739.673068
564.868164	9713.721208
565.224370	9711.485457
565.580520	9608.713974
565.936615	9610.559036
566.292654	9458.767373
566.648638	9556.265809
567.004567	9486.453390
567.360441	9461.454308
567.716260	9358.733237
568.072023	9426.541797
568.427732	9344.176905
568.783385	9254.061239
569.138982	9278.672152
569.494525	9269.797201
569.850013	9149.570723
570.205445	9181.453500
570.560823	9077.106657
570.916145	8974.551943
571.271412	9014.918983
571.626625	8943.642108
571.981782	8897.717197
572.336884	8846.796502
572.691931	8830.894182
573.046923	8748.186492
573.401860	8691.211371
573.756743	8603.152495
574.111570	8611.853527
574.466342	8584.943848
574.821059	8567.554388
575.175722	8457.800907
575.530330	8433.578162
575.884882	8403.873163
576.239380	8303.667628
576.593823	8275.701827
576.948211	8250.480934
577.302544	8143.376579
577.656823	8111.098071
578.011047	8088.218795
578.365216	8031.412552
578.719330	7950.973381
579.073389	7916.910305
579.427394	7862.763271
579.781344	7812.752504
580.135239	7739.905311
580.489080	7720.277578
580.842866	7606.884384
581.196597	7581.108965
581.550273	7583.868996
581.903895	7524.678288
582.257463	7549.490848
582.610975	7414.783655
582.964434	7413.173007
583.317837	7320.259500
583.671186	7288.570807
584.024481	7250.928511
584.377721	7165.322157
584.730906	7121.204499
585.084037	7111.165041
585.437113	7042.028137
585.790135	7027.804521
586.143103	6928.728204
586.496016	6885.190279
586.848874	6887.592389
587.201679	6857.539550
587.554428	6748.302788
587.907124	6750.825885
588.259765	6699.101126
588.612352	6667.170458
588.964884	6564.535086
589.317362	6540.372835
589.669786	6510.090624
590.022155	6516.407190
590.374470	6490.455330
590.726731	6430.994920
591.078937	6309.871117
591.431090	6338.961095
591.783188	6236.376135
592.135232	6198.832142
592.487222	6178.176014
592.839157	6173.419685
593.191038	6106.337051
593.542866	6047.199275
593.894639	5961.852541
594.246358	5963.148117
594.598022	5942.106341
594.949633	5859.209607
595.301190	5816.664789
595.652692	5806.153983
596.004141	5828.521583
596.355535	5689.713412
596.706876	5651.355272
597.058162	5582.561166
597.409395	5598.334937
597.760573	5601.866265
598.111698	5531.118712
598.462768	5495.175285
598.813785	5451.836485
599.164748	5404.164814
599.515657	5383.281834
599.866511	5299.172703
600.217312	5342.768601
600.568060	5250.762503
600.918753	5268.106592
601.269392	5234.514864
601.619978	5163.905942
601.970510	5167.046581
602.320988	5143.474146
602.671412	5135.408300
603.021783	5083.895269
603.372100	5048.168612
603.722363	5013.969424
604.072572	4986.749714
604.422728	4963.701558
604.772830	4909.859515
605.122878	4880.328436
605.472872	4861.482082
605.822813	4843.719576
606.172701	4802.815654
606.522534	4806.891427
606.872314	4784.193632
607.222041	4744.083691
607.571714	4746.374896
607.921333	4703.840160
608.270899	4683.859547
608.620411	4694.713151
608.969870	4641.854132
609.319276	4611.423207
609.668627	4594.840332
610.017926	4589.458900
610.367171	4581.753496
610.716362	4549.648908
611.065500	4523.117315
611.414585	4502.080580
611.763616	4486.296727
612.112594	4452.284063
612.461518	4435.020631
612.810389	4432.608439
613.159207	4385.143455
613.507971	4348.932847
613.856682	4363.279971
614.205340	4327.023992
614.553945	4334.358871
614.902496	4278.389461
615.250994	4272.582051
615.599439	4247.799739
615.947830	4226.636975
616.296169	4209.469326
616.644454	4187.696582
616.992686	4169.790404
617.340864	4167.206813
617.688990	4118.025316
618.037063	4131.248262
618.385082	4096.993622
618.733048	4099.436061
619.080961	4067.124785
619.428821	4054.811767
619.776628	4035.327707
620.124382	4002.134230
620.472083	3979.073472
620.819731	3967.617449
621.167326	3920.742280
621.514868	3907.244591
621.862357	3862.658106
622.209793	3841.732276
622.557176	3809.804128
622.904506	3777.802884
623.251783	3749.920262
623.599007	3715.592525
623.946179	3698.465204
624.293297	3672.190711
624.640363	3640.743993
624.987376	3621.239769
625.334336	3597.506016
625.681243	3566.674319
626.028097	3549.723440
626.374899	3530.972868
626.721647	3506.949249
627.068343	3489.398472
627.414987	3470.027838
627.761577	3441.968776
628.108115	3441.323508
628.454600	3406.365627
628.801032	3398.587127
629.147412	3387.975498
629.493739	3371.102756
629.840014	3349.433356
630.186236	3351.454859
630.532405	3316.713747
630.878521	3316.381031
631.224585	3295.868576
631.570597	3274.758744
631.916556	3271.774381
632.262462	3260.111672
632.608316	3243.029722
632.954117	3229.655541
633.299866	3220.551217
633.645562	3204.033876
633.991206	3185.127029
634.336797	3163.543329
634.682336	3148.787871
635.027823	3128.779532
635.373257	3119.506329
635.718639	3098.769543
636.063968	3090.612956
636.409245	3070.498752
636.754470	3056.388562
637.099642	3041.423897
637.444762	3028.354706
637.789829	3019.416740
638.134845	3006.846623
638.479808	2996.403873
638.824719	2988.514467
639.169577	2974.379072
639.514383	2968.183494
639.859137	2956.026751
640.203839	2951.187243
640.548489	2938.922116
640.893086	2929.432144
