Dividing Wavelength (nm)	Counts (n)	Blue Motor Position (mm): 29.100000	Red Motor Position (mm): 0.000000	
326.493990	2210.417412
326.888308	2210.417412
327.282561	2210.417412
327.676750	2170.108346
328.070874	2165.180618
328.464933	2170.466268
328.858929	2169.692451
329.252859	2178.186795
329.646726	2185.004956
330.040528	2195.656914
330.434265	2210.177957
330.827938	2227.350648
331.221547	2246.191960
331.615091	2262.547984
332.008571	2280.146652
332.401986	2299.378654
332.795338	2318.963537
333.188625	2339.846517
333.581847	2359.582634
333.975006	2372.525796
334.368100	2392.927346
334.761129	2413.573392
335.154095	2429.579055
335.546996	2453.975719
335.939833	2494.277223
336.332606	2506.244923
336.725315	2519.561131
337.117960	2531.886752
337.510540	2544.726571
337.903056	2555.330638
338.295508	2564.107287
338.687896	2574.363514
339.080220	2580.339802
339.472480	2588.496389
339.864676	2595.364961
340.256807	2598.858481
340.648875	2598.906372
341.040879	2605.290993
341.432818	2608.257712
341.824694	2612.353649
342.216506	2611.047991
342.608253	2611.191663
342.999937	2611.844493
343.391557	2614.886829
343.783113	2610.226282
344.174605	2611.282404
344.566033	2612.325923
344.957397	2610.475820
345.348697	2610.495984
345.739934	2607.161261
346.131106	2606.939450
346.522215	2603.476177
346.913260	2602.543564
347.304241	2598.104828
347.695159	2597.041145
348.086012	2599.344952
348.476802	2595.019642
348.867528	2589.033272
349.258191	2586.837849
349.648789	2586.646285
350.039324	2581.829463
350.429796	2585.801892
350.820203	2583.883733
351.210548	2582.497416
351.600828	2580.440625
351.991045	2581.229566
352.381198	2579.853331
352.771288	2580.841397
353.161314	2580.667477
353.551276	2580.407857
353.941175	2579.704617
354.331010	2576.143041
354.720782	2577.811663
355.110490	2579.097158
355.500135	2576.730336
355.889717	2578.295614
356.279235	2577.403330
356.668689	2580.448187
357.058080	2580.117991
357.447408	2580.992631
357.836672	2579.739905
358.225873	2579.013978
358.615010	2578.948443
359.004084	2581.658064
359.393095	2579.215625
359.782043	2579.626479
360.170927	2580.327199
360.559748	2581.290059
360.948505	2580.463310
361.337199	2584.229052
361.725830	2585.499423
362.114398	2583.455235
362.502903	2583.659402
362.891344	2585.822057
363.279722	2583.193095
363.668037	2585.509505
364.056289	2586.411872
364.444478	2587.427664
364.832603	2586.777355
365.220665	2591.589137
365.608665	2589.870103
365.996601	2588.345154
366.384474	2588.317428
366.772284	2586.792479
367.160031	2589.865062
367.547715	2590.676688
367.935336	2590.744743
368.322893	2590.601071
368.710388	2588.188878
369.097820	2587.122674
369.485189	2586.979002
369.872495	2593.129209
370.259738	2593.149374
370.646918	2593.116606
371.034035	2591.868921
371.421090	2594.959148
371.808081	2594.606267
372.195010	2596.279930
372.581875	2594.006370
372.968678	2596.849581
373.355418	2592.572162
373.742096	2595.543922
374.128710	2595.738006
374.515262	2595.997626
374.901751	2595.070053
375.288177	2596.867225
375.674540	2597.598192
376.060841	2594.848243
376.447079	2596.249683
376.833254	2597.560383
377.219367	2599.584407
377.605417	2598.797987
377.991404	2600.219592
378.377329	2598.427462
378.763191	2596.156422
379.148991	2599.004674
379.534727	2602.031887
379.920402	2597.207503
380.306013	2599.271855
380.691563	2600.499376
381.077049	2601.552977
381.462474	2602.369644
381.847835	2601.263111
382.233134	2603.090529
382.618371	2603.405601
383.003545	2603.012391
383.388657	2600.791763
383.773706	2603.070365
384.158693	2603.224120
384.543618	2604.789398
384.928480	2604.882659
385.313280	2603.612289
385.698017	2601.989037
386.082692	2602.720004
386.467305	2605.205293
386.851856	2605.951384
387.236344	2605.374172
387.620770	2604.038266
388.005133	2601.840323
388.389435	2604.746548
388.773674	2602.178080
389.157851	2607.476333
389.541965	2605.001127
389.926018	2608.396344
390.310008	2608.038422
390.693936	2607.209152
391.077802	2608.749224
391.461606	2607.995572
391.845348	2609.558330
392.229027	2609.026488
392.612645	2610.289297
392.996200	2611.352980
393.379694	2611.239554
393.763125	2607.572115
394.146494	2611.915069
394.529801	2610.611931
394.913047	2612.860285
395.296230	2613.540841
395.679351	2613.281222
396.062410	2613.558485
396.445408	2613.099740
396.828343	2612.792230
397.211217	2612.804833
397.594028	2611.862137
397.976778	2613.659308
398.359466	2615.191819
398.742092	2618.055194
399.124656	2615.592591
399.507158	2613.455142
399.889598	2617.697272
400.271977	2616.782303
400.654294	2617.185595
401.036549	2614.347426
401.418742	2617.523353
401.800874	2616.373970
402.182944	2617.477982
402.564952	2617.954371
402.946898	2619.728857
403.328783	2620.432098
403.710606	2618.463528
404.092367	2620.974023
404.474067	2619.955709
404.855705	2619.023096
405.237282	2620.548045
405.618797	2620.994187
406.000250	2622.269599
406.381642	2621.263889
406.762972	2621.427726
407.144240	2617.601491
407.525447	2621.533591
407.906593	2619.103754
408.287677	2625.024590
408.668700	2622.312449
409.049661	2621.969650
409.430560	2624.417131
409.811399	2624.873355
410.192176	2629.415435
410.572891	2623.466873
410.953545	2628.283696
411.334138	2625.203551
411.714669	2627.469549
412.095139	2630.373254
412.475547	2631.164715
412.855894	2629.554066
413.236180	2629.612040
413.616405	2630.300157
413.996568	2631.749489
414.376670	2629.556587
414.756711	2631.956176
415.136691	2632.540950
415.516609	2634.018008
415.896466	2634.035652
416.276262	2632.959366
416.655997	2635.235447
417.035670	2634.943060
417.415283	2639.671662
417.794834	2637.660242
418.174324	2639.356590
418.553753	2635.948770
418.933121	2641.541930
419.312428	2639.434728
419.691674	2640.175777
420.070859	2640.793319
420.449983	2642.464461
420.829045	2641.990593
421.208047	2644.662404
421.586988	2643.707106
421.965867	2646.144504
422.344686	2647.424957
422.723444	2646.837662
423.102141	2647.858496
423.480777	2650.416882
423.859352	2647.971922
424.237866	2653.408806
424.616319	2652.957623
424.994712	2653.555000
425.373044	2651.944351
425.751314	2653.781852
426.129524	2655.130360
426.507673	2655.521050
426.885762	2655.596667
427.263789	2663.342400
427.641756	2666.218378
428.019662	2670.800787
428.397508	2677.515604
428.775292	2681.767817
429.153016	2690.423478
429.530679	2694.559745
429.908282	2704.828576
430.285824	2714.736963
430.663305	2731.725652
431.040726	2740.083885
431.418086	2755.595515
431.795385	2776.967487
432.172624	2797.916002
432.549802	2818.786379
432.926920	2846.548013
433.303977	2866.503421
433.680974	2910.684093
434.057910	2945.215997
434.434786	2989.588233
434.811601	3022.330527
435.188355	3098.217537
435.565050	3133.722383
435.941683	3182.263653
436.318257	3280.268725
436.694770	3353.504088
437.071222	3426.066456
437.447614	3483.747339
437.823946	3546.386196
438.200218	3641.580824
438.576429	3686.595808
438.952580	3803.926143
439.328670	3899.148498
439.704700	3952.657825
440.080670	4032.910474
440.456580	4232.325917
440.832429	4288.998569
441.208218	4296.552738
441.583947	4462.290753
441.959616	4601.855097
442.335224	4657.902646
442.710773	4795.130415
443.086261	4968.425120
443.461689	4866.087176
443.837057	5161.382845
444.212365	5362.983628
444.587612	5371.833374
444.962800	5569.171862
445.337927	5606.839363
445.712995	5566.701696
446.088002	6097.822542
446.462949	6087.621767
446.837837	6199.880702
447.212664	6337.973029
447.587431	6683.077818
447.962139	7134.956767
448.336786	8285.534597
448.711374	8787.852811
449.085901	7912.731188
449.460369	7847.181065
449.834776	7713.754325
450.209124	8312.542579
450.583412	8661.463522
450.957640	9359.146611
451.331808	9068.972755
451.705917	8612.382848
452.079965	8326.133530
452.453954	9024.166979
452.827883	8919.764683
453.201752	9236.603723
453.575562	9045.710350
453.949311	9449.438718
454.323001	9545.051762
454.696632	9819.071241
455.070202	10147.157095
455.443713	10441.636097
455.817164	10905.613815
456.190556	11035.209277
456.563888	11425.591190
456.937160	11694.662777
457.310373	11292.950871
457.683526	11463.513270
458.056619	11232.290667
458.429653	11426.387692
458.802628	11112.502769
459.175542	11469.749177
459.548398	12353.503776
459.921194	12747.076739
460.293930	12861.606713
460.666607	13729.254825
461.039224	14680.739846
461.411782	15383.012906
461.784280	15435.284630
462.156719	15594.784217
462.529099	15412.203707
462.901419	14533.724676
463.273680	14432.291620
463.645882	14361.183624
464.018024	14185.411192
464.390106	14444.289566
464.762130	15192.180027
465.134094	15907.358441
465.505999	17742.111589
465.877845	20862.605984
466.249631	23654.694412
466.621358	23533.227811
466.993026	22249.883632
467.364634	21791.481430
467.736184	20458.270158
468.107674	19699.664724
468.479105	19860.568273
468.850477	19376.718327
469.221790	18993.109204
469.593043	18363.993369
469.964238	17843.216971
470.335373	17551.918937
470.706449	17965.999314
471.077467	17515.952825
471.448425	19325.391819
471.819324	23269.154528
472.190164	25397.938015
472.560945	21981.295996
472.931667	19593.097252
473.302330	18959.119224
473.672934	18437.879040
474.043479	18831.315892
474.413965	18657.496907
474.784393	18296.046177
475.154761	18948.757132
475.525070	18989.343462
475.895321	18645.272109
476.265513	19215.315704
476.635645	19785.868455
477.005719	19604.424725
477.375734	19806.317896
477.745691	20274.681417
478.115588	20776.896287
478.485427	21284.890839
478.855207	22328.908760
479.224928	24068.512649
479.594591	26279.555165
479.964194	26383.838994
480.333739	26598.030059
480.703226	26158.207030
481.072653	25829.493552
481.442022	26368.697888
481.811333	27275.803111
482.180584	27233.076812
482.549777	26284.041792
482.918912	25917.595277
483.287988	26029.259356
483.657005	25733.197431
484.025964	25439.744304
484.394864	25397.043211
484.763706	25089.063999
485.132489	24510.379866
485.501213	24668.979608
485.869879	24599.779689
486.238487	24387.816813
486.607036	24548.632142
486.975527	24231.311672
487.343959	24566.429935
487.712333	24520.878069
488.080648	24197.999727
488.448905	24658.458719
488.817104	24407.747015
489.185244	25066.250257
489.553326	25050.118565
489.921350	25994.167884
490.289315	28261.157124
490.657222	30078.709855
491.025070	30576.392728
491.392861	30371.101820
491.760593	29538.572906
492.128267	28645.862698
492.495883	27624.368653
492.863440	26737.135658
493.230939	25852.667736
493.598380	25706.300355
493.965763	25309.521218
494.333088	24862.822055
494.700354	24764.980821
495.067563	24666.002806
495.434713	24419.409725
495.801805	24561.446755
496.168839	24373.736871
496.535815	24205.803433
496.902733	24423.535909
497.269593	24080.369443
497.636395	24287.762512
498.003139	24260.179839
498.369825	24013.223795
498.736453	24206.884761
499.103023	24086.625515
499.469535	24105.789462
499.835989	24299.553771
500.202385	24333.120294
500.568723	23831.374252
500.935003	24101.481796
501.301226	23685.682385
501.667390	24514.369940
502.033497	24764.174236
502.399546	24494.114583
502.765537	24077.432971
503.131470	24461.790705
503.497345	24595.449337
503.863163	23812.442199
504.228923	24427.808287
504.594625	24616.465908
504.960269	24134.282063
505.325856	24630.465192
505.691385	24042.855697
506.056856	24647.373222
506.422270	24622.595951
506.787625	24202.264543
507.152924	24604.417550
507.518164	24637.459793
507.883347	24444.940648
508.248472	24134.476148
508.613540	24909.873665
508.978550	24685.527195
509.343503	24682.842781
509.708398	24958.530882
510.073236	25121.246725
510.438016	25309.468286
510.802738	24995.759803
511.167403	25245.438070
511.532010	24938.081441
511.896561	25727.500928
512.261053	25687.517016
512.625488	25528.503900
512.989866	25419.587251
513.354186	25271.316834
513.718449	25372.109664
514.082655	25753.382211
514.446803	25486.012014
514.810894	25951.323117
515.174927	25429.379692
515.538904	25460.723066
515.902822	25949.349505
516.266684	25707.565685
516.630488	25616.487158
516.994235	25614.896674
517.357925	25886.970268
517.721558	26079.370945
518.085133	26163.802711
518.448651	26085.127943
518.812112	25806.120242
519.175516	26011.035584
519.538863	26162.403790
519.902152	25952.124661
520.265385	26241.423877
520.628560	26034.234974
520.991678	26045.857355
521.354739	26124.562369
521.717743	26176.299731
522.080690	25973.395809
522.443580	26301.466540
522.806413	26288.810723
523.169189	26393.205458
523.531908	26439.155575
523.894569	26042.109257
524.257174	26124.539684
524.619722	26308.277139
524.982213	25992.529509
525.344647	26065.164974
525.707025	26195.786311
526.069345	26183.601842
526.431608	26136.346066
526.793815	26328.237587
527.155964	25781.700893
527.518057	25951.476872
527.880093	25882.677725
528.242072	26110.326151
528.603995	25809.974204
528.965860	25614.629493
529.327669	25672.204511
529.689421	25646.910522
530.051117	25467.868902
530.412755	25656.201368
530.774337	25468.481402
531.135862	25333.610372
531.497331	25539.745673
531.858743	25085.530150
532.220098	25569.465796
532.581396	25239.207204
532.942638	25186.501941
533.303824	25273.623162
533.664953	25293.608816
534.026025	24956.239677
534.387040	25193.252046
534.747999	25253.408135
535.108902	25413.736992
535.469748	24905.195474
535.830537	25103.738797
536.191270	25210.540683
536.551947	25091.912251
536.912567	24754.137299
537.273131	25081.161990
537.633638	24797.650018
537.994089	24992.208310
538.354483	24544.548807
538.714821	25044.500199
539.075103	25090.878814
539.435328	24879.581371
539.795497	24425.539768
540.155609	24821.119110
540.515665	25128.110256
540.875665	24364.594738
541.235609	24653.770446
541.595496	24616.491114
541.955328	24969.145031
542.315102	24886.089501
542.674821	24445.288488
543.034483	24327.416229
543.394090	24483.729807
543.753640	24265.818370
544.113134	24910.395424
544.472571	24511.241904
544.831953	24800.437776
545.191278	24410.348251
545.550548	24330.574512
545.909761	24549.156422
546.268918	24779.547235
546.628019	24733.639967
546.987064	24447.665392
547.346053	24213.123189
547.704986	24329.185674
548.063863	24483.671833
548.422684	24470.748835
548.781449	24040.781262
549.140158	24431.899183
549.498811	24000.855324
549.857408	23747.408793
550.215949	24182.926677
550.574434	23869.833215
550.932864	24076.707045
551.291237	24220.505958
551.649555	24094.945940
552.007817	24161.998327
552.366022	24014.027859
552.724173	24068.111878
553.082267	23997.419777
553.440305	24475.782428
553.798288	23737.775148
554.156215	24268.195274
554.514086	24345.632438
554.871902	23716.751016
555.229661	24004.502598
555.587365	23872.709193
555.945014	23724.201842
556.302606	23972.392969
556.660143	23908.609770
557.017625	24173.628269
557.375050	23706.220046
557.732421	24090.275311
558.089735	23905.685901
558.446994	23962.164468
558.804197	23995.035312
559.161345	23942.478762
559.518437	23683.779350
559.875474	23890.688468
560.232455	24067.363266
560.589381	23900.337237
560.946251	23879.129102
561.303065	24201.223545
561.659825	24289.569766
562.016528	23888.828282
562.373177	23629.559219
562.729770	23993.248222
563.086307	23855.667572
563.442789	24015.015925
563.799216	23843.478062
564.155587	23852.171532
564.511904	23834.920704
564.868164	23759.988993
565.224370	23759.542851
565.580520	23652.037724
565.936615	23795.703047
566.292654	23465.673828
566.648638	23785.461943
567.004567	23590.757458
567.360441	23551.567528
567.716260	23279.826651
568.072023	23619.968424
568.427732	23363.454352
568.783385	23158.244102
569.138982	23386.258011
569.494525	23417.697167
569.850013	23166.486389
570.205445	23256.357559
570.560823	23060.216345
570.916145	22824.519718
571.271412	22996.866685
571.626625	22750.407194
571.981782	22879.042317
572.336884	22672.226460
572.691931	22805.895175
573.046923	22534.570192
573.401860	22419.210948
573.756743	22429.517587
574.111570	22331.711641
574.466342	22271.202672
574.821059	22363.337320
575.175722	22069.473339
575.530330	22057.500598
575.884882	22082.933219
576.239380	21980.078558
576.593823	21878.199359
576.948211	21860.341071
577.302544	21697.620187
577.656823	21562.179507
578.011047	21664.756905
578.365216	21540.671424
578.719330	21420.770100
579.073389	21314.011064
579.427394	21457.973815
579.781344	21230.519474
580.135239	21128.751181
580.489080	21083.990776
580.842866	20852.712720
581.196597	21044.609282
581.550273	21028.840553
581.903895	20916.793347
582.257463	21239.656566
582.610975	20761.230901
582.964434	21071.345042
583.317837	20772.253384
583.671186	20865.718897
584.024481	20825.913946
584.377721	20605.602920
584.730906	20657.620066
585.084037	20678.891215
585.437113	20593.547001
585.790135	20789.831888
586.143103	20260.480487
586.496016	20269.204203
586.848874	20515.804847
587.201679	20431.904923
587.554428	20120.129723
587.907124	20454.655651
588.259765	20223.919518
588.612352	20310.655091
588.964884	19879.719616
589.317362	20051.839732
589.669786	20108.580439
590.022155	20138.350973
590.374470	20341.872436
590.726731	20132.830910
591.078937	19882.474607
591.431090	19990.549383
591.783188	19730.670341
592.135232	19704.378203
592.487222	19799.313212
592.839157	19833.550209
593.191038	19701.582883
593.542866	19602.882132
593.894639	19313.356064
594.246358	19535.166833
594.598022	19443.196022
594.949633	19193.023722
595.301190	19147.202154
595.652692	19326.755451
596.004141	19565.638088
596.355535	18890.332680
596.706876	18902.862468
597.058162	18795.952198
597.409395	19014.158542
597.760573	19092.684595
598.111698	18875.950268
598.462768	18809.369229
598.813785	18776.495864
599.164748	18597.224872
599.515657	18635.625861
599.866511	18425.586186
600.217312	18775.626265
600.568060	18312.621490
600.918753	18613.202809
601.269392	18531.067289
601.619978	18294.193552
601.970510	18513.463580
602.320988	18464.640005
602.671412	18665.255243
603.021783	18569.601869
603.372100	18296.076423
603.722363	18435.557589
604.072572	18383.522799
604.422728	18523.586217
604.772830	18289.263304
605.122878	18230.259119
605.472872	18217.779742
605.822813	18209.565182
606.172701	18170.629831
606.522534	18377.226397
606.872314	18398.890756
607.222041	18223.942553
607.571714	18447.971430
607.921333	18264.579294
608.270899	18353.618674
608.620411	18536.932672
608.969870	18291.501576
609.319276	18298.675138
609.668627	18333.391044
610.017926	18461.275035
610.367171	18584.130475
610.716362	18624.487432
611.065500	18444.934135
611.414585	18568.190346
611.763616	18561.493173
612.112594	18504.596191
612.461518	18468.020099
612.810389	18668.796654
613.159207	18512.851080
613.507971	18424.220034
613.856682	18708.218477
614.205340	18637.009658
614.553945	18771.069062
614.902496	18525.653090
615.250994	18761.947094
615.599439	18706.607828
615.947830	18690.624850
616.296169	18741.875740
616.644454	18701.362508
616.992686	18667.634668
617.340864	18891.235047
617.688990	18642.784300
618.037063	18817.810641
618.385082	18659.664603
618.733048	18955.915571
619.080961	18812.779569
619.428821	18856.955200
619.776628	18737.636130
620.124382	18665.424122
620.472083	18694.587197
620.819731	18728.872084
621.167326	18421.946473
621.514868	18447.563097
621.862357	18227.617554
622.209793	18238.604749
622.557176	18068.075117
622.904506	17896.532214
623.251783	17805.919994
623.599007	17573.759736
623.946179	17511.493924
624.293297	17452.976210
624.640363	17223.195377
624.987376	17239.506030
625.334336	17024.440325
625.681243	16862.810850
626.028097	16878.836678
626.374899	16806.924618
626.721647	16672.104000
627.068343	16502.025552
627.414987	16430.065601
627.761577	16408.963331
628.108115	16451.908921
628.454600	16180.493197
628.801032	16262.752225
629.147412	16201.661002
629.493739	16215.836727
629.840014	16022.732808
630.186236	16125.456400
630.532405	15893.848149
630.878521	16089.187819
631.224585	15976.606251
631.570597	15799.253417
631.916556	15833.167780
632.262462	15809.353369
632.608316	15730.217336
632.954117	15669.657955
633.299866	15661.506409
633.645562	15587.681232
633.991206	15341.118397
634.336797	15210.728953
634.682336	15179.574622
635.027823	15067.008177
635.373257	14952.553820
635.718639	14858.112844
636.063968	14804.104442
636.409245	14553.672522
636.754470	14580.181430
