Dividing Wavelength (nm)	Counts (n)	Blue Motor Position (mm): 0.000000	Red Motor Position (mm): 17.000000	
326.493990	2082.462845
326.888308	2082.462845
327.282561	2082.462845
327.676750	2057.758671
328.070874	2060.576676
328.464933	2068.042625
328.858929	2079.458318
329.252859	2090.465677
329.646726	2105.712647
330.040528	2117.813937
330.434265	2140.484005
330.827938	2158.488486
331.221547	2178.348112
331.615091	2199.006760
332.008571	2220.058619
332.401986	2241.959912
332.795338	2262.507655
333.188625	2279.766045
333.581847	2299.771864
333.975006	2316.009421
334.368100	2335.485918
334.761129	2353.417303
335.154095	2367.552698
335.546996	2383.097096
335.939833	2401.240209
336.332606	2413.439801
336.725315	2427.986050
337.117960	2433.405291
337.510540	2444.084975
337.903056	2452.566717
338.295508	2457.116358
338.687896	2463.579117
339.080220	2473.774851
339.472480	2477.868268
339.864676	2480.943372
340.256807	2483.443784
340.648875	2485.130050
341.040879	2488.033754
341.432818	2487.832108
341.824694	2491.933087
342.216506	2488.157263
342.608253	2488.918477
342.999937	2488.812613
343.391557	2486.491161
343.783113	2488.467294
344.174605	2482.821201
344.566033	2481.545789
344.957397	2482.463279
345.348697	2478.137969
345.739934	2478.153093
346.131106	2476.532362
346.522215	2475.841724
346.913260	2472.169243
347.304241	2471.249233
347.695159	2467.861577
348.086012	2468.559777
348.476802	2465.449385
348.867528	2464.247070
349.258191	2463.644652
349.648789	2462.107100
350.039324	2465.600620
350.429796	2464.778912
350.820203	2463.241360
351.210548	2460.564507
351.600828	2460.335135
351.991045	2459.853704
352.381198	2457.988478
352.771288	2457.227263
353.161314	2461.983592
353.551276	2459.699949
353.941175	2459.226081
354.331010	2460.582151
354.720782	2460.453602
355.110490	2461.189610
355.500135	2462.034003
355.889717	2461.000567
356.279235	2460.793880
356.668689	2464.292440
357.058080	2462.303705
357.447408	2461.434106
357.836672	2461.247583
358.225873	2464.126082
358.615010	2459.198354
359.004084	2468.693368
359.393095	2467.049952
359.782043	2467.170939
360.170927	2467.218830
360.559748	2469.827627
360.948505	2467.745631
361.337199	2470.213276
361.725830	2472.396095
362.114398	2471.080354
362.502903	2472.002885
362.891344	2472.101188
363.279722	2470.530868
363.668037	2475.229224
364.056289	2477.187712
364.444478	2478.526138
364.832603	2479.065542
365.220665	2476.915490
365.608665	2477.225521
365.996601	2479.047898
366.384474	2477.016313
366.772284	2479.352887
367.160031	2480.134266
367.547715	2480.197281
367.935336	2480.298104
368.322893	2482.468321
368.710388	2482.780872
369.097820	2486.987715
369.485189	2486.327324
369.872495	2486.029896
370.259738	2488.305977
370.646918	2490.246821
371.034035	2490.566934
371.421090	2493.654641
371.808081	2496.999447
372.195010	2502.832062
372.581875	2504.339367
372.968678	2512.208608
373.355418	2516.922087
373.742096	2525.678571
374.128710	2534.530837
374.515262	2545.422250
374.901751	2559.086297
375.288177	2570.776733
375.674540	2588.771132
376.060841	2608.746704
376.447079	2630.532050
376.833254	2654.328817
377.219367	2674.390089
377.605417	2705.798998
377.991404	2728.728686
378.377329	2769.355345
378.763191	2796.380971
379.148991	2841.458968
379.534727	2887.860269
379.920402	2933.260900
380.306013	2976.445945
380.691563	3036.816283
381.077049	3090.718820
381.462474	3141.929382
381.847835	3212.727346
382.233134	3276.346708
382.618371	3331.683453
383.003545	3416.412647
383.388657	3493.665809
383.773706	3578.236206
384.158693	3644.965959
384.543618	3732.495513
384.928480	3807.661638
385.313280	3905.288623
385.698017	4004.312008
386.082692	4116.946509
386.467305	4181.322043
386.851856	4299.620280
387.236344	4446.884987
387.620770	4508.439996
388.005133	4621.898725
388.389435	4755.680866
388.773674	4836.427547
389.157851	4961.448163
389.541965	5092.238379
389.926018	5118.633860
390.310008	5287.439417
390.693936	5404.522736
391.077802	5514.432493
391.461606	5637.600484
391.845348	5751.215489
392.229027	5869.319641
392.612645	6080.415438
392.996200	6195.114291
393.379694	6362.886411
393.763125	6575.870120
394.146494	6662.739283
394.529801	6802.492671
394.913047	7026.526589
395.296230	7024.931064
395.679351	7075.662715
396.062410	7327.112949
396.445408	7226.526806
396.828343	7381.186885
397.211217	7508.677666
397.594028	7398.263794
397.976778	7597.901048
398.359466	7760.107735
398.742092	7738.201401
399.124656	7882.650623
399.507158	8062.960093
399.889598	8086.633352
400.271977	8293.885269
400.654294	8327.078746
401.036549	8521.440433
401.418742	8550.059063
401.800874	8844.021347
402.182944	8929.249614
402.564952	9274.924054
402.946898	9119.444787
403.328783	9172.074433
403.710606	9359.799441
404.092367	9609.170198
404.474067	9962.658426
404.855705	9763.353888
405.237282	9720.957785
405.618797	10141.528647
406.000250	10367.722700
406.381642	10720.578263
406.762972	10669.433237
407.144240	10476.936777
407.525447	10717.377130
407.906593	10660.144911
408.287677	10913.127655
408.668700	11044.429548
409.049661	11026.689728
409.430560	11163.476396
409.811399	11126.328133
410.192176	11269.607808
410.572891	11328.687610
410.953545	11769.962492
411.334138	11248.986968
411.714669	11784.733073
412.095139	11129.488937
412.475547	11557.629092
412.855894	11397.630430
413.236180	11668.153869
413.616405	11331.677015
413.996568	11553.744883
414.376670	11479.221505
414.756711	11321.972793
415.136691	11526.341170
415.516609	11618.874070
415.896466	11629.820935
416.276262	11808.970940
416.655997	12137.288687
417.035670	12089.344794
417.415283	12556.775702
417.794834	12531.426260
418.174324	12205.707227
418.553753	12025.833817
418.933121	12335.963081
419.312428	12077.787948
419.691674	11892.548230
420.070859	12149.137919
420.449983	11757.684762
420.829045	12061.648694
421.208047	11743.370405
421.586988	11955.729011
421.965867	12001.290959
422.344686	11856.314937
422.723444	12118.580965
423.102141	11032.035871
423.480777	11720.919627
423.859352	11216.645446
424.237866	11802.409878
424.616319	11444.263624
424.994712	11698.872140
425.373044	11392.001982
425.751314	11635.340999
426.129524	10922.955384
426.507673	11373.909281
426.885762	11030.768021
427.263789	10930.101220
427.641756	10840.139309
428.019662	10678.033445
428.397508	10512.630667
428.775292	10453.200504
429.153016	10246.755172
429.530679	10083.820038
429.908282	9898.247604
430.285824	9581.166588
430.663305	9692.467704
431.040726	9336.148868
431.418086	9067.278927
431.795385	9133.108835
432.172624	9106.751162
432.549802	8745.736491
432.926920	8627.256772
433.303977	8398.038028
433.680974	8289.907798
434.057910	8207.308492
434.434786	8026.194958
434.811601	7814.040519
435.188355	7946.383411
435.565050	7656.769122
435.941683	7462.578835
436.318257	7525.898248
436.694770	7289.954604
437.071222	7260.254646
437.447614	6852.891606
437.823946	6681.111768
438.200218	6560.348408
438.576429	6348.824113
438.952580	6258.252222
439.328670	6094.361790
439.704700	6018.177352
440.080670	5797.974711
440.456580	5755.369400
440.832429	5642.697091
441.208218	5344.522923
441.583947	5277.828457
441.959616	5167.109596
442.335224	5070.392538
442.710773	4970.408814
443.086261	4913.952932
443.461689	4724.080393
443.837057	4624.910814
444.212365	4587.129887
444.587612	4484.663394
444.962800	4341.502186
445.337927	4283.022281
445.712995	4084.541972
446.088002	4139.132627
446.462949	4071.177873
446.837837	3994.834639
447.212664	3915.844799
447.587431	4010.305940
447.962139	4108.890745
448.336786	4167.184127
448.711374	3989.216273
449.085901	3717.477916
449.460369	3632.902478
449.834776	3565.086356
450.209124	3605.397943
450.583412	3530.498999
450.957640	3490.207577
451.331808	3385.144890
451.705917	3290.431692
452.079965	3241.807242
452.453954	3209.122921
452.827883	3168.650017
453.201752	3125.666619
453.575562	3095.439861
453.949311	3085.972574
454.323001	3060.633214
454.696632	3028.256403
455.070202	3034.018442
455.443713	3007.386027
455.817164	2994.979747
456.190556	2978.298569
456.563888	2951.255299
456.937160	2936.409101
457.310373	2898.943246
457.683526	2888.112327
458.056619	2875.325440
458.429653	2858.722400
458.802628	2855.831298
459.175542	2844.332426
459.548398	2847.470544
459.921194	2856.940352
460.293930	2857.555372
460.666607	2871.683206
461.039224	2879.867519
461.411782	2876.258053
461.784280	2856.882378
462.156719	2845.456603
462.529099	2834.083760
462.901419	2815.197077
463.273680	2797.074129
463.645882	2795.433234
464.018024	2788.751184
464.390106	2794.241001
464.762130	2814.145997
465.134094	2847.720081
465.505999	2891.048799
465.877845	2926.916608
466.249631	2930.437854
466.621358	2911.989752
466.993026	2891.593243
467.364634	2871.627753
467.736184	2851.745443
468.107674	2838.633402
468.479105	2829.140909
468.850477	2823.842656
469.221790	2809.102322
469.593043	2794.180507
469.964238	2787.279167
470.335373	2782.832870
470.706449	2797.280817
471.077467	2814.400575
471.448425	2850.180164
471.819324	2874.385265
472.190164	2859.670137
472.560945	2832.931857
472.931667	2806.228865
473.302330	2796.547329
473.672934	2791.652368
474.043479	2795.516413
474.413965	2786.001235
474.784393	2780.811367
475.154761	2792.668161
475.525070	2791.135650
475.895321	2787.997532
476.265513	2792.030455
476.635645	2803.683082
477.005719	2806.228865
477.375734	2809.102322
477.745691	2814.324958
478.115588	2825.324755
478.485427	2844.153465
478.855207	2872.454503
479.224928	2892.296484
479.594591	2909.272570
479.964194	2901.799059
480.333739	2905.544637
480.703226	2904.130593
481.072653	2913.217273
481.442022	2916.128539
481.811333	2921.411668
482.180584	2908.115625
482.549777	2904.304513
482.918912	2901.867115
483.287988	2899.026425
483.657005	2890.595095
484.025964	2885.604353
484.394864	2885.478324
484.763706	2883.766852
485.132489	2876.989021
485.501213	2872.588093
485.869879	2876.038763
486.238487	2869.001312
486.607036	2871.607589
486.975527	2867.569625
487.343959	2866.526106
487.712333	2864.365971
488.080648	2863.556866
488.448905	2866.818493
488.817104	2862.689788
489.185244	2869.253370
489.553326	2879.590256
489.921350	2901.506672
490.289315	2922.155238
490.657222	2926.967020
491.025070	2925.926022
491.392861	2916.373035
491.760593	2903.964235
492.128267	2887.567882
492.495883	2873.228320
492.863440	2858.956813
493.230939	2845.348218
493.598380	2838.063751
493.965763	2827.694098
494.333088	2820.432316
494.700354	2815.764207
495.067563	2812.928558
495.434713	2804.020839
495.801805	2810.894452
496.168839	2804.903041
496.535815	2802.059830
496.902733	2800.212247
497.269593	2797.648821
497.636395	2792.736216
498.003139	2795.481125
498.369825	2790.117337
498.736453	2791.039868
499.103023	2786.321348
499.469535	2786.028961
499.835989	2785.439146
500.202385	2781.633075
500.568723	2781.842283
500.935003	2782.732047
501.301226	2780.352622
501.667390	2781.680966
502.033497	2784.897222
502.399546	2779.326747
502.765537	2774.472116
503.131470	2777.040584
503.497345	2780.501336
503.863163	2769.907351
504.228923	2772.009512
504.594625	2776.717950
504.960269	2771.555808
505.325856	2774.172167
505.691385	2768.871394
506.056856	2769.466250
506.422270	2773.199225
506.787625	2770.610592
507.152924	2770.214862
507.518164	2770.179573
507.883347	2767.099428
508.248472	2767.079264
508.613540	2769.299892
508.978550	2768.823503
509.343503	2767.875766
509.708398	2768.808380
510.073236	2770.413987
510.438016	2768.276538
510.802738	2765.597165
511.167403	2769.683020
511.532010	2771.137393
511.896561	2770.625716
512.261053	2776.959925
512.625488	2768.639501
512.989866	2766.635642
513.354186	2766.262597
513.718449	2762.968203
514.082655	2769.365427
514.446803	2768.067330
514.810894	2770.149327
515.174927	2769.980448
515.538904	2767.175046
515.902822	2767.812752
516.266684	2765.864346
516.630488	2766.885179
516.994235	2765.531630
517.357925	2768.168153
517.721558	2766.612957
518.085133	2767.137237
518.448651	2766.738986
518.812112	2765.672782
519.175516	2765.244284
519.538863	2763.870569
519.902152	2763.124479
520.265385	2766.915426
520.628560	2763.013573
520.991678	2757.019641
521.354739	2763.026176
521.717743	2763.197575
522.080690	2759.988881
522.443580	2763.520209
522.806413	2761.208840
523.169189	2758.756319
523.531908	2757.122985
523.894569	2756.767584
524.257174	2757.523757
524.619722	2753.707603
524.982213	2753.662233
525.344647	2752.313724
525.707025	2752.485123
526.069345	2752.764907
526.431608	2747.890112
526.793815	2750.773652
527.155964	2746.140831
527.518057	2747.292735
527.880093	2745.571181
528.242072	2742.974987
528.603995	2742.609503
528.965860	2741.515573
529.327669	2737.948956
529.689421	2737.243195
530.051117	2736.570201
530.412755	2738.001888
530.774337	2733.855539
531.135862	2731.037534
531.497331	2729.477297
531.858743	2724.421020
532.220098	2727.796072
532.581396	2724.695763
532.942638	2722.883468
533.303824	2725.169631
533.664953	2724.065619
534.026025	2723.523695
534.387040	2722.946482
534.747999	2720.521687
535.108902	2721.850032
535.469748	2716.660164
535.830537	2717.610421
536.191270	2712.665049
536.551947	2715.185626
536.912567	2712.970039
537.273131	2712.216387
537.633638	2708.831252
537.994089	2711.026674
538.354483	2706.618185
538.714821	2706.676158
539.075103	2710.353680
539.435328	2707.669266
539.795497	2705.443596
540.155609	2704.044676
540.515665	2703.659028
540.875665	2704.074923
541.235609	2701.897145
541.595496	2701.014943
541.955328	2703.414532
542.315102	2697.279448
542.674821	2697.360106
543.034483	2699.573173
543.394090	2693.528829
543.753640	2693.460774
544.113134	2695.686443
544.472571	2693.027234
544.831953	2694.378264
545.191278	2692.137471
545.550548	2690.284847
545.909761	2690.945238
546.268918	2690.305011
546.628019	2691.741740
546.987064	2687.300484
547.346053	2685.883919
547.704986	2688.026410
548.063863	2683.504495
548.422684	2682.239165
548.781449	2683.938034
549.140158	2683.537262
549.498811	2684.860565
549.857408	2680.910821
550.215949	2681.924093
550.574434	2679.322858
550.932864	2680.936027
551.291237	2677.538289
551.649555	2679.128773
552.007817	2681.435101
552.366022	2674.788340
552.724173	2676.913186
553.082267	2677.281190
553.440305	2679.544668
553.798288	2675.804132
554.156215	2676.764472
554.514086	2676.338495
554.871902	2672.925633
555.229661	2672.431600
555.587365	2671.120900
555.945014	2675.264729
556.302606	2672.976045
556.660143	2672.300530
557.017625	2674.032167
557.375050	2670.173163
557.732421	2673.341529
558.089735	2669.583348
558.446994	2671.617454
558.804197	2671.085612
559.161345	2668.701147
559.518437	2667.090498
559.875474	2666.432627
560.232455	2665.195024
560.589381	2665.709222
560.946251	2669.356497
561.303065	2666.258707
561.659825	2664.552277
562.016528	2664.287616
562.373177	2661.880465
562.729770	2664.532112
563.086307	2663.728048
563.442789	2661.648572
563.799216	2663.987668
564.155587	2660.191679
564.511904	2661.517502
564.868164	2659.942142
565.224370	2660.650424
565.580520	2659.977430
565.936615	2661.479694
566.292654	2657.023314
566.648638	2657.910557
567.004567	2659.279230
567.360441	2658.487769
567.716260	2657.287974
568.072023	2657.527429
568.427732	2652.292191
568.783385	2653.965854
569.138982	2651.384783
569.494525	2653.408806
569.850013	2651.094917
570.205445	2653.368477
570.560823	2653.905360
570.916145	2650.447128
571.271412	2651.198260
571.626625	2652.433343
571.981782	2648.866727
572.336884	2650.845380
572.691931	2652.178765
573.046923	2650.205153
573.401860	2648.105512
573.756743	2649.075935
574.111570	2647.883702
574.466342	2648.536531
574.821059	2647.727426
575.175722	2645.978146
575.530330	2647.238434
575.884882	2643.336581
576.239380	2643.697023
576.593823	2642.517393
576.948211	2641.763741
577.302544	2639.984214
577.656823	2641.783906
578.011047	2642.081334
578.365216	2642.202321
578.719330	2640.437917
579.073389	2637.720736
579.427394	2636.770478
579.781344	2638.103863
580.135239	2636.654532
580.489080	2638.552526
580.842866	2635.386681
581.196597	2636.077319
581.550273	2636.147896
581.903895	2633.909623
582.257463	2637.972793
582.610975	2634.454068
582.964434	2634.481794
583.317837	2631.202524
583.671186	2631.537760
584.024481	2629.080198
584.377721	2632.654376
584.730906	2632.732514
585.084037	2630.249746
585.437113	2632.190590
585.790135	2630.126237
586.143103	2629.642287
586.496016	2626.809158
586.848874	2625.740433
587.201679	2628.838222
587.554428	2624.747326
587.907124	2625.551390
588.259765	2622.798920
588.612352	2624.772532
588.964884	2622.128447
589.317362	2625.120372
589.669786	2624.510392
590.022155	2626.325207
590.374470	2626.058026
590.726731	2624.462501
591.078937	2622.892182
591.431090	2623.282871
591.783188	2621.629372
592.135232	2620.190123
592.487222	2619.272633
592.839157	2622.564507
593.191038	2620.512757
593.542866	2620.603498
593.894639	2618.332458
594.246358	2616.815071
594.598022	2617.442694
594.949633	2616.104268
595.301190	2615.612755
595.652692	2617.288939
596.004141	2615.532097
596.355535	2615.965636
596.706876	2613.394648
597.058162	2610.281735
597.409395	2612.063783
597.760573	2612.827518
598.111698	2612.230141
598.462768	2613.573609
598.813785	2611.226952
599.164748	2608.603031
599.515657	2609.462548
599.866511	2608.998762
600.217312	2608.320726
600.568060	2607.519183
600.918753	2610.889194
601.269392	2605.525407
601.619978	2609.177723
601.970510	2608.804677
602.320988	2609.437342
602.671412	2608.333329
603.021783	2609.570933
603.372100	2608.683689
603.722363	2609.636467
604.072572	2607.315016
604.422728	2607.831734
604.772830	2604.252515
605.122878	2603.297217
605.472872	2603.077926
605.822813	2601.963831
606.172701	2602.987186
606.522534	2604.328132
606.872314	2604.282762
607.222041	2604.307968
607.571714	2605.162443
607.921333	2605.797629
608.270899	2606.631940
608.620411	2605.631271
608.969870	2605.124635
609.319276	2604.451641
609.668627	2603.269490
610.017926	2603.377875
610.367171	2606.173195
610.716362	2605.389295
611.065500	2606.082454
611.414585	2604.071034
611.763616	2602.835951
612.112594	2607.506580
612.461518	2606.674790
612.810389	2604.043307
613.159207	2601.779829
613.507971	2602.536002
613.856682	2604.590272
614.205340	2607.027670
614.553945	2606.185798
614.902496	2603.135900
615.250994	2605.694285
615.599439	2603.138420
615.947830	2607.955243
616.296169	2604.335694
616.644454	2605.764861
616.992686	2603.632453
617.340864	2605.285952
617.688990	2605.487598
618.037063	2605.411981
618.385082	2603.506424
618.733048	2607.811570
619.080961	2607.224275
619.428821	2604.736466
619.776628	2606.465582
620.124382	2602.790581
620.472083	2605.301075
620.819731	2603.816455
621.167326	2605.127155
621.514868	2604.968359
621.862357	2601.628595
622.209793	2602.586414
622.557176	2600.758996
622.904506	2598.682040
623.251783	2595.586772
623.599007	2597.257914
623.946179	2593.323294
624.293297	2595.191041
624.640363	2593.282964
624.987376	2594.170207
625.334336	2593.290526
625.681243	2594.444950
626.028097	2596.617688
626.374899	2593.708942
626.721647	2594.684405
627.068343	2593.219950
627.414987	2592.670464
627.761577	2592.501586
628.108115	2591.783221
628.454600	2594.361771
628.801032	2589.930597
629.147412	2590.981678
629.493739	2590.502768
629.840014	2591.193406
630.186236	2588.340113
630.532405	2588.236769
630.878521	2586.885740
631.224585	2589.139136
631.570597	2587.377253
631.916556	2585.837180
632.262462	2588.942531
632.608316	2590.044023
632.954117	2586.323652
633.299866	2585.791810
633.645562	2584.828949
633.991206	2582.603280
634.336797	2583.674525
634.682336	2583.228383
635.027823	2582.099165
635.373257	2581.716037
635.718639	2580.450707
636.063968	2581.562282
636.409245	2579.331571
636.754470	2577.975501
637.099642	2580.503639
637.444762	2579.641602
637.789829	2576.115315
638.134845	2577.796540
638.479808	2574.892835
638.824719	2575.412074
639.169577	2576.319482
639.514383	2576.337126
639.859137	2575.666652
640.203839	2575.127249
640.548489	2573.199007
640.893086	2570.842268
641.237632	2569.206414
641.582125	2571.164902
641.926566	2569.803790
642.270955	2573.057855
642.615292	2573.519121
642.959576	2573.637588
643.303809	2572.964594
643.647990	2572.019377
