Dividing Wavelength (nm)	Counts (n)	Blue Motor Position (mm): 0.300000	Red Motor Position (mm): 0.000000	
326.493990	2167.250012
326.888308	2167.250012
327.282561	2167.250012
327.676750	2127.009001
328.070874	2123.472632
328.464933	2123.422220
328.858929	2125.859618
329.252859	2130.189969
329.646726	2140.050466
330.040528	2153.792652
330.434265	2165.790598
330.827938	2182.834739
331.221547	2201.232430
331.615091	2219.410831
332.008571	2237.785836
332.401986	2254.277971
332.795338	2274.906373
333.188625	2293.306584
333.581847	2310.746456
333.975006	2329.786894
334.368100	2348.968484
334.761129	2364.424662
335.154095	2381.856972
335.546996	2398.575959
335.939833	2414.755542
336.332606	2430.529312
336.725315	2444.021961
337.117960	2457.237346
337.510540	2469.757051
337.903056	2480.048567
338.295508	2488.134578
338.687896	2495.471977
339.080220	2504.848523
339.472480	2512.289266
339.864676	2513.501664
340.256807	2519.591377
340.648875	2522.792510
341.040879	2526.996833
341.432818	2532.688295
341.824694	2531.836340
342.216506	2532.542102
342.608253	2535.793646
342.999937	2536.035621
343.391557	2535.720549
343.783113	2534.268697
344.174605	2533.721732
344.566033	2531.995137
344.957397	2531.551515
345.348697	2530.361803
345.739934	2528.738551
346.131106	2527.158149
346.522215	2523.468025
346.913260	2524.297295
347.304241	2521.554907
347.695159	2522.500123
348.086012	2515.850841
348.476802	2516.405368
348.867528	2512.075017
349.258191	2509.897239
349.648789	2508.145438
350.039324	2504.939264
350.429796	2508.589059
350.820203	2508.180726
351.210548	2505.776095
351.600828	2501.037411
351.991045	2505.541682
352.381198	2501.044973
352.771288	2505.110663
353.161314	2503.845333
353.551276	2500.886176
353.941175	2502.355672
354.331010	2500.533295
354.720782	2500.233347
355.110490	2500.974396
355.500135	2497.291833
355.889717	2501.549088
356.279235	2498.264776
356.668689	2501.065137
357.058080	2499.835096
357.447408	2500.487925
357.836672	2502.756444
358.225873	2503.091681
358.615010	2502.068327
359.004084	2504.558657
359.393095	2501.602020
359.782043	2503.714263
360.170927	2504.349449
360.559748	2505.148472
360.948505	2504.286434
361.337199	2506.401198
361.725830	2503.399191
362.114398	2504.876249
362.502903	2505.687875
362.891344	2507.323730
363.279722	2506.993534
363.668037	2508.715088
364.056289	2506.320540
364.444478	2511.517970
364.832603	2508.208452
365.220665	2509.418329
365.608665	2511.129801
365.996601	2510.368587
366.384474	2511.535614
366.772284	2512.410254
367.160031	2511.086951
367.547715	2512.322034
367.935336	2514.893022
368.322893	2509.559481
368.710388	2512.896725
369.097820	2512.059894
369.485189	2508.026971
369.872495	2513.806653
370.259738	2513.937723
370.646918	2516.140708
371.034035	2515.084586
371.421090	2515.881088
371.808081	2514.991325
372.195010	2516.118022
372.581875	2514.104082
372.968678	2514.131808
373.355418	2515.220697
373.742096	2518.961233
374.128710	2518.152128
374.515262	2515.029133
374.901751	2515.918897
375.288177	2517.088445
375.674540	2518.260513
376.060841	2517.673218
376.447079	2518.331089
376.833254	2520.163548
377.219367	2517.259844
377.605417	2520.284536
377.991404	2517.209432
378.377329	2520.685308
378.763191	2518.346213
379.148991	2518.865451
379.534727	2519.505678
379.920402	2521.990967
380.306013	2523.062212
380.691563	2519.871162
381.077049	2519.288908
381.462474	2518.930986
381.847835	2519.588857
382.233134	2522.384177
382.618371	2522.721934
383.003545	2523.480628
383.388657	2520.105575
383.773706	2522.709331
384.158693	2522.669002
384.543618	2525.391225
384.928480	2523.447860
385.313280	2523.967099
385.698017	2519.805627
386.082692	2521.103724
386.467305	2523.541122
386.851856	2523.876358
387.236344	2524.435926
387.620770	2519.409896
388.005133	2518.101717
388.389435	2523.883920
388.773674	2521.849814
389.157851	2525.555063
389.541965	2526.490197
389.926018	2525.071112
390.310008	2524.851822
390.693936	2526.505320
391.077802	2525.199661
391.461606	2522.048940
391.845348	2526.893489
392.229027	2525.550021
392.612645	2526.898530
392.996200	2528.468849
393.379694	2525.882738
393.763125	2528.226874
394.146494	2528.960362
394.529801	2530.276103
394.913047	2527.279137
395.296230	2528.846936
395.679351	2526.701925
396.062410	2529.325846
396.445408	2529.986237
396.828343	2529.653521
397.211217	2528.486493
397.594028	2529.935825
397.976778	2527.695032
398.359466	2530.331556
398.742092	2529.608150
399.124656	2532.141330
399.507158	2530.777698
399.889598	2530.976823
400.271977	2530.034128
400.654294	2530.349200
401.036549	2530.891124
401.418742	2531.871628
401.800874	2533.320960
402.182944	2529.850126
402.564952	2530.480270
402.946898	2531.574200
403.328783	2531.062523
403.710606	2531.155784
404.092367	2530.891124
404.474067	2531.218799
404.855705	2530.845753
405.237282	2531.937163
405.618797	2532.612678
406.000250	2533.446989
406.381642	2533.318439
406.762972	2528.320135
407.144240	2531.213758
407.525447	2530.190403
407.906593	2530.646628
408.287677	2533.389016
408.668700	2534.616537
409.049661	2537.716846
409.430560	2532.726104
409.811399	2535.879346
410.192176	2531.387678
410.572891	2535.244160
410.953545	2533.920857
411.334138	2533.802390
411.714669	2535.808769
412.095139	2538.261291
412.475547	2535.551671
412.855894	2535.029911
413.236180	2537.124511
413.616405	2533.091587
413.996568	2534.906403
414.376670	2535.438245
414.756711	2535.826413
415.136691	2532.980682
415.516609	2537.258101
415.896466	2537.527803
416.276262	2540.123997
416.655997	2539.372865
417.035670	2535.710467
417.415283	2538.359593
417.794834	2538.485622
418.174324	2536.373379
418.553753	2534.109901
418.933121	2538.339429
419.312428	2538.873791
419.691674	2538.039480
420.070859	2539.743390
420.449983	2535.644932
420.829045	2540.580222
421.208047	2540.028215
421.586988	2539.019984
421.965867	2539.975283
422.344686	2539.297248
422.723444	2539.604758
423.102141	2542.115253
423.480777	2542.495860
423.859352	2538.220962
424.237866	2539.277083
424.616319	2539.577032
424.994712	2540.991076
425.373044	2537.457227
425.751314	2537.278266
426.129524	2536.033101
426.507673	2539.720705
426.885762	2533.875487
427.263789	2540.272711
427.641756	2539.284645
428.019662	2543.007537
428.397508	2539.100643
428.775292	2542.417722
429.153016	2541.538041
429.530679	2544.076262
429.908282	2542.795809
430.285824	2543.005017
430.663305	2540.106353
431.040726	2540.746580
431.418086	2542.841179
431.795385	2542.306817
432.172624	2539.140972
432.549802	2544.915614
432.926920	2545.157589
433.303977	2542.947043
433.680974	2541.185160
434.057910	2541.376724
434.434786	2541.207845
434.811601	2544.391334
435.188355	2541.346477
435.565050	2541.593493
435.941683	2543.012578
436.318257	2542.679862
436.694770	2543.743546
437.071222	2542.644574
437.447614	2544.852599
437.823946	2542.853782
438.200218	2544.658515
438.576429	2544.053577
438.952580	2544.479554
439.328670	2543.451159
439.704700	2543.698175
440.080670	2544.343443
440.456580	2543.592311
440.832429	2542.412681
441.208218	2546.924514
441.583947	2543.988042
441.959616	2545.399565
442.335224	2549.563558
442.710773	2547.254709
443.086261	2545.903680
443.461689	2547.547096
443.837057	2547.196736
444.212365	2544.529966
444.587612	2542.800850
444.962800	2543.441076
445.337927	2542.652136
445.712995	2538.977135
446.088002	2546.168341
446.462949	2545.306303
446.837837	2545.976777
447.212664	2546.889226
447.587431	2546.440563
447.962139	2544.812270
448.336786	2547.365615
448.711374	2545.792775
449.085901	2545.838145
449.460369	2544.436704
449.834776	2545.603731
450.209124	2545.694472
450.583412	2546.879143
450.957640	2544.875285
451.331808	2546.634647
451.705917	2546.695141
452.079965	2548.961140
452.453954	2547.307641
452.827883	2544.928217
453.201752	2545.394523
453.575562	2546.712785
453.949311	2545.996941
454.323001	2546.483413
454.696632	2549.263609
455.070202	2547.731098
455.443713	2547.335368
455.817164	2547.219421
456.190556	2546.589277
456.563888	2550.654967
456.937160	2548.421736
457.310373	2550.292004
457.683526	2550.571788
458.056619	2547.055584
458.429653	2548.819987
458.802628	2548.789741
459.175542	2547.715975
459.548398	2550.397869
459.921194	2547.529452
460.293930	2550.977601
460.666607	2548.416695
461.039224	2548.628424
461.411782	2549.520708
461.784280	2549.412323
462.156719	2548.797302
462.529099	2550.173537
462.901419	2548.595656
463.273680	2548.293187
463.645882	2543.267157
464.018024	2546.536345
464.390106	2545.664225
464.762130	2551.355688
465.134094	2550.533980
465.505999	2550.715461
465.877845	2548.673794
466.249631	2552.114382
466.621358	2546.362425
466.993026	2550.942313
467.364634	2553.601522
467.736184	2553.198230
468.107674	2550.425595
468.479105	2550.939793
468.850477	2553.808209
469.221790	2549.760163
469.593043	2552.326110
469.964238	2551.688404
470.335373	2553.462890
470.706449	2550.972560
471.077467	2550.879299
471.448425	2554.246790
471.819324	2550.349978
472.190164	2551.799309
472.560945	2550.629762
472.931667	2553.982129
473.302330	2549.245965
473.672934	2550.319731
474.043479	2550.581871
474.413965	2552.842828
474.784393	2552.983981
475.154761	2553.167983
475.525070	2551.927859
475.895321	2552.406768
476.265513	2553.367108
476.635645	2551.701007
477.005719	2553.732592
477.375734	2550.274360
477.745691	2551.605225
478.115588	2550.236552
478.485427	2553.599001
478.855207	2552.439536
479.224928	2551.385935
479.594591	2553.452808
479.964194	2552.348795
480.333739	2551.285112
480.703226	2550.105482
481.072653	2553.110009
481.442022	2550.821326
481.811333	2550.624721
482.180584	2550.473486
482.549777	2551.078424
482.918912	2548.663712
483.287988	2552.401727
483.657005	2554.914743
484.025964	2553.669577
484.394864	2553.115051
484.763706	2553.752757
485.132489	2554.176213
485.501213	2553.699824
485.869879	2554.065308
486.238487	2554.087993
486.607036	2550.770914
486.975527	2552.187478
487.343959	2551.206974
487.712333	2554.347613
488.080648	2552.522715
488.448905	2551.937941
488.817104	2554.881975
489.185244	2554.009855
489.553326	2550.455842
489.921350	2557.155535
490.289315	2552.295863
490.657222	2553.052036
491.025070	2553.566234
491.392861	2555.902809
491.760593	2554.776111
492.128267	2550.586912
492.495883	2553.775442
492.863440	2550.095399
493.230939	2552.651264
493.598380	2555.769218
493.965763	2552.593291
494.333088	2555.912891
494.700354	2551.433826
495.067563	2553.588919
495.434713	2554.128323
495.801805	2552.555482
496.168839	2555.691080
496.535815	2556.762325
496.902733	2554.196378
497.269593	2554.811399
497.636395	2553.873744
498.003139	2551.091027
498.369825	2555.456667
498.736453	2553.596481
499.103023	2555.890206
499.469535	2553.538507
499.835989	2552.058929
500.202385	2552.038764
500.568723	2550.234031
500.935003	2554.859290
501.301226	2548.608259
501.667390	2554.375339
502.033497	2556.583364
502.399546	2557.548745
502.765537	2552.346275
503.131470	2555.433981
503.497345	2555.123950
503.863163	2554.067829
504.228923	2555.396173
504.594625	2555.000442
504.960269	2555.857438
505.325856	2554.370298
505.691385	2554.156049
506.056856	2557.523540
506.422270	2556.580844
506.787625	2553.757798
507.152924	2557.296688
507.518164	2557.284085
507.883347	2556.908519
508.248472	2559.076215
508.613540	2557.324414
508.978550	2554.697973
509.343503	2554.960113
509.708398	2556.437171
510.073236	2554.524053
510.438016	2556.316183
510.802738	2554.708055
511.167403	2554.463559
511.532010	2556.197716
511.896561	2553.180586
512.261053	2557.213509
512.625488	2556.376677
512.989866	2555.280226
513.354186	2554.818961
513.718449	2555.106306
514.082655	2554.093034
514.446803	2555.731409
514.810894	2558.899775
515.174927	2556.858107
515.538904	2555.721327
515.902822	2558.330124
516.266684	2557.528581
516.630488	2556.454815
516.994235	2556.593447
517.357925	2556.674105
517.721558	2555.033210
518.085133	2556.785011
518.448651	2553.697304
518.812112	2553.253682
519.175516	2554.720658
519.538863	2551.809392
519.902152	2554.271995
520.265385	2557.011862
520.628560	2557.289126
520.991678	2559.628221
521.354739	2555.239897
521.717743	2556.248128
522.080690	2557.218550
522.443580	2556.172510
522.806413	2556.769887
523.169189	2557.601678
523.531908	2559.242573
523.894569	2556.837943
524.257174	2555.234856
524.619722	2558.176369
524.982213	2557.289126
525.344647	2556.265772
525.707025	2557.614280
526.069345	2558.400700
526.431608	2556.613611
526.793815	2557.508416
527.155964	2556.250648
527.518057	2556.038920
527.880093	2555.890206
528.242072	2555.116389
528.603995	2555.975905
528.965860	2557.838612
529.327669	2559.204764
529.689421	2555.524722
530.051117	2558.985474
530.412755	2558.042778
530.774337	2558.705690
531.135862	2555.174362
531.497331	2555.476831
531.858743	2556.003632
532.220098	2556.134702
532.581396	2557.631924
532.942638	2559.189641
533.303824	2556.976574
533.664953	2557.798282
534.026025	2558.776266
534.387040	2558.370453
534.747999	2556.641338
535.108902	2556.043961
535.469748	2556.974054
535.830537	2554.816440
536.191270	2557.241235
536.551947	2553.896429
536.912567	2552.797458
537.273131	2553.354505
537.633638	2552.132026
537.994089	2557.107644
538.354483	2556.749722
538.714821	2558.511606
539.075103	2557.019424
539.435328	2556.152346
539.795497	2558.940104
540.155609	2558.539332
540.515665	2557.647048
540.875665	2556.106975
541.235609	2558.199054
541.595496	2559.096380
541.955328	2555.164280
542.315102	2556.069167
542.674821	2557.848694
543.034483	2557.775597
543.394090	2556.878272
543.753640	2559.071174
544.113134	2558.519167
544.472571	2555.358364
544.831953	2558.584702
545.191278	2557.775597
545.550548	2556.601008
545.909761	2558.007490
546.268918	2558.609908
546.628019	2559.340876
546.987064	2556.805175
547.346053	2557.168138
547.704986	2557.377346
548.063863	2557.354661
548.422684	2557.213509
548.781449	2558.526729
549.140158	2559.038406
549.498811	2556.215360
549.857408	2559.605536
550.215949	2557.485731
550.574434	2557.465566
550.932864	2557.755433
551.291237	2558.836760
551.649555	2559.189641
552.007817	2557.369784
552.366022	2557.238714
552.724173	2555.897768
553.082267	2558.030176
553.440305	2559.310629
553.798288	2558.579661
554.156215	2560.399518
554.514086	2553.730071
554.871902	2553.982129
555.229661	2556.953889
555.587365	2553.029351
555.945014	2559.161915
556.302606	2557.216029
556.660143	2559.635783
557.017625	2557.508416
557.375050	2556.041440
557.732421	2557.110165
558.089735	2556.333827
558.446994	2559.504713
558.804197	2557.594116
559.161345	2558.698128
559.518437	2557.442881
559.875474	2560.283571
560.232455	2557.997408
560.589381	2556.888354
560.946251	2558.320042
561.303065	2557.190823
561.659825	2557.140412
562.016528	2556.127140
562.373177	2562.005125
562.729770	2555.260062
563.086307	2559.688715
563.442789	2558.995557
563.799216	2558.821637
564.155587	2558.279713
564.511904	2558.025134
564.868164	2560.644014
565.224370	2558.849363
565.580520	2558.496482
565.936615	2558.632593
566.292654	2558.425906
566.648638	2557.553787
567.004567	2559.776935
567.360441	2560.028993
567.716260	2557.238714
568.072023	2557.730227
568.427732	2557.059753
568.783385	2558.010011
569.138982	2557.538663
569.494525	2558.546894
569.850013	2559.464384
570.205445	2560.084446
570.560823	2561.395146
570.916145	2557.732748
571.271412	2556.777449
571.626625	2560.308777
571.981782	2559.169476
572.336884	2555.504558
572.691931	2553.876265
573.046923	2553.606563
573.401860	2552.126984
573.756743	2555.073539
574.111570	2559.540001
574.466342	2559.746688
574.821059	2558.894733
575.175722	2559.237532
575.530330	2557.652089
575.884882	2560.749878
576.239380	2557.826009
576.593823	2559.928170
576.948211	2555.915412
577.302544	2559.585372
577.656823	2555.111347
578.011047	2562.549570
578.365216	2559.227450
578.719330	2559.930691
579.073389	2560.991853
579.427394	2559.608057
579.781344	2557.266441
580.135239	2559.718962
580.489080	2559.555125
580.842866	2560.792728
581.196597	2558.430947
581.550273	2559.088818
581.903895	2558.491441
582.257463	2558.393139
582.610975	2557.644527
582.964434	2558.803993
583.317837	2558.171328
583.671186	2561.606874
584.024481	2561.697615
584.377721	2560.565876
584.730906	2558.773746
585.084037	2556.737120
585.437113	2560.157542
585.790135	2560.124775
586.143103	2558.809034
586.496016	2561.314487
586.848874	2560.598643
587.201679	2562.436144
587.554428	2561.100238
587.907124	2560.747358
588.259765	2556.437171
588.612352	2557.747871
588.964884	2560.868345
589.317362	2561.392625
589.669786	2561.548901
590.022155	2556.890875
590.374470	2555.373487
590.726731	2557.962120
591.078937	2555.542366
591.431090	2561.163253
591.783188	2559.318190
592.135232	2561.672409
592.487222	2557.750392
592.839157	2560.840619
593.191038	2559.711400
593.542866	2559.252655
593.894639	2558.350289
594.246358	2560.903633
594.598022	2557.936914
594.949633	2560.460012
595.301190	2561.059909
595.652692	2559.411452
596.004141	2558.057902
596.355535	2559.156873
596.706876	2557.316852
597.058162	2559.040927
597.409395	2558.405742
597.760573	2561.440516
598.111698	2558.204095
598.462768	2558.372974
598.813785	2558.700649
599.164748	2558.947666
599.515657	2559.706359
599.866511	2558.204095
600.217312	2558.451112
600.568060	2560.860783
600.918753	2561.702656
601.269392	2558.385577
601.619978	2559.156873
601.970510	2558.307439
602.320988	2559.978582
602.671412	2560.722152
603.021783	2558.007490
603.372100	2559.824826
603.722363	2559.219888
604.072572	2560.812892
604.422728	2558.105793
604.772830	2560.462532
605.122878	2558.567058
605.472872	2557.175700
605.822813	2559.343396
606.172701	2560.429765
606.522534	2557.026986
606.872314	2561.392625
607.222041	2562.254662
607.571714	2555.953220
607.921333	2557.016904
608.270899	2556.535473
608.620411	2557.095042
608.969870	2562.564693
609.319276	2562.610064
609.668627	2569.438307
610.017926	2572.904100
610.367171	2576.324523
610.716362	2571.994172
611.065500	2569.266908
611.414585	2567.631053
611.763616	2569.014850
612.112594	2566.088460
612.461518	2564.951680
612.810389	2562.209292
613.159207	2560.359189
613.507971	2562.796587
613.856682	2565.939746
614.205340	2562.920095
614.553945	2560.117213
614.902496	2559.262738
615.250994	2563.068809
615.599439	2559.444219
615.947830	2561.034703
616.296169	2561.004456
616.644454	2561.881617
616.992686	2558.088149
617.340864	2561.306926
617.688990	2560.079405
618.037063	2558.791390
618.385082	2560.885989
618.733048	2557.299208
619.080961	2560.202913
619.428821	2562.428582
619.776628	2557.112686
620.124382	2562.259704
620.472083	2560.467573
620.819731	2560.656617
621.167326	2560.883469
621.514868	2560.598643
621.862357	2560.462532
622.209793	2559.386246
622.557176	2561.125444
622.904506	2555.534804
623.251783	2558.841801
623.599007	2558.499003
623.946179	2561.962276
624.293297	2559.940773
624.640363	2558.917419
624.987376	2555.865000
625.334336	2553.835936
625.681243	2556.825340
626.028097	2556.422047
626.374899	2558.836760
626.721647	2556.807696
627.068343	2559.429096
627.414987	2560.941442
627.761577	2557.987326
628.108115	2557.815927
628.454600	2558.073025
628.801032	2556.822819
629.147412	2562.393294
629.493739	2559.305587
629.840014	2559.837429
630.186236	2560.233160
630.532405	2559.900444
630.878521	2558.597305
631.224585	2558.960268
631.570597	2557.851215
631.916556	2559.429096
632.262462	2558.556976
632.608316	2559.376164
632.954117	2559.000598
633.299866	2560.144940
633.645562	2558.251986
633.991206	2559.595454
634.336797	2557.475649
634.682336	2559.860114
635.027823	2556.537994
635.373257	2557.906667
635.718639	2559.182079
636.063968	2561.470763
636.409245	2559.620660
636.754470	2558.768705
637.099642	2558.851884
637.444762	2562.478994
637.789829	2557.899106
638.134845	2557.916750
638.479808	2556.999260
638.824719	2559.345917
639.169577	2558.332645
639.514383	2557.952038
639.859137	2557.891544
640.203839	2559.229970
640.548489	2559.343396
640.893086	2556.565720
641.237632	2558.194013
641.582125	2559.192162
641.926566	2553.442726
642.270955	2556.666543
642.615292	2553.629248
642.959576	2555.192006
643.303809	2554.128323
643.647990	2557.450443
643.992118	2558.269630
644.336195	2560.497820
