Dividing Wavelength (nm)	Counts (n)	Blue Motor Position (mm): 0.000000	Red Motor Position (mm): 45.900000	
326.493990	2129.582510
326.888308	2129.582510
327.282561	2129.582510
327.676750	2093.142530
328.070874	2093.873497
328.464933	2097.240988
328.858929	2102.587131
329.252859	2111.265478
329.646726	2123.981788
330.040528	2137.875208
330.434265	2154.531181
330.827938	2168.026349
331.221547	2188.884123
331.615091	2210.026723
332.008571	2228.772253
332.401986	2248.130284
332.795338	2265.481936
333.188625	2284.562703
333.581847	2305.153296
333.975006	2324.982674
334.368100	2340.801815
334.761129	2359.887624
335.154095	2376.694831
335.546996	2397.391288
335.939833	2422.899526
336.332606	2437.476023
336.725315	2448.732919
337.117960	2458.981585
337.510540	2467.531382
337.903056	2477.903556
338.295508	2485.205667
338.687896	2492.548108
339.080220	2503.500014
339.472480	2511.482682
339.864676	2513.189112
340.256807	2516.118022
340.648875	2519.220853
341.040879	2522.076666
341.432818	2525.035824
341.824694	2527.226205
342.216506	2527.279137
342.608253	2527.790814
342.999937	2527.291740
343.391557	2525.534898
343.783113	2527.019518
344.174605	2523.765453
344.566033	2523.911646
344.957397	2522.038858
345.348697	2521.456604
345.739934	2517.000224
346.131106	2516.533918
346.522215	2518.593229
346.913260	2510.827332
347.304241	2512.412774
347.695159	2507.507732
348.086012	2509.342712
348.476802	2505.007319
348.867528	2507.474964
349.258191	2504.702330
349.648789	2503.678975
350.039324	2503.346259
350.429796	2501.173522
350.820203	2501.138234
351.210548	2499.154540
351.600828	2497.064982
351.991045	2496.666730
352.381198	2496.581031
352.771288	2495.287975
353.161314	2500.059427
353.551276	2499.177225
353.941175	2495.154384
354.331010	2493.939466
354.720782	2495.703870
355.110490	2494.201606
355.500135	2496.008860
355.889717	2497.027173
356.279235	2496.223109
356.668689	2500.127483
357.058080	2497.987513
357.447408	2494.123468
357.836672	2492.026348
358.225873	2495.161946
358.615010	2494.584734
359.004084	2496.616319
359.393095	2501.223933
359.782043	2501.549088
360.170927	2501.400374
360.559748	2501.894407
360.948505	2503.414315
361.337199	2503.741990
361.725830	2502.867350
362.114398	2506.118894
362.502903	2504.392299
362.891344	2504.510766
363.279722	2505.564367
363.668037	2507.646363
364.056289	2506.892711
364.444478	2507.875736
364.832603	2507.207783
365.220665	2510.101405
365.608665	2509.186436
365.996601	2512.206087
366.384474	2512.425377
366.772284	2513.864627
367.160031	2514.570388
367.547715	2517.549710
367.935336	2517.474093
368.322893	2521.360823
368.710388	2529.192255
369.097820	2533.895652
369.485189	2535.796167
369.872495	2541.243133
370.259738	2547.410985
370.646918	2553.407437
371.034035	2563.724159
371.421090	2572.364697
371.808081	2581.116140
372.195010	2591.821030
372.581875	2607.246961
372.968678	2619.018055
373.355418	2629.571710
373.742096	2646.260450
374.128710	2661.315856
374.515262	2674.425377
374.901751	2689.778211
375.288177	2703.076775
375.674540	2726.160218
376.060841	2747.063362
376.447079	2764.815786
376.833254	2784.430915
377.219367	2797.122020
377.605417	2837.526868
377.991404	2844.665142
378.377329	2866.644573
378.763191	2884.018910
379.148991	2922.934097
379.534727	2948.583488
379.920402	2974.532827
380.306013	2987.924652
380.691563	3039.178063
381.077049	3060.119016
381.462474	3076.825400
381.847835	3114.603807
382.233134	3137.972076
382.618371	3136.074081
383.003545	3203.287786
383.388657	3208.545709
383.773706	3245.661204
384.158693	3262.632249
384.543618	3288.700055
384.928480	3325.447546
385.313280	3368.922457
385.698017	3366.376674
386.082692	3420.954726
386.467305	3425.365736
386.851856	3456.487299
387.236344	3482.199704
387.620770	3511.597193
388.005133	3537.856563
388.389435	3568.360585
388.773674	3576.194538
389.157851	3621.837145
389.541965	3636.146461
389.926018	3600.639093
390.310008	3670.232222
390.693936	3687.838452
391.077802	3728.916294
391.461606	3718.365159
391.845348	3785.127680
392.229027	3781.487967
392.612645	3794.688228
392.996200	3874.338459
393.379694	3911.128800
393.763125	3979.887618
394.146494	3944.039973
394.529801	4007.750075
394.913047	4053.780851
395.296230	4024.469062
395.679351	4077.320519
396.062410	4096.706276
396.445408	4080.314964
396.828343	4117.254019
397.211217	4137.244715
397.594028	4057.730595
397.976778	4124.866161
398.359466	4152.564781
398.742092	4179.524872
399.124656	4102.329683
399.507158	4180.523020
399.889598	4206.379098
400.271977	4267.573665
400.654294	4242.960231
401.036549	4247.499790
401.418742	4219.044998
401.800874	4321.072910
402.182944	4343.415304
402.564952	4407.861415
402.946898	4397.360691
403.328783	4391.616297
403.710606	4304.910971
404.092367	4496.061442
404.474067	4459.843273
404.855705	4469.350889
405.237282	4398.560486
405.618797	4503.592926
406.000250	4540.486611
406.381642	4623.141369
406.762972	4582.323147
407.144240	4589.516873
407.525447	4591.530814
407.906593	4653.751255
408.287677	4693.107543
408.668700	4622.617089
409.049661	4675.687836
409.430560	4717.592428
409.811399	4643.716839
410.192176	4802.142660
410.572891	4744.287858
410.953545	4846.827448
411.334138	4729.076176
411.714669	4792.536741
412.095139	4691.111247
412.475547	4833.549048
412.855894	4810.954597
413.236180	4825.707534
413.616405	4777.607364
413.996568	4862.432339
414.376670	4801.779697
414.756711	4754.506277
415.136691	4791.684786
415.516609	4867.738154
415.896466	4905.796345
416.276262	4939.493938
416.655997	4922.046504
417.035670	5103.258341
417.415283	5197.724523
417.794834	5140.938445
418.174324	5093.912042
418.553753	4998.241024
418.933121	5185.338408
419.312428	5251.377523
419.691674	5192.907700
420.070859	5314.520496
420.449983	5229.299790
420.829045	5337.518240
421.208047	5252.083285
421.586988	5321.716743
421.965867	5329.820398
422.344686	5464.588084
422.723444	5317.567873
423.102141	5136.318228
423.480777	5437.786790
423.859352	5207.970668
424.237866	5464.812415
424.616319	5459.345284
424.994712	5570.963992
425.373044	5444.975475
425.751314	5586.120221
426.129524	5391.261981
426.507673	5583.329942
426.885762	5664.195091
427.263789	5598.334937
427.641756	5480.913861
428.019662	5602.725782
428.397508	5609.717862
428.775292	5554.416404
429.153016	5655.594883
429.530679	5577.751906
429.908282	5665.906563
430.285824	5533.851017
430.663305	5809.612215
431.040726	5541.296802
431.418086	5546.421134
431.795385	5653.278472
432.172624	5663.874978
432.549802	5660.391541
432.926920	5671.789589
433.303977	5677.891906
433.680974	5714.989757
434.057910	5734.191512
434.434786	5743.381536
434.811601	5709.479776
435.188355	5948.251508
435.565050	5816.072454
435.941683	5799.570237
436.318257	6015.324059
436.694770	5997.788406
437.071222	6031.178488
437.447614	5963.420339
437.823946	5870.937852
438.200218	6031.821235
438.576429	5896.259567
438.952580	5992.941336
439.328670	6040.670981
439.704700	5947.218071
440.080670	5933.047388
440.456580	6207.175251
440.832429	6087.097487
441.208218	5932.202994
441.583947	6084.710501
441.959616	6090.301141
442.335224	6017.809348
442.710773	6155.727756
443.086261	6182.702970
443.461689	5978.488348
443.837057	6126.945288
444.212365	6287.211130
444.587612	6174.228790
444.962800	6329.251833
445.337927	6309.485469
445.712995	5918.087763
446.088002	6496.035887
446.462949	6326.322922
446.837837	6257.879177
447.212664	6427.498880
447.587431	6571.670839
447.962139	7117.012780
448.336786	8032.498921
448.711374	7784.005325
449.085901	6854.812286
449.460369	6777.601974
449.834776	6711.822478
450.209124	7099.847651
450.583412	7255.115189
450.957640	7400.703713
451.331808	7163.966087
451.705917	6718.335648
452.079965	6637.946889
452.453954	6860.007195
452.827883	6730.346198
453.201752	6821.296175
453.575562	6620.388550
453.949311	6823.383212
454.323001	6714.486728
454.696632	6789.622605
455.070202	6926.074037
455.443713	7077.197747
455.817164	7179.071904
456.190556	7263.390243
456.563888	7339.030236
456.937160	7380.105558
457.310373	7041.513939
457.683526	7063.974800
458.056619	6949.679240
458.429653	6943.080369
458.802628	6878.578806
459.175542	6979.868189
459.548398	7340.867737
459.921194	7501.844382
460.293930	7507.447625
460.666607	8034.583438
461.039224	8341.418308
461.411782	8471.757341
461.784280	8488.751071
462.156719	8376.540027
462.529099	8259.267665
462.901419	7847.027309
463.273680	7738.309786
463.645882	7749.831343
464.018024	7616.563400
464.390106	7786.357023
464.762130	8171.730549
465.134094	8638.322105
465.505999	9656.541921
465.877845	10882.046421
466.249631	11535.357274
466.621358	11153.971300
466.993026	10520.850268
467.364634	10271.383729
467.736184	9902.262883
468.107674	9569.287109
468.479105	9604.428993
468.850477	9367.076346
469.221790	9140.136203
469.593043	8816.047984
469.964238	8673.970625
470.335373	8686.442439
470.706449	8743.220955
471.077467	8721.211277
471.448425	10027.908601
471.819324	11103.002714
472.190164	11136.143260
472.560945	9887.552796
472.931667	9093.777752
473.302330	8957.376732
473.672934	8609.476623
474.043479	8964.900654
474.413965	8902.430676
474.784393	8782.965412
475.154761	8936.486191
475.525070	9028.610757
475.895321	8849.906894
476.265513	9032.668885
476.635645	9200.539308
477.005719	9202.870842
477.375734	9314.597935
477.745691	9552.159789
478.115588	9684.356487
478.485427	9925.245503
478.855207	10464.011259
479.224928	11277.716504
479.594591	11909.993143
479.964194	11724.345091
480.333739	11661.829742
480.703226	11583.033987
481.072653	11667.284270
481.442022	11907.583471
481.811333	12097.652615
482.180584	11900.132646
482.549777	11613.202772
482.918912	11432.810123
483.287988	11455.429780
483.657005	11470.691873
484.025964	11150.165229
484.394864	11280.436206
484.763706	11251.124417
485.132489	11000.884061
485.501213	10972.421706
485.869879	11049.599251
486.238487	10888.186546
486.607036	10999.573361
486.975527	10779.320308
487.343959	10972.023455
487.712333	11012.577017
488.080648	10946.537902
488.448905	10989.385189
488.817104	10928.672053
489.185244	11199.134998
489.553326	11352.917916
489.921350	11889.231151
490.289315	12953.741361
490.657222	13291.917085
491.025070	13200.861243
491.392861	13079.200557
491.760593	12702.858258
492.128267	12347.950945
492.495883	12019.492045
492.863440	11684.885459
493.230939	11344.201761
493.598380	11280.902513
493.965763	11143.883952
494.333088	11045.810824
494.700354	10968.305604
495.067563	11028.398679
495.434713	10859.404078
495.801805	10989.188584
496.168839	10910.057592
496.535815	10845.840854
496.902733	10844.131903
497.269593	10778.485997
497.636395	10884.461133
498.003139	10863.507578
498.369825	10732.014121
498.736453	10889.023378
499.103023	10817.265073
499.469535	10842.301964
499.835989	10837.860707
500.202385	10798.733792
500.568723	10645.941460
500.935003	10866.043278
501.301226	10675.883393
501.667390	10933.491396
502.033497	11031.798937
502.399546	10890.465148
502.765537	10797.057608
503.131470	10869.405728
503.497345	11050.441124
503.863163	10661.795889
504.228923	10972.595626
504.594625	11044.253107
504.960269	10781.815679
505.325856	11005.486634
505.691385	10797.294542
506.056856	10946.288365
506.422270	10980.754734
506.787625	10865.597136
507.152924	10986.196659
507.518164	10958.533328
507.883347	10883.125228
508.248472	10801.624893
508.613540	11037.341686
508.978550	10918.264591
509.343503	10893.673842
509.708398	11009.448981
510.073236	11126.252516
510.438016	11130.222425
510.802738	11075.581358
511.167403	11121.735642
511.532010	11024.912721
511.896561	11263.618917
512.261053	11325.131076
512.625488	11198.194822
512.989866	11178.960300
513.354186	11176.124651
513.718449	11076.844167
514.082655	11268.133270
514.446803	11169.442602
514.810894	11284.547267
515.174927	11153.409212
515.538904	11179.106493
515.902822	11326.938330
516.266684	11210.588499
516.630488	11150.124900
516.994235	11212.864580
517.357925	11271.609146
517.721558	11363.940399
518.085133	11384.896476
518.448651	11391.170192
518.812112	11273.020669
519.175516	11291.463730
519.538863	11407.929508
519.902152	11324.198463
520.265385	11479.912143
520.628560	11393.267312
520.991678	11379.318439
521.354739	11432.293404
521.717743	11370.246883
522.080690	11347.178563
522.443580	11475.347379
522.806413	11437.967223
523.169189	11469.222377
523.531908	11529.648167
523.894569	11348.479180
524.257174	11351.667710
524.619722	11468.272119
524.982213	11416.572566
525.344647	11471.072480
525.707025	11421.621282
526.069345	11506.239569
526.431608	11435.398755
526.793815	11544.355734
527.155964	11330.774648
527.518057	11384.566280
527.880093	11330.386479
528.242072	11394.182281
528.603995	11304.391769
528.965860	11226.896632
529.327669	11278.931422
529.689421	11222.604089
530.051117	11201.718589
530.412755	11307.794548
530.774337	11192.095026
531.135862	11173.346975
531.497331	11197.131139
531.858743	11053.286855
532.220098	11220.242309
532.581396	11088.118708
532.942638	11068.869062
533.303824	11035.852025
533.664953	11040.000894
534.026025	10965.079266
534.387040	11061.090561
534.747999	11060.062166
535.108902	11121.342432
535.469748	10877.234639
535.830537	10977.977058
536.191270	10958.868564
536.551947	10980.560649
536.912567	10982.123407
537.273131	10903.839329
537.633638	10883.145392
537.994089	10871.825481
538.354483	10826.293780
538.714821	10966.853752
539.075103	10976.386574
539.435328	10936.480800
539.795497	10765.429409
540.155609	10925.649881
540.515665	11013.940649
540.875665	10752.624878
541.235609	10812.085288
541.595496	10816.990330
541.955328	10964.396189
542.315102	10852.149858
542.674821	10802.817126
543.034483	10798.597681
543.394090	10810.648559
543.753640	10736.200799
544.113134	10961.779831
544.472571	10809.153857
544.831953	10955.443100
545.191278	10763.609552
545.550548	10785.014292
545.909761	10927.570561
546.268918	10898.205839
546.628019	10984.225568
546.987064	10848.056441
547.346053	10763.475962
547.704986	10866.207115
548.063863	10854.171361
548.422684	10849.699857
548.781449	10759.001938
549.140158	10861.864161
549.498811	10744.193548
549.857408	10598.615108
550.215949	10821.897894
550.574434	10681.537047
550.932864	10779.035483
551.291237	10833.522794
551.649555	10780.681420
552.007817	10793.034767
552.366022	10760.799109
552.724173	10743.457540
553.082267	10741.224309
553.440305	10870.766839
553.798288	10671.976499
554.156215	10824.252113
554.514086	10801.403083
554.871902	10650.612089
555.229661	10693.774448
555.587365	10666.254789
555.945014	10565.169572
556.302606	10685.123828
556.660143	10577.510317
557.017625	10735.878165
557.375050	10628.683070
557.732421	10762.911353
558.089735	10680.314567
558.446994	10687.467965
558.804197	10717.656914
559.161345	10718.128262
559.518437	10568.058153
559.875474	10657.770527
560.232455	10683.702223
560.589381	10639.945007
560.946251	10634.190530
561.303065	10740.435368
561.659825	10671.847949
562.016528	10606.159194
562.373177	10487.316513
562.729770	10592.638820
563.086307	10520.809939
563.442789	10607.777405
563.799216	10487.772737
564.155587	10534.378205
564.511904	10489.209466
564.868164	10476.374688
565.224370	10491.467903
565.580520	10412.626778
565.936615	10417.599876
566.292654	10287.104567
566.648638	10423.331668
567.004567	10376.524554
567.360441	10360.544097
567.716260	10275.179718
568.072023	10371.654800
568.427732	10318.016923
568.783385	10225.872192
569.138982	10295.926587
569.494525	10310.412342
569.850013	10188.562613
570.205445	10272.457495
570.560823	10171.891517
570.916145	10084.104864
571.271412	10160.775773
571.626625	10100.813768
571.981782	10076.492721
572.336884	10041.600375
572.691931	10054.420029
573.046923	10000.555300
573.401860	9956.437643
573.756743	9900.679960
574.111570	9939.738820
574.466342	9923.508826
574.821059	9960.105082
575.175722	9844.219037
575.530330	9851.122897
575.884882	9846.709367
576.239380	9771.596175
576.593823	9753.836190
576.948211	9771.379405
577.302544	9652.057814
577.656823	9660.746243
578.011047	9662.956789
578.365216	9635.117017
578.719330	9562.262262
579.073389	9567.762160
579.427394	9517.554789
579.781344	9494.307508
580.135239	9438.857336
580.489080	9452.027350
580.842866	9354.266774
581.196597	9363.083752
581.550273	9398.747395
581.903895	9369.715390
582.257463	9430.809134
582.610975	9308.414960
582.964434	9336.201800
583.317837	9255.896219
583.671186	9240.243436
584.024481	9240.949198
584.377721	9152.600456
584.730906	9135.468095
585.084037	9164.386674
585.437113	9098.460984
585.790135	9119.802709
586.143103	9015.420577
586.496016	8992.889140
586.848874	9050.088593
587.201679	9040.434783
587.554428	8931.235829
587.907124	8974.672931
588.259765	8943.584135
588.612352	8949.119322
588.964884	8823.148449
589.317362	8835.922733
589.669786	8842.438424
590.022155	8885.973829
590.374470	8902.405470
590.726731	8842.052776
591.078937	8690.162811
591.431090	8804.768402
591.783188	8678.069083
592.135232	8672.521293
592.487222	8671.999533
592.839157	8719.711534
593.191038	8656.631576
593.542866	8600.160571
593.894639	8496.416145
594.246358	8547.679638
594.598022	8571.443638
594.949633	8463.018501
595.301190	8439.758617
595.652692	8474.003175
596.004141	8576.232734
596.355535	8358.401956
596.706876	8330.700815
597.058162	8267.600693
597.409395	8343.044080
597.760573	8412.548989
598.111698	8311.768762
598.462768	8302.651835
598.813785	8265.236391
599.164748	8235.445693
599.515657	8226.401863
599.866511	8134.912482
600.217312	8262.012573
600.568060	8119.012683
600.918753	8225.691060
601.269392	8193.994805
601.619978	8103.062472
601.970510	8171.339860
602.320988	8166.913727
602.671412	8221.189310
603.021783	8156.486100
603.372100	8129.384857
603.722363	8137.299468
604.072572	8107.896939
604.422728	8125.914022
604.772830	8051.874596
605.122878	8056.683857
605.472872	8048.812095
605.822813	8082.146725
606.172701	8032.017491
606.522534	8102.051721
606.872314	8106.452648
607.222041	8075.820077
607.571714	8126.939897
607.921333	8086.499761
608.270899	8093.665761
608.620411	8179.380500
608.969870	8082.882733
609.319276	8083.878361
609.668627	8098.454857
610.017926	8127.943087
610.367171	8177.111981
610.716362	8151.946541
611.065500	8145.801374
611.414585	8167.657297
611.763616	8156.196234
612.112594	8137.841392
612.461518	8155.782859
612.810389	8212.352167
613.159207	8152.163311
613.507971	8102.938964
613.856682	8223.367088
614.205340	8178.647012
614.553945	8260.991740
614.902496	8153.209350
615.250994	8205.350004
615.599439	8188.588168
615.947830	8203.126855
616.296169	8176.915376
616.644454	8189.004063
616.992686	8185.838218
617.340864	8242.513390
617.688990	8149.678022
618.037063	8239.213955
618.385082	8184.449380
618.733048	8272.021784
619.080961	8214.567754
619.428821	8231.372440
619.776628	8236.761434
620.124382	8183.988115
620.472083	8172.504366
620.819731	8199.668624
621.167326	8087.298784
621.514868	8103.120445
621.862357	7987.216757
622.209793	8010.763986
622.557176	7936.641381
622.904506	7909.393944
623.251783	7837.807039
623.599007	7797.495452
623.946179	7804.026267
624.293297	7760.894155
624.640363	7676.177564
624.987376	7657.001015
625.334336	7607.479240
625.681243	7554.542084
626.028097	7543.103706
626.374899	7521.179728
626.721647	7513.365939
627.068343	7444.912111
627.414987	7418.766167
627.761577	7371.326388
628.108115	7410.412975
628.454600	7299.348794
628.801032	7351.736465
629.147412	7310.361194
629.493739	7303.807694
629.840014	7235.910914
630.186236	7292.976775
630.532405	7178.671132
630.878521	7227.719039
631.224585	7180.932090
631.570597	7107.409382
631.916556	7143.632593
632.262462	7139.713096
632.608316	7100.923937
632.954117	7073.709268
633.299866	7064.897331
633.645562	7053.963069
633.991206	6976.609083
634.336797	6916.064826
634.682336	6876.612756
635.027823	6841.922056
635.373257	6832.507701
635.718639	6767.590242
636.063968	6778.524505
636.409245	6670.056518
636.754470	6670.595922
637.099642	6627.269725
637.444762	6571.960705
637.789829	6584.621563
638.134845	6524.074785
638.479808	6506.269430
638.824719	6512.732189
639.169577	6440.094203
639.514383	6460.112625
639.859137	6390.395988
640.203839	6400.014509
640.548489	6390.612757
