Dividing Wavelength (nm)	Counts (n)	Blue Motor Position (mm): 0.000000	Red Motor Position (mm): 12.500000	
326.493990	2145.487351
326.888308	2145.487351
327.282561	2145.487351
327.676750	2120.752929
328.070874	2120.747888
328.464933	2128.962448
328.858929	2137.325723
329.252859	2145.953657
329.646726	2162.410504
330.040528	2175.474654
330.434265	2196.216482
330.827938	2213.815150
331.221547	2233.705022
331.615091	2255.155132
332.008571	2272.784047
332.401986	2293.515792
332.795338	2315.245686
333.188625	2333.156905
333.581847	2355.002746
333.975006	2373.173585
334.368100	2392.418189
334.761129	2408.701116
335.154095	2422.597057
335.546996	2442.738987
335.939833	2456.261882
336.332606	2465.857719
336.725315	2479.511684
337.117960	2486.949906
337.510540	2497.974910
337.903056	2505.917248
338.295508	2509.788854
338.687896	2518.295801
339.080220	2528.655372
339.472480	2535.770961
339.864676	2535.140817
340.256807	2539.907228
340.648875	2545.523073
341.040879	2542.674821
341.432818	2543.831766
341.824694	2545.853268
342.216506	2547.209339
342.608253	2543.090716
342.999937	2542.982331
343.391557	2544.804708
343.783113	2541.074255
344.174605	2541.522917
344.566033	2536.569984
344.957397	2538.843544
345.348697	2535.491177
345.739934	2532.975641
346.131106	2533.714170
346.522215	2531.526309
346.913260	2527.929446
347.304241	2527.246370
347.695159	2525.076153
348.086012	2526.026410
348.476802	2522.671523
348.867528	2522.865607
349.258191	2521.275123
349.648789	2519.399814
350.039324	2513.607528
350.429796	2521.229752
350.820203	2515.805471
351.210548	2516.604494
351.600828	2516.390245
351.991045	2514.320851
352.381198	2512.682476
352.771288	2515.871006
353.161314	2514.832528
353.551276	2514.933351
353.941175	2512.952178
354.331010	2513.675583
354.720782	2515.341685
355.110490	2513.673063
355.500135	2516.412930
355.889717	2516.100378
356.279235	2516.445698
356.668689	2516.944772
357.058080	2515.029133
357.447408	2512.216169
357.836672	2513.627692
358.225873	2515.187930
358.615010	2516.425533
359.004084	2518.096675
359.393095	2519.351923
359.782043	2519.606501
360.170927	2521.872500
360.559748	2522.177489
360.948505	2521.070956
361.337199	2520.738240
361.725830	2521.769156
362.114398	2520.322345
362.502903	2522.522808
362.891344	2522.832839
363.279722	2522.265710
363.668037	2521.564989
364.056289	2523.601615
364.444478	2525.262676
364.832603	2524.816533
365.220665	2525.030782
365.608665	2525.303005
365.996601	2527.483304
366.384474	2527.236287
366.772284	2528.206709
367.160031	2528.531864
367.547715	2526.321318
367.935336	2526.228057
368.322893	2528.068078
368.710388	2527.412728
369.097820	2531.060002
369.485189	2526.275947
369.872495	2528.627646
370.259738	2528.274765
370.646918	2528.499096
371.034035	2528.375588
371.421090	2528.899868
371.808081	2532.164015
372.195010	2531.007070
372.581875	2532.718542
372.968678	2531.559077
373.355418	2533.421783
373.742096	2535.092926
374.128710	2536.658204
374.515262	2534.132586
374.901751	2540.436549
375.288177	2537.348842
375.674540	2540.413863
376.060841	2540.340767
376.447079	2541.706919
376.833254	2545.661705
377.219367	2543.748587
377.605417	2547.589946
377.991404	2546.203629
378.377329	2549.891233
378.763191	2554.304763
379.148991	2558.153684
379.534727	2562.952862
379.920402	2566.774057
380.306013	2570.070972
380.691563	2573.130952
381.077049	2579.490367
381.462474	2584.292067
381.847835	2586.984043
382.233134	2595.952255
382.618371	2595.919488
383.003545	2604.310488
383.388657	2610.042280
383.773706	2614.649895
384.158693	2620.759773
384.543618	2628.976854
384.928480	2636.551188
385.313280	2641.574698
385.698017	2651.304125
386.082692	2659.430465
386.467305	2665.981444
386.851856	2674.238854
387.236344	2686.234280
387.620770	2692.739889
388.005133	2699.653831
388.389435	2711.558516
388.773674	2715.785523
389.157851	2723.690053
389.541965	2736.355952
389.926018	2740.673700
390.310008	2750.514032
390.693936	2762.882503
391.077802	2768.029521
391.461606	2777.529576
391.845348	2789.588016
392.229027	2796.839716
392.612645	2810.171047
392.996200	2819.582881
393.379694	2833.655262
393.763125	2850.560772
394.146494	2854.064373
394.529801	2867.345293
394.913047	2883.159393
395.296230	2885.135525
395.679351	2890.315311
396.062410	2907.369534
396.445408	2900.127917
396.828343	2909.227199
397.211217	2914.681728
397.594028	2906.991448
397.976778	2920.471493
398.359466	2931.592278
398.742092	2924.443922
399.124656	2939.592590
399.507158	2949.188426
399.889598	2949.931996
400.271977	2957.672688
400.654294	2960.750312
401.036549	2966.976137
401.418742	2965.655355
401.800874	2985.169662
402.182944	2983.062459
402.564952	3004.457116
402.946898	2988.920280
403.328783	2991.392966
403.710606	2996.509737
404.092367	3008.865605
404.474067	3021.806247
404.855705	3009.105060
405.237282	3000.013339
405.618797	3013.609331
406.000250	3021.065198
406.381642	3032.932074
406.762972	3027.396887
407.144240	3007.829648
407.525447	3015.507325
407.906593	3006.612209
408.287677	3006.065244
408.668700	3009.924248
409.049661	2995.430930
409.430560	2993.593430
409.811399	2981.436687
410.192176	2982.497850
410.572891	2970.625933
410.953545	2982.331492
411.334138	2950.506688
411.714669	2964.397587
412.095139	2923.665064
412.475547	2937.830706
412.855894	2917.482089
413.236180	2916.597366
413.616405	2895.845457
413.996568	2890.325393
414.376670	2879.943137
414.756711	2861.817668
415.136691	2861.636187
415.516609	2852.332737
415.896466	2844.836541
416.276262	2836.314471
416.655997	2830.396156
417.035670	2817.962150
417.415283	2826.005311
417.794834	2817.238745
418.174324	2799.453554
418.553753	2785.880247
418.933121	2784.022582
419.312428	2769.577156
419.691674	2755.323293
420.070859	2751.000504
420.449983	2735.604820
420.829045	2731.914695
421.208047	2718.338868
421.586988	2712.518856
421.965867	2707.828062
422.344686	2700.994778
422.723444	2694.960517
423.102141	2673.454955
423.480777	2673.540654
423.859352	2664.441372
424.237866	2665.255518
424.616319	2654.611122
424.994712	2654.744712
425.373044	2643.021509
425.751314	2636.352062
426.129524	2627.898047
426.507673	2629.498614
426.885762	2623.232459
427.263789	2620.396810
427.641756	2611.340377
428.019662	2608.653443
428.397508	2602.155395
428.775292	2600.605240
429.153016	2595.596854
429.530679	2595.831268
429.908282	2590.596029
430.285824	2586.389187
430.663305	2584.718044
431.040726	2581.504308
431.418086	2578.966087
431.795385	2577.461303
432.172624	2573.821590
432.549802	2575.986766
432.926920	2574.129100
433.303977	2576.374934
433.680974	2573.294789
434.057910	2572.284038
434.434786	2569.231619
434.811601	2571.787484
435.188355	2570.990982
435.565050	2566.179201
435.941683	2568.926630
436.318257	2568.815724
436.694770	2562.889848
437.071222	2567.431927
437.447614	2562.967986
437.823946	2562.814231
438.200218	2567.552915
438.576429	2567.210117
438.952580	2568.863615
439.328670	2566.897565
439.704700	2565.707853
440.080670	2566.010322
440.456580	2567.822617
440.832429	2567.157185
441.208218	2566.108625
441.583947	2568.445199
441.959616	2567.454613
442.335224	2568.462843
442.710773	2567.394119
443.086261	2567.580642
443.461689	2567.467216
443.837057	2568.828327
444.212365	2567.885631
444.587612	2566.660631
444.962800	2567.295816
445.337927	2571.459809
445.712995	2567.051320
446.088002	2567.152143
446.462949	2570.176836
446.837837	2570.295303
447.212664	2568.740107
447.587431	2571.734552
447.962139	2568.593913
448.336786	2570.933009
448.711374	2569.735735
449.085901	2572.226065
449.460369	2569.655076
449.834776	2571.953843
450.209124	2571.653894
450.583412	2571.154820
450.957640	2568.853533
451.331808	2573.130952
451.705917	2570.481826
452.079965	2572.226065
452.453954	2570.829665
452.827883	2570.076013
453.201752	2569.632391
453.575562	2570.877556
453.949311	2572.563822
454.323001	2572.039542
454.696632	2571.444686
455.070202	2573.657752
455.443713	2571.981569
455.817164	2571.472412
456.190556	2570.355797
456.563888	2570.217165
456.937160	2567.905796
457.310373	2572.180694
457.683526	2574.323185
458.056619	2570.307906
458.429653	2573.783781
458.802628	2572.331929
459.175542	2571.613565
459.548398	2573.191446
459.921194	2571.248081
460.293930	2573.256981
460.666607	2574.892835
461.039224	2576.208576
461.411782	2574.424008
461.784280	2576.974832
462.156719	2574.499625
462.529099	2576.828638
462.901419	2573.929975
463.273680	2575.263360
463.645882	2575.936354
464.018024	2573.995510
464.390106	2577.098340
464.762130	2576.841241
465.134094	2578.703947
465.505999	2580.778382
465.877845	2578.804771
466.249631	2582.177303
466.621358	2582.653692
466.993026	2583.646799
467.364634	2585.627972
467.736184	2582.903229
468.107674	2580.077662
468.479105	2578.741756
468.850477	2578.774524
469.221790	2581.227045
469.593043	2580.004565
469.964238	2582.295770
470.335373	2578.630851
470.706449	2580.128073
471.077467	2580.596901
471.448425	2584.501274
471.819324	2584.700400
472.190164	2585.320462
472.560945	2582.094123
472.931667	2582.126891
473.302330	2583.883733
473.672934	2581.544638
474.043479	2580.160841
474.413965	2579.155131
474.784393	2576.080027
475.154761	2575.709502
475.525070	2577.236972
475.895321	2576.979873
476.265513	2577.854513
476.635645	2580.924576
477.005719	2581.519432
477.375734	2579.387024
477.745691	2581.108578
478.115588	2581.340471
478.485427	2583.485482
478.855207	2584.839032
479.224928	2583.399782
479.594591	2583.427509
479.964194	2585.869948
480.333739	2587.493199
480.703226	2585.827098
481.072653	2585.847263
481.442022	2586.837849
481.811333	2588.158632
482.180584	2583.651840
482.549777	2583.530852
482.918912	2584.781058
483.287988	2582.134453
483.657005	2583.548496
484.025964	2585.489341
484.394864	2583.593867
484.763706	2582.762076
485.132489	2585.544793
485.501213	2583.440112
485.869879	2583.185533
486.238487	2582.419278
486.607036	2581.912642
486.975527	2582.673856
487.343959	2585.721234
487.712333	2585.065884
488.080648	2583.866089
488.448905	2581.171592
488.817104	2584.332396
489.185244	2581.481623
489.553326	2584.781058
489.921350	2586.205184
490.289315	2586.815164
490.657222	2585.154104
491.025070	2584.725606
491.392861	2587.190730
491.760593	2587.183168
492.128267	2584.818867
492.495883	2585.121336
492.863440	2582.517580
493.230939	2583.848445
493.598380	2584.430698
493.965763	2579.341653
494.333088	2579.870975
494.700354	2580.733012
495.067563	2580.533886
495.434713	2581.176633
495.801805	2581.592529
496.168839	2582.746953
496.535815	2582.797364
496.902733	2585.827098
497.269593	2581.867272
497.636395	2583.500605
498.003139	2584.234093
498.369825	2585.315421
498.736453	2582.910790
499.103023	2581.365677
499.469535	2583.089751
499.835989	2583.331727
500.202385	2583.240986
500.568723	2582.933476
500.935003	2581.894998
501.301226	2581.955492
501.667390	2584.357602
502.033497	2582.895667
502.399546	2579.876016
502.765537	2582.857858
503.131470	2583.044381
503.497345	2581.877354
503.863163	2584.274422
504.228923	2583.490523
504.594625	2582.353743
504.960269	2580.833835
505.325856	2581.784092
505.691385	2582.651171
506.056856	2583.571182
506.422270	2581.857189
506.787625	2584.372725
507.152924	2583.253589
507.518164	2581.688311
507.883347	2580.049936
508.248472	2581.020358
508.613540	2581.509350
508.978550	2581.519432
509.343503	2581.292580
509.708398	2582.525142
510.073236	2581.431212
510.438016	2583.861048
510.802738	2581.930286
511.167403	2583.729978
511.532010	2581.710996
511.896561	2583.924062
512.261053	2582.530183
512.625488	2580.493557
512.989866	2580.201170
513.354186	2578.053639
513.718449	2578.202353
514.082655	2579.240830
514.446803	2582.394072
514.810894	2582.298290
515.174927	2588.516553
515.538904	2581.088413
515.902822	2581.521952
516.266684	2581.378280
516.630488	2581.395924
516.994235	2582.328537
517.357925	2583.510688
517.721558	2583.422467
518.085133	2584.662591
518.448651	2585.519587
518.812112	2583.097313
519.175516	2584.614700
519.538863	2583.447673
519.902152	2585.348188
520.265385	2582.260482
520.628560	2582.746953
520.991678	2581.834504
521.354739	2583.440112
521.717743	2583.830801
522.080690	2582.751994
522.443580	2583.127560
522.806413	2582.913311
523.169189	2584.342478
523.531908	2582.905749
523.894569	2583.485482
524.257174	2582.033630
524.619722	2582.915832
524.982213	2583.092272
525.344647	2586.237952
525.707025	2581.247210
526.069345	2582.235276
526.431608	2580.997672
526.793815	2581.698393
527.155964	2583.886254
527.518057	2582.754515
527.880093	2584.692838
528.242072	2581.922724
528.603995	2582.946078
528.965860	2580.788465
529.327669	2582.835173
529.689421	2579.392065
530.051117	2583.979515
530.412755	2583.424988
530.774337	2583.016655
531.135862	2582.757035
531.497331	2581.332909
531.858743	2580.105388
532.220098	2579.029102
532.581396	2577.305027
532.942638	2579.266036
533.303824	2583.747622
533.664953	2581.872313
534.026025	2583.485482
534.387040	2585.862386
534.747999	2581.143866
535.108902	2582.641089
535.469748	2582.298290
535.830537	2584.176120
536.191270	2582.515060
536.551947	2582.976325
536.912567	2580.826273
537.273131	2581.756366
537.633638	2582.618403
537.994089	2583.248548
538.354483	2583.082190
538.714821	2580.561613
539.075103	2583.679566
539.435328	2583.157807
539.795497	2584.632344
540.155609	2581.310224
540.515665	2583.258630
540.875665	2582.822570
541.235609	2582.426840
541.595496	2582.845255
541.955328	2581.973136
542.315102	2584.874320
542.674821	2585.469176
543.034483	2580.967426
543.394090	2579.654205
543.753640	2584.148394
544.113134	2582.739391
544.472571	2581.642940
544.831953	2584.113106
545.191278	2580.866603
545.550548	2581.090934
545.909761	2582.031109
546.268918	2583.823239
546.628019	2582.477251
546.987064	2586.079156
547.346053	2583.364494
547.704986	2583.301480
548.063863	2582.320975
548.422684	2583.893815
548.781449	2580.596901
549.140158	2581.905080
549.498811	2582.356263
549.857408	2583.054463
550.215949	2579.107240
550.574434	2577.695717
550.932864	2579.349215
551.291237	2579.626479
551.649555	2582.331058
552.007817	2584.077818
552.366022	2582.625965
552.724173	2583.394741
553.082267	2583.573702
553.440305	2584.148394
553.798288	2582.688980
554.156215	2580.710327
554.514086	2583.641758
554.871902	2581.564802
555.229661	2582.159658
555.587365	2583.397262
555.945014	2582.363825
556.302606	2584.402972
556.660143	2583.467838
557.017625	2583.220821
557.375050	2583.893815
557.732421	2579.082034
558.089735	2583.329206
558.446994	2582.736871
558.804197	2582.578074
559.161345	2584.846593
559.518437	2581.688311
559.875474	2586.046388
560.232455	2583.929103
560.589381	2580.667477
560.946251	2585.375915
561.303065	2580.339802
561.659825	2582.436922
562.016528	2582.089082
562.373177	2579.571026
562.729770	2583.435070
563.086307	2583.276274
563.442789	2580.034812
563.799216	2580.891808
564.155587	2582.598239
564.511904	2582.774679
564.868164	2581.141345
565.224370	2582.875502
565.580520	2583.036819
565.936615	2584.839032
566.292654	2585.272571
566.648638	2581.234607
567.004567	2583.283836
567.360441	2581.761407
567.716260	2581.171592
568.072023	2580.733012
568.427732	2577.257136
568.783385	2581.524473
569.138982	2578.207394
569.494525	2581.897518
569.850013	2576.901735
570.205445	2580.065059
570.560823	2584.196285
570.916145	2581.713516
571.271412	2579.558423
571.626625	2582.862899
571.981782	2582.968764
572.336884	2582.434401
572.691931	2580.932137
573.046923	2582.058835
573.401860	2582.416757
573.756743	2583.019175
574.111570	2581.426171
574.466342	2584.617221
574.821059	2581.844586
575.175722	2581.002714
575.530330	2580.851479
575.884882	2581.947930
576.239380	2582.394072
576.593823	2584.473548
576.948211	2580.470872
577.302544	2580.841397
577.656823	2579.356777
578.011047	2584.803744
578.365216	2581.479103
578.719330	2581.869792
579.073389	2581.053125
579.427394	2580.100347
579.781344	2580.909452
580.135239	2580.095306
580.489080	2581.499267
580.842866	2583.049422
581.196597	2585.544793
581.550273	2581.947930
581.903895	2582.051274
582.257463	2581.204360
582.610975	2582.709144
582.964434	2581.519432
583.317837	2582.194947
583.671186	2581.703434
584.024481	2582.164700
584.377721	2581.789134
584.730906	2583.172930
585.084037	2581.121181
585.437113	2579.805440
585.790135	2582.116809
586.143103	2580.871644
586.496016	2583.306521
586.848874	2578.076324
587.201679	2577.872157
587.554428	2579.318968
587.907124	2578.817373
588.259765	2578.870306
588.612352	2584.380287
588.964884	2582.648650
589.317362	2582.527663
589.669786	2581.171592
590.022155	2582.578074
590.374470	2581.176633
590.726731	2581.970615
591.078937	2581.093454
591.431090	2579.671849
591.783188	2579.150090
592.135232	2579.434915
592.487222	2584.284505
592.839157	2584.357602
593.191038	2580.725450
593.542866	2581.456418
593.894639	2581.007755
594.246358	2580.629668
594.598022	2580.594380
594.949633	2581.781572
595.301190	2580.571695
595.652692	2581.640420
596.004141	2582.411716
596.355535	2582.361305
596.706876	2582.915832
597.058162	2579.752508
597.409395	2581.627817
597.760573	2580.980028
598.111698	2579.296283
598.462768	2581.421129
598.813785	2579.213104
599.164748	2580.538928
599.515657	2581.683269
599.866511	2581.090934
600.217312	2579.387024
600.568060	2578.837538
600.918753	2582.063877
601.269392	2579.689493
601.619978	2582.494895
601.970510	2579.790316
602.320988	2583.727457
602.671412	2581.027919
603.021783	2581.496747
603.372100	2580.881726
603.722363	2580.717888
604.072572	2581.837025
604.422728	2585.325503
604.772830	2575.855696
605.122878	2576.556416
605.472872	2576.901735
605.822813	2575.028946
606.172701	2579.245872
606.522534	2578.935841
606.872314	2581.612693
607.222041	2577.642785
607.571714	2582.202508
607.921333	2579.586149
608.270899	2578.467013
608.620411	2580.536407
608.969870	2582.295770
609.319276	2579.374421
609.668627	2582.447004
610.017926	2579.432394
610.367171	2580.803588
610.716362	2581.098496
611.065500	2581.012796
611.414585	2580.967426
611.763616	2580.372569
612.112594	2583.150245
612.461518	2578.789647
612.810389	2579.823084
613.159207	2582.043712
613.507971	2581.332909
613.856682	2580.775862
614.205340	2581.118660
614.553945	2581.403485
614.902496	2581.010275
615.250994	2581.398444
615.599439	2582.799885
615.947830	2581.718557
616.296169	2579.046746
616.644454	2582.021027
616.992686	2579.487847
617.340864	2582.230235
617.688990	2578.958526
618.037063	2581.854669
618.385082	2578.567836
618.733048	2582.227714
619.080961	2579.913824
619.428821	2580.410378
619.776628	2581.332909
620.124382	2580.480954
620.472083	2580.511201
620.819731	2577.695717
621.167326	2581.103537
621.514868	2577.552044
621.862357	2580.695203
622.209793	2578.731674
622.557176	2581.723599
622.904506	2579.248392
623.251783	2576.543813
623.599007	2577.539441
623.946179	2578.840059
624.293297	2578.633371
624.640363	2579.848289
624.987376	2578.351067
625.334336	2580.528845
625.681243	2581.194277
626.028097	2579.117322
626.374899	2582.056315
626.721647	2579.457600
627.068343	2580.130594
627.414987	2579.974318
627.761577	2580.231417
628.108115	2579.805440
628.454600	2580.422981
628.801032	2579.137487
629.147412	2580.697724
629.493739	2578.958526
629.840014	2578.527507
630.186236	2579.777713
630.532405	2580.596901
630.878521	2579.250913
631.224585	2579.331571
631.570597	2579.195460
631.916556	2581.118660
632.262462	2581.080852
632.608316	2579.548341
632.954117	2578.111612
633.299866	2579.397106
633.645562	2579.729822
633.991206	2581.055646
634.336797	2579.676890
634.682336	2579.296283
635.027823	2575.157496
635.373257	2578.698906
635.718639	2575.376786
636.063968	2577.748649
636.409245	2578.555233
636.754470	2579.548341
637.099642	2578.401478
637.444762	2579.084555
637.789829	2579.888619
638.134845	2578.973649
638.479808	2580.004565
638.824719	2579.828125
639.169577	2579.840728
639.514383	2577.564647
639.859137	2580.430543
640.203839	2578.272929
640.548489	2578.421643
640.893086	2572.934347
641.237632	2576.679924
641.582125	2575.046590
641.926566	2571.706826
642.270955	2577.582291
642.615292	2575.646488
642.959576	2580.087744
643.303809	2579.434915
643.647990	2575.964080
643.992118	2576.385017
644.336195	2579.560944
