Dividing Wavelength (nm)	Counts (n)	Blue Motor Position (mm): 0.000000	Red Motor Position (mm): 45.100000	
326.493990	2128.838940
326.888308	2128.838940
327.282561	2128.838940
327.676750	2094.864084
328.070874	2093.177818
328.464933	2096.401636
328.858929	2102.778695
329.252859	2112.127515
329.646726	2123.185286
330.040528	2138.303706
330.434265	2151.519091
330.827938	2171.371155
331.221547	2187.855728
331.615091	2211.004707
332.008571	2228.507593
332.401986	2250.363515
332.795338	2265.469333
333.188625	2287.536984
333.581847	2305.911989
333.975006	2322.603250
334.368100	2340.955570
334.761129	2356.555421
335.154095	2375.106867
335.546996	2397.711401
335.939833	2419.557241
336.332606	2434.531989
336.725315	2450.315841
337.117960	2457.181893
337.510540	2465.003243
337.903056	2477.313741
338.295508	2486.680205
338.687896	2492.119610
339.080220	2503.079078
339.472480	2507.850530
339.864676	2512.967301
340.256807	2518.066428
340.648875	2523.263858
341.040879	2524.501461
341.432818	2525.340813
341.824694	2526.815351
342.216506	2522.588343
342.608253	2526.734693
342.999937	2526.492717
343.391557	2526.505320
343.783113	2522.285874
344.174605	2523.089938
344.566033	2520.292098
344.957397	2524.841739
345.348697	2517.088445
345.739934	2518.648682
346.131106	2515.563496
346.522215	2512.347239
346.913260	2510.855058
347.304241	2510.161899
347.695159	2508.140397
348.086012	2507.351456
348.476802	2505.627381
348.867528	2506.436487
349.258191	2504.140241
349.648789	2502.196876
350.039324	2497.624550
350.429796	2502.022956
350.820203	2500.152688
351.210548	2498.554643
351.600828	2496.258397
351.991045	2492.885865
352.381198	2492.303612
352.771288	2494.252018
353.161314	2494.985506
353.551276	2495.769405
353.941175	2491.895278
354.331010	2495.436689
354.720782	2493.745382
355.110490	2494.708242
355.500135	2494.927532
355.889717	2496.447440
356.279235	2495.600526
356.668689	2496.656648
357.058080	2497.475836
357.447408	2495.648417
357.836672	2494.030207
358.225873	2497.637153
358.615010	2491.514671
359.004084	2498.597492
359.393095	2498.060609
359.782043	2500.591269
360.170927	2499.346104
360.559748	2499.961124
360.948505	2501.753255
361.337199	2503.678975
361.725830	2501.987668
362.114398	2502.925323
362.502903	2504.851044
362.891344	2502.779129
363.279722	2501.967504
363.668037	2505.282062
364.056289	2506.562515
364.444478	2507.374141
364.832603	2506.381034
365.220665	2507.338853
365.608665	2509.062928
365.996601	2509.670387
366.384474	2515.152642
366.772284	2512.017044
367.160031	2513.045439
367.547715	2514.346057
367.935336	2517.093486
368.322893	2522.116996
368.710388	2524.446009
369.097820	2532.469005
369.485189	2532.426155
369.872495	2541.464944
370.259738	2546.271684
370.646918	2551.254865
371.034035	2558.509085
371.421090	2571.129614
371.808081	2581.348033
372.195010	2594.215578
372.581875	2603.385437
372.968678	2617.465379
373.355418	2624.661627
373.742096	2647.820687
374.128710	2658.795279
374.515262	2672.797084
374.901751	2692.833150
375.288177	2703.096939
375.674540	2726.419837
376.060841	2743.340470
376.447079	2763.308481
376.833254	2782.603497
377.219367	2796.028090
377.605417	2833.743482
377.991404	2844.365193
378.377329	2865.956455
378.763191	2883.918087
379.148991	2921.736823
379.534727	2944.699278
379.920402	2974.563074
380.306013	2986.140084
380.691563	3037.592620
381.077049	3059.856876
381.462474	3075.222313
381.847835	3113.988786
382.233134	3138.478712
382.618371	3139.204638
383.003545	3205.213506
383.388657	3214.083417
383.773706	3244.158940
384.158693	3265.014194
384.543618	3287.598563
384.928480	3323.698266
385.313280	3371.211141
385.698017	3367.553784
386.082692	3421.582350
386.467305	3427.306580
386.851856	3458.334882
387.236344	3483.850682
387.620770	3513.885877
388.005133	3538.547202
388.389435	3568.017787
388.773674	3575.400557
389.157851	3619.745067
389.541965	3634.089670
389.926018	3601.496090
390.310008	3673.415711
390.693936	3690.376673
391.077802	3732.021645
391.461606	3719.207032
391.845348	3779.647946
392.229027	3783.322947
392.612645	3797.579330
392.996200	3873.718397
393.379694	3911.441352
393.763125	3977.057010
394.146494	3944.508800
394.529801	4006.613295
394.913047	4059.215215
395.296230	4021.071324
395.679351	4073.549736
396.062410	4101.127368
396.445408	4082.641457
396.828343	4114.635140
397.211217	4136.783449
397.594028	4058.426274
397.976778	4125.481182
398.359466	4151.639729
398.742092	4180.147454
399.124656	4105.427472
399.507158	4183.860264
399.889598	4208.529151
400.271977	4270.948718
400.654294	4242.113318
401.036549	4252.412395
401.418742	4218.682034
401.800874	4321.919824
402.182944	4340.002443
402.564952	4408.496600
402.946898	4398.245414
403.328783	4394.114188
403.710606	4301.427534
404.092367	4496.063963
404.474067	4462.419302
404.855705	4471.314418
405.237282	4398.497472
405.618797	4505.349768
406.000250	4542.258576
406.381642	4620.890494
406.762972	4584.642077
407.144240	4593.748922
407.525447	4595.732616
407.906593	4653.567253
408.287677	4696.984191
408.668700	4624.058859
409.049661	4678.611706
409.430560	4720.193663
409.811399	4647.893435
410.192176	4806.241118
410.572891	4751.353035
410.953545	4847.306357
411.334138	4731.826126
411.714669	4795.402637
412.095139	4688.570505
412.475547	4832.858410
412.855894	4812.681192
413.236180	4824.500177
413.616405	4779.149957
413.996568	4862.001321
414.376670	4805.212723
414.756711	4762.612452
415.136691	4792.982883
415.516609	4869.326117
415.896466	4910.948404
416.276262	4941.195327
416.655997	4926.938944
417.035670	5102.413948
417.415283	5197.994225
417.794834	5139.426099
418.174324	5094.181743
418.553753	5002.959544
418.933121	5181.862532
419.312428	5255.337350
419.691674	5191.060118
420.070859	5318.366896
420.449983	5226.920365
420.829045	5348.218089
421.208047	5253.560343
421.586988	5325.515252
421.965867	5336.439433
422.344686	5468.505061
422.723444	5320.438810
423.102141	5142.745699
423.480777	5441.250062
423.859352	5208.867993
424.237866	5469.062108
424.616319	5459.073062
424.994712	5566.953754
425.373044	5448.284993
425.751314	5592.567857
426.129524	5393.911107
426.507673	5585.301033
426.885762	5673.317059
427.263789	5600.545483
427.641756	5481.796063
428.019662	5606.141163
428.397508	5608.334065
428.775292	5559.626437
429.153016	5658.312065
429.530679	5584.436476
429.908282	5665.601573
430.285824	5537.735226
430.663305	5815.580941
431.040726	5549.972627
431.418086	5547.862904
431.795385	5653.782588
432.172624	5664.774824
432.549802	5662.685266
432.926920	5675.746895
433.303977	5677.975085
433.680974	5713.595878
434.057910	5731.746553
434.434786	5742.927832
434.811601	5711.740734
435.188355	5944.654644
435.565050	5824.092929
435.941683	5800.497809
436.318257	6018.873032
436.694770	6000.676987
437.071222	6031.770824
437.447614	5965.368745
437.823946	5881.884717
438.200218	6033.424322
438.576429	5899.654784
438.952580	5995.502243
439.328670	6040.905395
439.704700	5946.408966
440.080670	5934.020330
440.456580	6206.416558
440.832429	6089.950780
441.208218	5936.094765
441.583947	6088.128403
441.959616	6095.576708
442.335224	6020.587024
442.710773	6164.320402
443.086261	6187.567683
443.461689	5981.465150
443.837057	6130.842100
444.212365	6286.165091
444.587612	6174.886661
444.962800	6333.592266
445.337927	6314.650131
445.712995	5922.899545
446.088002	6501.215673
446.462949	6328.583880
446.837837	6260.087202
447.212664	6435.027843
447.587431	6578.620070
447.962139	7121.877493
448.336786	8045.953761
448.711374	7787.715614
449.085901	6862.285797
449.460369	6779.749505
449.834776	6717.950000
450.209124	7105.587005
450.583412	7262.293792
450.957640	7403.937613
451.331808	7175.749784
451.705917	6717.128292
452.079965	6647.033568
452.453954	6855.548294
452.827883	6736.874492
453.201752	6821.709549
453.575562	6626.160671
453.949311	6829.634243
454.323001	6719.278344
454.696632	6793.000178
455.070202	6927.820797
455.443713	7085.999601
455.817164	7188.997936
456.190556	7273.583457
456.563888	7342.128025
456.937160	7384.796352
457.310373	7041.027468
457.683526	7066.681900
458.056619	6958.120652
458.429653	6946.336955
458.802628	6883.942593
459.175542	6988.115517
459.548398	7349.795620
459.921194	7506.419229
460.293930	7513.552462
460.666607	8038.747431
461.039224	8352.309721
461.411782	8482.724371
461.784280	8498.392277
462.156719	8387.262561
462.529099	8266.468953
462.901419	7855.083073
463.273680	7747.164572
463.645882	7755.782425
464.018024	7621.801158
464.390106	7793.961603
464.762130	8177.893360
465.134094	8651.169486
465.505999	9673.074385
465.877845	10896.673329
466.249631	11544.375898
466.621358	11159.902218
466.993026	10532.031547
467.364634	10280.934195
467.736184	9909.340663
468.107674	9578.202390
468.479105	9612.081464
468.850477	9374.038180
469.221790	9143.367583
469.593043	8819.760794
469.964238	8687.201133
470.335373	8691.511319
470.706449	8745.156758
471.077467	8727.021207
471.448425	10038.406804
471.819324	11111.058478
472.190164	11137.267437
472.560945	9896.198375
472.931667	9101.142878
473.302330	8961.351682
473.672934	8607.918906
474.043479	8969.800656
474.413965	8906.859329
474.784393	8794.544942
475.154761	8944.680586
475.525070	9034.224081
475.895321	8861.680509
476.265513	9038.761120
476.635645	9208.259836
477.005719	9210.064569
477.375734	9323.840890
477.745691	9554.264471
478.115588	9696.442653
478.485427	9931.746071
478.855207	10472.145160
479.224928	11284.607761
479.594591	11920.882035
479.964194	11731.069990
480.333739	11676.769201
480.703226	11584.029614
481.072653	11673.757112
481.442022	11915.762743
481.811333	12108.934717
482.180584	11913.153946
482.549777	11616.882814
482.918912	11446.063316
483.287988	11457.973042
483.657005	11492.641057
484.025964	11163.310038
484.394864	11295.035388
484.763706	11256.745304
485.132489	11020.431135
485.501213	10983.885290
485.869879	11058.753987
486.238487	10897.358926
486.607036	11013.491987
486.975527	10778.387695
487.343959	10973.185441
487.712333	11022.031701
488.080648	10955.861516
488.448905	11000.332055
488.817104	10937.037848
489.185244	11202.694052
489.553326	11358.160716
489.921350	11902.980898
490.289315	12960.294861
490.657222	13306.029795
491.025070	13218.918657
491.392861	13082.510075
491.760593	12709.396634
492.128267	12368.743184
492.495883	12027.716688
492.863440	11684.199862
493.230939	11355.675427
493.598380	11291.710747
493.965763	11151.425518
494.333088	11056.034284
494.700354	10975.685853
495.067563	11037.034175
495.434713	10866.905315
495.801805	10998.194605
496.168839	10916.583366
496.535815	10845.906389
496.902733	10855.751762
497.269593	10787.895311
497.636395	10886.439786
498.003139	10869.491427
498.369825	10734.887578
498.736453	10894.581250
499.103023	10823.967287
499.469535	10852.129693
499.835989	10845.414876
500.202385	10804.664709
500.568723	10655.217183
500.935003	10880.103056
501.301226	10683.795484
501.667390	10944.448344
502.033497	11041.356965
502.399546	10903.118444
502.765537	10811.591255
503.131470	10880.622295
503.497345	11053.788450
503.863163	10669.869297
504.228923	10977.069650
504.594625	11045.321832
504.960269	10787.227358
505.325856	11013.285299
505.691385	10807.258383
506.056856	10958.482916
506.422270	10978.312295
506.787625	10870.930677
507.152924	10989.632206
507.518164	10968.678650
507.883347	10890.883563
508.248472	10814.827675
508.613540	11048.001205
508.978550	10930.718761
509.343503	10904.552652
509.708398	11020.985662
510.073236	11138.346244
510.438016	11135.986984
510.802738	11091.014851
511.167403	11136.002108
511.532010	11031.567044
511.896561	11269.544793
512.261053	11344.637821
512.625488	11208.498941
512.989866	11192.052177
513.354186	11176.913592
513.718449	11080.617471
514.082655	11274.558221
514.446803	11168.507467
514.810894	11291.446086
515.174927	11157.308544
515.538904	11183.809890
515.902822	11344.678150
516.266684	11214.129910
516.630488	11165.354226
516.994235	11219.375230
517.357925	11286.788060
517.721558	11370.347706
518.085133	11390.131714
518.448651	11397.343085
518.812112	11282.704726
519.175516	11286.714963
519.538863	11420.262691
519.902152	11331.780358
520.265385	11491.428659
520.628560	11401.156718
520.991678	11377.163346
521.354739	11445.420569
521.717743	11376.167718
522.080690	11353.235509
522.443580	11487.854481
522.806413	11445.065167
523.169189	11478.861063
523.531908	11528.481140
523.894569	11359.355470
524.257174	11358.937054
524.619722	11477.144550
524.982213	11422.548854
525.344647	11468.745988
525.707025	11423.965418
526.069345	11520.778257
526.431608	11438.854466
526.793815	11547.960159
527.155964	11335.117602
527.518057	11386.814635
527.880093	11343.987512
528.242072	11411.244066
528.603995	11317.602113
528.965860	11235.333003
529.327669	11284.161619
529.689421	11239.071018
530.051117	11207.848632
530.412755	11317.226547
530.774337	11198.504853
531.135862	11189.864316
531.497331	11205.391070
531.858743	11056.873636
532.220098	11221.568132
532.581396	11091.841600
532.942638	11070.885523
533.303824	11038.259176
533.664953	11051.640918
534.026025	10959.360077
534.387040	11068.077601
534.747999	11066.015769
535.108902	11126.859975
535.469748	10883.054652
535.830537	10988.659263
536.191270	10962.220932
536.551947	10990.640436
536.912567	10980.996709
537.273131	10911.385936
537.633638	10892.204346
537.994089	10876.233970
538.354483	10834.992291
538.714821	10972.630914
539.075103	10980.043931
539.435328	10944.196286
539.795497	10777.603795
540.155609	10931.666498
540.515665	11016.874601
540.875665	10750.600855
541.235609	10826.485344
541.595496	10819.760444
541.955328	10979.769188
542.315102	10857.354849
542.674821	10816.478653
543.034483	10806.461881
543.394090	10814.880608
543.753640	10742.663558
544.113134	10965.417023
544.472571	10813.756430
544.831953	10955.112905
545.191278	10765.636096
545.550548	10788.192739
545.909761	10928.125088
546.268918	10908.310832
546.628019	10984.704478
546.987064	10851.716319
547.346053	10776.905596
547.704986	10875.971830
548.063863	10861.768379
548.422684	10849.294044
548.781449	10770.029462
549.140158	10873.302539
549.498811	10745.597510
549.857408	10604.684657
550.215949	10831.763432
550.574434	10686.096771
550.932864	10780.378951
551.291237	10842.879176
551.649555	10789.533686
552.007817	10801.864348
552.366022	10761.522515
552.724173	10755.029508
553.082267	10745.325287
553.440305	10878.628518
553.798288	10677.388178
554.156215	10829.164717
554.514086	10811.709722
554.871902	10656.641309
555.229661	10693.812257
555.587365	10671.900882
555.945014	10565.623276
556.302606	10691.392503
556.660143	10589.006668
557.017625	10740.011911
557.375050	10639.597168
557.732421	10772.260172
558.089735	10686.288335
558.446994	10686.545433
558.804197	10721.944416
559.161345	10729.773328
559.518437	10575.345141
559.875474	10663.860241
560.232455	10690.222955
560.589381	10644.741665
560.946251	10639.947528
561.303065	10746.434341
561.659825	10686.774806
562.016528	10611.931315
562.373177	10487.457665
562.729770	10609.816551
563.086307	10516.403971
563.442789	10617.867274
563.799216	10494.220373
564.155587	10533.823678
564.511904	10489.761472
564.868164	10483.891049
565.224370	10500.433595
565.580520	10418.918137
565.936615	10427.107492
566.292654	10297.403645
566.648638	10434.281054
567.004567	10390.080217
567.360441	10371.934584
567.716260	10278.166602
568.072023	10372.993226
568.427732	10321.822994
568.783385	10237.159336
569.138982	10306.969234
569.494525	10322.427932
569.850013	10200.525271
570.205445	10278.058217
570.560823	10177.000726
570.916145	10094.812274
571.271412	10165.068315
571.626625	10110.293658
571.981782	10088.031923
572.336884	10062.435464
572.691931	10065.041740
573.046923	10005.493111
573.401860	9965.544487
573.756743	9902.605681
574.111570	9945.337022
574.466342	9930.142984
574.821059	9960.568868
575.175722	9851.541313
575.530330	9862.241162
575.884882	9848.259522
576.239380	9778.762175
576.593823	9751.156817
576.948211	9770.582903
577.302544	9655.947065
577.656823	9676.903141
578.011047	9666.624228
578.365216	9640.506010
578.719330	9563.920801
579.073389	9578.063758
579.427394	9522.505202
579.781344	9503.920988
580.135239	9453.206980
580.489080	9458.134708
580.842866	9358.478658
581.196597	9366.322694
581.550273	9404.247294
581.903895	9375.487512
582.257463	9438.791801
582.610975	9319.077000
582.964434	9347.957770
583.317837	9266.495245
583.671186	9244.535979
584.024481	9238.726049
584.377721	9160.565479
584.730906	9134.538002
585.084037	9172.412191
585.437113	9103.973486
585.790135	9129.015418
586.143103	9026.695118
586.496016	8993.146239
586.848874	9061.204337
587.201679	9048.551041
587.554428	8929.577289
587.907124	8978.035381
588.259765	8949.545300
588.612352	8948.607645
588.964884	8829.197834
589.317362	8837.029266
589.669786	8839.179318
590.022155	8898.370026
590.374470	8908.792612
590.726731	8846.267181
591.078937	8697.578348
591.431090	8815.806009
591.783188	8683.952109
592.135232	8673.501797
592.487222	8673.572373
592.839157	8732.359789
593.191038	8663.711877
593.542866	8600.155529
593.894639	8499.403029
594.246358	8556.761277
594.598022	8573.255933
594.949633	8465.874314
595.301190	8439.128473
595.652692	8469.919840
596.004141	8582.360256
596.355535	8356.120833
596.706876	8339.663987
597.058162	8272.067155
597.409395	8349.617745
597.760573	8412.286849
598.111698	8323.567583
598.462768	8306.122670
598.813785	8268.326619
599.164748	8242.430211
599.515657	8226.321204
599.866511	8139.890622
600.217312	8269.304603
600.568060	8129.488201
600.918753	8230.202893
601.269392	8200.674334
601.619978	8114.407589
601.970510	8174.782968
602.320988	8171.937237
602.671412	8226.658962
603.021783	8164.257039
603.372100	8137.019684
603.722363	8140.263667
604.072572	8111.362732
604.422728	8124.058878
604.772830	8053.167652
605.122878	8062.090494
605.472872	8059.353148
605.822813	8087.437416
606.172701	8028.627315
606.522534	8109.547917
606.872314	8106.820652
607.222041	8074.668173
607.571714	8132.865774
607.921333	8086.953465
608.270899	8091.498065
608.620411	8187.317797
608.969870	8088.485976
609.319276	8083.124709
609.668627	8103.707740
610.017926	8130.687995
610.367171	8186.228908
610.716362	8155.286305
611.065500	8147.903536
611.414585	8172.799274
611.763616	8164.872059
612.112594	8142.370869
612.461518	8162.893407
612.810389	8219.389618
613.159207	8161.247470
613.507971	8105.061290
613.856682	8222.469763
614.205340	8181.444853
614.553945	8259.633149
614.902496	8153.758836
615.250994	8207.530303
615.599439	8194.264507
615.947830	8206.617854
616.296169	8175.771034
616.644454	8188.956172
616.992686	8188.310904
617.340864	8250.944720
617.688990	8148.271540
618.037063	8240.413750
618.385082	8186.266716
618.733048	8275.845500
619.080961	8210.678504
619.428821	8233.451916
619.776628	8231.808500
620.124382	8187.327879
620.472083	8172.776589
620.819731	8196.475053
621.167326	8089.020338
621.514868	8096.501410
621.862357	7985.018814
622.209793	8005.412802
622.557176	7932.719363
622.904506	7909.537617
623.251783	7845.381373
623.599007	7795.713404
623.946179	7805.354611
624.293297	7759.812827
624.640363	7678.541866
624.987376	7660.678537
625.334336	7603.680731
625.681243	7556.268679
626.028097	7546.582102
626.374899	7516.347782
626.721647	7513.136567
627.068343	7442.678880
627.414987	7411.779127
627.761577	7368.417643
628.108115	7408.686380
628.454600	7301.818959
628.801032	7353.430292
629.147412	7311.893705
629.493739	7300.719988
629.840014	7233.718012
630.186236	7287.829757
630.532405	7175.754825
630.878521	7220.782411
631.224585	7181.595002
631.570597	7109.819053
631.916556	7141.157386
632.262462	7137.134545
632.608316	7096.981755
632.954117	7071.234062
633.299866	7057.842237
633.645562	7052.256638
633.991206	6972.979453
634.336797	6917.078098
634.682336	6868.592280
635.027823	6842.660585
635.373257	6831.562484
635.718639	6759.784015
636.063968	6775.686335
636.409245	6671.226066
636.754470	6666.121898
637.099642	6629.777699
637.444762	6563.668007
637.789829	6577.165697
638.134845	6524.972110
638.479808	6504.615931
638.824719	6512.109606
639.169577	6438.302073
639.514383	6459.729497
639.859137	6384.654114
640.203839	6396.858747
640.548489	6381.422734
