Dividing Wavelength (nm)	Counts (n)	Blue Motor Position (mm): 10.900000	Red Motor Position (mm): 0.000000	
326.493990	2162.791111
326.888308	2162.791111
327.282561	2162.791111
327.676750	2122.061109
328.070874	2117.531632
328.464933	2117.995418
328.858929	2121.388115
329.252859	2125.108486
329.646726	2132.657614
330.040528	2149.311066
330.434265	2161.982006
330.827938	2179.527742
331.221547	2194.822603
331.615091	2212.867413
332.008571	2230.183776
332.401986	2251.165059
332.795338	2270.744900
333.188625	2287.531943
333.581847	2307.414253
333.975006	2324.261789
334.368100	2340.600169
334.761129	2362.511544
335.154095	2375.742053
335.546996	2399.339694
335.939833	2419.756367
336.332606	2435.046186
336.725315	2450.101592
337.117960	2462.575928
337.510540	2472.038173
337.903056	2484.401603
338.295508	2492.343941
338.687896	2501.642349
339.080220	2509.322547
339.472480	2514.877899
339.864676	2518.323527
340.256807	2527.180835
340.648875	2530.399611
341.040879	2531.559077
341.432818	2538.014274
341.824694	2538.140303
342.216506	2542.072403
342.608253	2539.859337
342.999937	2536.859850
343.391557	2540.975952
343.783113	2538.281455
344.174605	2538.372196
344.566033	2538.596528
344.957397	2537.963863
345.348697	2535.415559
345.739934	2532.872297
346.131106	2531.405322
346.522215	2531.879190
346.913260	2529.928263
347.304241	2528.615043
347.695159	2525.847449
348.086012	2522.381656
348.476802	2521.065915
348.867528	2515.119874
349.258191	2513.630213
349.648789	2514.303207
350.039324	2510.348422
350.429796	2511.712054
350.820203	2512.805984
351.210548	2509.153668
351.600828	2509.012516
351.991045	2510.093844
352.381198	2505.317350
352.771288	2506.628050
353.161314	2504.193173
353.551276	2506.804491
353.941175	2503.731908
354.331010	2503.389109
354.720782	2503.265601
355.110490	2507.285921
355.500135	2505.428256
355.889717	2507.885818
356.279235	2502.950529
356.668689	2506.335663
357.058080	2501.760816
357.447408	2503.910868
357.836672	2504.178050
358.225873	2505.440859
358.615010	2506.398678
359.004084	2505.007319
359.393095	2509.062928
359.782043	2508.185767
360.170927	2508.858761
360.559748	2509.193998
360.948505	2508.891528
361.337199	2511.578463
361.725830	2508.480674
362.114398	2513.670542
362.502903	2516.228928
362.891344	2510.855058
363.279722	2510.529903
363.668037	2513.821777
364.056289	2514.595594
364.444478	2513.491581
364.832603	2517.436284
365.220665	2514.058711
365.608665	2515.162724
365.996601	2515.810512
366.384474	2517.027951
366.772284	2518.444515
367.160031	2516.894360
367.547715	2516.233969
367.935336	2517.267406
368.322893	2515.855883
368.710388	2513.514267
369.097820	2517.325379
369.485189	2512.490912
369.872495	2518.053826
370.259738	2519.853518
370.646918	2520.062725
371.034035	2517.398476
371.421090	2520.642458
371.808081	2521.428878
372.195010	2519.525842
372.581875	2520.057684
372.968678	2520.297139
373.355418	2518.827643
373.742096	2521.643127
374.128710	2521.234794
374.515262	2522.883251
374.901751	2522.532891
375.288177	2521.257479
375.674540	2520.375277
376.060841	2523.457943
376.447079	2524.304856
376.833254	2524.393077
377.219367	2526.255783
377.605417	2525.781914
377.991404	2523.130267
378.377329	2523.825947
378.763191	2525.323169
379.148991	2525.391225
379.534727	2526.243180
379.920402	2527.349713
380.306013	2524.317459
380.691563	2525.950793
381.077049	2524.892151
381.462474	2527.173273
381.847835	2523.659589
382.233134	2527.415248
382.618371	2525.638242
383.003545	2524.592202
383.388657	2525.091276
383.773706	2529.593027
384.158693	2527.117820
384.543618	2530.389529
384.928480	2529.053623
385.313280	2528.244518
385.698017	2529.076308
386.082692	2527.442975
386.467305	2526.875845
386.851856	2528.763757
387.236344	2529.449354
387.620770	2526.275948
388.005133	2525.232429
388.389435	2528.057995
388.773674	2523.641945
389.157851	2529.156967
389.541965	2528.509179
389.926018	2530.812986
390.310008	2530.172759
390.693936	2530.182842
391.077802	2531.312060
391.461606	2530.603778
391.845348	2528.667975
392.229027	2530.460105
392.612645	2530.069416
392.996200	2532.282482
393.379694	2531.496062
393.763125	2532.486649
394.146494	2531.609488
394.529801	2531.145702
394.913047	2532.743748
395.296230	2534.182997
395.679351	2533.426824
396.062410	2535.024870
396.445408	2533.625950
396.828343	2533.789787
397.211217	2530.656710
397.594028	2534.346835
397.976778	2535.244160
398.359466	2533.802390
398.742092	2535.491177
399.124656	2532.650487
399.507158	2533.094108
399.889598	2535.667617
400.271977	2534.906403
400.654294	2535.513862
401.036549	2534.954294
401.418742	2536.264994
401.800874	2538.132741
402.182944	2537.185004
402.564952	2535.440765
402.946898	2538.198276
403.328783	2538.271373
403.710606	2537.129552
404.092367	2535.597041
404.474067	2537.724408
404.855705	2535.879346
405.237282	2537.016126
405.618797	2537.976466
406.000250	2539.027546
406.381642	2535.027391
406.762972	2537.242978
407.144240	2533.260466
407.525447	2535.435724
407.906593	2534.951773
408.287677	2536.542257
408.668700	2538.848585
409.049661	2539.435880
409.430560	2537.144675
409.811399	2541.303627
410.192176	2540.134079
410.572891	2539.428318
410.953545	2536.534696
411.334138	2537.686599
411.714669	2538.399922
412.095139	2542.279090
412.475547	2540.086188
412.855894	2541.671631
413.236180	2541.598535
413.616405	2540.134079
413.996568	2541.427135
414.376670	2540.754141
414.756711	2540.991076
415.136691	2539.216589
415.516609	2539.546785
415.896466	2544.119112
416.276262	2539.897145
416.655997	2542.687424
417.035670	2541.482588
417.415283	2543.738504
417.794834	2542.095088
418.174324	2543.398227
418.553753	2541.671631
418.933121	2544.073741
419.312428	2542.909235
419.691674	2545.034081
420.070859	2544.224976
420.449983	2541.772454
420.829045	2538.362114
421.208047	2545.550799
421.586988	2540.343287
421.965867	2542.226158
422.344686	2543.062990
422.723444	2542.866385
423.102141	2539.829090
423.480777	2542.916796
423.859352	2545.018957
424.237866	2545.392003
424.616319	2544.103988
424.994712	2544.340922
425.373044	2543.010058
425.751314	2541.427135
426.129524	2542.059800
426.507673	2543.115922
426.885762	2540.439069
427.263789	2544.146838
427.641756	2545.071890
428.019662	2547.037940
428.397508	2547.421067
428.775292	2543.652805
429.153016	2542.407640
429.530679	2546.054915
429.908282	2547.373176
430.285824	2546.617003
430.663305	2546.102806
431.040726	2545.371838
431.418086	2547.247147
431.795385	2544.643392
432.172624	2546.831252
432.549802	2545.654143
432.926920	2549.772766
433.303977	2544.348484
433.680974	2545.331509
434.057910	2549.437529
434.434786	2546.904349
434.811601	2546.483413
435.188355	2548.746891
435.565050	2546.911911
435.941683	2548.222611
436.318257	2547.441232
436.694770	2546.284287
437.071222	2546.566592
437.447614	2545.084493
437.823946	2548.651109
438.200218	2545.843186
438.576429	2548.893084
438.952580	2547.998279
439.328670	2547.683207
439.704700	2549.916438
440.080670	2545.381921
440.456580	2548.487271
440.832429	2548.333516
441.208218	2551.174206
441.583947	2551.572457
441.959616	2547.426108
442.335224	2549.969371
442.710773	2548.726726
443.086261	2549.692107
443.461689	2549.563558
443.837057	2550.453321
444.212365	2550.531459
444.587612	2547.930224
444.962800	2544.872764
445.337927	2546.390151
445.712995	2547.090872
446.088002	2552.101779
446.462949	2549.682025
446.837837	2549.606408
447.212664	2550.256716
447.587431	2550.838970
447.962139	2550.944834
448.336786	2552.845349
448.711374	2550.513815
449.085901	2550.884340
449.460369	2551.161603
449.834776	2552.426933
450.209124	2551.721172
450.583412	2552.361398
450.957640	2551.350647
451.331808	2552.071532
451.705917	2549.641696
452.079965	2549.167827
452.453954	2551.118754
452.827883	2553.808209
453.201752	2549.704710
453.575562	2551.809392
453.949311	2549.797971
454.323001	2551.166645
454.696632	2551.494320
455.070202	2553.717468
455.443713	2553.813250
455.817164	2551.365770
456.190556	2552.716799
456.563888	2555.267623
456.937160	2550.518856
457.310373	2551.146480
457.683526	2550.743188
458.056619	2554.027499
458.429653	2555.224773
458.802628	2551.892571
459.175542	2552.701676
459.548398	2556.401883
459.921194	2553.256203
460.293930	2552.275698
460.666607	2552.447098
461.039224	2552.615976
461.411782	2551.900132
461.784280	2552.810061
462.156719	2552.560524
462.529099	2556.328786
462.901419	2551.461552
463.273680	2552.706717
463.645882	2549.704710
464.018024	2551.663198
464.390106	2551.053219
464.762130	2555.423899
465.134094	2555.194527
465.505999	2554.072870
465.877845	2552.258054
466.249631	2556.293498
466.621358	2556.464897
466.993026	2554.791234
467.364634	2560.276010
467.736184	2555.867521
468.107674	2556.527912
468.479105	2555.207129
468.850477	2555.933056
469.221790	2556.031358
469.593043	2555.318035
469.964238	2557.417675
470.335373	2556.520350
470.706449	2555.796944
471.077467	2554.511450
471.448425	2555.416337
471.819324	2557.095042
472.190164	2556.787531
472.560945	2557.105124
472.931667	2555.423899
473.302330	2554.687891
473.672934	2556.192675
474.043479	2555.683518
474.413965	2559.061092
474.784393	2558.468756
475.154761	2558.740978
475.525070	2557.810885
475.895321	2558.206616
476.265513	2557.430278
476.635645	2556.679146
477.005719	2556.661502
477.375734	2558.347768
477.745691	2561.697615
478.115588	2559.371122
478.485427	2559.676112
478.855207	2560.684343
479.224928	2561.730383
479.594591	2560.880948
479.964194	2560.959086
480.333739	2561.745506
480.703226	2560.018911
481.072653	2562.068140
481.442022	2559.381205
481.811333	2557.165618
482.180584	2557.662171
482.549777	2559.784497
482.918912	2554.667726
483.287988	2562.829354
483.657005	2562.720969
484.025964	2562.206772
484.394864	2559.781977
484.763706	2562.163922
485.132489	2560.676781
485.501213	2564.581155
485.869879	2562.617626
486.238487	2563.444375
486.607036	2564.150136
486.975527	2562.912533
487.343959	2562.443706
487.712333	2560.447409
488.080648	2561.755588
488.448905	2564.631567
488.817104	2562.776422
489.185244	2562.685681
489.553326	2563.769529
489.921350	2562.967986
490.289315	2563.663665
490.657222	2565.549057
491.025070	2562.839436
491.392861	2565.307081
491.760593	2564.452606
492.128267	2564.281206
492.495883	2563.968655
492.863440	2564.780281
493.230939	2562.965465
493.598380	2563.840105
493.965763	2562.322718
494.333088	2563.976217
494.700354	2562.768860
495.067563	2566.206927
495.434713	2565.279355
495.801805	2564.225754
496.168839	2563.595609
496.535815	2565.791032
496.902733	2564.923953
497.269593	2564.261042
497.636395	2565.937225
498.003139	2564.928995
498.369825	2562.574776
498.736453	2564.969324
499.103023	2561.760629
499.469535	2564.752554
499.835989	2564.477811
500.202385	2563.900599
500.568723	2560.893551
500.935003	2561.843808
501.301226	2560.341545
501.667390	2567.154664
502.033497	2565.148285
502.399546	2565.314643
502.765537	2562.970506
503.131470	2566.832030
503.497345	2568.455282
503.863163	2566.622822
504.228923	2563.945970
504.594625	2566.816907
504.960269	2565.859087
505.325856	2564.500497
505.691385	2567.227761
506.056856	2567.273131
506.422270	2566.065775
506.787625	2563.542677
507.152924	2568.208265
507.518164	2567.323543
507.883347	2565.047462
508.248472	2569.009809
508.613540	2564.845816
508.978550	2568.193142
509.343503	2563.335990
509.708398	2567.429407
510.073236	2569.836558
510.438016	2566.852195
510.802738	2566.027966
511.167403	2566.995868
511.532010	2564.021587
511.896561	2568.062072
512.261053	2568.687175
512.625488	2569.027453
512.989866	2568.127607
513.354186	2569.375292
513.718449	2570.088616
514.082655	2568.606516
514.446803	2569.156002
514.810894	2570.806980
515.174927	2568.752710
515.538904	2569.317319
515.902822	2569.992834
516.266684	2568.034345
516.630488	2571.732032
516.994235	2569.455951
517.357925	2571.611044
517.721558	2573.062896
518.085133	2572.183215
518.448651	2572.004254
518.812112	2569.899572
519.175516	2572.931826
519.538863	2566.166598
519.902152	2577.322671
520.265385	2574.509708
520.628560	2576.528690
520.991678	2576.120356
521.354739	2576.193453
521.717743	2578.799729
522.080690	2578.580439
522.443580	2578.754359
522.806413	2581.048084
523.169189	2580.682600
523.531908	2583.077148
523.894569	2580.100347
524.257174	2582.686459
524.619722	2583.520770
524.982213	2581.693352
525.344647	2581.617734
525.707025	2585.769125
526.069345	2587.316759
526.431608	2586.384145
526.793815	2585.111254
527.155964	2585.907756
527.518057	2587.533528
527.880093	2590.444795
528.242072	2588.924887
528.603995	2589.164342
528.965860	2592.688108
529.327669	2589.237438
529.689421	2592.093252
530.051117	2592.196596
530.412755	2593.093921
530.774337	2595.876638
531.135862	2595.352358
531.497331	2595.743047
531.858743	2596.284972
532.220098	2596.862184
532.581396	2598.145157
532.942638	2599.733121
533.303824	2599.229005
533.664953	2600.443923
534.026025	2598.515682
534.387040	2601.363934
534.747999	2601.242946
535.108902	2602.432659
535.469748	2600.504417
535.830537	2602.576332
536.191270	2606.067331
536.551947	2603.037597
536.912567	2601.779829
537.273131	2603.937443
537.633638	2602.213368
537.994089	2608.744183
538.354483	2605.449789
538.714821	2611.355501
539.075103	2609.654112
539.435328	2610.080089
539.795497	2610.012033
540.155609	2610.690069
540.515665	2610.765686
540.875665	2611.892384
541.235609	2611.990686
541.595496	2611.736108
541.955328	2613.200563
542.315102	2616.502519
542.674821	2616.588219
543.034483	2613.228290
543.394090	2618.483692
543.753640	2617.636779
544.113134	2621.309259
544.472571	2618.745832
544.831953	2619.610390
545.191278	2620.328755
545.550548	2620.308590
545.909761	2617.450256
546.268918	2620.663992
546.628019	2623.595422
546.987064	2623.111472
547.346053	2624.341513
547.704986	2621.578961
548.063863	2625.984929
548.422684	2623.698766
548.781449	2625.710187
549.140158	2625.039713
549.498811	2626.514251
549.857408	2625.163221
550.215949	2626.451236
550.574434	2624.366719
550.932864	2628.616412
551.291237	2624.338993
551.649555	2628.976854
552.007817	2627.590537
552.366022	2626.547018
552.724173	2630.723614
553.082267	2629.110445
553.440305	2631.280662
553.798288	2627.784621
554.156215	2632.482977
554.514086	2628.477780
554.871902	2623.804630
555.229661	2625.677419
555.587365	2626.017697
555.945014	2630.262348
556.302606	2630.592544
556.660143	2627.593058
557.017625	2634.081022
557.375050	2632.205713
557.732421	2632.714870
558.089735	2633.730662
558.446994	2632.208234
558.804197	2633.942391
559.161345	2632.561115
559.518437	2629.175980
559.875474	2634.151599
560.232455	2631.401649
560.589381	2632.876187
560.946251	2632.316619
561.303065	2632.036835
561.659825	2632.924078
562.016528	2633.942391
562.373177	2633.725621
562.729770	2631.298306
563.086307	2632.157822
563.442789	2636.725108
563.799216	2636.110087
564.155587	2635.439613
564.511904	2636.929274
564.868164	2636.490694
565.224370	2636.266363
565.580520	2633.796197
565.936615	2641.103350
566.292654	2635.356434
566.648638	2636.949439
567.004567	2636.558750
567.360441	2636.168060
567.716260	2631.499952
568.072023	2638.040849
568.427732	2637.778709
568.783385	2637.148565
569.138982	2635.157309
569.494525	2639.233082
569.850013	2640.604276
570.205445	2637.400622
570.560823	2636.178142
570.916145	2634.441465
571.271412	2638.817187
571.626625	2639.253246
571.981782	2638.953298
572.336884	2635.371558
572.691931	2637.534213
573.046923	2634.103708
573.401860	2635.159829
573.756743	2641.181488
574.111570	2640.931951
574.466342	2637.836682
574.821059	2639.525469
575.175722	2637.057824
575.530330	2644.811118
575.884882	2643.031591
576.239380	2641.647794
576.593823	2641.804070
576.948211	2643.883546
577.302544	2644.153248
577.656823	2643.598721
578.011047	2643.248361
578.365216	2644.392703
578.719330	2644.143166
579.073389	2643.828093
579.427394	2649.146511
579.781344	2646.257930
580.135239	2645.181643
580.489080	2645.491674
580.842866	2645.789102
581.196597	2655.810916
581.550273	2646.820018
581.903895	2653.504588
582.257463	2653.834784
582.610975	2650.721871
582.964434	2655.919301
583.317837	2654.674136
583.671186	2656.065494
584.024481	2660.194199
584.377721	2658.344096
584.730906	2660.584889
585.084037	2660.957934
585.437113	2662.641680
585.790135	2661.749395
586.143103	2662.613953
586.496016	2663.816268
586.848874	2669.043945
587.201679	2668.741476
587.554428	2665.835251
587.907124	2671.889676
588.259765	2672.532423
588.612352	2674.024605
588.964884	2673.694409
589.317362	2676.154492
589.669786	2678.438135
590.022155	2678.642302
590.374470	2681.137673
590.726731	2683.945596
591.078937	2680.016016
591.431090	2688.306194
591.783188	2687.610515
592.135232	2689.420289
592.487222	2692.941535
592.839157	2693.249045
593.191038	2697.720549
593.542866	2698.383460
593.894639	2700.674665
594.246358	2703.318750
594.598022	2705.194059
594.949633	2706.199769
595.301190	2706.976107
595.652692	2710.444421
596.004141	2715.135215
596.355535	2713.106150
596.706876	2716.138404
597.058162	2718.227962
597.409395	2720.753581
597.760573	2723.027141
598.111698	2725.870352
598.462768	2727.286916
598.813785	2728.743809
599.164748	2730.117524
599.515657	2735.577093
599.866511	2736.451734
600.217312	2742.612024
600.568060	2740.882908
600.918753	2748.827766
601.269392	2750.874475
601.619978	2748.900863
601.970510	2760.170362
602.320988	2762.179262
602.671412	2769.292330
603.021783	2770.625716
603.372100	2770.061106
603.722363	2776.544030
604.072572	2785.045936
604.422728	2785.708848
604.772830	2790.896195
605.122878	2790.828140
605.472872	2799.239305
605.822813	2804.409008
606.172701	2807.645429
606.522534	2817.576502
606.872314	2822.685711
607.222041	2821.904332
607.571714	2829.947493
607.921333	2835.757423
608.270899	2846.716892
608.620411	2853.197295
608.969870	2856.393387
609.319276	2867.597351
609.668627	2878.171171
610.017926	2891.305898
610.367171	2904.980027
610.716362	2914.714495
611.065500	2910.860533
611.414585	2924.532143
611.763616	2931.801486
612.112594	2940.641150
612.461518	2941.956891
612.810389	2960.800724
613.159207	2958.517081
613.507971	2965.395736
613.856682	2989.857935
614.205340	2997.190293
614.553945	3019.371370
614.902496	3014.879702
615.250994	3037.804349
615.599439	3045.446738
615.947830	3056.285219
616.296169	3068.263000
616.644454	3079.633323
616.992686	3090.963316
617.340864	3116.189250
617.688990	3125.437247
618.037063	3153.239210
618.385082	3164.438133
618.733048	3187.763552
619.080961	3199.900130
619.428821	3223.996846
619.776628	3240.854464
620.124382	3248.254878
620.472083	3264.200047
620.819731	3284.810805
621.167326	3281.173613
621.514868	3290.315745
621.862357	3296.463432
622.209793	3304.052889
622.557176	3309.832572
622.904506	3307.075061
623.251783	3317.449756
623.599007	3323.736074
623.946179	3333.957014
624.293297	3344.868591
624.640363	3349.347657
624.987376	3355.850745
625.334336	3358.956096
625.681243	3366.706870
626.028097	3377.074003
626.374899	3408.175401
626.721647	3403.086357
627.068343	3415.323758
627.414987	3431.818413
627.761577	3454.738019
628.108115	3476.979590
628.454600	3473.302068
628.801032	3489.532063
629.147412	3506.820700
629.493739	3528.628731
629.840014	3542.854867
630.186236	3565.348496
630.532405	3575.282090
630.878521	3612.684931
631.224585	3622.830253
631.570597	3644.519817
631.916556	3654.145900
632.262462	3673.324970
632.608316	3702.329249
632.954117	3715.116136
633.299866	3740.765526
633.645562	3758.018875
633.991206	3748.039911
634.336797	3746.643512
634.682336	3769.479939
635.027823	3769.885752
635.373257	3790.458700
635.718639	3788.278401
636.063968	3801.105617
636.409245	3797.430616
636.754470	3813.660611
637.099642	3822.182682
637.444762	3815.339315
637.789829	3843.305116
638.134845	3844.951053
638.479808	3864.563662
638.824719	3878.716701
639.169577	3881.690982
639.514383	3904.295516
639.859137	3910.118049
640.203839	3938.257769
640.548489	3931.356430
640.893086	3967.730875
641.237632	3954.144966
641.582125	4004.460722
641.926566	4006.406608
642.270955	4021.623331
642.615292	4041.540929
642.959576	4058.499371
643.303809	4095.831636
643.647990	4097.142336
643.992118	4141.247391
644.336195	4119.187302
