Dividing Wavelength (nm)	Counts (n)	Blue Motor Position (mm): 0.000000	Red Motor Position (mm): 17.000000	
326.493990	2129.169136
326.888308	2129.169136
327.282561	2129.169136
327.676750	2097.926585
328.070874	2093.185379
328.464933	2096.878025
328.858929	2102.750969
329.252859	2116.649430
329.646726	2127.540843
330.040528	2135.621813
330.434265	2155.252066
330.827938	2175.482216
331.221547	2190.396470
331.615091	2211.372711
332.008571	2228.515154
332.401986	2249.204050
332.795338	2268.627616
333.188625	2286.420368
333.581847	2305.420477
333.975006	2324.839002
334.368100	2345.787516
334.761129	2361.399970
335.154095	2377.345139
335.546996	2395.163098
335.939833	2412.056004
336.332606	2421.414906
336.725315	2435.300765
337.117960	2446.633278
337.510540	2452.808692
337.903056	2464.113479
338.295508	2472.169243
338.687896	2480.376242
339.080220	2490.498879
339.472480	2496.031545
339.864676	2502.411125
340.256807	2506.318019
340.648875	2508.952022
341.040879	2511.616272
341.432818	2510.764317
341.824694	2514.545183
342.216506	2514.288084
342.608253	2514.106602
342.999937	2514.913187
343.391557	2513.078207
343.783113	2512.604338
344.174605	2512.700120
344.566033	2512.281704
344.957397	2509.335150
345.348697	2507.227948
345.739934	2506.305417
346.131106	2503.157216
346.522215	2503.227792
346.913260	2502.053203
347.304241	2499.532626
347.695159	2497.821155
348.086012	2497.662358
348.476802	2492.780001
348.867528	2491.852428
349.258191	2490.521564
349.648789	2491.928046
350.039324	2485.964361
350.429796	2488.235401
350.820203	2485.460245
351.210548	2484.764566
351.600828	2484.129381
351.991045	2484.018475
352.381198	2483.151397
352.771288	2485.213229
353.161314	2483.090903
353.551276	2482.806078
353.941175	2484.101654
354.331010	2480.961016
354.720782	2481.001345
355.110490	2482.463279
355.500135	2480.451859
355.889717	2483.836994
356.279235	2483.350523
356.668689	2482.460759
357.058080	2482.065028
357.447408	2481.507981
357.836672	2479.705768
358.225873	2483.534525
358.615010	2482.319607
359.004084	2486.501244
359.393095	2486.584423
359.782043	2490.012407
360.170927	2489.919146
360.559748	2490.088025
360.948505	2490.345123
361.337199	2491.549959
361.725830	2490.824033
362.114398	2494.819148
362.502903	2490.917294
362.891344	2492.369147
363.279722	2492.437202
363.668037	2494.463746
364.056289	2492.452326
364.444478	2496.865856
364.832603	2492.956441
365.220665	2496.603716
365.608665	2496.911226
365.996601	2500.046824
366.384474	2495.908037
366.772284	2500.319046
367.160031	2502.166629
367.547715	2503.351300
367.935336	2504.339367
368.322893	2507.021260
368.710388	2511.477640
369.097820	2518.610873
369.485189	2521.761594
369.872495	2524.481297
370.259738	2532.469005
370.646918	2542.498381
371.034035	2548.351160
371.421090	2559.673592
371.808081	2566.484191
372.195010	2577.156313
372.581875	2591.095104
372.968678	2601.484922
373.355418	2613.687035
373.742096	2632.150261
374.128710	2646.066366
374.515262	2658.298726
374.901751	2676.736746
375.288177	2690.549507
375.674540	2710.005841
376.060841	2730.467884
376.447079	2747.653177
376.833254	2770.557660
377.219367	2781.345729
377.605417	2819.915597
377.991404	2828.606547
378.377329	2850.291070
378.763191	2869.470140
379.148991	2906.056314
379.534727	2929.550611
379.920402	2957.476083
380.306013	2970.222640
380.691563	3020.790455
381.077049	3041.791902
381.462474	3058.614232
381.847835	3097.589913
382.233134	3123.231742
382.618371	3118.238479
383.003545	3187.554344
383.388657	3192.933256
383.773706	3226.812330
384.158693	3243.649784
384.543618	3270.950153
384.928480	3306.767551
385.313280	3351.124663
385.698017	3348.422605
386.082692	3405.009557
386.467305	3410.411153
386.851856	3441.058848
387.236344	3463.212198
387.620770	3492.150942
388.005133	3520.835108
388.389435	3546.676062
388.773674	3557.796848
389.157851	3600.755040
389.541965	3612.720219
389.926018	3581.860795
390.310008	3648.114160
390.693936	3667.293230
391.077802	3711.219324
391.461606	3697.494782
391.845348	3761.615739
392.229027	3758.434771
392.612645	3774.334570
392.996200	3849.828369
393.379694	3887.473186
393.763125	3954.727219
394.146494	3920.812857
394.529801	3984.427177
394.913047	4031.156152
395.296230	3994.645596
395.679351	4049.132907
396.062410	4075.664500
396.445408	4055.532652
396.828343	4088.519442
397.211217	4110.582052
397.594028	4032.219836
397.976778	4097.142336
398.359466	4117.803505
398.742092	4146.608658
399.124656	4069.983119
399.507158	4146.074296
399.889598	4167.690763
400.271977	4227.236873
400.654294	4194.350905
401.036549	4199.470197
401.418742	4157.522756
401.800874	4255.197632
402.182944	4270.900827
402.564952	4320.954443
402.946898	4302.355106
403.328783	4282.021612
403.710606	4187.252961
404.092367	4356.139176
404.474067	4309.218637
404.855705	4299.403510
405.237282	4222.157910
405.618797	4301.795538
406.000250	4308.318791
406.381642	4366.387842
406.762972	4309.916837
407.144240	4292.910504
407.525447	4271.190693
407.906593	4294.705155
408.287677	4304.409376
408.668700	4217.424267
409.049661	4227.544383
409.430560	4230.309456
409.811399	4141.746465
410.192176	4232.179724
410.572891	4157.558044
410.953545	4200.060012
411.334138	4076.148451
411.714669	4084.615068
412.095139	3980.253102
412.475547	4035.267213
412.855894	3982.582115
413.236180	3947.157927
413.616405	3882.583266
413.996568	3893.699011
414.376670	3820.380469
414.756711	3751.982094
415.136691	3732.369485
415.516609	3731.908219
415.896466	3706.866287
416.276262	3678.023326
416.655997	3628.350316
417.035670	3666.216943
417.415283	3662.889782
417.794834	3590.455963
418.174324	3532.210471
418.553753	3453.565951
418.933121	3475.989003
419.312428	3454.332206
419.691674	3387.637741
420.070859	3386.281670
420.449983	3316.461689
420.829045	3311.995227
421.208047	3244.995772
421.586988	3221.917370
421.965867	3184.948068
422.344686	3172.975327
422.723444	3108.055348
423.102141	3039.034390
423.480777	3061.797721
423.859352	2989.076556
424.237866	2998.934532
424.616319	2968.450675
424.994712	2955.207564
425.373044	2909.025553
425.751314	2895.301012
426.129524	2845.736387
426.507673	2843.041891
426.885762	2827.689057
427.263789	2797.197637
427.641756	2765.655138
428.019662	2758.453850
428.397508	2740.623288
428.775292	2717.479351
429.153016	2706.141796
429.530679	2687.885257
429.908282	2676.880419
430.285824	2656.325114
430.663305	2654.099444
431.040726	2635.164871
431.418086	2625.480814
431.795385	2618.410596
432.172624	2610.992538
432.549802	2601.530292
432.926920	2595.221288
433.303977	2589.829774
433.680974	2583.072107
434.057910	2580.478434
434.434786	2572.740262
434.811601	2571.154820
435.188355	2567.898234
435.565050	2564.069478
435.941683	2559.096380
436.318257	2560.013870
436.694770	2553.291491
437.071222	2552.479865
437.447614	2550.284443
437.823946	2548.346119
438.200218	2550.397869
438.576429	2549.689587
438.952580	2549.059442
439.328670	2547.537014
439.704700	2542.992414
440.080670	2546.460727
440.456580	2545.344112
440.832429	2545.359235
441.208218	2543.604914
441.583947	2545.097095
441.959616	2541.182639
442.335224	2541.989224
442.710773	2543.841848
443.086261	2540.504604
443.461689	2540.073586
443.837057	2541.734646
444.212365	2543.821683
444.587612	2538.790612
444.962800	2541.049049
445.337927	2542.231199
445.712995	2539.168698
446.088002	2540.716333
446.462949	2538.538554
446.837837	2542.717671
447.212664	2540.895294
447.587431	2541.379244
447.962139	2543.259595
448.336786	2547.842004
448.711374	2547.214380
449.085901	2542.014430
449.460369	2543.743546
449.834776	2542.803370
450.209124	2541.797660
450.583412	2544.867723
450.957640	2542.637012
451.331808	2543.592311
451.705917	2543.191539
452.079965	2543.917465
452.453954	2542.127856
452.827883	2543.844369
453.201752	2543.771272
453.575562	2542.407640
453.949311	2545.626417
454.323001	2541.134748
454.696632	2544.000644
455.070202	2545.248330
455.443713	2546.148176
455.817164	2544.701365
456.190556	2541.328833
456.563888	2544.890408
456.937160	2540.799512
457.310373	2544.537527
457.683526	2544.724050
458.056619	2547.300080
458.429653	2544.219935
458.802628	2545.414688
459.175542	2544.512322
459.548398	2544.265305
459.921194	2546.692621
460.293930	2547.531973
460.666607	2547.408464
461.039224	2550.140770
461.411782	2549.906356
461.784280	2552.706717
462.156719	2551.184289
462.529099	2551.131357
462.901419	2551.660678
463.273680	2550.556665
463.645882	2550.765873
464.018024	2548.091541
464.390106	2550.594474
464.762130	2552.399207
465.134094	2556.601008
465.505999	2557.470607
465.877845	2562.302553
466.249631	2564.503017
466.621358	2563.880435
466.993026	2563.583007
467.364634	2564.268603
467.736184	2559.792059
468.107674	2561.654765
468.479105	2559.973540
468.850477	2559.028324
469.221790	2559.877758
469.593043	2559.998746
469.964238	2554.937428
470.335373	2555.844835
470.706449	2559.832388
471.077467	2556.326266
471.448425	2561.357337
471.819324	2567.855384
472.190164	2566.864798
472.560945	2562.960424
472.931667	2560.724672
473.302330	2559.867676
473.672934	2558.935063
474.043479	2560.051678
474.413965	2556.931204
474.784393	2555.827191
475.154761	2554.685370
475.525070	2557.284085
475.895321	2556.565720
476.265513	2556.991698
476.635645	2562.726010
477.005719	2561.972358
477.375734	2561.024621
477.745691	2562.594940
478.115588	2565.788511
478.485427	2564.984447
478.855207	2568.966959
479.224928	2570.703636
479.594591	2571.721949
479.964194	2572.498287
480.333739	2573.461147
480.703226	2571.628688
481.072653	2573.088102
481.442022	2573.564491
481.811333	2574.524831
482.180584	2573.582135
482.549777	2572.946950
482.918912	2571.086764
483.287988	2573.062896
483.657005	2568.109963
484.025964	2568.914027
484.394864	2568.868656
484.763706	2569.912175
485.132489	2569.156002
485.501213	2568.296485
485.869879	2565.176011
486.238487	2564.944118
486.607036	2567.164746
486.975527	2567.005950
487.343959	2568.271280
487.712333	2566.000240
488.080648	2565.067626
488.448905	2567.469736
488.817104	2565.546536
489.185244	2567.288255
489.553326	2567.431927
489.921350	2570.058369
490.289315	2573.272104
490.657222	2575.366704
491.025070	2574.885273
491.392861	2574.502146
491.760593	2572.084913
492.128267	2571.618606
492.495883	2570.121383
492.863440	2569.397977
493.230939	2566.668193
493.598380	2569.166084
493.965763	2561.846329
494.333088	2567.396639
494.700354	2561.261555
495.067563	2567.399160
495.434713	2559.066133
495.801805	2567.661300
496.168839	2564.407235
496.535815	2566.385888
496.902733	2565.639797
497.269593	2566.559808
497.636395	2566.902606
498.003139	2564.717266
498.369825	2564.692060
498.736453	2567.318502
499.103023	2566.080898
499.469535	2566.169118
499.835989	2566.930333
500.202385	2565.181052
500.568723	2564.893707
500.935003	2563.431772
501.301226	2567.051320
501.667390	2567.804973
502.033497	2566.879921
502.399546	2568.036866
502.765537	2566.189283
503.131470	2566.469067
503.497345	2565.183573
503.863163	2568.137689
504.228923	2565.360013
504.594625	2566.597617
504.960269	2567.247925
505.325856	2567.419325
505.691385	2566.837071
506.056856	2565.680127
506.422270	2569.377813
506.787625	2565.284396
507.152924	2565.233984
507.518164	2567.691547
507.883347	2567.021073
508.248472	2567.129458
508.613540	2565.780950
508.978550	2566.577452
509.343503	2567.706670
509.708398	2572.543657
510.073236	2566.980744
510.438016	2568.283883
510.802738	2568.364541
511.167403	2568.697257
511.532010	2568.044428
511.896561	2569.992834
512.261053	2569.304716
512.625488	2568.460323
512.989866	2566.544684
513.354186	2564.593758
513.718449	2566.317833
514.082655	2567.076526
514.446803	2568.863615
514.810894	2571.492577
515.174927	2567.820096
515.538904	2565.843964
515.902822	2569.776064
516.266684	2569.244222
516.630488	2566.849674
516.994235	2571.613565
517.357925	2567.532751
517.721558	2568.238512
518.085133	2568.115004
518.448651	2569.075344
518.812112	2569.783626
519.175516	2573.370407
519.538863	2570.794377
519.902152	2570.151630
520.265385	2568.409911
520.628560	2567.890672
520.991678	2570.590210
521.354739	2572.931826
521.717743	2570.338153
522.080690	2571.358986
522.443580	2571.356466
522.806413	2570.754048
523.169189	2570.239850
523.531908	2570.575087
523.894569	2568.989644
524.257174	2570.522155
524.619722	2570.023081
524.982213	2571.888307
525.344647	2570.290262
525.707025	2571.227916
526.069345	2568.780436
526.431608	2568.699778
526.793815	2570.365879
527.155964	2573.607341
527.518057	2568.261197
527.880093	2570.035683
528.242072	2571.119532
528.603995	2569.329922
528.965860	2569.435786
529.327669	2571.195149
529.689421	2568.566187
530.051117	2572.246229
530.412755	2568.838409
530.774337	2571.248081
531.135862	2570.842268
531.497331	2568.800601
531.858743	2564.152657
532.220098	2568.210786
532.581396	2565.617112
532.942638	2566.370765
533.303824	2569.062741
533.664953	2567.434448
534.026025	2567.714232
534.387040	2572.221024
534.747999	2567.948646
535.108902	2566.579972
535.469748	2569.158523
535.830537	2568.293965
536.191270	2566.690878
536.551947	2569.365210
536.912567	2564.979406
537.273131	2569.269428
537.633638	2565.551577
537.994089	2568.238512
538.354483	2566.907648
538.714821	2568.977041
539.075103	2566.832030
539.435328	2569.826476
539.795497	2567.694068
540.155609	2572.087433
540.515665	2569.312278
540.875665	2568.392267
541.235609	2568.961918
541.595496	2568.667010
541.955328	2567.124417
542.315102	2569.357648
542.674821	2567.419325
543.034483	2568.704819
543.394090	2568.762792
543.753640	2569.881928
544.113134	2568.498132
544.472571	2569.607185
544.831953	2566.559808
545.191278	2567.502504
545.550548	2566.958059
545.909761	2568.384706
546.268918	2566.398491
546.628019	2569.317319
546.987064	2568.735066
547.346053	2567.177349
547.704986	2570.754048
548.063863	2565.884293
548.422684	2568.377144
548.781449	2567.482339
549.140158	2569.410580
549.498811	2570.197000
549.857408	2568.591393
550.215949	2568.359500
550.574434	2562.224416
550.932864	2565.702812
551.291237	2563.693912
551.649555	2566.484191
552.007817	2567.953687
552.366022	2567.074006
552.724173	2568.387226
553.082267	2568.198183
553.440305	2567.593244
553.798288	2569.032494
554.156215	2567.968810
554.514086	2568.286403
554.871902	2568.591393
555.229661	2569.579459
555.587365	2564.692060
555.945014	2569.423183
556.302606	2567.550395
556.660143	2567.510065
557.017625	2569.453430
557.375050	2568.099880
557.732421	2569.017370
558.089735	2570.537278
558.446994	2569.050138
558.804197	2570.050807
559.161345	2567.159705
559.518437	2569.007288
559.875474	2566.665672
560.232455	2568.853533
560.589381	2569.221537
560.946251	2569.035014
561.303065	2568.593913
561.659825	2568.104922
562.016528	2567.799932
562.373177	2564.997050
562.729770	2568.989644
563.086307	2566.706001
563.442789	2568.714901
563.799216	2569.818914
564.155587	2569.413101
564.511904	2565.241546
564.868164	2567.404201
565.224370	2566.950497
565.580520	2567.061403
565.936615	2567.741958
566.292654	2570.083574
566.648638	2569.546692
567.004567	2567.056362
567.360441	2568.621640
567.716260	2567.678944
568.072023	2569.173646
568.427732	2561.780794
568.783385	2565.554098
569.138982	2563.913202
569.494525	2564.684499
569.850013	2562.705846
570.205445	2567.200034
570.560823	2565.178532
570.916145	2564.732390
571.271412	2567.870508
571.626625	2565.773388
571.981782	2566.774057
572.336884	2566.844633
572.691931	2566.259859
573.046923	2565.601989
573.401860	2564.056875
573.756743	2564.545867
574.111570	2564.024108
574.466342	2565.312122
574.821059	2564.611402
575.175722	2566.350600
575.530330	2564.845816
575.884882	2567.656259
576.239380	2566.350600
576.593823	2564.986968
576.948211	2564.840774
577.302544	2566.295147
577.656823	2564.359344
578.011047	2565.130641
578.365216	2564.576114
578.719330	2564.888665
579.073389	2565.256670
579.427394	2562.645352
579.781344	2562.191648
580.135239	2564.437482
580.489080	2564.916392
580.842866	2565.244067
581.196597	2563.285578
581.550273	2565.952349
581.903895	2564.490414
582.257463	2564.530743
582.610975	2564.722307
582.964434	2566.383367
583.317837	2564.250959
583.671186	2564.863460
584.024481	2565.614592
584.377721	2563.048644
584.730906	2562.531926
585.084037	2563.633418
585.437113	2561.725341
585.790135	2563.404046
586.143103	2563.068809
586.496016	2564.515620
586.848874	2558.652758
587.201679	2560.094528
587.554428	2558.642676
587.907124	2560.288613
588.259765	2557.566389
588.612352	2563.131823
588.964884	2562.239539
589.317362	2563.303222
589.669786	2563.252811
590.022155	2563.048644
590.374470	2562.322718
590.726731	2563.066288
591.078937	2561.816082
591.431090	2563.083932
591.783188	2560.500341
592.135232	2559.441699
592.487222	2560.742316
592.839157	2561.843808
593.191038	2562.249621
593.542866	2562.846998
593.894639	2560.477656
594.246358	2559.255176
594.598022	2563.126782
594.949633	2563.285578
595.301190	2561.858932
595.652692	2562.632749
596.004141	2561.095197
596.355535	2563.141906
596.706876	2559.766853
597.058162	2559.076215
597.409395	2559.207285
597.760573	2561.624518
598.111698	2562.017728
598.462768	2561.385063
598.813785	2561.967317
599.164748	2561.213664
599.515657	2559.146791
599.866511	2561.430434
600.217312	2559.653427
600.568060	2559.219888
600.918753	2561.138047
601.269392	2561.735424
601.619978	2559.494631
601.970510	2560.447409
602.320988	2559.436657
602.671412	2559.303067
603.021783	2560.081925
603.372100	2559.282902
603.722363	2559.361040
604.072572	2559.643345
604.422728	2561.266596
604.772830	2556.482541
605.122878	2554.203940
605.472872	2559.159394
605.822813	2554.980278
606.172701	2558.073025
606.522534	2559.902964
606.872314	2560.893551
607.222041	2560.265927
607.571714	2559.739127
607.921333	2561.679971
608.270899	2560.278530
608.620411	2558.657799
608.969870	2558.869528
609.319276	2561.362378
609.668627	2565.513768
610.017926	2567.348748
610.367171	2568.603996
610.716362	2568.238512
611.065500	2564.261042
611.414585	2563.918243
611.763616	2561.183417
612.112594	2562.118551
612.461518	2561.501010
612.810389	2562.660475
613.159207	2561.243911
613.507971	2560.003787
613.856682	2561.569066
614.205340	2560.656617
614.553945	2560.543191
614.902496	2560.417162
615.250994	2559.078736
615.599439	2563.230126
615.947830	2559.865156
616.296169	2556.971533
616.644454	2559.240052
616.992686	2561.974878
617.340864	2559.610577
617.688990	2558.249466
618.037063	2560.817934
618.385082	2559.603016
618.733048	2564.382029
619.080961	2558.690567
619.428821	2561.332131
619.776628	2560.689384
620.124382	2558.998077
620.472083	2561.556463
620.819731	2556.936245
621.167326	2557.372305
621.514868	2560.671740
621.862357	2557.727706
622.209793	2559.761812
622.557176	2559.063612
622.904506	2555.209650
623.251783	2554.997922
623.599007	2551.562375
623.946179	2554.493806
624.293297	2554.309804
624.640363	2557.722665
624.987376	2557.636966
625.334336	2555.509599
625.681243	2559.658468
626.028097	2558.433468
626.374899	2559.018242
626.721647	2554.403065
627.068343	2558.592264
627.414987	2556.785011
627.761577	2559.081256
628.108115	2556.154866
628.454600	2556.764846
628.801032	2554.783672
629.147412	2554.360216
629.493739	2554.892057
629.840014	2557.805844
630.186236	2556.913560
630.532405	2554.773590
630.878521	2556.238045
631.224585	2557.100083
631.570597	2552.825184
631.916556	2555.751574
632.262462	2553.581357
632.608316	2556.497665
632.954117	2554.897098
633.299866	2557.296688
633.645562	2554.952551
633.991206	2556.540515
634.336797	2554.511450
634.682336	2555.101265
635.027823	2555.693601
635.373257	2555.471790
635.718639	2552.182437
636.063968	2553.581357
636.409245	2554.203940
636.754470	2556.227963
637.099642	2549.666901
637.444762	2554.093034
637.789829	2554.143446
638.134845	2553.004145
638.479808	2550.591953
638.824719	2549.881150
639.169577	2549.666901
639.514383	2551.577499
639.859137	2554.009855
640.203839	2552.046326
640.548489	2552.086655
640.893086	2549.124977
641.237632	2546.622044
641.582125	2550.531459
641.926566	2546.823691
642.270955	2550.649926
642.615292	2552.295863
642.959576	2551.607746
643.303809	2552.063970
643.647990	2551.590102
643.992118	2551.461552
644.336195	2552.036244
