Dividing Wavelength (nm)	Counts (n)	Blue Motor Position (mm): 0.000000	Red Motor Position (mm): 8.500000	
326.493990	2146.815695
326.888308	2146.815695
327.282561	2146.815695
327.676750	2120.770573
328.070874	2121.816613
328.464933	2129.141409
328.858929	2139.170785
329.252859	2147.909625
329.646726	2163.529640
330.040528	2178.758966
330.434265	2197.028108
330.827938	2216.116437
331.221547	2234.045300
331.615091	2253.902405
332.008571	2274.850920
332.401986	2297.006791
332.795338	2314.686118
333.188625	2334.767554
333.581847	2355.574917
333.975006	2376.304141
334.368100	2392.498848
334.761129	2411.390572
335.154095	2425.931780
335.546996	2443.611107
335.939833	2454.265585
336.332606	2469.507514
336.725315	2480.920686
337.117960	2491.491986
337.510540	2497.871566
337.903056	2507.308606
338.295508	2514.756911
338.687896	2519.830832
339.080220	2529.860208
339.472480	2537.331198
339.864676	2536.945550
340.256807	2541.931251
340.648875	2540.413863
341.040879	2546.203629
341.432818	2545.472661
341.824694	2548.280584
342.216506	2543.620037
342.608253	2546.715306
342.999937	2544.461910
343.391557	2544.295552
343.783113	2543.632640
344.174605	2539.919830
344.566033	2540.217258
344.957397	2539.219110
345.348697	2537.747093
345.739934	2535.859181
346.131106	2536.736342
346.522215	2533.615867
346.913260	2530.049251
347.304241	2531.279293
347.695159	2526.643952
348.086012	2525.698735
348.476802	2523.793179
348.867528	2524.294774
349.258191	2521.602798
349.648789	2522.001049
350.039324	2519.268744
350.429796	2519.752694
350.820203	2519.661954
351.210548	2518.467200
351.600828	2516.465862
351.991045	2515.520646
352.381198	2516.450739
352.771288	2515.218177
353.161314	2514.179699
353.551276	2515.331603
353.941175	2515.601304
354.331010	2514.625841
354.720782	2516.632220
355.110490	2514.741788
355.500135	2517.388393
355.889717	2513.657939
356.279235	2516.281860
356.668689	2516.075173
357.058080	2516.891840
357.447408	2512.390089
357.836672	2514.207425
358.225873	2513.184071
358.615010	2514.673732
359.004084	2517.743795
359.393095	2518.318486
359.782043	2518.424350
360.170927	2517.607683
360.559748	2520.372756
360.948505	2521.655730
361.337199	2521.270082
361.725830	2522.180010
362.114398	2520.682787
362.502903	2522.311080
362.891344	2524.239321
363.279722	2522.638755
363.668037	2524.788807
364.056289	2527.105217
364.444478	2525.103879
364.832603	2525.328211
365.220665	2526.018849
365.608665	2526.472552
365.996601	2526.923736
366.384474	2525.182017
366.772284	2529.008253
367.160031	2525.905423
367.547715	2526.744775
367.935336	2525.459281
368.322893	2525.900382
368.710388	2527.871473
369.097820	2531.745599
369.485189	2528.068078
369.872495	2530.686957
370.259738	2527.400125
370.646918	2531.087729
371.034035	2530.394570
371.421090	2528.730989
371.808081	2531.395239
372.195010	2530.994468
372.581875	2532.400949
372.968678	2533.799870
373.355418	2530.094622
373.742096	2534.563604
374.128710	2534.523275
374.515262	2535.138296
374.901751	2534.777853
375.288177	2538.911600
375.674540	2541.482588
376.060841	2541.336395
376.447079	2540.650798
376.833254	2541.381765
377.219367	2545.044163
377.605417	2545.712116
377.991404	2548.116747
378.377329	2550.675132
378.763191	2554.216543
379.148991	2558.592264
379.534727	2563.099056
379.920402	2565.352452
380.306013	2568.452761
380.691563	2575.838052
381.077049	2577.047928
381.462474	2583.525811
381.847835	2588.020000
382.233134	2592.514188
382.618371	2596.484097
383.003545	2600.879983
383.388657	2609.631426
383.773706	2613.966819
384.158693	2619.648199
384.543618	2627.514920
384.928480	2634.496918
385.313280	2641.297434
385.698017	2647.409833
386.082692	2651.334372
386.467305	2656.970382
386.851856	2666.281393
387.236344	2676.449400
387.620770	2679.116170
388.005133	2688.187727
388.389435	2695.021011
388.773674	2695.313398
389.157851	2703.974100
389.541965	2714.762169
389.926018	2711.550954
390.310008	2721.272819
390.693936	2728.161556
391.077802	2728.854715
391.461606	2732.930488
391.845348	2737.888462
392.229027	2742.720408
392.612645	2749.712489
392.996200	2752.265833
393.379694	2756.051740
393.763125	2762.761516
394.146494	2767.535488
394.529801	2768.445417
394.913047	2773.022784
395.296230	2768.145468
395.679351	2764.820827
396.062410	2772.180912
396.445408	2759.157091
396.828343	2760.868562
397.211217	2760.939138
397.594028	2751.081162
397.976778	2748.245513
398.359466	2749.546131
398.742092	2741.205542
399.124656	2744.394072
399.507158	2741.301324
399.889598	2735.156157
400.271977	2733.200189
400.654294	2731.803790
401.036549	2726.800445
401.418742	2719.344578
401.800874	2718.278374
402.182944	2715.283929
402.564952	2713.441387
402.946898	2703.618699
403.328783	2698.310364
403.710606	2693.574200
404.092367	2691.996318
404.474067	2689.435412
404.855705	2677.568536
405.237282	2671.428411
405.618797	2671.004954
406.000250	2667.345076
406.381642	2664.169149
406.762972	2657.424085
407.144240	2649.272540
407.525447	2646.091572
407.906593	2639.283493
408.287677	2630.111114
408.668700	2628.525671
409.049661	2620.190123
409.430560	2618.710544
409.811399	2610.584204
410.192176	2607.834255
410.572891	2603.975252
410.953545	2600.448965
411.334138	2594.636514
411.714669	2593.270362
412.095139	2586.772314
412.475547	2584.939855
412.855894	2580.317117
413.236180	2579.603793
413.616405	2575.238154
413.996568	2575.636405
414.376670	2573.761096
414.756711	2571.845458
415.136691	2568.175498
415.516609	2568.034345
415.896466	2567.731876
416.276262	2566.156516
416.655997	2560.230639
417.035670	2557.707542
417.415283	2558.912377
417.794834	2558.690567
418.174324	2558.738458
418.553753	2559.413972
418.933121	2558.884651
419.312428	2558.277192
419.691674	2559.071174
420.070859	2558.337686
420.449983	2557.342058
420.829045	2558.292316
421.208047	2560.817934
421.586988	2559.348437
421.965867	2557.783159
422.344686	2560.863304
422.723444	2559.086297
423.102141	2558.637635
423.480777	2560.225598
423.859352	2558.824157
424.237866	2559.756771
424.616319	2557.354661
424.994712	2558.435988
425.373044	2557.147974
425.751314	2559.328273
426.129524	2557.919270
426.507673	2559.401369
426.885762	2558.947666
427.263789	2559.613098
427.641756	2560.268448
428.019662	2560.270968
428.397508	2562.320197
428.775292	2556.996739
429.153016	2558.080587
429.530679	2562.599982
429.908282	2559.897923
430.285824	2560.820454
430.663305	2561.153170
431.040726	2560.109652
431.418086	2559.441699
431.795385	2561.679971
432.172624	2560.472615
432.549802	2563.703994
432.926920	2560.510423
433.303977	2561.833726
433.680974	2561.392625
434.057910	2561.730382
434.434786	2560.686864
434.811601	2564.697102
435.188355	2563.590568
435.565050	2561.506051
435.941683	2563.794735
436.318257	2559.189641
436.694770	2557.019424
437.071222	2558.536812
437.447614	2559.724003
437.823946	2558.897254
438.200218	2562.007646
438.576429	2565.304561
438.952580	2561.385063
439.328670	2562.726010
439.704700	2563.303222
440.080670	2564.543346
440.456580	2563.209961
440.832429	2564.719787
441.208218	2564.475291
441.583947	2566.174160
441.959616	2562.738613
442.335224	2565.019735
442.710773	2565.309602
443.086261	2566.181721
443.461689	2563.220043
443.837057	2563.832544
444.212365	2563.381360
444.587612	2563.940928
444.962800	2566.325394
445.337927	2564.424879
445.712995	2564.283727
446.088002	2564.986968
446.462949	2566.272462
446.837837	2565.286917
447.212664	2564.497976
447.587431	2566.675754
447.962139	2564.853377
448.336786	2567.835220
448.711374	2568.241033
449.085901	2566.779098
449.460369	2564.684499
449.834776	2566.027966
450.209124	2566.446382
450.583412	2568.266238
450.957640	2568.606516
451.331808	2565.246587
451.705917	2567.071485
452.079965	2566.315312
452.453954	2567.734397
452.827883	2567.994016
453.201752	2565.002091
453.575562	2566.511917
453.949311	2566.108625
454.323001	2569.372772
454.696632	2567.295816
455.070202	2568.094839
455.443713	2570.252453
455.817164	2564.979406
456.190556	2564.505538
456.563888	2564.631567
456.937160	2565.123079
457.310373	2569.445868
457.683526	2566.854715
458.056619	2569.864284
458.429653	2571.124573
458.802628	2567.179870
459.175542	2566.544684
459.548398	2568.533420
459.921194	2568.785477
460.293930	2569.660117
460.666607	2569.463512
461.039224	2570.559963
461.411782	2568.974521
461.784280	2570.794377
462.156719	2570.368400
462.529099	2572.011816
462.901419	2568.697257
463.273680	2571.946281
463.645882	2571.313616
464.018024	2572.397464
464.390106	2570.630540
464.762130	2570.645663
465.134094	2571.157340
465.505999	2575.273442
465.877845	2576.800912
466.249631	2574.645819
466.621358	2575.585994
466.993026	2577.161354
467.364634	2576.511046
467.736184	2578.827456
468.107674	2572.634398
468.479105	2571.099367
468.850477	2573.929975
469.221790	2573.937537
469.593043	2570.675910
469.964238	2571.961404
470.335373	2572.712536
470.706449	2573.587176
471.077467	2570.761610
471.448425	2576.074986
471.819324	2576.289235
472.190164	2575.409553
472.560945	2574.315623
472.931667	2572.699933
473.302330	2572.359655
473.672934	2572.384861
474.043479	2575.071796
474.413965	2572.848647
474.784393	2571.633729
475.154761	2569.876887
475.525070	2571.416960
475.895321	2569.531568
476.265513	2567.757082
476.635645	2573.435942
477.005719	2571.263204
477.375734	2570.794377
477.745691	2571.437124
478.115588	2572.241188
478.485427	2572.309244
478.855207	2576.536251
479.224928	2576.286714
479.594591	2577.667990
479.964194	2573.725808
480.333739	2576.190932
480.703226	2577.219328
481.072653	2576.881570
481.442022	2574.572722
481.811333	2577.415933
482.180584	2573.466189
482.549777	2574.219841
482.918912	2578.197312
483.287988	2577.373083
483.657005	2575.515418
484.025964	2574.295458
484.394864	2575.507856
484.763706	2577.746128
485.132489	2573.849316
485.501213	2575.175140
485.869879	2575.603638
486.238487	2572.132803
486.607036	2573.577094
486.975527	2575.502815
487.343959	2578.164544
487.712333	2577.557085
488.080648	2575.109605
488.448905	2578.434246
488.817104	2574.925603
489.185244	2577.027764
489.553326	2577.864595
489.921350	2579.981880
490.289315	2580.700244
490.657222	2578.363670
491.025070	2577.985583
491.392861	2580.112950
491.760593	2576.700089
492.128267	2576.921900
492.495883	2574.159347
492.863440	2578.129256
493.230939	2575.487691
493.598380	2576.211097
493.965763	2576.080027
494.333088	2572.301682
494.700354	2573.004923
495.067563	2574.970973
495.434713	2570.532237
495.801805	2575.941395
496.168839	2576.574060
496.535815	2575.593556
496.902733	2574.915520
497.269593	2575.729667
497.636395	2575.984245
498.003139	2575.762434
498.369825	2575.008782
498.736453	2577.335274
499.103023	2577.683114
499.469535	2575.775037
499.835989	2575.263360
500.202385	2574.592887
500.568723	2576.069945
500.935003	2576.460634
501.301226	2574.973494
501.667390	2576.906776
502.033497	2577.796540
502.399546	2575.550706
502.765537	2578.378793
503.131470	2575.742270
503.497345	2573.690520
503.863163	2578.320820
504.228923	2577.315110
504.594625	2576.024574
504.960269	2575.205387
505.325856	2573.052814
505.691385	2579.102199
506.056856	2577.476427
506.422270	2576.735377
506.787625	2577.184040
507.152924	2574.935685
507.518164	2575.822928
507.883347	2577.884760
508.248472	2574.587845
508.613540	2575.200346
508.978550	2573.057855
509.343503	2575.366704
509.708398	2576.327043
510.073236	2576.412743
510.438016	2576.566498
510.802738	2578.030953
511.167403	2576.758062
511.532010	2577.249575
511.896561	2575.689337
512.261053	2577.446180
512.625488	2575.611200
512.989866	2573.322516
513.354186	2573.940057
513.718449	2575.084399
514.082655	2571.716908
514.446803	2573.042732
514.810894	2576.349729
515.174927	2580.208732
515.538904	2574.693710
515.902822	2579.548341
516.266684	2576.105233
516.630488	2578.829976
516.994235	2579.011458
517.357925	2577.680593
517.721558	2576.697568
518.085133	2578.910635
518.448651	2576.427867
518.812112	2577.592373
519.175516	2576.052301
519.538863	2575.689338
519.902152	2577.821746
520.265385	2576.253947
520.628560	2575.510377
520.991678	2578.537589
521.354739	2579.989442
521.717743	2578.144379
522.080690	2576.420305
522.443580	2576.624472
522.806413	2576.251426
523.169189	2575.855696
523.531908	2576.581622
523.894569	2577.574729
524.257174	2575.580953
524.619722	2577.559606
524.982213	2577.791499
525.344647	2578.083886
525.707025	2577.264698
526.069345	2577.794019
526.431608	2577.332754
526.793815	2577.302507
527.155964	2578.817373
527.518057	2579.455079
527.880093	2578.386355
528.242072	2577.400809
528.603995	2578.003227
528.965860	2579.341653
529.327669	2579.674370
529.689421	2574.756724
530.051117	2578.545151
530.412755	2577.186560
530.774337	2578.638412
531.135862	2578.414081
531.497331	2575.613720
531.858743	2572.851168
532.220098	2574.373596
532.581396	2574.023236
532.942638	2574.678586
533.303824	2578.330902
533.664953	2576.369893
534.026025	2576.516087
534.387040	2576.947105
534.747999	2577.332754
535.108902	2577.315110
535.469748	2579.029102
535.830537	2578.651015
536.191270	2577.773855
536.551947	2577.778896
536.912567	2577.418453
537.273131	2576.962229
537.633638	2576.407702
537.994089	2576.493402
538.354483	2578.542631
538.714821	2578.892991
539.075103	2577.234451
539.435328	2577.688155
539.795497	2575.817887
540.155609	2578.724112
540.515665	2576.037177
540.875665	2578.104050
541.235609	2578.968608
541.595496	2579.313927
541.955328	2577.988104
542.315102	2577.105902
542.674821	2576.730336
543.034483	2580.901891
543.394090	2576.226220
543.753640	2581.768969
544.113134	2577.733525
544.472571	2578.782085
544.831953	2577.045408
545.191278	2575.117167
545.550548	2577.773855
545.909761	2578.391396
546.268918	2579.147569
546.628019	2581.292580
546.987064	2576.690007
547.346053	2577.347877
547.704986	2577.889801
548.063863	2574.963411
548.422684	2577.534400
548.781449	2573.743452
549.140158	2579.525656
549.498811	2579.200501
549.857408	2577.405850
550.215949	2574.640778
550.574434	2575.144893
550.932864	2575.323854
551.291237	2575.018864
551.649555	2577.443659
552.007817	2575.149934
552.366022	2576.584142
552.724173	2579.729822
553.082267	2578.373752
553.440305	2578.736715
553.798288	2579.719740
554.156215	2577.680593
554.514086	2578.666139
554.871902	2577.105902
555.229661	2577.909966
555.587365	2578.625810
555.945014	2579.792837
556.302606	2577.486509
556.660143	2577.070614
557.017625	2577.284863
557.375050	2576.506004
557.732421	2578.139338
558.089735	2576.921900
558.446994	2575.160016
558.804197	2578.303176
559.161345	2580.581777
559.518437	2579.487847
559.875474	2579.535738
560.232455	2578.240161
560.589381	2575.729667
560.946251	2580.170923
561.303065	2578.272929
561.659825	2579.523135
562.016528	2578.134297
562.373177	2578.383834
562.729770	2577.176478
563.086307	2580.927096
563.442789	2578.020871
563.799216	2577.284863
564.155587	2579.049267
564.511904	2575.830490
564.868164	2579.742425
565.224370	2578.174626
565.580520	2577.899883
565.936615	2579.255954
566.292654	2578.807291
566.648638	2577.529359
567.004567	2578.918197
567.360441	2577.070614
567.716260	2579.666808
568.072023	2578.986252
568.427732	2577.604976
568.783385	2576.407702
569.138982	2574.600448
569.494525	2572.911662
569.850013	2573.715726
570.205445	2577.299986
570.560823	2578.013309
570.916145	2576.160685
571.271412	2579.220666
571.626625	2579.510532
571.981782	2578.779565
572.336884	2576.989955
572.691931	2578.582960
573.046923	2578.819894
573.401860	2580.271746
573.756743	2576.233782
574.111570	2575.517938
574.466342	2578.386355
574.821059	2579.140007
575.175722	2579.364339
575.530330	2578.787127
575.884882	2577.942733
576.239380	2578.802250
576.593823	2578.356108
576.948211	2577.799060
577.302544	2579.876016
577.656823	2577.088258
578.011047	2579.863413
578.365216	2578.661098
578.719330	2578.035995
579.073389	2577.294945
579.427394	2579.311407
579.781344	2578.814853
580.135239	2578.467013
580.489080	2578.434246
580.842866	2577.471385
581.196597	2581.559761
581.550273	2580.203691
581.903895	2577.733525
582.257463	2575.807805
582.610975	2576.319482
582.964434	2579.145048
583.317837	2577.453741
583.671186	2580.120512
584.024481	2579.853331
584.377721	2581.723599
584.730906	2578.058680
585.084037	2578.353587
585.437113	2576.662280
585.790135	2578.285532
586.143103	2578.207394
586.496016	2578.368711
586.848874	2576.153124
587.201679	2574.608010
587.554428	2575.149934
587.907124	2576.117836
588.259765	2573.650191
588.612352	2577.413412
588.964884	2575.769996
589.317362	2576.226220
589.669786	2578.030953
590.022155	2577.501632
590.374470	2579.727302
590.726731	2578.242682
591.078937	2580.044894
591.431090	2578.817373
591.783188	2577.604976
592.135232	2579.472723
592.487222	2577.859554
592.839157	2578.829976
593.191038	2580.430543
593.542866	2577.637743
593.894639	2576.624472
594.246358	2577.483988
594.598022	2578.066242
594.949633	2577.804102
595.301190	2578.351067
595.652692	2579.170254
596.004141	2579.008937
596.355535	2579.442477
596.706876	2577.920048
597.058162	2578.802250
597.409395	2579.601273
597.760573	2577.035326
598.111698	2576.072465
598.462768	2578.711509
598.813785	2578.134297
599.164748	2575.664132
599.515657	2575.396951
599.866511	2578.613207
600.217312	2579.593711
600.568060	2576.942064
600.918753	2579.694534
601.269392	2578.948443
601.619978	2578.532548
601.970510	2579.324009
602.320988	2576.574060
602.671412	2577.466344
603.021783	2578.338464
603.372100	2577.612538
603.722363	2579.634040
604.072572	2575.286045
604.422728	2579.039184
604.772830	2573.554409
605.122878	2575.936354
605.472872	2573.506518
605.822813	2575.336457
606.172701	2574.781930
606.522534	2577.698237
606.872314	2576.483319
607.222041	2578.527507
607.571714	2576.619430
607.921333	2579.807960
608.270899	2576.747980
608.620411	2577.635223
608.969870	2578.731674
609.319276	2577.408371
609.668627	2578.930799
610.017926	2578.338464
610.367171	2577.514235
610.716362	2579.737384
611.065500	2577.415933
611.414585	2578.429205
611.763616	2578.340984
612.112594	2577.743608
612.461518	2579.175295
612.810389	2576.160685
613.159207	2581.839545
613.507971	2578.663618
613.856682	2579.417271
614.205340	2578.109091
614.553945	2577.962898
614.902496	2577.199163
615.250994	2578.207394
615.599439	2579.732343
615.947830	2578.363670
616.296169	2577.534400
616.644454	2579.011458
616.992686	2577.168916
617.340864	2580.380131
617.688990	2577.279822
618.037063	2579.906263
618.385082	2578.167065
618.733048	2580.380131
619.080961	2577.831828
619.428821	2578.963567
619.776628	2576.624472
620.124382	2579.336612
620.472083	2576.657239
620.819731	2581.516911
621.167326	2579.016499
621.514868	2581.106057
621.862357	2579.034143
622.209793	2577.839390
622.557176	2579.780234
622.904506	2577.458783
623.251783	2574.900397
623.599007	2575.500294
623.946179	2572.906621
624.293297	2573.599779
624.640363	2575.303689
624.987376	2577.136149
625.334336	2576.758062
625.681243	2577.920048
626.028097	2579.618917
626.374899	2577.330233
626.721647	2577.257136
627.068343	2577.869637
627.414987	2577.688155
627.761577	2576.541292
628.108115	2578.845100
628.454600	2577.872157
628.801032	2579.601273
629.147412	2577.095819
629.493739	2579.671849
629.840014	2577.020202
630.186236	2576.619430
630.532405	2580.523804
630.878521	2576.700089
631.224585	2578.862744
631.570597	2577.864595
631.916556	2577.224369
632.262462	2577.173957
632.608316	2578.212435
632.954117	2576.939544
633.299866	2577.521797
633.645562	2578.411561
633.991206	2577.831828
634.336797	2576.783268
634.682336	2578.640933
635.027823	2577.143710
635.373257	2576.367373
635.718639	2576.884091
636.063968	2577.378124
636.409245	2576.518607
636.754470	2576.906776
637.099642	2575.727146
637.444762	2578.706468
637.789829	2576.929461
638.134845	2575.792681
638.479808	2577.090778
638.824719	2576.271591
639.169577	2578.381314
639.514383	2576.503484
639.859137	2576.316961
640.203839	2577.068093
640.548489	2577.564647
640.893086	2574.633216
641.237632	2573.294789
641.582125	2573.534244
641.926566	2574.645819
642.270955	2578.381314
642.615292	2576.863926
642.959576	2576.092630
643.303809	2576.183371
643.647990	2577.892322
643.992118	2578.353587
644.336195	2575.371745
