Dividing Wavelength (nm)	Counts (n)	Blue Motor Position (mm): 0.000000	Red Motor Position (mm): 28.400000	
326.493990	2129.421193
326.888308	2129.421193
327.282561	2129.421193
327.676750	2094.337283
328.070874	2094.428024
328.464933	2099.247367
328.858929	2102.299786
329.252859	2112.961826
329.646726	2125.799124
330.040528	2138.570888
330.434265	2155.400780
330.827938	2173.674962
331.221547	2189.458815
331.615091	2208.879860
332.008571	2229.692264
332.401986	2249.398134
332.795338	2272.718512
333.188625	2286.894237
333.581847	2305.276804
333.975006	2323.498055
334.368100	2343.350118
334.761129	2361.004239
335.154095	2375.913452
335.546996	2394.096894
335.939833	2409.311096
336.332606	2426.284661
336.725315	2441.733277
337.117960	2450.424226
337.510540	2456.980247
337.903056	2471.120683
338.295508	2475.690489
338.687896	2486.125678
339.080220	2491.940649
339.472480	2499.555312
339.864676	2504.256188
340.256807	2509.735922
340.648875	2512.919410
341.040879	2513.378155
341.432818	2514.434277
341.824694	2517.587519
342.216506	2518.830163
342.608253	2518.631038
342.999937	2516.039885
343.391557	2517.156500
343.783113	2516.975019
344.174605	2517.584998
344.566033	2512.745491
344.957397	2510.923113
345.348697	2509.408247
345.739934	2508.273987
346.131106	2508.755417
346.522215	2503.157216
346.913260	2503.270642
347.304241	2501.649911
347.695159	2500.659324
348.086012	2497.927019
348.476802	2496.074395
348.867528	2496.419714
349.258191	2493.636997
349.648789	2493.407624
350.039324	2488.852942
350.429796	2491.630618
350.820203	2486.682725
351.210548	2487.418734
351.600828	2485.278764
351.991045	2485.011583
352.381198	2489.909064
352.771288	2486.158445
353.161314	2487.506954
353.551276	2488.119454
353.941175	2486.770945
354.331010	2484.996459
354.720782	2485.314052
355.110490	2488.253045
355.500135	2485.210708
355.889717	2487.524598
356.279235	2488.250524
356.668689	2486.039978
357.058080	2486.781028
357.447408	2486.362612
357.836672	2480.842548
358.225873	2487.209526
358.615010	2484.391521
359.004084	2488.031234
359.393095	2491.267655
359.782043	2490.403097
360.170927	2494.544405
360.559748	2489.742706
360.948505	2491.514671
361.337199	2493.962151
361.725830	2492.512820
362.114398	2493.571462
362.502903	2494.471308
362.891344	2494.226812
363.279722	2497.652276
363.668037	2494.040289
364.056289	2498.393326
364.444478	2498.146309
364.832603	2497.813593
365.220665	2499.053717
365.608665	2499.315857
365.996601	2502.234685
366.384474	2501.244098
366.772284	2504.556136
367.160031	2504.878770
367.547715	2507.893380
367.935336	2507.197701
368.322893	2517.106089
368.710388	2513.610048
369.097820	2524.924918
369.485189	2524.128416
369.872495	2528.826771
370.259738	2537.684079
370.646918	2544.335881
371.034035	2549.104813
371.421090	2562.524364
371.808081	2573.778740
372.195010	2579.757549
372.581875	2593.565269
372.968678	2609.523042
373.355418	2617.929166
373.742096	2636.140334
374.128710	2651.213384
374.515262	2663.821310
374.901751	2682.455935
375.288177	2695.326001
375.674540	2716.564382
376.060841	2734.094994
376.447079	2755.005700
376.833254	2776.090326
377.219367	2786.054167
377.605417	2824.989519
377.991404	2835.391940
378.377329	2856.970599
378.763191	2872.298227
379.148991	2912.256933
379.534727	2937.432455
379.920402	2963.792649
380.306013	2977.313023
380.691563	3025.592154
381.077049	3046.054197
381.462474	3065.654203
381.847835	3105.764144
382.233134	3128.285499
382.618371	3126.705097
383.003545	3196.391487
383.388657	3200.137064
383.773706	3233.690984
384.158693	3251.506422
384.543618	3276.777726
384.928480	3313.668890
385.313280	3356.259078
385.698017	3356.445601
386.082692	3412.369641
386.467305	3415.379210
386.851856	3446.846093
387.236344	3472.288796
387.620770	3501.033455
388.005133	3527.849873
388.389435	3553.688307
388.773674	3565.628280
389.157851	3610.736525
389.541965	3624.060294
389.926018	3589.724995
390.310008	3661.730316
390.693936	3678.484591
391.077802	3718.745766
391.461606	3711.355435
391.845348	3772.854991
392.229027	3768.527161
392.612645	3783.759007
392.996200	3859.179710
393.379694	3901.369126
393.763125	3964.784321
394.146494	3932.248714
394.529801	3996.253724
394.913047	4046.703071
395.296230	4012.594624
395.679351	4063.699321
396.062410	4088.758897
396.445408	4070.189807
396.828343	4103.761371
397.211217	4125.672746
397.594028	4044.926064
397.976778	4115.187146
398.359466	4139.185559
398.742092	4168.194879
399.124656	4090.644288
399.507158	4168.724200
399.889598	4196.649672
400.271977	4254.275101
400.654294	4230.284250
401.036549	4234.420517
401.418742	4208.627453
401.800874	4312.366838
402.182944	4327.772604
402.564952	4392.339702
402.946898	4379.063823
403.328783	4378.100963
403.710606	4291.761121
404.092367	4482.588959
404.474067	4445.438176
404.855705	4459.424857
405.237282	4384.709916
405.618797	4494.110516
406.000250	4526.484806
406.381642	4609.084112
406.762972	4566.183892
407.144240	4575.580603
407.525447	4581.014967
407.906593	4639.976303
408.287677	4680.713867
408.668700	4611.778608
409.049661	4661.310466
409.430560	4704.306467
409.811399	4627.139004
410.192176	4791.331906
410.572891	4733.335951
410.953545	4835.542825
411.334138	4713.924988
411.714669	4779.570894
412.095139	4676.907796
412.475547	4818.193694
412.855894	4796.625117
413.236180	4808.418897
413.616405	4761.127832
413.996568	4847.639073
414.376670	4790.303510
414.756711	4743.803907
415.136691	4778.126603
415.516609	4856.148541
415.896466	4892.777565
416.276262	4924.551958
416.655997	4906.368516
417.035670	5086.264611
417.415283	5177.214588
417.794834	5123.037308
418.174324	5077.273713
418.553753	4982.610927
418.933121	5169.438609
419.312428	5237.559721
419.691674	5177.506975
420.070859	5297.937620
420.449983	5214.554415
420.829045	5330.599256
421.208047	5237.022838
421.586988	5309.123941
421.965867	5318.876053
422.344686	5447.014622
422.723444	5302.832581
423.102141	5122.828100
423.480777	5420.576290
423.859352	5190.273698
424.237866	5450.407318
424.616319	5440.564465
424.994712	5552.357093
425.373044	5429.214307
425.751314	5570.560700
426.129524	5373.386049
426.507673	5569.867541
426.885762	5649.318646
427.263789	5581.376495
427.641756	5466.710410
428.019662	5587.730870
428.397508	5589.530562
428.775292	5539.827305
429.153016	5637.282891
429.530679	5562.668773
429.908282	5650.667155
430.285824	5515.317215
430.663305	5794.803826
431.040726	5525.966653
431.418086	5528.025964
431.795385	5635.241224
432.172624	5645.850332
432.549802	5644.640455
432.926920	5652.600437
433.303977	5659.242157
433.680974	5700.904773
434.057910	5715.196445
434.434786	5723.645418
434.811601	5692.455800
435.188355	5927.141676
435.565050	5803.676256
435.941683	5782.853770
436.318257	5994.310010
436.694770	5982.662424
437.071222	6013.904975
437.447614	5943.986691
437.823946	5857.626685
438.200218	6014.031003
438.576429	5876.528491
438.952580	5976.091280
439.328670	6021.766654
439.704700	5927.943219
440.080670	5916.328401
440.456580	6185.964597
440.832429	6067.202574
441.208218	5917.036683
441.583947	6064.031688
441.959616	6071.122071
442.335224	5996.961657
442.710773	6139.089427
443.086261	6166.248644
443.461689	5955.644360
443.837057	6103.720692
444.212365	6258.320278
444.587612	6152.244318
444.962800	6307.421116
445.337927	6286.258352
445.712995	5896.902314
446.088002	6474.626107
446.462949	6304.966074
446.837837	6236.761783
447.212664	6406.174799
447.587431	6551.849022
447.962139	7089.157884
448.336786	8012.510746
448.711374	7756.029441
449.085901	6828.406722
449.460369	6746.326655
449.834776	6685.132089
450.209124	7066.863381
450.583412	7219.287709
450.957640	7359.535130
451.331808	7129.683720
451.705917	6679.362488
452.079965	6600.327278
452.453954	6812.020452
452.827883	6683.743251
453.201752	6770.892198
453.575562	6569.172947
453.949311	6770.388083
454.323001	6656.712584
454.696632	6722.867646
455.070202	6853.983016
455.443713	6997.204718
455.817164	7095.073678
456.190556	7166.174112
456.563888	7232.666931
456.937160	7269.772344
457.310373	6925.353152
457.683526	6942.145235
458.056619	6828.116856
458.429653	6808.980636
458.802628	6739.599235
459.175542	6835.817218
459.548398	7160.603637
459.921194	7307.240720
460.293930	7300.750235
460.666607	7781.872917
461.039224	8057.629073
461.411782	8163.359713
461.784280	8167.082605
462.156719	8048.885192
462.529099	7918.571365
462.901419	7506.772110
463.273680	7391.049903
463.645882	7389.915643
464.018024	7238.615493
464.390106	7375.381997
464.762130	7715.788431
465.134094	8104.700847
465.505999	8982.635433
465.877845	10027.157469
466.249631	10588.474827
466.621358	10223.759949
466.993026	9636.551225
467.364634	9379.003716
467.736184	9016.327985
468.107674	8682.028909
468.479105	8654.126123
468.850477	8422.590968
469.221790	8183.226901
469.593043	7862.826286
469.964238	7697.625153
470.335373	7667.955443
470.706449	7669.092223
471.077467	7603.043025
471.448425	8614.459803
471.819324	9404.156553
472.190164	9385.940344
472.560945	8347.137497
472.931667	7655.750809
473.302330	7494.633012
473.672934	7165.619585
474.043479	7385.809623
474.413965	7281.082173
474.784393	7128.567104
475.154761	7191.178235
475.525070	7192.524223
475.895321	7013.722058
476.265513	7074.074752
476.635645	7140.335678
477.005719	7058.285858
477.375734	7078.354692
477.745691	7166.126221
478.115588	7184.624735
478.485427	7260.668020
478.855207	7524.761468
479.224928	7932.492511
479.594591	8242.667146
479.964194	8036.899848
480.333739	7920.260151
480.703226	7755.235460
481.072653	7717.061322
481.442022	7744.001248
481.811333	7769.277594
482.180584	7555.134419
482.549777	7294.098432
482.918912	7119.767770
483.287988	7026.468616
483.657005	6956.847760
484.025964	6706.294853
484.394864	6667.553585
484.763706	6567.239665
485.132489	6371.811774
485.501213	6262.181802
485.869879	6217.824689
486.238487	6046.180962
486.607036	6026.583477
486.975527	5839.947358
487.343959	5840.935424
487.712333	5772.179127
488.080648	5664.066542
488.448905	5593.369400
488.817104	5493.352908
489.185244	5510.462584
489.553326	5469.727540
489.921350	5577.328449
490.289315	5824.226520
490.657222	5857.593917
491.025070	5727.348146
491.392861	5603.504640
491.760593	5405.898971
492.128267	5210.589548
492.495883	5033.415675
492.863440	4868.532136
493.230939	4707.341241
493.598380	4618.692551
493.965763	4511.658772
494.333088	4434.554324
494.700354	4343.271631
495.067563	4308.717042
495.434713	4202.094118
495.801805	4175.181918
496.168839	4100.736678
496.535815	4028.799413
496.902733	3980.540447
497.269593	3912.545364
497.636395	3882.275756
498.003139	3820.877023
498.369825	3760.587343
498.736453	3735.575658
499.103023	3675.908562
499.469535	3632.983137
499.835989	3589.823298
500.202385	3538.537119
500.568723	3480.105105
500.935003	3472.800473
501.301226	3406.060637
501.667390	3398.425810
502.033497	3373.126779
502.399546	3322.236331
502.765537	3277.599434
503.131470	3251.771083
503.497345	3231.160325
503.863163	3175.455575
504.228923	3165.080881
504.594625	3144.581028
504.960269	3099.223247
505.325856	3086.572471
505.691385	3049.905639
506.056856	3033.272352
506.422270	3008.608506
506.787625	2988.821978
507.152924	2968.453195
507.518164	2946.193981
507.883347	2924.179262
508.248472	2906.129410
508.613540	2898.224881
508.978550	2873.394678
509.343503	2855.758201
509.708398	2849.308045
510.073236	2837.514265
510.438016	2822.214363
510.802738	2809.334215
511.167403	2799.912299
511.532010	2784.141049
511.896561	2780.191305
512.261053	2770.993720
512.625488	2755.194744
512.989866	2743.768968
513.354186	2736.396281
513.718449	2726.061916
514.082655	2726.001422
514.446803	2714.885677
514.810894	2712.286963
515.174927	2702.209696
515.538904	2698.524613
515.902822	2697.123172
516.266684	2687.287881
516.630488	2683.237314
516.994235	2679.610203
517.357925	2675.844462
517.721558	2672.177022
518.085133	2670.019408
518.448651	2666.866167
518.812112	2660.925167
519.175516	2658.961637
519.538863	2657.572799
519.902152	2654.117088
520.265385	2651.014258
520.628560	2651.218425
520.991678	2648.723054
521.354739	2648.954947
521.717743	2647.130049
522.080690	2641.219296
522.443580	2639.265849
522.806413	2639.016312
523.169189	2639.984214
523.531908	2637.246867
523.894569	2634.375930
524.257174	2636.740231
524.619722	2632.634211
524.982213	2634.023049
525.344647	2631.734365
525.707025	2632.213275
526.069345	2631.898203
526.431608	2628.261010
526.793815	2628.205558
527.155964	2623.726492
527.518057	2625.500979
527.880093	2623.756739
528.242072	2620.444701
528.603995	2624.553242
528.965860	2620.280864
529.327669	2620.137191
529.689421	2620.517798
530.051117	2621.730196
530.412755	2617.780452
530.774337	2620.429578
531.135862	2614.483537
531.497331	2615.055708
531.858743	2610.584204
532.220098	2613.503032
532.581396	2610.344750
532.942638	2612.653598
533.303824	2613.127467
533.664953	2610.276694
534.026025	2612.646036
534.387040	2611.272322
534.747999	2610.899277
535.108902	2613.893722
535.469748	2613.714761
535.830537	2611.642847
536.191270	2609.220572
536.551947	2611.010182
536.912567	2611.405912
537.273131	2610.178392
537.633638	2611.486571
537.994089	2608.547578
538.354483	2605.265787
538.714821	2608.396344
539.075103	2609.545727
539.435328	2609.611262
539.795497	2606.392485
540.155609	2609.429780
540.515665	2609.863319
540.875665	2607.725870
541.235609	2605.633791
541.595496	2610.690069
541.955328	2606.944491
542.315102	2607.531786
542.674821	2604.670931
543.034483	2607.801487
543.394090	2606.369800
543.753640	2606.999944
544.113134	2608.862650
544.472571	2606.717639
544.831953	2606.533637
545.191278	2608.071189
545.550548	2606.536158
545.909761	2606.463061
546.268918	2605.527927
546.628019	2607.098247
546.987064	2608.086313
547.346053	2605.868205
547.704986	2605.144799
548.063863	2604.628081
548.422684	2607.244440
548.781449	2606.465582
549.140158	2604.759151
549.498811	2606.039604
549.857408	2603.302258
550.215949	2601.212699
550.574434	2600.282607
550.932864	2604.910386
551.291237	2601.051383
551.649555	2606.296703
552.007817	2608.834924
552.366022	2606.579008
552.724173	2606.087495
553.082267	2606.200921
553.440305	2608.802157
553.798288	2605.056579
554.156215	2605.018771
554.514086	2607.609924
554.871902	2602.062134
555.229661	2607.372989
555.587365	2606.934409
555.945014	2604.839810
556.302606	2604.940633
556.660143	2605.389295
557.017625	2605.449789
557.375050	2605.792588
557.732421	2606.536158
558.089735	2606.702516
558.446994	2603.836620
558.804197	2606.458020
559.161345	2605.187649
559.518437	2604.355859
559.875474	2603.803852
560.232455	2605.709409
560.589381	2604.892742
560.946251	2607.322578
561.303065	2606.276538
561.659825	2605.709409
562.016528	2602.604058
562.373177	2604.373503
562.729770	2603.302258
563.086307	2605.459872
563.442789	2604.617999
563.799216	2605.570777
564.155587	2603.420725
564.511904	2602.568770
564.868164	2602.692278
565.224370	2603.987855
565.580520	2605.275869
565.936615	2604.741507
566.292654	2602.409973
566.648638	2603.632453
567.004567	2605.401898
567.360441	2605.984152
567.716260	2603.849223
568.072023	2603.450972
568.427732	2598.329159
568.783385	2599.833944
569.138982	2600.486773
569.494525	2600.801845
569.850013	2596.320260
570.205445	2602.866198
570.560823	2602.472988
570.916145	2601.752103
571.271412	2602.941815
571.626625	2601.139603
571.981782	2600.300251
572.336884	2602.357041
572.691931	2603.070365
573.046923	2600.375868
573.401860	2598.407297
573.756743	2602.815786
574.111570	2601.190014
574.466342	2599.980137
574.821059	2599.521392
575.175722	2602.536002
575.530330	2600.509458
575.884882	2598.634149
576.239380	2599.165991
576.593823	2601.479881
576.948211	2597.852770
577.302544	2598.813110
577.656823	2599.163470
578.011047	2601.623553
578.365216	2599.110538
578.719330	2598.445106
579.073389	2596.910075
579.427394	2595.642224
579.781344	2597.147009
580.135239	2601.558018
580.489080	2599.072730
580.842866	2596.698346
581.196597	2599.876794
581.550273	2596.418562
581.903895	2599.629777
582.257463	2599.309664
582.610975	2594.760023
582.964434	2597.020980
583.317837	2595.438058
583.671186	2598.029211
584.024481	2595.707759
584.377721	2596.595002
584.730906	2595.780856
585.084037	2595.906885
585.437113	2598.515682
585.790135	2595.256576
586.143103	2594.878490
586.496016	2594.124837
586.848874	2589.454208
587.201679	2592.277254
587.554428	2591.458067
587.907124	2591.480752
588.259765	2587.021851
588.612352	2594.167687
588.964884	2593.313211
589.317362	2594.417224
589.669786	2592.577203
590.022155	2592.672985
590.374470	2592.645258
590.726731	2594.815475
591.078937	2591.803386
591.431090	2592.834302
591.783188	2592.254569
592.135232	2589.744074
592.487222	2592.136102
592.839157	2594.392018
593.191038	2592.040320
593.542866	2590.306163
593.894639	2595.977461
594.246358	2591.223653
594.598022	2592.443612
594.949633	2591.490834
595.301190	2588.219125
595.652692	2592.378077
596.004141	2589.078642
596.355535	2590.162490
596.706876	2590.117120
597.058162	2588.541759
597.409395	2590.827922
597.760573	2590.906060
598.111698	2588.423292
598.462768	2589.484455
598.813785	2588.090576
599.164748	2587.389856
599.515657	2588.476224
599.866511	2585.096131
600.217312	2588.635021
600.568060	2587.664598
600.918753	2591.034610
601.269392	2589.650813
601.619978	2588.251893
601.970510	2590.805237
602.320988	2588.249372
602.671412	2589.141657
603.021783	2588.360278
603.372100	2589.595360
603.722363	2586.144691
604.072572	2589.441605
604.422728	2589.068560
604.772830	2584.420616
605.122878	2585.083528
605.472872	2584.032447
605.822813	2583.064546
606.172701	2586.931111
606.522534	2587.808271
606.872314	2587.896492
607.222041	2589.348344
607.571714	2587.069742
607.921333	2589.272727
608.270899	2584.826429
608.620411	2590.316245
608.969870	2591.246338
609.319276	2585.469176
609.668627	2593.827409
610.017926	2596.441247
610.367171	2597.215064
610.716362	2594.434868
611.065500	2594.208016
611.414585	2592.042841
611.763616	2593.222471
612.112594	2590.419589
612.461518	2589.479414
612.810389	2588.468662
613.159207	2589.055957
613.507971	2588.763570
613.856682	2590.641400
614.205340	2589.912953
614.553945	2590.691811
614.902496	2588.377922
615.250994	2590.722058
615.599439	2590.764908
615.947830	2590.094435
616.296169	2590.971595
616.644454	2588.861872
616.992686	2588.508992
617.340864	2587.833477
617.688990	2588.508992
618.037063	2589.797007
618.385082	2589.562593
618.733048	2586.298446
619.080961	2588.269537
619.428821	2592.345310
619.776628	2588.680391
620.124382	2590.354054
620.472083	2588.914805
620.819731	2591.316914
621.167326	2587.679722
621.514868	2588.965216
621.862357	2585.491861
622.209793	2585.363312
622.557176	2587.099989
622.904506	2583.387179
623.251783	2583.094793
623.599007	2584.511357
623.946179	2583.674525
624.293297	2582.383990
624.640363	2584.869279
624.987376	2583.104875
625.334336	2583.445153
625.681243	2584.481110
626.028097	2581.998342
626.374899	2583.770307
626.721647	2584.387848
627.068343	2580.944740
627.414987	2583.563620
627.761577	2582.429360
628.108115	2581.950451
628.454600	2580.632189
628.801032	2583.412385
629.147412	2583.238465
629.493739	2581.169072
629.840014	2582.631006
630.186236	2581.428691
630.532405	2582.757035
630.878521	2581.529514
631.224585	2581.894998
631.570597	2577.587332
631.916556	2578.217476
632.262462	2579.381983
632.608316	2580.123032
632.954117	2579.883577
633.299866	2582.739391
633.645562	2580.463310
633.991206	2580.896849
634.336797	2578.784606
634.682336	2578.414081
635.027823	2576.901735
635.373257	2578.446849
635.718639	2577.398289
636.063968	2580.821232
636.409245	2573.781261
636.754470	2573.733370
637.099642	2576.959708
637.444762	2575.646488
637.789829	2574.214800
638.134845	2576.211097
638.479808	2576.863926
638.824719	2576.339646
639.169577	2575.966601
639.514383	2575.122208
639.859137	2573.955181
640.203839	2574.527352
640.548489	2572.321847
640.893086	2571.205231
641.237632	2569.130796
641.582125	2573.342680
641.926566	2565.203737
642.270955	2570.391085
642.615292	2574.227403
642.959576	2574.940726
643.303809	2572.523493
643.647990	2574.484502
643.992118	2571.575756
644.336195	2573.786302
