Dividing Wavelength (nm)	Counts (n)	Blue Motor Position (mm): 0.000000	Red Motor Position (mm): 24.600000	
326.493990	2128.367592
326.888308	2128.367592
327.282561	2128.367592
327.676750	2094.911975
328.070874	2093.455081
328.464933	2096.827613
328.858929	2103.222317
329.252859	2111.615838
329.646726	2126.293157
330.040528	2136.811525
330.434265	2155.075625
330.827938	2173.337205
331.221547	2190.489731
331.615091	2209.018492
332.008571	2229.508262
332.401986	2249.773700
332.795338	2267.687440
333.188625	2287.819288
333.581847	2308.051959
333.975006	2324.435709
334.368100	2341.885663
334.761129	2357.344362
335.154095	2374.335571
335.546996	2395.359703
335.939833	2410.223545
336.332606	2425.467994
336.725315	2437.591969
337.117960	2447.129832
337.510540	2454.242900
337.903056	2466.739921
338.295508	2474.142855
338.687896	2482.012096
339.080220	2488.051398
339.472480	2499.323418
339.864676	2501.838954
340.256807	2506.408760
340.648875	2509.246930
341.040879	2509.471261
341.432818	2514.633403
341.824694	2516.619617
342.216506	2513.481499
342.608253	2518.711696
342.999937	2516.614576
343.391557	2514.824967
343.783113	2516.309586
344.174605	2516.208763
344.566033	2513.289935
344.957397	2509.904800
345.348697	2509.771210
345.739934	2508.306755
346.131106	2505.781137
346.522215	2501.914572
346.913260	2502.330467
347.304241	2497.833758
347.695159	2499.900631
348.086012	2498.723521
348.476802	2495.466936
348.867528	2495.529950
349.258191	2490.398056
349.648789	2490.728251
350.039324	2490.176245
350.429796	2490.740854
350.820203	2485.548466
351.210548	2488.434526
351.600828	2485.087200
351.991045	2486.849083
352.381198	2482.841366
352.771288	2486.143322
353.161314	2483.995790
353.551276	2483.738691
353.941175	2485.934114
354.331010	2482.579226
354.720782	2484.966212
355.110490	2482.619555
355.500135	2485.795482
355.889717	2483.405975
356.279235	2485.155256
356.668689	2483.652992
357.058080	2486.007211
357.447408	2486.276912
357.836672	2482.125522
358.225873	2481.326499
358.615010	2482.808598
359.004084	2485.248517
359.393095	2487.675833
359.782043	2489.465442
360.170927	2487.514516
360.559748	2491.030720
360.948505	2491.401245
361.337199	2491.229846
361.725830	2490.304794
362.114398	2494.292347
362.502903	2493.609271
362.891344	2493.440392
363.279722	2494.622543
363.668037	2494.667913
364.056289	2496.086998
364.444478	2496.870897
364.832603	2495.109014
365.220665	2498.224447
365.608665	2496.097080
365.996601	2499.542709
366.384474	2500.734942
366.772284	2499.840137
367.160031	2504.036897
367.547715	2505.748369
367.935336	2506.832217
368.322893	2511.293638
368.710388	2512.750532
369.097820	2521.335617
369.485189	2524.367871
369.872495	2528.083201
370.259738	2535.962525
370.646918	2544.353525
371.034035	2545.928886
371.421090	2559.792059
371.808081	2570.007957
372.195010	2578.489698
372.581875	2592.287337
372.968678	2607.073041
373.355418	2618.559310
373.742096	2633.438275
374.128710	2647.435039
374.515262	2667.090498
374.901751	2679.897549
375.288177	2692.800382
375.674540	2715.838456
376.060841	2733.220354
376.447079	2752.081831
376.833254	2773.181581
377.219367	2784.773714
377.605417	2823.933397
377.991404	2833.257011
378.377329	2851.914321
378.763191	2869.553319
379.148991	2907.029256
379.534727	2935.085798
379.920402	2960.619242
380.306013	2975.762868
380.691563	3024.798172
381.077049	3045.552602
381.462474	3063.148750
381.847835	3102.671396
382.233134	3125.207874
382.618371	3122.553707
383.003545	3194.407793
383.388657	3200.013556
383.773706	3232.614698
384.158693	3246.175402
384.543618	3275.179681
384.928480	3307.705205
385.313280	3356.364943
385.698017	3352.193388
386.082692	3409.029877
386.467305	3411.701688
386.851856	3444.098664
387.236344	3468.074391
387.620770	3498.263341
388.005133	3526.904657
388.389435	3552.100344
388.773674	3565.540060
389.157851	3605.418107
389.541965	3622.411837
389.926018	3588.260540
390.310008	3656.608504
390.693936	3675.409487
391.077802	3716.867937
391.461606	3709.349056
391.845348	3764.642952
392.229027	3767.831481
392.612645	3780.038635
392.996200	3857.120398
393.379694	3899.198909
393.763125	3963.481183
394.146494	3928.787962
394.529801	3994.552334
394.913047	4038.397770
395.296230	4007.803007
395.679351	4060.546079
396.062410	4081.655911
396.445408	4065.483890
396.828343	4099.073098
397.211217	4126.837253
397.594028	4038.102862
397.976778	4107.398563
398.359466	4131.528046
398.742092	4163.486441
399.124656	4087.856530
399.507158	4166.682533
399.889598	4189.506357
400.271977	4255.560595
400.654294	4223.521542
401.036549	4232.867841
401.418742	4203.014128
401.800874	4302.251762
402.182944	4322.481913
402.564952	4393.000093
402.946898	4372.656517
403.328783	4371.093759
403.710606	4285.706695
404.092367	4480.033094
404.474067	4443.338535
404.855705	4452.770534
405.237282	4377.957290
405.618797	4489.512984
406.000250	4522.184702
406.381642	4603.296867
406.762972	4565.548707
407.144240	4575.285696
407.525447	4575.333587
407.906593	4635.020848
408.287677	4677.870656
408.668700	4605.451960
409.049661	4661.060928
409.430560	4698.247000
409.811399	4627.428871
410.192176	4786.094147
410.572891	4721.325402
410.953545	4828.225590
411.334138	4710.207137
411.714669	4774.910347
412.095139	4672.184234
412.475547	4815.128672
412.855894	4794.298625
413.236180	4801.688956
413.616405	4757.490640
413.996568	4842.902909
414.376670	4784.672541
414.756711	4740.232250
415.136691	4771.119399
415.516609	4850.918344
415.896466	4885.014188
416.276262	4920.962656
416.655997	4903.341303
417.035670	5086.224282
417.415283	5174.938508
417.794834	5113.998519
418.174324	5068.197116
418.553753	4979.059434
418.933121	5164.218494
419.312428	5229.705603
419.691674	5168.087579
420.070859	5297.756139
420.449983	5203.370615
420.829045	5321.562988
421.208047	5228.916662
421.586988	5301.360564
421.965867	5309.038241
422.344686	5444.680568
422.723444	5295.800171
423.102141	5115.367193
423.480777	5413.485907
423.859352	5186.248336
424.237866	5437.857366
424.616319	5430.088948
424.994712	5541.911822
425.373044	5421.859264
425.751314	5562.507456
426.129524	5367.097210
426.507673	5564.435698
426.885762	5640.385722
427.263789	5573.388787
427.641756	5451.841527
428.019662	5578.545887
428.397508	5580.217030
428.775292	5521.903483
429.153016	5619.664059
429.530679	5548.608995
429.908282	5636.317510
430.285824	5502.895812
430.663305	5772.209374
431.040726	5502.374053
431.418086	5504.808930
431.795385	5604.331389
432.172624	5614.849757
432.549802	5604.596050
432.926920	5611.351196
433.303977	5614.842195
433.680974	5650.944418
434.057910	5657.260984
434.434786	5659.030429
434.811601	5620.904182
435.188355	5838.077090
435.565050	5708.564807
435.941683	5685.751065
436.318257	5879.200303
436.694770	5852.237691
437.071222	5873.458428
437.447614	5795.983456
437.823946	5703.687490
438.200218	5837.641030
438.576429	5690.837589
438.952580	5766.001193
439.328670	5792.920955
439.704700	5690.240212
440.080670	5659.595038
440.456580	5891.341922
440.832429	5761.764103
441.208218	5602.398107
441.583947	5726.808743
441.959616	5706.424837
442.335224	5615.129541
442.710773	5714.150405
443.086261	5704.080700
443.461689	5504.602243
443.837057	5610.290033
444.212365	5712.940528
444.587612	5593.339153
444.962800	5685.347773
445.337927	5639.937059
445.712995	5284.250887
446.088002	5716.565118
446.462949	5541.105238
446.837837	5448.315239
447.212664	5556.596703
447.587431	5616.500735
447.962139	5977.096990
448.336786	6609.640810
448.711374	6377.445264
449.085901	5657.737373
449.460369	5550.587648
449.834776	5450.324139
450.209124	5666.813971
450.583412	5707.032296
450.957640	5768.088231
451.331808	5549.075302
451.705917	5204.860276
452.079965	5102.572744
452.453954	5173.642931
452.827883	5050.003592
453.201752	5053.368562
453.575562	4880.388929
453.949311	4935.919760
454.323001	4828.606197
454.696632	4815.174043
455.070202	4825.795754
455.443713	4855.974621
455.817164	4844.286706
456.190556	4822.685362
456.563888	4796.463800
456.937160	4756.371504
457.310373	4545.989030
457.683526	4496.399200
458.056619	4388.977253
458.429653	4326.744208
458.802628	4247.683793
459.175542	4238.723142
459.548398	4316.309020
459.921194	4322.857479
460.293930	4272.163636
460.666607	4388.518507
461.039224	4441.637146
461.411782	4419.451027
461.784280	4350.576263
462.156719	4250.708485
462.529099	4143.699912
462.901419	3964.522181
463.273680	3877.348028
463.645882	3828.232066
464.018024	3734.154053
464.390106	3725.170717
464.762130	3764.663116
465.134094	3827.942200
465.505999	4012.503883
465.877845	4222.450297
466.249631	4281.804842
466.621358	4104.956124
466.993026	3900.658323
467.364634	3784.169861
467.736184	3661.047240
468.107674	3559.009245
468.479105	3506.281296
468.850477	3437.648507
469.221790	3354.887885
469.593043	3270.141047
469.964238	3212.644167
470.335373	3174.500277
470.706449	3147.666215
471.077467	3115.143211
471.448425	3204.381716
471.819324	3260.923297
472.190164	3231.230901
472.560945	3093.166300
472.931667	2999.415962
473.302330	2964.553863
473.672934	2920.756318
474.043479	2913.993610
474.413965	2889.576782
474.784393	2857.308356
475.154761	2847.883919
475.525070	2831.709377
475.895321	2807.408495
476.265513	2797.714356
476.635645	2791.906947
477.005719	2774.399019
477.375734	2765.687905
477.745691	2760.397214
478.115588	2749.609145
478.485427	2746.410533
478.855207	2750.635020
479.224928	2759.451998
479.594591	2762.711104
479.964194	2742.344842
480.333739	2731.604664
480.703226	2716.700493
481.072653	2711.855944
481.442022	2708.793443
481.811333	2704.677341
482.180584	2691.784590
482.549777	2680.578105
482.918912	2673.218020
483.287988	2671.559481
483.657005	2663.448264
484.025964	2657.572799
484.394864	2651.657005
484.763706	2648.160965
485.132489	2641.710809
485.501213	2639.477578
485.869879	2636.823410
486.238487	2628.692029
486.607036	2632.384674
486.975527	2627.976185
487.343959	2622.924949
487.712333	2625.732872
488.080648	2622.541821
488.448905	2620.573251
488.817104	2619.197016
489.185244	2618.829012
489.553326	2619.751543
489.921350	2624.767491
490.289315	2632.684623
490.657222	2634.698564
491.025070	2629.513737
491.392861	2628.472739
491.760593	2623.693725
492.128267	2619.577623
492.495883	2613.767693
492.863440	2614.198712
493.230939	2607.932557
493.598380	2608.746704
493.965763	2599.763368
494.333088	2603.370313
494.700354	2600.297730
495.067563	2604.693616
495.434713	2596.889910
495.801805	2600.764037
496.168839	2601.552977
496.535815	2598.082143
496.902733	2600.451485
497.269593	2597.754468
497.636395	2598.457709
498.003139	2600.161619
498.369825	2596.020311
498.736453	2597.847729
499.103023	2595.717842
499.469535	2597.497369
499.835989	2597.026021
500.202385	2595.730445
500.568723	2593.285485
500.935003	2595.793459
501.301226	2590.679208
501.667390	2596.859663
502.033497	2599.453337
502.399546	2596.037955
502.765537	2592.957810
503.131470	2595.266658
503.497345	2595.702718
503.863163	2594.084508
504.228923	2592.625094
504.594625	2591.780701
504.960269	2588.874475
505.325856	2594.402101
505.691385	2590.616194
506.056856	2590.631317
506.422270	2591.879003
506.787625	2591.047213
507.152924	2589.885227
507.518164	2591.440423
507.883347	2590.941348
508.248472	2590.036461
508.613540	2589.557552
508.978550	2591.211050
509.343503	2590.381780
509.708398	2591.667275
510.073236	2592.867069
510.438016	2593.774477
510.802738	2591.435382
511.167403	2592.320104
511.532010	2588.241811
511.896561	2592.914960
512.261053	2593.134250
512.625488	2588.945052
512.989866	2587.092428
513.354186	2589.376070
513.718449	2584.549165
514.082655	2591.185844
514.446803	2592.582244
514.810894	2593.318252
515.174927	2591.798345
515.538904	2590.391863
515.902822	2591.158118
516.266684	2592.428489
516.630488	2593.368664
516.994235	2593.897985
517.357925	2593.847574
517.721558	2594.699529
518.085133	2592.370516
518.448651	2593.734148
518.812112	2593.245156
519.175516	2592.350351
519.538863	2592.925042
519.902152	2591.221132
520.265385	2595.460743
520.628560	2594.316401
520.991678	2595.251535
521.354739	2592.642738
521.717743	2590.341451
522.080690	2591.919332
522.443580	2592.141143
522.806413	2594.044179
523.169189	2593.227512
523.531908	2594.276072
523.894569	2590.787593
524.257174	2593.744230
524.619722	2593.605598
524.982213	2595.203644
525.344647	2594.513006
525.707025	2594.349168
526.069345	2594.606267
526.431608	2595.485949
526.793815	2592.602409
527.155964	2595.085177
527.518057	2593.751792
527.880093	2593.288006
528.242072	2594.757502
528.603995	2594.112234
528.965860	2594.064343
529.327669	2593.870259
529.689421	2591.185844
530.051117	2596.340424
530.412755	2592.678026
530.774337	2595.314549
531.135862	2591.044692
531.497331	2590.338931
531.858743	2588.531677
532.220098	2590.016297
532.581396	2591.233735
532.942638	2590.159970
533.303824	2591.271544
533.664953	2590.081832
534.026025	2593.681216
534.387040	2592.715835
534.747999	2592.814137
535.108902	2592.741040
535.469748	2594.041658
535.830537	2593.472008
536.191270	2592.136102
536.551947	2590.933787
536.912567	2591.944538
537.273131	2591.440423
537.633638	2590.737182
537.994089	2590.802717
538.354483	2592.874631
538.714821	2593.663572
539.075103	2591.831112
539.435328	2593.880341
539.795497	2589.008066
540.155609	2593.154415
540.515665	2595.057451
540.875665	2590.538056
541.235609	2592.604929
541.595496	2594.543253
541.955328	2590.868252
542.315102	2594.155084
542.674821	2590.936307
543.034483	2592.259610
543.394090	2596.345465
543.753640	2594.371854
544.113134	2592.418407
544.472571	2591.795824
544.831953	2596.859663
545.191278	2592.720876
545.550548	2593.870259
545.909761	2597.376381
546.268918	2595.410331
546.628019	2594.220619
546.987064	2591.329517
547.346053	2592.022676
547.704986	2591.347161
548.063863	2595.743047
548.422684	2591.790783
548.781449	2594.447471
549.140158	2592.080649
549.498811	2593.275403
549.857408	2592.945207
550.215949	2592.844384
550.574434	2588.856831
550.932864	2590.870772
551.291237	2588.645103
551.649555	2593.363623
552.007817	2593.393870
552.366022	2593.978644
552.724173	2593.908068
553.082267	2593.456884
553.440305	2594.739858
553.798288	2595.516196
554.156215	2594.109714
554.514086	2594.301277
554.871902	2589.587799
555.229661	2593.376226
555.587365	2593.628283
555.945014	2594.447471
556.302606	2594.137440
556.660143	2593.083839
557.017625	2591.321956
557.375050	2594.205496
557.732421	2596.955445
558.089735	2593.938314
558.446994	2591.760536
558.804197	2591.629466
559.161345	2594.278592
559.518437	2594.011411
559.875474	2594.790269
560.232455	2594.565938
560.589381	2590.835484
560.946251	2593.282964
561.303065	2595.327152
561.659825	2593.361102
562.016528	2594.563417
562.373177	2594.167687
562.729770	2591.480752
563.086307	2595.551484
563.442789	2592.925042
563.799216	2591.813468
564.155587	2593.461925
564.511904	2593.456884
564.868164	2596.617688
565.224370	2593.842532
565.580520	2592.615012
565.936615	2591.490834
566.292654	2592.856987
566.648638	2595.012080
567.004567	2592.703232
567.360441	2593.822368
567.716260	2593.224991
568.072023	2591.813468
568.427732	2585.648137
568.783385	2590.714497
569.138982	2588.617377
569.494525	2591.062336
569.850013	2588.239290
570.205445	2593.688777
570.560823	2592.211719
570.916145	2590.966554
571.271412	2589.562593
571.626625	2589.610484
571.981782	2592.345310
572.336884	2592.163828
572.691931	2591.203488
573.046923	2592.531832
573.401860	2590.759867
573.756743	2592.282295
574.111570	2589.486976
574.466342	2590.621235
574.821059	2590.490165
575.175722	2592.007552
575.530330	2591.977306
575.884882	2590.560741
576.239380	2587.621749
576.593823	2589.701225
576.948211	2590.074270
577.302544	2588.445977
577.656823	2588.259455
578.011047	2592.120978
578.365216	2589.494537
578.719330	2588.098138
579.073389	2587.697366
579.427394	2586.822726
579.781344	2586.613518
580.135239	2589.948241
580.489080	2588.793817
580.842866	2586.288363
581.196597	2587.404979
581.550273	2588.209043
581.903895	2587.604105
582.257463	2587.425144
582.610975	2587.107551
582.964434	2588.582088
583.317837	2589.096286
583.671186	2586.016141
584.024481	2586.787438
584.377721	2584.380287
584.730906	2584.355081
585.084037	2586.280802
585.437113	2588.148549
585.790135	2586.263158
586.143103	2588.390525
586.496016	2584.155955
586.848874	2579.606314
587.201679	2584.095462
587.554428	2582.515060
587.907124	2583.518249
588.259765	2582.416757
588.612352	2584.047571
588.964884	2584.334916
589.317362	2584.705441
589.669786	2583.379618
590.022155	2587.079825
590.374470	2583.795513
590.726731	2586.545462
591.078937	2585.030596
591.431090	2583.039340
591.783188	2581.630337
592.135232	2582.676377
592.487222	2583.230904
592.839157	2586.109402
593.191038	2585.796851
593.542866	2583.145204
593.894639	2582.953640
594.246358	2584.523960
594.598022	2581.753846
594.949633	2581.781572
595.301190	2581.678228
595.652692	2584.337437
596.004141	2583.379618
596.355535	2583.702252
596.706876	2579.971798
597.058162	2579.482806
597.409395	2579.928948
597.760573	2583.135122
598.111698	2583.573702
598.462768	2582.250399
598.813785	2579.394586
599.164748	2580.944740
599.515657	2582.099165
599.866511	2581.458938
600.217312	2580.173444
600.568060	2580.135635
600.918753	2582.290728
601.269392	2581.040522
601.619978	2579.724781
601.970510	2582.157138
602.320988	2578.696386
602.671412	2582.656212
603.021783	2579.056828
603.372100	2582.131932
603.722363	2578.146900
604.072572	2580.347364
604.422728	2581.877354
604.772830	2575.611200
605.122878	2577.297466
605.472872	2576.642116
605.822813	2574.766806
606.172701	2577.000037
606.522534	2579.145048
606.872314	2579.616396
607.222041	2579.805440
607.571714	2581.733681
607.921333	2580.591860
608.270899	2577.650346
608.620411	2577.980542
608.969870	2580.158320
609.319276	2581.950451
609.668627	2584.894484
610.017926	2587.145360
610.367171	2588.493868
610.716362	2586.827767
611.065500	2584.894484
611.414585	2586.139649
611.763616	2586.636203
612.112594	2579.797878
612.461518	2582.850297
612.810389	2583.500605
613.159207	2582.197467
613.507971	2580.533886
613.856682	2583.036819
614.205340	2581.138825
614.553945	2581.196798
614.902496	2580.906932
615.250994	2579.263516
615.599439	2579.989442
615.947830	2579.278639
616.296169	2580.493557
616.644454	2582.946078
616.992686	2582.447004
617.340864	2582.217632
617.688990	2577.824266
618.037063	2580.788465
618.385082	2577.569688
618.733048	2581.032961
619.080961	2578.575398
619.428821	2580.460790
619.776628	2578.862744
620.124382	2581.864751
620.472083	2579.276118
620.819731	2579.235789
621.167326	2578.310738
621.514868	2578.066242
621.862357	2580.349884
622.209793	2578.693865
622.557176	2580.261664
622.904506	2577.118505
623.251783	2570.622978
623.599007	2575.152455
623.946179	2572.833524
624.293297	2573.496436
624.640363	2575.301169
624.987376	2575.984245
625.334336	2576.664801
625.681243	2576.805953
626.028097	2574.769327
626.374899	2580.070100
626.721647	2578.686303
627.068343	2573.577094
627.414987	2576.097671
627.761577	2576.238823
628.108115	2576.029615
628.454600	2577.360480
628.801032	2572.611713
629.147412	2574.965932
629.493739	2574.209759
629.840014	2573.120870
630.186236	2573.390571
630.532405	2576.382496
630.878521	2573.226734
631.224585	2572.977197
631.570597	2572.420149
631.916556	2570.580128
632.262462	2570.239850
632.608316	2572.016857
632.954117	2571.575756
633.299866	2570.229768
633.645562	2571.316137
633.991206	2571.394274
634.336797	2569.284552
634.682336	2570.980900
635.027823	2570.302865
635.373257	2571.777402
635.718639	2567.603327
636.063968	2572.594069
636.409245	2567.104252
636.754470	2567.126938
637.099642	2567.963769
637.444762	2565.760785
637.789829	2568.213306
638.134845	2568.356979
638.479808	2566.769016
638.824719	2568.503173
639.169577	2567.101732
639.514383	2566.784139
639.859137	2565.982596
640.203839	2567.353790
640.548489	2564.790363
640.893086	2562.741134
641.237632	2562.448747
641.582125	2562.554611
641.926566	2562.158881
642.270955	2565.596947
642.615292	2567.164746
642.959576	2566.907648
643.303809	2568.573749
643.647990	2568.979562
643.992118	2566.355641
644.336195	2566.811866
