Dividing Wavelength (nm)	Counts (n)	Blue Motor Position (mm): 0.000000	Red Motor Position (mm): 17.100000	
326.493990	2128.765843
326.888308	2128.765843
327.282561	2128.765843
327.676750	2095.549681
328.070874	2093.303847
328.464933	2098.718046
328.858929	2104.752307
329.252859	2112.951744
329.646726	2122.156891
330.040528	2137.310599
330.434265	2156.255255
330.827938	2168.701864
331.221547	2192.493590
331.615091	2207.223841
332.008571	2228.951214
332.401986	2248.717578
332.795338	2267.190887
333.188625	2283.330141
333.581847	2305.987607
333.975006	2325.741368
334.368100	2342.072186
334.761129	2361.026924
335.154095	2376.941847
335.546996	2393.738972
335.939833	2409.953843
336.332606	2425.339445
336.725315	2438.890066
337.117960	2444.712599
337.510540	2454.994032
337.903056	2464.547019
338.295508	2471.458441
338.687896	2481.838176
339.080220	2488.374032
339.472480	2496.883500
339.864676	2500.026659
340.256807	2504.089829
340.648875	2506.186949
341.040879	2512.188443
341.432818	2509.524193
341.824694	2512.269102
342.216506	2513.456293
342.608253	2512.695079
342.999937	2513.824298
343.391557	2517.022910
343.783113	2512.427898
344.174605	2511.039060
344.566033	2507.815242
344.957397	2511.162568
345.348697	2505.829028
345.739934	2506.255005
346.131106	2503.661331
346.522215	2501.730569
346.913260	2501.241578
347.304241	2496.207985
347.695159	2495.948366
348.086012	2493.392501
348.476802	2495.038438
348.867528	2491.537356
349.258191	2489.268837
349.648789	2489.273878
350.039324	2487.234732
350.429796	2488.704228
350.820203	2487.403610
351.210548	2484.835142
351.600828	2486.375215
351.991045	2482.715337
352.381198	2484.935965
352.771288	2482.700214
353.161314	2481.374390
353.551276	2482.496047
353.941175	2482.075111
354.331010	2482.251551
354.720782	2480.605614
355.110490	2483.272385
355.500135	2482.906901
355.889717	2483.310193
356.279235	2479.541931
356.668689	2483.877323
357.058080	2482.727940
357.447408	2480.338433
357.836672	2482.299442
358.225873	2480.653505
358.615010	2478.183340
359.004084	2485.803044
359.393095	2486.589464
359.782043	2490.239259
360.170927	2487.980822
360.559748	2489.573827
360.948505	2488.681543
361.337199	2489.805720
361.725830	2488.217757
362.114398	2490.859321
362.502903	2491.060967
362.891344	2490.546770
363.279722	2492.043992
363.668037	2492.217912
364.056289	2492.255721
364.444478	2493.200937
364.832603	2495.522388
365.220665	2494.128509
365.608665	2494.380567
365.996601	2497.614467
366.384474	2497.009529
366.772284	2501.120590
367.160031	2502.280055
367.547715	2503.205107
367.935336	2502.466578
368.322893	2507.870695
368.710388	2508.866323
369.097820	2519.175482
369.485189	2522.084228
369.872495	2527.246370
370.259738	2534.298944
370.646918	2542.052238
371.034035	2546.150697
371.421090	2559.141750
371.808081	2568.946794
372.195010	2578.698906
372.581875	2588.819023
372.968678	2603.037597
373.355418	2612.852724
373.742096	2631.676392
374.128710	2645.496715
374.515262	2661.845177
374.901751	2675.287414
375.288177	2688.381811
375.674540	2710.590614
376.060841	2731.302195
376.447079	2747.302817
376.833254	2772.196035
377.219367	2779.314144
377.605417	2819.232521
377.991404	2830.801969
378.377329	2849.078672
378.763191	2867.892258
379.148991	2908.382806
379.534727	2936.295675
379.920402	2960.982205
380.306013	2969.965542
380.691563	3020.505629
381.077049	3042.215358
381.462474	3056.141546
381.847835	3099.024121
382.233134	3122.276443
382.618371	3119.090434
383.003545	3187.201464
383.388657	3194.927032
383.773706	3228.178483
384.158693	3244.141296
384.543618	3272.301182
384.928480	3304.436017
385.313280	3351.417050
385.698017	3351.459900
386.082692	3402.932601
386.467305	3410.383427
386.851856	3439.105401
387.236344	3461.893937
387.620770	3493.496930
388.005133	3518.478368
388.389435	3549.047925
388.773674	3555.959347
389.157851	3602.975668
389.541965	3613.005044
389.926018	3579.912389
390.310008	3649.792864
390.693936	3668.596368
391.077802	3709.044066
391.461606	3701.726831
391.845348	3763.299484
392.229027	3760.032816
392.612645	3774.206020
392.996200	3852.815253
393.379694	3889.618197
393.763125	3953.696303
394.146494	3921.213628
394.529801	3985.306858
394.913047	4035.211761
395.296230	3996.455370
395.679351	4053.475861
396.062410	4071.981937
396.445408	4056.041808
396.828343	4090.394751
397.211217	4110.428297
397.594028	4032.436606
397.976778	4098.407665
398.359466	4124.336840
398.742092	4151.828773
399.124656	4074.449582
399.507158	4149.285511
399.889598	4173.651928
400.271977	4231.221905
400.654294	4197.070608
401.036549	4201.370712
401.418742	4165.444929
401.800874	4263.029065
402.182944	4273.345786
402.564952	4326.726564
402.946898	4307.839881
403.328783	4295.058036
403.710606	4202.696536
404.092367	4374.206672
404.474067	4323.162468
404.855705	4316.044359
405.237282	4236.139550
405.618797	4317.866736
406.000250	4330.484744
406.381642	4379.903176
406.762972	4331.787883
407.144240	4317.065193
407.525447	4292.842449
407.906593	4321.261953
408.287677	4331.500537
408.668700	4247.431735
409.049661	4258.539917
409.430560	4265.589971
409.811399	4175.602854
410.192176	4271.364613
410.572891	4193.355278
410.953545	4237.543512
411.334138	4113.213534
411.714669	4129.083087
412.095139	4020.388248
412.475547	4080.355293
412.855894	4028.819578
413.236180	3994.043178
413.616405	3927.320986
413.996568	3945.511990
414.376670	3864.319166
414.756711	3797.218888
415.136691	3776.870270
415.516609	3775.279786
415.896466	3754.353957
416.276262	3727.797158
416.655997	3676.510979
417.035670	3717.780385
417.415283	3713.515569
417.794834	3641.353972
418.174324	3585.054366
418.553753	3504.272397
418.933121	3531.318187
419.312428	3507.796163
419.691674	3440.285031
420.070859	3436.834361
420.449983	3366.117055
420.829045	3358.159593
421.208047	3292.105355
421.586988	3269.067282
421.965867	3233.562435
422.344686	3220.316803
422.723444	3150.373314
423.102141	3076.873291
423.480777	3103.687188
423.859352	3024.775487
424.237866	3037.259904
424.616319	3005.372086
424.994712	2992.542349
425.373044	2945.601645
425.751314	2931.017587
426.129524	2876.270656
426.507673	2873.006509
426.885762	2856.700897
427.263789	2826.466577
427.641756	2792.842081
428.019662	2780.670215
428.397508	2761.087852
428.775292	2739.597414
429.153016	2724.476473
429.530679	2704.959646
429.908282	2695.588141
430.285824	2673.959070
430.663305	2672.171981
431.040726	2646.015954
431.418086	2634.507000
431.795385	2629.342338
432.172624	2622.526698
432.549802	2611.544544
432.926920	2603.208996
433.303977	2596.300095
433.680974	2591.758015
434.057910	2585.711151
434.434786	2580.664956
434.811601	2575.412074
435.188355	2574.219841
435.565050	2566.595096
435.941683	2562.816751
436.318257	2561.979920
436.694770	2556.737120
437.071222	2552.371480
437.447614	2553.031872
437.823946	2547.441232
438.200218	2550.047508
438.576429	2548.217570
438.952580	2550.647406
439.328670	2546.727909
439.704700	2547.647919
440.080670	2543.115922
440.456580	2548.557847
440.832429	2540.817156
441.208218	2543.912424
441.583947	2546.248999
441.959616	2541.593493
442.335224	2543.070552
442.710773	2539.851775
443.086261	2544.131714
443.461689	2540.547454
443.837057	2542.223638
444.212365	2544.076262
444.587612	2541.714481
444.962800	2540.844882
445.337927	2538.099974
445.712995	2538.185673
446.088002	2543.367980
446.462949	2541.003678
446.837837	2539.854295
447.212664	2540.439069
447.587431	2541.152393
447.962139	2541.235572
448.336786	2548.419216
448.711374	2545.213042
449.085901	2542.314378
449.460369	2541.316230
449.834776	2541.875798
450.209124	2541.865716
450.583412	2544.829914
450.957640	2543.962836
451.331808	2544.822352
451.705917	2542.291693
452.079965	2543.209183
452.453954	2543.947712
452.827883	2542.059800
453.201752	2543.859492
453.575562	2542.629451
453.949311	2544.628268
454.323001	2542.447969
454.696632	2545.898639
455.070202	2545.520552
455.443713	2541.769934
455.817164	2543.798998
456.190556	2542.526107
456.563888	2541.548123
456.937160	2539.690458
457.310373	2544.482075
457.683526	2543.988042
458.056619	2542.001827
458.429653	2543.670449
458.802628	2543.494008
459.175542	2544.905532
459.548398	2545.528114
459.921194	2547.418547
460.293930	2545.371838
460.666607	2545.044163
461.039224	2548.772097
461.411782	2550.450801
461.784280	2552.701676
462.156719	2550.745708
462.529099	2549.089689
462.901419	2549.984494
463.273680	2549.997097
463.645882	2548.099102
464.018024	2551.713610
464.390106	2551.302756
464.762130	2552.568085
465.134094	2551.690925
465.505999	2556.369115
465.877845	2563.446895
466.249631	2563.731721
466.621358	2562.680640
466.993026	2564.288768
467.364634	2564.359344
467.736184	2560.943962
468.107674	2556.326266
468.479105	2556.921122
468.850477	2557.478169
469.221790	2559.774415
469.593043	2554.970195
469.964238	2558.935063
470.335373	2554.687891
470.706449	2559.232491
471.077467	2556.994218
471.448425	2564.361865
471.819324	2566.277503
472.190164	2567.061403
472.560945	2561.647203
472.931667	2558.352809
473.302330	2560.384394
473.672934	2557.568910
474.043479	2559.615618
474.413965	2556.467418
474.784393	2553.566234
475.154761	2559.197203
475.525070	2558.993036
475.895321	2556.830381
476.265513	2554.854249
476.635645	2561.992522
477.005719	2560.248283
477.375734	2559.051009
477.745691	2563.184755
478.115588	2563.996381
478.485427	2564.692060
478.855207	2569.448389
479.224928	2568.790518
479.594591	2572.500808
479.964194	2572.795715
480.333739	2571.331260
480.703226	2569.211455
481.072653	2572.601631
481.442022	2573.229254
481.811333	2575.066755
482.180584	2569.720611
482.549777	2571.537947
482.918912	2571.850499
483.287988	2569.793708
483.657005	2570.867474
484.025964	2570.028122
484.394864	2572.946950
484.763706	2570.640622
485.132489	2565.115517
485.501213	2570.340673
485.869879	2566.615261
486.238487	2566.030487
486.607036	2568.120045
486.975527	2569.428224
487.343959	2567.343707
487.712333	2567.242884
488.080648	2563.744323
488.448905	2568.175498
488.817104	2565.980075
489.185244	2567.517627
489.553326	2564.150136
489.921350	2568.974521
490.289315	2572.846127
490.657222	2574.131621
491.025070	2573.675397
491.392861	2572.079871
491.760593	2572.072310
492.128267	2569.438307
492.495883	2570.491908
492.863440	2569.723132
493.230939	2565.859087
493.598380	2569.042576
493.965763	2562.602502
494.333088	2563.348593
494.700354	2562.345403
495.067563	2564.797925
495.434713	2561.745506
495.801805	2566.471588
496.168839	2566.252298
496.535815	2565.261711
496.902733	2564.417317
497.269593	2566.716084
497.636395	2567.779767
498.003139	2566.965621
498.369825	2564.954200
498.736453	2566.738769
499.103023	2565.702812
499.469535	2567.399160
499.835989	2567.678944
500.202385	2564.482852
500.568723	2567.081567
500.935003	2566.078378
501.301226	2565.856567
501.667390	2568.430076
502.033497	2569.201372
502.399546	2566.123748
502.765537	2567.265569
503.131470	2565.370096
503.497345	2567.313460
503.863163	2567.709191
504.228923	2565.632236
504.594625	2566.267421
504.960269	2565.299519
505.325856	2567.893193
505.691385	2565.879252
506.056856	2566.680796
506.422270	2568.193142
506.787625	2565.405384
507.152924	2564.911351
507.518164	2567.772205
507.883347	2565.808676
508.248472	2569.894531
508.613540	2569.859243
508.978550	2568.419994
509.343503	2566.343038
509.708398	2568.742628
510.073236	2567.275652
510.438016	2570.610375
510.802738	2566.829510
511.167403	2570.081054
511.532010	2567.595765
511.896561	2568.901424
512.261053	2570.408729
512.625488	2566.433779
512.989866	2565.145764
513.354186	2565.092832
513.718449	2563.678788
514.082655	2567.469736
514.446803	2567.603327
514.810894	2570.867474
515.174927	2570.731363
515.538904	2568.147771
515.902822	2570.106260
516.266684	2569.589541
516.630488	2569.193811
516.994235	2569.667679
517.357925	2568.354459
517.721558	2570.582649
518.085133	2568.679613
518.448651	2566.922771
518.812112	2568.591393
519.175516	2568.490570
519.538863	2570.388564
519.902152	2569.692885
520.265385	2572.309244
520.628560	2568.258677
520.991678	2568.931671
521.354739	2570.602813
521.717743	2570.542319
522.080690	2570.766651
522.443580	2569.839078
522.806413	2571.578277
523.169189	2567.212637
523.531908	2570.958215
523.894569	2568.775395
524.257174	2569.413101
524.619722	2569.841599
524.982213	2573.539285
525.344647	2569.521486
525.707025	2568.293965
526.069345	2570.988462
526.431608	2570.428893
526.793815	2569.879408
527.155964	2570.990982
527.518057	2571.071641
527.880093	2569.261866
528.242072	2572.447876
528.603995	2569.473595
528.965860	2568.336815
529.327669	2571.565674
529.689421	2568.866136
530.051117	2567.968810
530.412755	2569.927299
530.774337	2569.090467
531.135862	2568.730025
531.497331	2565.901937
531.858743	2567.918399
532.220098	2567.255487
532.581396	2565.949828
532.942638	2566.965621
533.303824	2568.525858
533.664953	2569.682803
534.026025	2568.432597
534.387040	2569.647515
534.747999	2568.661969
535.108902	2568.389747
535.469748	2568.586352
535.830537	2568.334294
536.191270	2569.092988
536.551947	2569.032494
536.912567	2567.522668
537.273131	2567.449572
537.633638	2570.204562
537.994089	2568.553584
538.354483	2567.172308
538.714821	2565.581824
539.075103	2567.394119
539.435328	2567.694068
539.795497	2565.778429
540.155609	2567.986454
540.515665	2570.239850
540.875665	2567.963769
541.235609	2569.314798
541.595496	2569.201372
541.955328	2568.089798
542.315102	2571.994172
542.674821	2568.556105
543.034483	2571.661456
543.394090	2566.816907
543.753640	2566.552246
544.113134	2567.008471
544.472571	2567.240364
544.831953	2567.777247
545.191278	2568.392267
545.550548	2569.065261
545.909761	2568.339335
546.268918	2568.946794
546.628019	2568.341856
546.987064	2570.055848
547.346053	2565.939746
547.704986	2567.691547
548.063863	2570.018039
548.422684	2569.138358
548.781449	2569.483677
549.140158	2569.413101
549.498811	2568.966959
549.857408	2563.875393
550.215949	2564.911351
550.574434	2566.269942
550.932864	2565.894376
551.291237	2562.342883
551.649555	2566.635425
552.007817	2567.615930
552.366022	2569.208934
552.724173	2567.494942
553.082267	2566.826989
553.440305	2567.726835
553.798288	2568.097360
554.156215	2569.022412
554.514086	2570.103739
554.871902	2563.560321
555.229661	2567.351269
555.587365	2565.619633
555.945014	2569.206414
556.302606	2568.767833
556.660143	2566.821948
557.017625	2565.760785
557.375050	2569.269428
557.732421	2566.756413
558.089735	2566.950497
558.446994	2567.101732
558.804197	2567.068964
559.161345	2565.521330
559.518437	2566.519479
559.875474	2566.645507
560.232455	2568.911506
560.589381	2566.232133
560.946251	2569.125755
561.303065	2570.444017
561.659825	2568.218347
562.016528	2565.556618
562.373177	2568.112483
562.729770	2569.904613
563.086307	2568.465364
563.442789	2566.559808
563.799216	2566.290106
564.155587	2566.824468
564.511904	2568.253636
564.868164	2566.716084
565.224370	2570.501990
565.580520	2566.567370
565.936615	2566.088460
566.292654	2565.856567
566.648638	2567.414283
567.004567	2565.178532
567.360441	2567.830179
567.716260	2566.774057
568.072023	2568.510734
568.427732	2564.399673
568.783385	2565.589386
569.138982	2563.880435
569.494525	2563.215002
569.850013	2562.993192
570.205445	2567.966290
570.560823	2567.063923
570.916145	2568.241033
571.271412	2564.984447
571.626625	2566.748851
571.981782	2564.694581
572.336884	2566.370765
572.691931	2566.590055
573.046923	2564.175342
573.401860	2568.480487
573.756743	2564.825651
574.111570	2564.911351
574.466342	2567.399160
574.821059	2563.308264
575.175722	2563.802297
575.530330	2567.414283
575.884882	2565.110476
576.239380	2564.049313
576.593823	2564.782801
576.948211	2565.118038
577.302544	2563.507389
577.656823	2565.871690
578.011047	2565.571742
578.365216	2564.276165
578.719330	2565.559139
579.073389	2562.844478
579.427394	2561.765671
579.781344	2561.468242
580.135239	2562.937739
580.489080	2566.882442
580.842866	2562.373130
581.196597	2565.002091
581.550273	2565.231464
581.903895	2560.598643
582.257463	2565.289437
582.610975	2564.666855
582.964434	2563.487225
583.317837	2565.700291
583.671186	2563.746844
584.024481	2561.803479
584.377721	2562.040413
584.730906	2563.358675
585.084037	2563.424210
585.437113	2561.954714
585.790135	2563.467060
586.143103	2563.036041
586.496016	2564.928995
586.848874	2560.190310
587.201679	2562.317677
587.554428	2563.726679
587.907124	2563.630897
588.259765	2556.369115
588.612352	2561.004456
588.964884	2563.872873
589.317362	2560.969168
589.669786	2562.206772
590.022155	2562.473953
590.374470	2562.206772
590.726731	2561.440516
591.078937	2557.606719
591.431090	2560.656617
591.783188	2562.620146
592.135232	2559.882800
592.487222	2560.215516
592.839157	2559.557645
593.191038	2562.171483
593.542866	2562.415979
593.894639	2560.926318
594.246358	2561.823644
594.598022	2559.393808
594.949633	2558.045299
595.301190	2559.991184
595.652692	2560.424724
596.004141	2560.941442
596.355535	2559.857594
596.706876	2559.731565
597.058162	2558.176369
597.409395	2559.003118
597.760573	2558.251986
598.111698	2558.766184
598.462768	2558.778787
598.813785	2559.910526
599.164748	2559.542522
599.515657	2557.755433
599.866511	2560.228119
600.217312	2558.977912
600.568060	2559.502192
600.918753	2558.864487
601.269392	2557.742830
601.619978	2559.119065
601.970510	2559.192162
602.320988	2557.253838
602.671412	2558.680484
603.021783	2558.287274
603.372100	2561.120403
603.722363	2559.446740
604.072572	2559.814744
604.422728	2560.182748
604.772830	2555.872562
605.122878	2556.543035
605.472872	2554.521532
605.822813	2555.154197
606.172701	2556.689229
606.522534	2558.919939
606.872314	2560.840619
607.222041	2557.090000
607.571714	2562.675599
607.921333	2560.855742
608.270899	2557.042109
608.620411	2557.894064
608.969870	2561.193500
609.319276	2561.954714
609.668627	2563.542677
610.017926	2566.572411
610.367171	2566.617781
610.716362	2566.590055
611.065500	2562.398335
611.414585	2562.519323
611.763616	2563.411607
612.112594	2564.273645
612.461518	2562.035372
612.810389	2560.286092
613.159207	2560.744837
613.507971	2559.512275
613.856682	2561.899261
614.205340	2559.033365
614.553945	2559.696277
614.902496	2559.930691
615.250994	2560.528067
615.599439	2560.659137
615.947830	2562.027811
616.296169	2562.673078
616.644454	2559.792059
616.992686	2561.281720
617.340864	2558.836760
617.688990	2557.458005
618.037063	2557.866338
618.385082	2561.493448
618.733048	2560.034034
619.080961	2557.528581
619.428821	2557.737789
619.776628	2558.007490
620.124382	2559.383725
620.472083	2560.371792
620.819731	2561.213664
621.167326	2557.097562
621.514868	2559.035886
621.862357	2558.655279
622.209793	2558.609908
622.557176	2558.872048
622.904506	2553.523384
623.251783	2552.421892
623.599007	2556.530432
623.946179	2554.229146
624.293297	2553.631769
624.640363	2557.402552
624.987376	2558.022614
625.334336	2557.720145
625.681243	2557.112686
626.028097	2555.033210
626.374899	2556.757284
626.721647	2557.508416
627.068343	2557.160577
627.414987	2555.083621
627.761577	2554.670247
628.108115	2558.332645
628.454600	2557.442881
628.801032	2556.028838
629.147412	2556.268292
629.493739	2557.379867
629.840014	2556.127140
630.186236	2557.470607
630.532405	2555.567572
630.878521	2554.637479
631.224585	2555.731409
631.570597	2553.087324
631.916556	2553.450287
632.262462	2556.152346
632.608316	2552.827705
632.954117	2553.722510
633.299866	2553.205791
633.645562	2553.530946
633.991206	2557.135371
634.336797	2553.336861
634.682336	2554.529094
635.027823	2552.522715
635.373257	2552.265616
635.718639	2550.922149
636.063968	2554.786193
636.409245	2554.355174
636.754470	2554.219063
637.099642	2553.684701
637.444762	2554.350133
637.789829	2551.743857
638.134845	2553.004145
638.479808	2552.938610
638.824719	2552.774773
639.169577	2552.573127
639.514383	2550.952396
639.859137	2549.843342
640.203839	2553.094886
640.548489	2553.374670
640.893086	2549.142621
641.237632	2547.438711
641.582125	2547.516849
641.926566	2547.501726
642.270955	2550.476007
642.615292	2552.588250
642.959576	2551.975750
643.303809	2553.593960
643.647990	2548.842673
643.992118	2551.965667
644.336195	2552.053888
