Dividing Wavelength (nm)	Counts (n)	Blue Motor Position (mm): 0.000000	Red Motor Position (mm): 47.600000	
326.493990	2127.190483
326.888308	2127.190483
327.282561	2127.190483
327.676750	2096.487335
328.070874	2092.840060
328.464933	2095.048086
328.858929	2101.168047
329.252859	2112.969388
329.646726	2124.425410
330.040528	2136.017543
330.434265	2152.701242
330.827938	2171.325785
331.221547	2190.149453
331.615091	2207.317103
332.008571	2226.004660
332.401986	2247.172465
332.795338	2267.221134
333.188625	2283.809050
333.581847	2304.061886
333.975006	2326.046358
334.368100	2341.588235
334.761129	2359.267562
335.154095	2374.746425
335.546996	2396.194014
335.939833	2420.129412
336.332606	2435.867894
336.725315	2452.120574
337.117960	2461.363530
337.510540	2468.025415
337.903056	2479.330202
338.295508	2486.516367
338.687896	2495.794611
339.080220	2503.873060
339.472480	2509.378000
339.864676	2513.892353
340.256807	2518.348733
340.648875	2520.685308
341.040879	2521.970802
341.432818	2526.822913
341.824694	2526.769981
342.216506	2527.367357
342.608253	2529.867770
342.999937	2529.255269
343.391557	2527.493386
343.783113	2528.151257
344.174605	2526.520443
344.566033	2523.359640
344.957397	2522.490041
345.348697	2522.603467
345.739934	2518.361336
346.131106	2519.856038
346.522215	2516.193640
346.913260	2513.294976
347.304241	2513.778927
347.695159	2509.211642
348.086012	2509.536796
348.476802	2507.006137
348.867528	2507.694254
349.258191	2502.252329
349.648789	2504.140241
350.039324	2502.721156
350.429796	2502.363234
350.820203	2501.291989
351.210548	2499.535147
351.600828	2499.434324
351.991045	2498.103459
352.381198	2496.976761
352.771288	2497.732934
353.161314	2495.572800
353.551276	2498.340393
353.941175	2497.654797
354.331010	2496.260918
354.720782	2498.428614
355.110490	2497.526247
355.500135	2498.143788
355.889717	2496.956597
356.279235	2497.337204
356.668689	2497.637153
357.058080	2497.959786
357.447408	2497.589262
357.836672	2495.154384
358.225873	2496.003819
358.615010	2493.957110
359.004084	2500.613954
359.393095	2499.701505
359.782043	2500.926505
360.170927	2501.138234
360.559748	2503.051352
360.948505	2501.044972
361.337199	2502.471619
361.725830	2504.460354
362.114398	2503.898266
362.502903	2504.997237
362.891344	2503.263080
363.279722	2508.304234
363.668037	2507.013699
364.056289	2507.764831
364.444478	2508.009327
364.832603	2509.917403
365.220665	2508.626868
365.608665	2509.234327
365.996601	2511.553258
366.384474	2509.423370
366.772284	2516.528877
367.160031	2514.308248
367.547715	2518.570544
367.935336	2518.366377
368.322893	2524.148581
368.710388	2525.784435
369.097820	2533.757020
369.485189	2538.132741
369.872495	2539.529141
370.259738	2546.269164
370.646918	2556.948848
371.034035	2562.000084
371.421090	2571.011147
371.808081	2585.406162
372.195010	2590.467480
372.581875	2606.140427
372.968678	2617.687190
373.355418	2626.481483
373.742096	2647.296407
374.128710	2661.996412
374.515262	2679.874864
374.901751	2693.614529
375.288177	2703.424614
375.674540	2725.850187
376.060841	2743.307703
376.447079	2763.396701
376.833254	2785.413940
377.219367	2797.457257
377.605417	2835.311281
377.991404	2847.944413
378.377329	2868.529964
378.763191	2883.373642
379.148991	2921.633479
379.534727	2946.067952
379.920402	2974.679020
380.306013	2988.839622
380.691563	3038.056407
381.077049	3059.020045
381.462474	3076.301120
381.847835	3116.955505
382.233134	3138.042652
382.618371	3138.181284
383.003545	3207.361038
383.388657	3212.414795
383.773706	3247.849065
384.158693	3259.816764
384.543618	3289.652833
384.928480	3324.890499
385.313280	3369.388764
385.698017	3366.807693
386.082692	3423.192999
386.467305	3427.556117
386.851856	3459.464101
387.236344	3485.428563
387.620770	3511.574508
388.005133	3540.084753
388.389435	3567.735482
388.773674	3580.270311
389.157851	3619.903863
389.541965	3635.481028
389.926018	3603.394084
390.310008	3670.292716
390.693936	3689.265099
391.077802	3733.604567
391.461606	3719.759038
391.845348	3781.777833
392.229027	3781.709778
392.612645	3798.693425
392.996200	3874.945918
393.379694	3916.091816
393.763125	3979.650684
394.146494	3944.970066
394.529801	4009.693440
394.913047	4054.582394
395.296230	4020.461345
395.679351	4077.958225
396.062410	4099.110906
396.445408	4081.754214
396.828343	4112.709419
397.211217	4139.392246
397.594028	4056.931572
397.976778	4125.551758
398.359466	4150.689472
398.742092	4181.231303
399.124656	4103.055609
399.507158	4182.300027
399.889598	4206.220302
400.271977	4270.893265
400.654294	4241.785643
401.036549	4251.583125
401.418742	4217.169688
401.800874	4324.715144
402.182944	4345.036035
402.564952	4407.896703
402.946898	4394.870361
403.328783	4389.352818
403.710606	4305.079850
404.092367	4497.644365
404.474067	4460.135660
404.855705	4469.802072
405.237282	4398.328593
405.618797	4507.434286
406.000250	4542.024163
406.381642	4619.509218
406.762972	4584.561419
407.144240	4594.961319
407.525447	4594.242955
407.906593	4653.688241
408.287677	4697.049726
408.668700	4626.329899
409.049661	4677.192621
409.430560	4717.983117
409.811399	4645.393022
410.192176	4805.704235
410.572891	4746.594186
410.953545	4848.904403
411.334138	4731.432916
411.714669	4794.076814
412.095139	4689.747614
412.475547	4829.601825
412.855894	4813.737314
413.236180	4824.724509
413.616405	4776.765492
413.996568	4863.329665
414.376670	4804.428823
414.756711	4760.079272
415.136691	4789.648160
415.516609	4869.890727
415.896466	4907.472528
416.276262	4943.620122
416.655997	4921.537348
417.035670	5103.291108
417.415283	5197.094379
417.794834	5141.540863
418.174324	5091.648564
418.553753	5001.225387
418.933121	5183.442934
419.312428	5254.092185
419.691674	5193.184964
420.070859	5316.516793
420.449983	5227.467331
420.829045	5342.244321
421.208047	5251.138068
421.586988	5323.050128
421.965867	5337.049412
422.344686	5467.254854
422.723444	5323.957536
423.102141	5142.445750
423.480777	5439.349547
423.859352	5208.235329
424.237866	5467.685873
424.616319	5458.198422
424.994712	5565.746398
425.373044	5445.771977
425.751314	5590.226241
426.129524	5390.094954
426.507673	5587.430921
426.885762	5669.992418
427.263789	5597.268733
427.641756	5483.583152
428.019662	5602.690494
428.397508	5606.758705
428.775292	5553.493873
429.153016	5653.167567
429.530679	5581.706691
429.908282	5666.718189
430.285824	5532.416809
430.663305	5812.896527
431.040726	5549.977668
431.418086	5546.176638
431.795385	5652.320653
432.172624	5663.854813
432.549802	5657.898690
432.926920	5677.594478
433.303977	5678.378377
433.680974	5716.371033
434.057910	5738.743674
434.434786	5743.237863
434.811601	5712.234767
435.188355	5944.034582
435.565050	5820.347352
435.941683	5806.315300
436.318257	6014.709039
436.694770	6000.689590
437.071222	6038.092431
437.447614	5969.694055
437.823946	5879.485128
438.200218	6031.659918
438.576429	5894.449793
438.952580	5994.670452
439.328670	6040.555034
439.704700	5948.977434
440.080670	5929.858858
440.456580	6209.186672
440.832429	6087.263845
441.208218	5938.890085
441.583947	6087.586479
441.959616	6091.695020
442.335224	6025.076172
442.710773	6162.699672
443.086261	6183.552404
443.461689	5979.589840
443.837057	6133.395444
444.212365	6281.738958
444.587612	6176.726682
444.962800	6331.850548
445.337927	6311.983360
445.712995	5922.037508
446.088002	6497.578480
446.462949	6323.850237
446.837837	6256.944043
447.212664	6432.794612
447.587431	6574.998001
447.962139	7113.095803
448.336786	8037.608131
448.711374	7785.280737
449.085901	6860.397884
449.460369	6776.432426
449.834776	6713.438168
450.209124	7106.086079
450.583412	7254.026300
450.957640	7403.645226
451.331808	7165.191087
451.705917	6720.967131
452.079965	6639.754142
452.453954	6854.396391
452.827883	6730.981383
453.201752	6820.292985
453.575562	6621.452233
453.949311	6827.562329
454.323001	6718.260031
454.696632	6787.283510
455.070202	6929.774244
455.443713	7081.883499
455.817164	7185.199427
456.190556	7261.265397
456.563888	7338.793302
456.937160	7383.367184
457.310373	7040.384721
457.683526	7063.866415
458.056619	6952.504806
458.429653	6943.143384
458.802628	6883.287243
459.175542	6986.567883
459.548398	7342.937131
459.921194	7502.000658
460.293930	7505.486616
460.666607	8038.102164
461.039224	8343.333947
461.411782	8470.479408
461.784280	8493.792224
462.156719	8380.018423
462.529099	8259.118951
462.901419	7854.518464
463.273680	7739.635609
463.645882	7754.474245
464.018024	7622.267465
464.390106	7788.784338
464.762130	8169.761979
465.134094	8644.253023
465.505999	9659.901850
465.877845	10886.495239
466.249631	11535.027078
466.621358	11156.544809
466.993026	10525.868737
467.364634	10269.521023
467.736184	9908.927288
468.107674	9573.637625
468.479105	9606.158109
468.850477	9374.257470
469.221790	9148.943099
469.593043	8813.600504
469.964238	8675.886263
470.335373	8687.485958
470.706449	8746.427129
471.077467	8721.997697
471.448425	10036.680209
471.819324	11108.474887
472.190164	11141.111317
472.560945	9886.486592
472.931667	9099.108773
473.302330	8958.299263
473.672934	8606.164585
474.043479	8964.013411
474.413965	8903.378413
474.784393	8787.986401
475.154761	8945.726626
475.525070	9031.332980
475.895321	8858.524746
476.265513	9034.970172
476.635645	9205.008291
477.005719	9200.307415
477.375734	9318.313265
477.745691	9555.665912
478.115588	9689.778248
478.485427	9925.905894
478.855207	10469.155756
479.224928	11284.990889
479.594591	11916.934812
479.964194	11726.601007
480.333739	11671.556648
480.703226	11581.947618
481.072653	11673.096721
481.442022	11907.268399
481.811333	12098.673449
482.180584	11908.150601
482.549777	11618.062444
482.918912	11442.257245
483.287988	11466.192643
483.657005	11470.913684
484.025964	11155.607155
484.394864	11286.755293
484.763706	11260.614389
485.132489	11015.387461
485.501213	10983.746658
485.869879	11044.311081
486.238487	10892.290045
486.607036	10999.028916
486.975527	10788.515373
487.343959	10977.505710
487.712333	11022.714778
488.080648	10951.120311
488.448905	10993.183698
488.817104	10939.714700
489.185244	11196.112826
489.553326	11352.953204
489.921350	11898.073334
490.289315	12960.090695
490.657222	13301.865802
491.025070	13204.826111
491.392861	13085.610384
491.760593	12699.878936
492.128267	12352.596368
492.495883	12030.312882
492.863440	11691.728825
493.230939	11351.675272
493.598380	11288.121445
493.965763	11153.162195
494.333088	11055.499922
494.700354	10976.792387
495.067563	11033.137363
495.434713	10862.330468
495.801805	10997.123360
496.168839	10914.680330
496.535815	10849.838489
496.902733	10848.212717
497.269593	10782.022367
497.636395	10877.632891
498.003139	10867.658968
498.369825	10738.073587
498.736453	10898.553679
499.103023	10826.029119
499.469535	10851.043325
499.835989	10840.167035
500.202385	10809.058075
500.568723	10654.269446
500.935003	10879.233457
501.301226	10681.463950
501.667390	10942.406676
502.033497	11034.410255
502.399546	10897.177444
502.765537	10805.867024
503.131470	10880.962573
503.497345	11052.439941
503.863163	10665.518781
504.228923	10973.911367
504.594625	11042.995340
504.960269	10787.116453
505.325856	11010.353868
505.691385	10794.670622
506.056856	10951.667276
506.422270	10982.869498
506.787625	10868.238700
507.152924	10984.543161
507.518164	10968.913063
507.883347	10885.398788
508.248472	10806.592951
508.613540	11036.741788
508.978550	10925.498646
509.343503	10900.887733
509.708398	11022.185457
510.073236	11134.356171
510.438016	11134.908177
510.802738	11084.645353
511.167403	11138.560493
511.532010	11033.931345
511.896561	11265.373239
512.261053	11336.309835
512.625488	11204.380318
512.989866	11187.525220
513.354186	11183.940960
513.718449	11081.098901
514.082655	11266.557910
514.446803	11171.902685
514.810894	11289.172526
515.174927	11154.755200
515.538904	11177.268993
515.902822	11337.171872
516.266684	11211.790814
516.630488	11162.329533
516.994235	11220.315406
517.357925	11283.211362
517.721558	11375.537574
518.085133	11382.141485
518.448651	11393.552137
518.812112	11278.815475
519.175516	11289.391816
519.538863	11412.388408
519.902152	11334.447129
520.265385	11492.353711
520.628560	11402.169989
520.991678	11374.725948
521.354739	11444.765219
521.717743	11378.277441
522.080690	11355.352794
522.443580	11491.698361
522.806413	11442.002667
523.169189	11475.390228
523.531908	11528.158506
523.894569	11353.658966
524.257174	11360.512415
524.619722	11475.841412
524.982213	11417.469891
525.344647	11472.705814
525.707025	11422.768144
526.069345	11512.099911
526.431608	11435.479413
526.793815	11544.189376
527.155964	11331.987046
527.518057	11393.015254
527.880093	11344.947852
528.242072	11406.296174
528.603995	11308.754888
528.965860	11227.476365
529.327669	11292.411467
529.689421	11231.632796
530.051117	11204.952489
530.412755	11305.084928
530.774337	11202.925945
531.135862	11180.339056
531.497331	11201.315297
531.858743	11055.636033
532.220098	11219.894469
532.581396	11090.830848
532.942638	11071.876110
533.303824	11040.174814
533.664953	11048.787625
534.026025	10967.602363
534.387040	11067.714637
534.747999	11062.928062
535.108902	11123.374017
535.469748	10881.328056
535.830537	10987.572894
536.191270	10966.175717
536.551947	10989.465848
536.912567	10982.337656
537.273131	10911.532130
537.633638	10888.506659
537.994089	10876.526357
538.354483	10822.545682
538.714821	10966.402569
539.075103	10976.787346
539.435328	10946.560587
539.795497	10775.171439
540.155609	10934.260172
540.515665	11018.210507
540.875665	10752.133366
541.235609	10819.851185
541.595496	10818.149796
541.955328	10966.049688
542.315102	10855.701351
542.674821	10808.964813
543.034483	10811.001440
543.394090	10811.077057
543.753640	10735.938659
544.113134	10970.811058
544.472571	10816.476133
544.831953	10964.451642
545.191278	10765.331106
545.550548	10792.066866
545.909761	10938.469535
546.268918	10905.381922
546.628019	10989.962401
546.987064	10854.357883
547.346053	10774.107755
547.704986	10877.958045
548.063863	10861.176044
548.422684	10847.454023
548.781449	10772.688670
549.140158	10868.783145
549.498811	10757.809705
549.857408	10601.395304
550.215949	10831.813843
550.574434	10688.627430
550.932864	10783.222161
551.291237	10846.319763
551.649555	10785.825917
552.007817	10803.485079
552.366022	10763.554100
552.724173	10758.026474
553.082267	10739.006201
553.440305	10874.756912
553.798288	10678.872797
554.156215	10835.428351
554.514086	10812.952366
554.871902	10662.317648
555.229661	10699.695283
555.587365	10669.390387
555.945014	10565.666126
556.302606	10700.456497
556.660143	10588.978942
557.017625	10742.713970
557.375050	10637.275716
557.732421	10778.672520
558.089735	10688.660198
558.446994	10689.648264
558.804197	10725.334592
559.161345	10727.275436
559.518437	10575.977806
559.875474	10665.828812
560.232455	10699.990191
560.589381	10650.241564
560.946251	10644.610595
561.303065	10757.645867
561.659825	10681.279948
562.016528	10614.285534
562.373177	10492.748356
562.729770	10608.463002
563.086307	10521.785402
563.442789	10614.023394
563.799216	10497.050981
564.155587	10544.127796
564.511904	10495.999900
564.868164	10491.480506
565.224370	10500.753708
565.580520	10427.208315
565.936615	10432.604870
566.292654	10302.182658
566.648638	10431.994891
567.004567	10387.625175
567.360441	10369.923163
567.716260	10280.586355
568.072023	10379.743331
568.427732	10324.421709
568.783385	10236.778728
569.138982	10305.131733
569.494525	10324.983797
569.850013	10200.656341
570.205445	10282.970821
570.560823	10176.625160
570.916145	10099.629097
571.271412	10163.676957
571.626625	10105.731414
571.981782	10089.203991
572.336884	10060.610566
572.691931	10069.024252
573.046923	10009.478143
573.401860	9970.550353
573.756743	9898.905474
574.111570	9952.719792
574.466342	9932.189693
574.821059	9958.433939
575.175722	9851.788330
575.530330	9858.538435
575.884882	9859.118168
576.239380	9784.637640
576.593823	9759.457077
576.948211	9768.276575
577.302544	9652.753494
577.656823	9669.535495
578.011047	9671.100773
578.365216	9643.876022
578.719330	9564.669412
579.073389	9578.121732
579.427394	9523.687352
579.781344	9499.509978
580.135239	9448.100292
580.489080	9458.270819
580.842866	9361.488227
581.196597	9362.592240
581.550273	9407.347604
581.903895	9373.319815
582.257463	9440.420094
582.610975	9318.862751
582.964434	9350.606897
583.317837	9266.296119
583.671186	9248.576463
584.024481	9241.627233
584.377721	9158.705293
584.730906	9139.475812
585.084037	9171.156943
585.437113	9102.960214
585.790135	9124.818657
586.143103	9026.947176
586.496016	9001.383485
586.848874	9056.851300
587.201679	9041.095174
587.554428	8929.196682
587.907124	8977.432963
588.259765	8949.028581
588.612352	8950.649312
588.964884	8829.661620
589.317362	8842.816511
589.669786	8843.640740
590.022155	8892.456753
590.374470	8910.887211
590.726731	8840.129576
591.078937	8691.027369
591.431090	8809.761665
591.783188	8677.958177
592.135232	8678.928599
592.487222	8673.370727
592.839157	8726.055826
593.191038	8656.941607
593.542866	8604.853885
593.894639	8500.315477
594.246358	8548.292139
594.598022	8574.617044
594.949633	8462.466494
595.301190	8445.634082
595.652692	8472.329512
596.004141	8584.041481
596.355535	8358.769960
596.706876	8340.437804
597.058162	8270.365765
597.409395	8345.514246
597.760573	8407.840551
598.111698	8322.531625
598.462768	8302.445148
598.813785	8267.497349
599.164748	8236.353100
599.515657	8231.435455
599.866511	8140.334243
600.217312	8266.804190
600.568060	8123.889999
600.918753	8225.491934
601.269392	8198.063016
601.619978	8114.480686
601.970510	8176.038215
602.320988	8171.735590
602.671412	8227.016883
603.021783	8167.687544
603.372100	8134.388202
603.722363	8146.381107
604.072572	8113.384235
604.422728	8123.869835
604.772830	8053.409627
605.122878	8065.122748
605.472872	8055.821819
605.822813	8085.441119
606.172701	8033.333232
606.522534	8109.288297
606.872314	8107.768389
607.222041	8079.739574
607.571714	8136.150085
607.921333	8086.542611
608.270899	8097.875125
608.620411	8188.978857
608.969870	8091.989578
609.319276	8082.610511
609.668627	8101.900486
610.017926	8132.785115
610.367171	8183.302518
610.716362	8152.178434
611.065500	8144.425139
611.414585	8180.822270
611.763616	8159.611615
612.112594	8140.482957
612.461518	8163.037079
612.810389	8216.720327
613.159207	8160.088004
613.507971	8106.588759
613.856682	8224.133343
614.205340	8186.818723
614.553945	8262.456195
614.902496	8160.849219
615.250994	8212.783186
615.599439	8196.086884
615.947830	8202.877318
616.296169	8171.919592
616.644454	8195.139147
616.992686	8193.619239
617.340864	8246.594204
617.688990	8153.524422
618.037063	8242.568843
618.385082	8190.410545
618.733048	8277.100747
619.080961	8218.376346
619.428821	8236.194304
619.776628	8242.034481
620.124382	8187.867283
620.472083	8175.140890
620.819731	8197.924385
621.167326	8088.412879
621.514868	8102.049200
621.862357	7993.624063
622.209793	8008.311465
622.557176	7941.801002
622.904506	7913.263030
623.251783	7848.101075
623.599007	7804.094323
623.946179	7806.972822
624.293297	7761.743589
624.640363	7687.555449
624.987376	7665.477715
625.334336	7609.893953
625.681243	7561.433341
626.028097	7548.855662
626.374899	7522.447578
626.721647	7518.316352
627.068343	7450.462422
627.414987	7419.424037
627.761577	7370.010647
628.108115	7413.430105
628.454600	7306.557644
628.801032	7359.759461
629.147412	7315.793038
629.493739	7306.469424
629.840014	7239.401913
630.186236	7300.684700
630.532405	7183.311515
630.878521	7232.762713
631.224585	7189.499531
631.570597	7114.310721
631.916556	7145.918756
632.262462	7140.912890
632.608316	7104.936696
632.954117	7078.470638
633.299866	7066.470171
633.645562	7059.783081
633.991206	6978.330637
634.336797	6921.292502
634.682336	6876.673250
635.027823	6841.246541
635.373257	6832.447207
635.718639	6768.661487
636.063968	6783.321163
636.409245	6678.462642
636.754470	6671.745305
637.099642	6633.046887
637.444762	6571.819553
637.789829	6582.678198
638.134845	6529.395723
638.479808	6512.318814
638.824719	6517.266707
639.169577	6445.894051
639.514383	6465.441125
639.859137	6394.784312
640.203839	6401.259674
640.548489	6385.732921
