Dividing Wavelength (nm)	Counts (n)	Blue Motor Position (mm): 0.000000	Red Motor Position (mm): 44.500000	
326.493990	2126.842643
326.888308	2126.842643
327.282561	2126.842643
327.676750	2095.045565
328.070874	2091.960379
328.464933	2096.610843
328.858929	2104.527976
329.252859	2114.138935
329.646726	2126.693929
330.040528	2137.892852
330.434265	2152.305511
330.827938	2172.311330
331.221547	2190.008301
331.615091	2207.942206
332.008571	2227.501883
332.401986	2247.656416
332.795338	2266.409508
333.188625	2285.369288
333.581847	2305.884263
333.975006	2322.600729
334.368100	2341.000941
334.761129	2361.432737
335.154095	2375.318596
335.546996	2396.199055
335.939833	2420.010945
336.332606	2434.587441
336.725315	2447.003803
337.117960	2458.991667
337.510540	2465.325877
337.903056	2476.519759
338.295508	2485.457725
338.687896	2493.442912
339.080220	2501.425580
339.472480	2509.148627
339.864676	2512.037208
340.256807	2516.894360
340.648875	2519.044412
341.040879	2521.305370
341.432818	2524.745957
341.824694	2524.347706
342.216506	2526.018849
342.608253	2527.788294
342.999937	2527.571524
343.391557	2526.918695
343.783113	2524.748478
344.174605	2522.585823
344.566033	2522.976512
344.957397	2521.323014
345.348697	2518.590708
345.739934	2517.705986
346.131106	2515.039216
346.522215	2514.300687
346.913260	2510.348422
347.304241	2510.950840
347.695159	2509.317506
348.086012	2507.064110
348.476802	2505.294665
348.867528	2504.916579
349.258191	2499.575476
349.648789	2500.485404
350.039324	2499.290651
350.429796	2500.729900
350.820203	2496.147492
351.210548	2497.813593
351.600828	2496.366782
351.991045	2496.442399
352.381198	2493.949548
352.771288	2493.999960
353.161314	2492.371667
353.551276	2496.230671
353.941175	2493.160608
354.331010	2495.983654
354.720782	2493.442913
355.110490	2493.959631
355.500135	2495.761843
355.889717	2495.371154
356.279235	2496.366782
356.668689	2495.807214
357.058080	2496.898623
357.447408	2494.196565
357.836672	2491.144146
358.225873	2496.752430
358.615010	2493.838643
359.004084	2499.363748
359.393095	2496.785198
359.782043	2501.995230
360.170927	2500.218223
360.559748	2500.949191
360.948505	2499.522544
361.337199	2502.118738
361.725830	2500.939108
362.114398	2503.515138
362.502903	2501.786022
362.891344	2504.236023
363.279722	2503.462206
363.668037	2504.326764
364.056289	2506.018071
364.444478	2508.596621
364.832603	2508.193329
365.220665	2508.452948
365.608665	2509.395644
365.996601	2511.828001
366.384474	2510.882784
366.772284	2515.278670
367.160031	2511.659122
367.547715	2515.664319
367.935336	2517.670698
368.322893	2519.488034
368.710388	2525.872655
369.097820	2529.146885
369.485189	2532.738707
369.872495	2540.040818
370.259738	2542.556354
370.646918	2555.179403
371.034035	2561.339693
371.421090	2570.711198
371.808081	2580.488516
372.195010	2590.250710
372.581875	2604.933071
372.968678	2617.480503
373.355418	2627.071298
373.742096	2645.526962
374.128710	2657.839981
374.515262	2674.019564
374.901751	2689.727799
375.288177	2703.303627
375.674540	2724.504199
376.060841	2741.881056
376.447079	2763.542894
376.833254	2784.728343
377.219367	2795.249232
377.605417	2831.064109
377.991404	2844.029957
378.377329	2863.947556
378.763191	2880.969012
379.148991	2916.693148
379.534727	2944.573250
379.920402	2972.113073
380.306013	2982.444918
380.691563	3035.959287
381.077049	3056.040723
381.462474	3076.364135
381.847835	3113.577932
382.233134	3133.271200
382.618371	3132.472177
383.003545	3201.566232
383.388657	3207.978579
383.773706	3241.681213
384.158693	3260.071343
384.543618	3282.963222
384.928480	3318.589056
385.313280	3367.851212
385.698017	3365.718804
386.082692	3418.103954
386.467305	3423.223246
386.851856	3456.368832
387.236344	3475.989003
387.620770	3506.379599
388.005133	3532.903630
388.389435	3561.136612
388.773674	3573.391657
389.157851	3618.726753
389.541965	3631.367447
389.926018	3595.550049
390.310008	3667.530164
390.693936	3687.155376
391.077802	3724.727095
391.461606	3715.869788
391.845348	3777.223151
392.229027	3777.581073
392.612645	3791.045995
392.996200	3866.265051
393.379694	3912.711722
393.763125	3970.569045
394.146494	3941.214406
394.529801	4001.761184
394.913047	4050.698185
395.296230	4015.284080
395.679351	4070.900609
396.062410	4096.550000
396.445408	4079.437803
396.828343	4107.635498
397.211217	4133.236997
397.594028	4052.868402
397.976778	4117.627064
398.359466	4147.974811
398.742092	4174.549253
399.124656	4098.178293
399.507158	4176.976569
399.889598	4203.203172
400.271977	4264.934621
400.654294	4232.630907
401.036549	4245.858895
401.418742	4216.264801
401.800874	4317.392868
402.182944	4336.413141
402.564952	4398.615939
402.946898	4385.957601
403.328783	4381.382754
403.710606	4296.651040
404.092367	4492.404085
404.474067	4455.525524
404.855705	4466.759736
405.237282	4389.982963
405.618797	4497.649406
406.000250	4531.969581
406.381642	4614.768013
406.762972	4576.553546
407.144240	4587.744907
407.525447	4585.589814
407.906593	4646.144154
408.287677	4691.116288
408.668700	4617.182725
409.049661	4669.015869
409.430560	4713.970359
409.811399	4637.596878
410.192176	4802.026713
410.572891	4736.285026
410.953545	4840.266386
411.334138	4721.277511
411.714669	4785.378303
412.095139	4685.235782
412.475547	4823.645702
412.855894	4803.909584
413.236180	4816.252850
413.616405	4769.874234
413.996568	4855.619220
414.376670	4798.717196
414.756711	4754.302110
415.136691	4787.205721
415.516609	4862.208008
415.896466	4899.668822
416.276262	4934.399852
416.655997	4914.129372
417.035670	5098.260037
417.415283	5186.323953
417.794834	5130.485613
418.174324	5081.188169
418.553753	4990.999407
418.933121	5174.207540
419.312428	5244.292182
419.691674	5182.457388
420.070859	5307.379701
420.449983	5220.916351
420.829045	5337.480431
421.208047	5240.869238
421.586988	5315.415301
421.965867	5327.277136
422.344686	5459.436025
422.723444	5317.542667
423.102141	5128.910252
423.480777	5432.816212
423.859352	5194.432649
424.237866	5458.561385
424.616319	5448.416063
424.994712	5557.516714
425.373044	5435.004073
425.751314	5580.771557
426.129524	5382.621443
426.507673	5576.784004
426.885762	5658.422970
427.263789	5595.363177
427.641756	5470.133353
428.019662	5595.297642
428.397508	5599.713692
428.775292	5544.134971
429.153016	5648.524664
429.530679	5574.601184
429.908282	5657.351725
430.285824	5529.051839
430.663305	5802.587367
431.040726	5537.490730
431.418086	5534.292118
431.795385	5643.115506
432.172624	5654.934492
432.549802	5653.371734
432.926920	5667.237427
433.303977	5668.747253
433.680974	5708.496751
434.057910	5730.188836
434.434786	5735.625721
434.811601	5701.779414
435.188355	5936.646771
435.565050	5810.469211
435.941683	5798.516635
436.318257	6003.933572
436.694770	5992.459906
437.071222	6024.221696
437.447614	5951.336694
437.823946	5871.010948
438.200218	6022.331263
438.576429	5885.353031
438.952580	5987.459082
439.328670	6025.935688
439.704700	5939.883192
440.080670	5926.279638
440.456580	6199.041350
440.832429	6081.579944
441.208218	5928.916162
441.583947	6077.983081
441.959616	6083.034317
442.335224	6009.788873
442.710773	6146.303319
443.086261	6177.860942
443.461689	5970.795548
443.837057	6115.562362
444.212365	6275.003976
444.587612	6167.587070
444.962800	6319.272869
445.337927	6301.520446
445.712995	5912.005611
446.088002	6484.363096
446.462949	6317.165667
446.837837	6249.175625
447.212664	6422.230874
447.587431	6564.272946
447.962139	7104.503157
448.336786	8036.768778
448.711374	7771.566278
449.085901	6850.323138
449.460369	6769.210973
449.834776	6703.141611
450.209124	7097.140551
450.583412	7247.397183
450.957640	7390.964203
451.331808	7153.914026
451.705917	6706.574637
452.079965	6628.824921
452.453954	6838.909966
452.827883	6719.918571
453.201752	6811.947355
453.575562	6610.288598
453.949311	6815.261913
454.323001	6705.100099
454.696632	6780.339320
455.070202	6916.057264
455.443713	7070.626603
455.817164	7173.420771
456.190556	7251.916577
456.563888	7329.270562
456.937160	7374.489712
457.310373	7028.265787
457.683526	7057.615385
458.056619	6947.554393
458.429653	6930.328771
458.802628	6863.074737
459.175542	6977.519012
459.548398	7334.404978
459.921194	7492.866087
460.293930	7493.224009
460.666607	8023.654217
461.039224	8337.639963
461.411782	8462.602606
461.784280	8482.840318
462.156719	8370.654480
462.529099	8253.054443
462.901419	7841.739139
463.273680	7726.609268
463.645882	7740.684169
464.018024	7605.803057
464.390106	7773.365969
464.762130	8164.322574
465.134094	8629.157288
465.505999	9655.291715
465.877845	10880.092974
466.249631	11525.423680
466.621358	11135.150152
466.993026	10504.703452
467.364634	10246.447662
467.736184	9887.187312
468.107674	9552.855468
468.479105	9589.817208
468.850477	9349.633954
469.221790	9127.777814
469.593043	8797.398235
469.964238	8659.721803
470.335373	8670.260335
470.706449	8728.200837
471.077467	8709.548568
471.448425	10021.705461
471.819324	11094.815881
472.190164	11119.318409
472.560945	9870.574190
472.931667	9082.717461
473.302330	8948.441287
473.672934	8589.836287
474.043479	8950.694683
474.413965	8890.284016
474.784393	8770.128114
475.154761	8923.674098
475.525070	9014.868571
475.895321	8837.006581
476.265513	9013.540227
476.635645	9185.869551
477.005719	9188.102782
477.375734	9300.911202
477.745691	9534.137664
478.115588	9668.302933
478.485427	9911.031970
478.855207	10453.364342
479.224928	11276.123499
479.594591	11891.660987
479.964194	11708.215919
480.333739	11639.053809
480.703226	11560.991541
481.072653	11652.342290
481.442022	11893.614434
481.811333	12082.514030
482.180584	11885.185625
482.549777	11596.995462
482.918912	11417.779922
483.287988	11439.194744
483.657005	11456.644698
484.025964	11132.891716
484.394864	11261.446180
484.763706	11237.422561
485.132489	10992.004068
485.501213	10960.824532
485.869879	11031.909842
486.238487	10870.154339
486.607036	10982.057872
486.975527	10757.991186
487.343959	10949.229878
487.712333	11004.516212
488.080648	10930.590212
488.448905	10973.757612
488.817104	10911.108673
489.185244	11179.502224
489.553326	11325.236941
489.921350	11869.547965
490.289315	12930.244543
490.657222	13273.496709
491.025070	13186.405735
491.392861	13058.630129
491.760593	12679.984022
492.128267	12326.006802
492.495883	11998.205773
492.863440	11663.372335
493.230939	11326.824904
493.598380	11261.501633
493.965763	11131.366767
494.333088	11035.756243
494.700354	10949.774323
495.067563	11010.920998
495.434713	10843.768940
495.801805	10969.197888
496.168839	10893.666280
496.535815	10831.783596
496.902733	10830.793010
497.269593	10764.900088
497.636395	10861.382731
498.003139	10848.053920
498.369825	10717.523324
498.736453	10870.048475
499.103023	10801.314863
499.469535	10831.133288
499.835989	10817.920423
500.202385	10780.764599
500.568723	10625.771803
500.935003	10856.102123
501.301226	10653.777933
501.667390	10917.929354
502.033497	11017.172029
502.399546	10872.808506
502.765537	10786.166195
503.131470	10856.737308
503.497345	11034.722806
503.863163	10642.863835
504.228923	10951.929416
504.594625	11017.282934
504.960269	10766.034347
505.325856	10991.399130
505.691385	10779.567325
506.056856	10940.266707
506.422270	10963.622372
506.787625	10847.317912
507.152924	10970.163269
507.518164	10942.870463
507.883347	10871.099555
508.248472	10785.500763
508.613540	11023.854078
508.978550	10901.928732
509.343503	10877.353107
509.708398	10997.304842
510.073236	11109.987233
510.438016	11114.042841
510.802738	11054.400950
511.167403	11114.569642
511.532010	11010.981492
511.896561	11235.282591
512.261053	11317.365179
512.625488	11180.475167
512.989866	11162.863896
513.354186	11151.881742
513.718449	11059.409337
514.082655	11253.130797
514.446803	11147.362348
514.810894	11260.644636
515.174927	11133.940276
515.538904	11162.362301
515.902822	11308.268417
516.266684	11189.466065
516.630488	11139.288940
516.994235	11197.373114
517.357925	11260.760583
517.721558	11344.327790
518.085133	11362.291942
518.448651	11370.859383
518.812112	11252.157854
519.175516	11271.742737
519.538863	11384.473019
519.902152	11305.654578
520.265385	11467.238683
520.628560	11378.393387
520.991678	11348.738800
521.354739	11416.542319
521.717743	11356.950839
522.080690	11334.469814
522.443580	11464.982766
522.806413	11421.583473
523.169189	11456.896756
523.531908	11507.373829
523.894569	11329.524442
524.257174	11330.399082
524.619722	11447.976434
524.982213	11394.903166
525.344647	11452.309306
525.707025	11396.964998
526.069345	11489.190387
526.431608	11412.123748
526.793815	11520.380006
527.155964	11312.203037
527.518057	11359.703309
527.880093	11316.886269
528.242072	11374.310053
528.603995	11291.751076
528.965860	11207.178159
529.327669	11262.736715
529.689421	11213.625794
530.051117	11177.505927
530.412755	11280.842019
530.774337	11169.971923
531.135862	11153.686475
531.497331	11179.187152
531.858743	11031.554441
532.220098	11191.608555
532.581396	11069.504247
532.942638	11055.421784
533.303824	11008.796152
533.664953	11029.454800
534.026025	10938.167066
534.387040	11037.331603
534.747999	11041.787983
535.108902	11099.413413
535.469748	10859.242761
535.830537	10964.103803
536.191270	10941.824423
536.551947	10969.034051
536.912567	10954.772627
537.273131	10885.986082
537.633638	10863.991528
537.994089	10854.229334
538.354483	10800.019286
538.714821	10951.531165
539.075103	10952.239447
539.435328	10917.475650
539.795497	10745.075750
540.155609	10909.704711
540.515665	10991.462144
540.875665	10725.914324
541.235609	10795.353698
541.595496	10792.286156
541.955328	10948.284662
542.315102	10834.727630
542.674821	10783.781729
543.034483	10783.461616
543.394090	10789.349684
543.753640	10717.341842
544.113134	10937.143712
544.472571	10797.284460
544.831953	10935.341499
545.191278	10736.551159
545.550548	10769.205233
545.909761	10903.357899
546.268918	10880.614733
546.628019	10961.847886
546.987064	10826.250930
547.346053	10747.878632
547.704986	10844.131903
548.063863	10835.372898
548.422684	10820.819087
548.781449	10740.657179
549.140158	10847.164157
549.498811	10723.799560
549.857408	10576.144164
550.215949	10803.593464
550.574434	10660.139870
550.932864	10756.493964
551.291237	10811.089660
551.649555	10764.564851
552.007817	10772.887796
552.366022	10732.843390
552.724173	10726.688142
553.082267	10715.642973
553.440305	10848.734476
553.798288	10652.056379
554.156215	10806.693774
554.514086	10785.972111
554.871902	10634.220777
555.229661	10667.119347
555.587365	10647.733590
555.945014	10543.631242
556.302606	10666.965592
556.660143	10558.444673
557.017625	10716.661287
557.375050	10616.289393
557.732421	10743.878476
558.089735	10661.294294
558.446994	10665.911991
558.804197	10694.402072
559.161345	10697.550272
559.518437	10547.371779
559.875474	10634.671960
560.232455	10670.018011
560.589381	10616.410381
560.946251	10614.121697
561.303065	10717.992151
561.659825	10656.890846
562.016528	10582.927037
562.373177	10464.568306
562.729770	10583.766389
563.086307	10497.461835
563.442789	10584.295710
563.799216	10464.159973
564.155587	10513.470019
564.511904	10466.352875
564.868164	10464.964037
565.224370	10475.449637
565.580520	10401.579089
565.936615	10399.602957
566.292654	10274.272310
566.648638	10404.298791
567.004567	10358.215083
567.360441	10345.665131
567.716260	10257.918807
568.072023	10345.750831
568.427732	10297.771649
568.783385	10207.114059
569.138982	10281.345049
569.494525	10290.966091
569.850013	10176.773874
570.205445	10251.236758
570.560823	10154.761676
570.916145	10074.163708
571.271412	10143.396395
571.626625	10082.837013
571.981782	10057.951358
572.336884	10042.648935
572.691931	10040.534171
573.046923	9986.671963
573.401860	9940.494993
573.756743	9875.864881
574.111570	9923.173589
574.466342	9908.203883
574.821059	9930.987377
575.175722	9834.792080
575.530330	9836.138068
575.884882	9827.721861
576.239380	9753.808464
576.593823	9735.153674
576.948211	9751.986087
577.302544	9630.821954
577.656823	9645.660590
578.011047	9647.908945
578.365216	9616.502556
578.719330	9537.986585
579.073389	9552.079131
579.427394	9496.361778
579.781344	9485.369542
580.135239	9426.438453
580.489080	9429.637066
580.842866	9337.585596
581.196597	9341.076595
581.550273	9386.174758
581.903895	9343.662707
582.257463	9420.381507
582.610975	9294.120768
582.964434	9326.215274
583.317837	9245.408098
583.671186	9224.956137
584.024481	9228.399245
584.377721	9141.119228
584.730906	9114.116288
585.084037	9147.186257
585.437113	9087.186444
585.790135	9104.699412
586.143103	9007.475719
586.496016	8977.513621
586.848874	9038.408239
587.201679	9026.196044
587.554428	8915.474661
587.907124	8953.437070
588.259765	8927.439840
588.612352	8928.959748
588.964884	8809.880132
589.317362	8825.167431
589.669786	8824.184406
590.022155	8874.303558
590.374470	8886.987101
590.726731	8828.476949
591.078937	8679.818363
591.431090	8789.604612
591.783188	8661.496289
592.135232	8654.690732
592.487222	8649.883992
592.839157	8713.891522
593.191038	8635.836816
593.542866	8582.428312
593.894639	8483.712437
594.246358	8539.127321
594.598022	8552.967809
594.949633	8445.200543
595.301190	8423.861338
595.652692	8449.006614
596.004141	8566.503307
596.355535	8342.570212
596.706876	8324.285947
597.058162	8250.077642
597.409395	8334.791712
597.760573	8399.280672
598.111698	8304.963204
598.462768	8289.817058
598.813785	8252.336079
599.164748	8225.260041
599.515657	8207.731949
599.866511	8121.462684
600.217312	8246.289215
600.568060	8102.911237
600.918753	8209.997948
601.269392	8179.322527
601.619978	8088.606963
601.970510	8155.422417
602.320988	8151.797827
602.671412	8210.469296
603.021783	8146.665932
603.372100	8117.611242
603.722363	8123.953014
604.072572	8095.783046
604.422728	8105.935930
604.772830	8033.408849
605.122878	8045.605921
605.472872	8040.229531
605.822813	8067.396309
606.172701	8014.318000
606.522534	8086.282992
606.872314	8089.758867
607.222041	8057.150163
607.571714	8116.913042
607.921333	8073.107936
608.270899	8077.466013
608.620411	8165.865167
608.969870	8073.977535
609.319276	8069.690034
609.668627	8082.124040
610.017926	8115.067980
610.367171	8157.426275
610.716362	8136.583625
611.065500	8126.806307
611.414585	8156.970051
611.763616	8139.988924
612.112594	8127.277655
612.461518	8143.903380
612.810389	8204.223306
613.159207	8138.000189
613.507971	8088.173424
613.856682	8208.251188
614.205340	8162.235536
614.553945	8240.123883
614.902496	8139.736866
615.250994	8194.113272
615.599439	8174.966970
615.947830	8186.854011
616.296169	8163.294178
616.644454	8171.102926
616.992686	8176.018051
617.340864	8230.528047
617.688990	8131.129096
618.037063	8229.965958
618.385082	8171.387751
618.733048	8251.221984
619.080961	8194.897172
619.428821	8221.030513
619.776628	8221.630411
620.124382	8169.981269
620.472083	8150.411510
620.819731	8180.270264
621.167326	8076.104902
621.514868	8081.851817
621.862357	7968.458623
622.209793	7988.353537
622.557176	7921.628825
622.904506	7886.958289
623.251783	7829.431162
623.599007	7782.298894
623.946179	7785.646220
624.293297	7742.564519
624.640363	7656.975809
624.987376	7643.145404
625.334336	7586.782783
625.681243	7540.111781
626.028097	7522.644183
626.374899	7506.114239
626.721647	7493.808783
627.068343	7425.748165
627.414987	7395.312198
627.761577	7358.085798
628.108115	7390.994450
628.454600	7283.315404
628.801032	7334.031932
629.147412	7291.852598
629.493739	7284.414376
629.840014	7220.963893
630.186236	7274.561440
630.532405	7159.194635
630.878521	7213.024075
631.224585	7168.916500
631.570597	7087.948007
631.916556	7123.339428
632.262462	7118.754498
632.608316	7079.405772
632.954117	7058.825262
633.299866	7043.066615
633.645562	7030.919954
633.991206	6956.262987
634.336797	6893.561115
634.682336	6850.736513
635.027823	6817.467418
635.373257	6814.535987
635.718639	6741.988742
636.063968	6761.873574
636.409245	6652.909033
636.754470	6652.656976
637.099642	6610.898578
637.444762	6547.863990
637.789829	6559.539302
638.134845	6504.104254
638.479808	6485.162118
638.824719	6494.687379
639.169577	6421.124341
639.514383	6443.524708
639.859137	6370.322113
640.203839	6375.917794
640.548489	6362.987234
