Dividing Wavelength (nm)	Counts (n)	Blue Motor Position (mm): 0.000000	Red Motor Position (mm): 3.900000	
326.493990	2125.884824
326.888308	2125.884824
327.282561	2125.884824
327.676750	2094.833837
328.070874	2089.888465
328.464933	2095.574886
328.858929	2101.762903
329.252859	2114.259923
329.646726	2123.545728
330.040528	2136.251957
330.434265	2154.619401
330.827938	2172.064314
331.221547	2189.544515
331.615091	2209.293235
332.008571	2227.837119
332.401986	2247.422002
332.795338	2266.427152
333.188625	2284.456839
333.581847	2303.613223
333.975006	2322.923363
334.368100	2341.270643
334.761129	2358.403004
335.154095	2374.678369
335.546996	2394.739641
335.939833	2406.190622
336.332606	2419.746284
336.725315	2434.375713
337.117960	2442.670932
337.510540	2448.561520
337.903056	2462.520475
338.295508	2470.460292
338.687896	2479.705768
339.080220	2486.549135
339.472480	2493.760505
339.864676	2497.012049
340.256807	2503.293327
340.648875	2505.692916
341.040879	2509.793895
341.432818	2510.371107
341.824694	2511.333968
342.216506	2510.320696
342.608253	2512.566530
342.999937	2511.482682
343.391557	2508.904131
343.783113	2511.298679
344.174605	2509.009996
344.566033	2507.225427
344.957397	2506.552433
345.348697	2502.083450
345.739934	2501.997751
346.131106	2500.407267
346.522215	2498.557163
346.913260	2496.578510
347.304241	2497.347286
347.695159	2491.612974
348.086012	2492.880824
348.476802	2490.521564
348.867528	2490.463591
349.258191	2487.753970
349.648789	2486.677684
350.039324	2485.021665
350.429796	2485.566110
350.820203	2480.376242
351.210548	2479.277270
351.600828	2480.219966
351.991045	2479.909935
352.381198	2477.492702
352.771288	2476.978504
353.161314	2475.766107
353.551276	2478.929431
353.941175	2476.058493
354.331010	2477.772486
354.720782	2476.824749
355.110490	2474.639409
355.500135	2476.547485
355.889717	2479.219297
356.279235	2478.516056
356.668689	2478.390027
357.058080	2480.676190
357.447408	2478.034626
357.836672	2476.466827
358.225873	2478.551344
358.615010	2474.967084
359.004084	2478.735346
359.393095	2481.386993
359.782043	2481.460090
360.170927	2483.537045
360.559748	2483.244658
360.948505	2483.761377
361.337199	2484.174751
361.725830	2484.038640
362.114398	2487.456542
362.502903	2484.197436
362.891344	2483.756335
363.279722	2486.476038
363.668037	2488.583240
364.056289	2487.053250
364.444478	2485.848414
364.832603	2489.069712
365.220665	2487.055771
365.608665	2489.220946
365.996601	2488.462253
366.384474	2489.435195
366.772284	2493.004332
367.160031	2491.628097
367.547715	2491.610453
367.935336	2492.525423
368.322893	2496.394508
368.710388	2494.662872
369.097820	2502.567401
369.485189	2499.628408
369.872495	2500.762668
370.259738	2502.557319
370.646918	2508.034532
371.034035	2507.059069
371.421090	2510.106447
371.808081	2512.185923
372.195010	2511.724657
372.581875	2515.727333
372.968678	2516.173475
373.355418	2519.369567
373.742096	2520.181192
374.128710	2522.255627
374.515262	2524.425844
374.901751	2522.936183
375.288177	2524.420803
375.674540	2523.939373
376.060841	2526.089425
376.447079	2526.989271
376.833254	2525.892820
377.219367	2523.105062
377.605417	2525.517254
377.991404	2524.078004
378.377329	2525.234949
378.763191	2520.622293
379.148991	2525.318128
379.534727	2525.350896
379.920402	2528.554549
380.306013	2522.026255
380.691563	2525.423992
381.077049	2522.759743
381.462474	2522.331245
381.847835	2523.226049
382.233134	2517.206912
382.618371	2519.258661
383.003545	2517.174144
383.388657	2514.640964
383.773706	2511.722136
384.158693	2513.466376
384.543618	2512.382528
384.928480	2513.315141
385.313280	2511.656601
385.698017	2507.968997
386.082692	2511.084430
386.467305	2509.405726
386.851856	2507.744666
387.236344	2506.386075
387.620770	2506.123935
388.005133	2506.113853
388.389435	2506.675941
388.773674	2505.544202
389.157851	2502.920282
389.541965	2502.733759
389.926018	2502.764006
390.310008	2503.845333
390.693936	2505.708040
391.077802	2506.454131
391.461606	2504.614109
391.845348	2506.612927
392.229027	2505.619820
392.612645	2502.995899
392.996200	2505.161075
393.379694	2504.772906
393.763125	2504.445231
394.146494	2504.442710
394.529801	2506.197032
394.913047	2508.531086
395.296230	2504.709891
395.679351	2504.793070
396.062410	2504.530930
396.445408	2507.285921
396.828343	2507.911024
397.211217	2499.756958
397.594028	2502.103615
397.976778	2504.082268
398.359466	2507.230468
398.742092	2503.903307
399.124656	2506.612927
399.507158	2507.827845
399.889598	2509.378000
400.271977	2509.125942
400.654294	2509.251971
401.036549	2506.209635
401.418742	2505.513955
401.800874	2508.407578
402.182944	2509.791374
402.564952	2509.529234
402.946898	2511.147445
403.328783	2506.842299
403.710606	2509.562002
404.092367	2509.675428
404.474067	2510.275325
404.855705	2510.388751
405.237282	2510.643329
405.618797	2506.950684
406.000250	2510.298010
406.381642	2511.545696
406.762972	2509.907321
407.144240	2511.089472
407.525447	2510.958402
407.906593	2512.145593
408.287677	2512.768176
408.668700	2511.470079
409.049661	2513.279853
409.430560	2512.458145
409.811399	2513.869668
410.192176	2508.566374
410.572891	2509.609893
410.953545	2513.854544
411.334138	2514.025944
411.714669	2514.346057
412.095139	2512.906808
412.475547	2512.082579
412.855894	2512.596777
413.236180	2511.452435
413.616405	2514.099040
413.996568	2514.570388
414.376670	2514.648526
414.756711	2511.891015
415.136691	2514.706499
415.516609	2512.616941
415.896466	2514.454442
416.276262	2515.016530
416.655997	2511.003772
417.035670	2510.965963
417.415283	2514.381345
417.794834	2510.945799
418.174324	2513.917559
418.553753	2515.797909
418.933121	2516.458300
419.312428	2515.177847
419.691674	2516.347395
420.070859	2514.192302
420.449983	2516.584329
420.829045	2516.017199
421.208047	2517.406037
421.586988	2515.513084
421.965867	2517.884947
422.344686	2519.046933
422.723444	2517.017868
423.102141	2516.367560
423.480777	2519.140194
423.859352	2518.762108
424.237866	2518.482324
424.616319	2518.068949
424.994712	2518.459638
425.373044	2518.157169
425.751314	2517.244720
426.129524	2520.720596
426.507673	2516.828825
426.885762	2515.571057
427.263789	2517.216994
427.641756	2518.762108
428.019662	2517.511902
428.397508	2518.129443
428.775292	2520.274454
429.153016	2518.764628
429.530679	2520.140863
429.908282	2518.981398
430.285824	2520.917201
430.663305	2518.401665
431.040726	2518.643641
431.418086	2516.987622
431.795385	2520.715555
432.172624	2521.685977
432.549802	2523.084897
432.926920	2520.040040
433.303977	2517.416120
433.680974	2517.862262
434.057910	2521.960720
434.434786	2520.050123
434.811601	2521.350740
435.188355	2521.761594
435.565050	2521.292767
435.941683	2519.057015
436.318257	2517.562313
436.694770	2517.128774
437.071222	2515.555934
437.447614	2518.381501
437.823946	2518.999042
438.200218	2521.018024
438.576429	2519.649351
438.952580	2517.945441
439.328670	2520.420647
439.704700	2524.773684
440.080670	2521.575072
440.456580	2523.957017
440.832429	2519.425019
441.208218	2521.741430
441.583947	2524.014990
441.959616	2521.958199
442.335224	2520.052643
442.710773	2524.637573
443.086261	2521.615401
443.461689	2523.115144
443.837057	2522.918539
444.212365	2525.315608
444.587612	2520.718075
444.962800	2522.497603
445.337927	2523.538601
445.712995	2521.320493
446.088002	2526.016328
446.462949	2524.803931
446.837837	2524.773684
447.212664	2525.623118
447.587431	2524.642614
447.962139	2525.423992
448.336786	2525.476925
448.711374	2524.037675
449.085901	2525.537418
449.460369	2525.678571
449.834776	2525.247552
450.209124	2524.456091
450.583412	2522.795031
450.957640	2527.027079
451.331808	2524.141019
451.705917	2524.269568
452.079965	2526.192768
452.453954	2524.120854
452.827883	2525.923067
453.201752	2527.148067
453.575562	2523.997346
453.949311	2524.249404
454.323001	2523.868797
454.696632	2527.266534
455.070202	2524.529188
455.443713	2525.587830
455.817164	2523.339475
456.190556	2522.507685
456.563888	2524.458612
456.937160	2521.005421
457.310373	2526.941380
457.683526	2525.376102
458.056619	2528.925074
458.429653	2526.321318
458.802628	2526.792666
459.175542	2527.241328
459.548398	2525.706297
459.921194	2526.039013
460.293930	2525.484486
460.666607	2527.569003
461.039224	2528.184024
461.411782	2524.430885
461.784280	2528.448685
462.156719	2525.975999
462.529099	2529.613191
462.901419	2527.858870
463.273680	2528.705784
463.645882	2523.843591
464.018024	2526.308715
464.390106	2526.570855
464.762130	2526.681760
465.134094	2529.832482
465.505999	2526.901051
465.877845	2527.211082
466.249631	2528.330218
466.621358	2528.093283
466.993026	2532.529499
467.364634	2532.963038
467.736184	2530.417255
468.107674	2526.633869
468.479105	2530.656710
468.850477	2527.385001
469.221790	2527.137985
469.593043	2527.301822
469.964238	2528.005063
470.335373	2528.975485
470.706449	2528.652852
471.077467	2531.037317
471.448425	2526.800227
471.819324	2529.441792
472.190164	2529.300640
472.560945	2530.061854
472.931667	2528.491535
473.302330	2527.967255
473.672934	2530.082019
474.043479	2529.741741
474.413965	2529.373737
474.784393	2528.272244
475.154761	2527.679909
475.525070	2526.717048
475.895321	2525.895340
476.265513	2524.395597
476.635645	2531.075126
477.005719	2528.030269
477.375734	2532.726104
477.745691	2528.927594
478.115588	2528.975485
478.485427	2526.981709
478.855207	2532.811803
479.224928	2530.424817
479.594591	2528.100845
479.964194	2529.950949
480.333739	2530.742410
480.703226	2529.504807
481.072653	2528.791483
481.442022	2530.016484
481.811333	2532.428676
482.180584	2533.179808
482.549777	2532.181659
482.918912	2528.728469
483.287988	2530.578572
483.657005	2530.583613
484.025964	2531.271731
484.394864	2532.022863
484.763706	2528.544467
485.132489	2529.098994
485.501213	2527.642100
485.869879	2531.667462
486.238487	2531.604447
486.607036	2533.867925
486.975527	2531.004550
487.343959	2531.312060
487.712333	2531.944725
488.080648	2530.712163
488.448905	2529.570342
488.817104	2529.804755
489.185244	2530.613860
489.553326	2530.916330
489.921350	2531.919519
490.289315	2532.002698
490.657222	2531.705270
491.025070	2531.425486
491.392861	2531.964890
491.760593	2531.188552
492.128267	2532.098480
492.495883	2532.002698
492.863440	2531.564118
493.230939	2530.780218
493.598380	2532.806762
493.965763	2525.413910
494.333088	2525.794517
494.700354	2530.800383
495.067563	2530.172759
495.434713	2526.691843
495.801805	2531.997657
496.168839	2529.177132
496.535815	2531.866587
496.902733	2530.243336
497.269593	2531.397760
497.636395	2532.489170
498.003139	2528.110928
498.369825	2530.762574
498.736453	2532.264838
499.103023	2531.743079
499.469535	2532.108562
499.835989	2533.217616
500.202385	2530.172759
500.568723	2532.174097
500.935003	2533.141999
501.301226	2532.728624
501.667390	2532.360620
502.033497	2535.861702
502.399546	2532.721063
502.765537	2531.395239
503.131470	2534.218285
503.497345	2532.171577
503.863163	2532.380785
504.228923	2532.143851
504.594625	2531.710311
504.960269	2533.089067
505.325856	2533.121834
505.691385	2529.950949
506.056856	2532.221988
506.422270	2534.687113
506.787625	2529.870290
507.152924	2533.232740
507.518164	2533.028573
507.883347	2534.273738
508.248472	2534.246012
508.613540	2533.149561
508.978550	2532.166536
509.343503	2533.608306
509.708398	2535.755837
510.073236	2532.169056
510.438016	2533.389016
510.802738	2533.943542
511.167403	2533.457071
511.532010	2531.874149
511.896561	2531.755682
512.261053	2531.508665
512.625488	2530.727286
512.989866	2527.692512
513.354186	2529.706453
513.718449	2527.362316
514.082655	2532.181659
514.446803	2533.106711
514.810894	2536.007895
515.174927	2535.486136
515.538904	2535.145858
515.902822	2535.148378
516.266684	2532.221988
516.630488	2532.640404
516.994235	2534.697195
517.357925	2535.738193
517.721558	2533.457071
518.085133	2533.837678
518.448651	2534.518234
518.812112	2533.852802
519.175516	2535.118131
519.538863	2534.361958
519.902152	2534.878677
520.265385	2534.316588
520.628560	2532.673172
520.991678	2535.085364
521.354739	2532.763913
521.717743	2533.510003
522.080690	2531.175949
522.443580	2533.741896
522.806413	2537.142155
523.169189	2534.558563
523.531908	2534.735004
523.894569	2535.087884
524.257174	2535.622247
524.619722	2533.522606
524.982213	2534.427493
525.344647	2535.193749
525.707025	2533.441948
526.069345	2534.941691
526.431608	2534.293903
526.793815	2534.145189
527.155964	2533.164684
527.518057	2536.799356
527.880093	2534.079654
528.242072	2535.191228
528.603995	2535.821372
528.965860	2535.105528
529.327669	2533.094108
529.689421	2533.820034
530.051117	2536.333049
530.412755	2535.160981
530.774337	2536.171732
531.135862	2534.777853
531.497331	2533.446989
531.858743	2531.422966
532.220098	2528.400794
532.581396	2531.790970
532.942638	2529.862728
533.303824	2535.246681
533.664953	2533.336083
534.026025	2537.580735
534.387040	2535.294572
534.747999	2537.815149
535.108902	2531.906916
535.469748	2535.544109
535.830537	2535.443286
536.191270	2535.992772
536.551947	2536.985879
536.912567	2535.350024
537.273131	2533.280631
537.633638	2535.418080
537.994089	2534.185518
538.354483	2532.564787
538.714821	2534.462781
539.075103	2532.874818
539.435328	2535.629808
539.795497	2536.204500
540.155609	2537.016126
540.515665	2537.331198
540.875665	2534.941691
541.235609	2534.329191
541.595496	2535.380271
541.955328	2534.747607
542.315102	2534.437576
542.674821	2536.811959
543.034483	2535.481094
543.394090	2537.023688
543.753640	2535.551671
544.113134	2537.416898
544.472571	2536.854809
544.831953	2535.934798
545.191278	2535.266845
545.550548	2536.340611
545.909761	2535.090405
546.268918	2534.389685
546.628019	2536.917823
546.987064	2535.503780
547.346053	2537.605941
547.704986	2536.625436
548.063863	2536.796836
548.422684	2536.927906
548.781449	2537.094264
549.140158	2533.930940
549.498811	2538.871270
549.857408	2533.746937
550.215949	2531.170908
550.574434	2530.724766
550.932864	2533.867925
551.291237	2531.455733
551.649555	2534.077133
552.007817	2535.397915
552.366022	2536.796836
552.724173	2535.574356
553.082267	2534.462781
553.440305	2535.367668
553.798288	2538.102494
554.156215	2533.774664
554.514086	2537.174922
554.871902	2534.717360
555.229661	2536.244829
555.587365	2535.095446
555.945014	2537.689120
556.302606	2536.080992
556.660143	2534.298944
557.017625	2535.753317
557.375050	2534.099818
557.732421	2537.515200
558.089735	2535.259284
558.446994	2537.399253
558.804197	2535.226516
559.161345	2534.740045
559.518437	2536.411187
559.875474	2535.551671
560.232455	2539.851775
560.589381	2536.093595
560.946251	2537.517721
561.303065	2534.412370
561.659825	2533.797349
562.016528	2536.811959
562.373177	2536.534696
562.729770	2536.101156
563.086307	2537.626105
563.442789	2535.647452
563.799216	2538.379758
564.155587	2534.659386
564.511904	2535.841537
564.868164	2533.709129
565.224370	2538.336908
565.580520	2535.831455
565.936615	2535.634850
566.292654	2537.603420
566.648638	2532.227030
567.004567	2538.362114
567.360441	2535.670138
567.716260	2538.556198
568.072023	2535.226516
568.427732	2533.663758
568.783385	2533.648635
569.138982	2531.722914
569.494525	2533.998995
569.850013	2529.973634
570.205445	2536.360776
570.560823	2535.907072
570.916145	2537.789943
571.271412	2536.133924
571.626625	2535.866743
571.981782	2538.848585
572.336884	2537.941178
572.691931	2537.391692
573.046923	2535.344983
573.401860	2536.824562
573.756743	2540.333205
574.111570	2537.230375
574.466342	2535.902031
574.821059	2535.347504
575.175722	2535.733152
575.530330	2534.558563
575.884882	2536.960673
576.239380	2537.101825
576.593823	2538.858667
576.948211	2534.636701
577.302544	2535.904551
577.656823	2537.323636
578.011047	2536.839685
578.365216	2534.200641
578.719330	2538.581404
579.073389	2537.439583
579.427394	2537.328677
579.781344	2536.254912
580.135239	2536.670807
580.489080	2534.669469
580.842866	2535.690302
581.196597	2536.736342
581.550273	2538.979655
581.903895	2533.381454
582.257463	2538.140303
582.610975	2535.947401
582.964434	2533.073943
583.317837	2535.239119
583.671186	2538.745242
584.024481	2536.650642
584.377721	2535.972607
584.730906	2538.009233
585.084037	2536.247350
585.437113	2537.784902
585.790135	2536.779192
586.143103	2537.011085
586.496016	2538.309182
586.848874	2530.286185
587.201679	2535.350024
587.554428	2532.400949
587.907124	2537.764737
588.259765	2530.520599
588.612352	2537.464788
588.964884	2534.394726
589.317362	2539.042670
589.669786	2536.290200
590.022155	2537.210210
590.374470	2534.200641
590.726731	2535.564273
591.078937	2534.931609
591.431090	2537.903369
591.783188	2536.423790
592.135232	2538.168029
592.487222	2536.411187
592.839157	2536.017977
593.191038	2538.621733
593.542866	2537.137113
593.894639	2536.454037
594.246358	2536.254912
594.598022	2536.819521
594.949633	2535.294572
595.301190	2537.182484
595.652692	2536.262473
596.004141	2536.174253
596.355535	2538.979655
596.706876	2537.679037
597.058162	2534.019160
597.409395	2535.266845
597.760573	2535.123172
598.111698	2535.934798
598.462768	2536.542257
598.813785	2537.782381
599.164748	2537.971424
599.515657	2535.576876
599.866511	2536.869932
600.217312	2537.994110
600.568060	2536.806918
600.918753	2537.424459
601.269392	2535.387833
601.619978	2536.423790
601.970510	2535.808769
602.320988	2534.893800
602.671412	2536.113759
603.021783	2535.362627
603.372100	2532.421114
603.722363	2537.835313
604.072572	2536.363296
604.422728	2539.642567
604.772830	2532.118645
605.122878	2533.308357
605.472872	2532.640404
605.822813	2529.524971
606.172701	2536.880015
606.522534	2536.948070
606.872314	2538.135262
607.222041	2537.784902
607.571714	2535.594520
607.921333	2536.030580
608.270899	2539.561908
608.620411	2538.432690
608.969870	2536.144006
609.319276	2536.295241
609.668627	2542.518545
610.017926	2544.144317
610.367171	2544.328319
610.716362	2546.213711
611.065500	2542.705068
611.414585	2541.006199
611.763616	2539.498894
612.112594	2538.934285
612.461518	2537.121990
612.810389	2540.892773
613.159207	2541.336395
613.507971	2538.394881
613.856682	2538.994779
614.205340	2540.688606
614.553945	2537.656352
614.902496	2537.069058
615.250994	2536.131403
615.599439	2536.267514
615.947830	2537.537885
616.296169	2536.138965
616.644454	2537.255581
616.992686	2536.138965
617.340864	2537.411856
617.688990	2535.498738
618.037063	2540.250026
618.385082	2538.755324
618.733048	2537.527803
619.080961	2535.347504
619.428821	2536.612833
619.776628	2536.557381
620.124382	2537.512679
620.472083	2536.761547
620.819731	2533.898172
621.167326	2535.476053
621.514868	2535.894469
621.862357	2535.617206
622.209793	2537.759696
622.557176	2536.259953
622.904506	2535.211393
623.251783	2530.858356
623.599007	2533.416742
623.946179	2530.923891
624.293297	2534.913965
624.640363	2534.941691
624.987376	2535.178625
625.334336	2536.978317
625.681243	2538.394881
626.028097	2534.699716
626.374899	2536.353214
626.721647	2535.652494
627.068343	2536.915303
627.414987	2537.179963
627.761577	2538.772968
628.108115	2537.104346
628.454600	2538.823379
628.801032	2536.179294
629.147412	2535.735673
629.493739	2538.276414
629.840014	2539.692978
630.186236	2536.741383
630.532405	2538.268853
630.878521	2534.505631
631.224585	2535.962525
631.570597	2537.114428
631.916556	2536.025539
632.262462	2535.173584
632.608316	2537.152237
632.954117	2535.072761
633.299866	2538.029398
633.645562	2534.344314
633.991206	2537.671476
634.336797	2535.876825
634.682336	2538.087371
635.027823	2534.117462
635.373257	2534.067051
635.718639	2535.506300
636.063968	2536.028060
636.409245	2535.924716
636.754470	2535.833975
637.099642	2535.506300
637.444762	2538.185673
637.789829	2535.682741
638.134845	2535.990251
638.479808	2535.287010
638.824719	2535.995292
639.169577	2532.504293
639.514383	2536.539737
639.859137	2534.840868
640.203839	2536.590148
640.548489	2533.114273
640.893086	2533.923378
641.237632	2530.528161
641.582125	2533.489839
641.926566	2533.078985
642.270955	2534.619057
642.615292	2535.786084
642.959576	2536.259953
643.303809	2536.295241
643.647990	2537.454706
643.992118	2533.641073
644.336195	2537.162319
