Dividing Wavelength (nm)	Counts (n)	Blue Motor Position (mm): 0.000000	Red Motor Position (mm): 23.700000	
326.493990	2124.957252
326.888308	2124.957252
327.282561	2124.957252
327.676750	2093.581110
328.070874	2093.082036
328.464933	2096.013467
328.858929	2103.507142
329.252859	2114.307814
329.646726	2124.604371
330.040528	2136.705661
330.434265	2153.868269
330.827938	2170.244457
331.221547	2190.908147
331.615091	2206.790302
332.008571	2228.782336
332.401986	2248.843607
332.795338	2264.672830
333.188625	2287.486572
333.581847	2305.375107
333.975006	2323.384629
334.368100	2339.299551
334.761129	2358.811337
335.154095	2375.137114
335.546996	2394.336348
335.939833	2407.892011
336.332606	2426.433375
336.725315	2438.128852
337.117960	2445.612445
337.510540	2452.622169
337.903056	2464.980558
338.295508	2473.459779
338.687896	2480.562764
339.080220	2488.684063
339.472480	2495.424086
339.864676	2501.823831
340.256807	2505.645025
340.648875	2507.066631
341.040879	2512.508556
341.432818	2509.309944
341.824694	2514.315810
342.216506	2514.053670
342.608253	2513.128618
342.999937	2511.089472
343.391557	2512.415295
343.783113	2511.139883
344.174605	2513.728516
344.566033	2511.018895
344.957397	2509.680469
345.348697	2507.953874
345.739934	2506.892711
346.131106	2502.615292
346.522215	2502.179232
346.913260	2499.903151
347.304241	2498.872235
347.695159	2498.572287
348.086012	2493.586585
348.476802	2495.212357
348.867528	2494.103304
349.258191	2489.919146
349.648789	2489.606594
350.039324	2491.272696
350.429796	2484.966212
350.820203	2486.022334
351.210548	2486.012252
351.600828	2485.061994
351.991045	2483.806747
352.381198	2484.757004
352.771288	2480.850110
353.161314	2484.255410
353.551276	2483.345481
353.941175	2482.740543
354.331010	2481.858341
354.720782	2481.878506
355.110490	2482.246510
355.500135	2481.802888
355.889717	2482.211222
356.279235	2483.511839
356.668689	2485.283805
357.058080	2482.959833
357.447408	2483.955461
357.836672	2480.618217
358.225873	2485.520739
358.615010	2480.950933
359.004084	2487.121306
359.393095	2485.586274
359.782043	2485.321614
360.170927	2488.736995
360.559748	2489.536018
360.948505	2490.385453
361.337199	2489.157932
361.725830	2489.473004
362.114398	2491.706235
362.502903	2490.960144
362.891344	2490.019969
363.279722	2494.181442
363.668037	2493.314363
364.056289	2493.324445
364.444478	2492.341420
364.832603	2494.433499
365.220665	2495.272851
365.608665	2494.824189
365.996601	2497.337204
366.384474	2498.746206
366.772284	2498.542040
367.160031	2501.435662
367.547715	2502.746362
367.935336	2505.115704
368.322893	2509.355315
368.710388	2512.972342
369.097820	2518.956192
369.485189	2521.265041
369.872495	2526.356606
370.259738	2534.603934
370.646918	2541.946374
371.034035	2547.050542
371.421090	2558.856925
371.808081	2571.860581
372.195010	2577.446180
372.581875	2590.979157
372.968678	2604.537340
373.355418	2614.307097
373.742096	2630.164046
374.128710	2646.820018
374.515262	2662.238387
374.901751	2679.917714
375.288177	2692.003880
375.674540	2714.847869
376.060841	2732.111300
376.447079	2750.261975
376.833254	2771.182763
377.219367	2782.154834
377.605417	2818.738488
377.991404	2832.062257
378.377329	2853.081348
378.763191	2868.754296
379.148991	2906.459606
379.534727	2933.311312
379.920402	2962.882720
380.306013	2974.018629
380.691563	3021.695342
381.077049	3046.021430
381.462474	3063.176476
381.847835	3101.398505
382.233134	3125.066722
382.618371	3119.947430
383.003545	3190.692463
383.388657	3199.214533
383.773706	3231.233422
384.158693	3252.083634
384.543618	3276.999537
384.928480	3308.950370
385.313280	3355.442412
385.698017	3353.698172
386.082692	3406.804208
386.467305	3412.823345
386.851856	3443.529013
387.236344	3463.996098
387.620770	3500.617560
388.005133	3526.508926
388.389435	3553.479099
388.773674	3564.304977
389.157851	3603.373919
389.541965	3620.828915
389.926018	3584.643512
390.310008	3656.235459
390.693936	3676.321936
391.077802	3716.245354
391.461606	3703.040052
391.845348	3769.167387
392.229027	3769.540433
392.612645	3776.766927
392.996200	3857.732898
393.379694	3899.682860
393.763125	3963.143425
394.146494	3929.949948
394.529801	3991.046212
394.913047	4041.455230
395.296230	4005.889889
395.679351	4062.307963
396.062410	4081.567691
396.445408	4066.716452
396.828343	4099.383129
397.211217	4120.278711
397.594028	4046.980334
397.976778	4108.968883
398.359466	4133.909991
398.742092	4163.761184
399.124656	4086.863423
399.507158	4162.735309
399.889598	4192.407541
400.271977	4253.859206
400.654294	4222.470462
401.036549	4232.346082
401.418742	4203.876166
401.800874	4302.826454
402.182944	4326.535000
402.564952	4390.217376
402.946898	4375.608113
403.328783	4373.742886
403.710606	4287.839103
404.092367	4478.248525
404.474067	4446.111170
404.855705	4448.102425
405.237282	4381.470974
405.618797	4490.362418
406.000250	4521.809136
406.381642	4598.870734
406.762972	4561.467893
407.144240	4575.000871
407.525447	4574.363165
407.906593	4637.554028
408.287677	4678.243701
408.668700	4604.456333
409.049661	4657.973222
409.430560	4700.092062
409.811399	4625.253613
410.192176	4786.081544
410.572891	4729.141711
410.953545	4827.998738
411.334138	4705.173545
411.714669	4778.784474
412.095139	4671.917053
412.475547	4813.039114
412.855894	4794.023882
413.236180	4800.736178
413.616405	4756.104322
413.996568	4843.041541
414.376670	4778.413949
414.756711	4740.685953
415.136691	4770.786683
415.516609	4846.073795
415.896466	4885.475454
416.276262	4918.547943
416.655997	4899.734357
417.035670	5081.616668
417.415283	5172.100338
417.794834	5115.536071
418.174324	5067.990429
418.553753	4976.639680
418.933121	5161.982742
419.312428	5225.125715
419.691674	5170.340975
420.070859	5292.427639
420.449983	5206.481007
420.829045	5319.864119
421.208047	5227.711827
421.586988	5296.415192
421.965867	5306.535308
422.344686	5435.772849
422.723444	5296.382424
423.102141	5111.601451
423.480777	5409.274023
423.859352	5180.579559
424.237866	5433.655564
424.616319	5425.209111
424.994712	5536.495102
425.373044	5412.626391
425.751314	5551.749634
426.129524	5355.535323
426.507673	5545.980033
426.885762	5622.338391
427.263789	5549.052617
427.641756	5430.918218
428.019662	5552.291558
428.397508	5550.441455
428.775292	5495.414740
429.153016	5585.903451
429.530679	5506.787583
429.908282	5584.444037
430.285824	5449.320950
430.663305	5708.887441
431.040726	5441.076142
431.418086	5431.311427
431.795385	5520.539851
432.172624	5522.394995
432.549802	5502.227859
432.926920	5504.975288
433.303977	5497.806767
433.680974	5520.050859
434.057910	5521.190159
434.434786	5516.043141
434.811601	5468.805009
435.188355	5671.280433
435.565050	5534.256830
435.941683	5495.006406
436.318257	5665.868754
436.694770	5629.363239
437.071222	5632.738291
437.447614	5554.915479
437.823946	5452.801866
438.200218	5568.284619
438.576429	5418.900107
438.952580	5473.967151
439.328670	5482.862267
439.704700	5371.210791
440.080670	5334.952292
440.456580	5519.277042
440.832429	5387.221496
441.208218	5231.636365
441.583947	5319.569211
441.959616	5285.485970
442.335224	5187.254046
442.710773	5258.379686
443.086261	5232.523608
443.461689	5042.288106
443.837057	5109.748827
444.212365	5174.192417
444.587612	5056.733532
444.962800	5116.927430
445.337927	5052.846803
445.712995	4746.082509
446.088002	5074.748095
446.462949	4917.012912
446.837837	4825.029498
447.212664	4885.450248
447.587431	4903.071601
447.962139	5158.804295
448.336786	5622.257732
448.711374	5426.492084
449.085901	4857.958315
449.460369	4746.657200
449.834776	4651.777644
450.209124	4791.470537
450.583412	4793.597904
450.957640	4816.232685
451.331808	4640.165346
451.705917	4378.274883
452.079965	4286.772899
452.453954	4315.691478
452.827883	4212.456209
453.201752	4197.451215
453.575562	4065.892223
453.949311	4078.641301
454.323001	3997.241790
454.696632	3969.550732
455.070202	3961.870534
455.443713	3962.520843
455.817164	3937.289868
456.190556	3903.451123
456.563888	3874.058675
456.937160	3835.655165
457.310373	3693.476983
457.683526	3645.517966
458.056619	3570.780339
458.429653	3519.400899
458.802628	3470.363075
459.175542	3447.042698
459.548398	3475.744507
459.921194	3469.380050
460.293930	3437.187242
460.666607	3488.856548
461.039224	3508.154085
461.411782	3484.599294
461.784280	3434.633897
462.156719	3364.745861
462.529099	3295.417393
462.901419	3198.602033
463.273680	3146.378200
463.645882	3115.365021
464.018024	3062.478276
464.390106	3049.467058
464.762130	3061.472566
465.134094	3080.956626
465.505999	3165.058195
465.877845	3246.639188
466.249631	3255.942637
466.621358	3160.722803
466.993026	3068.883062
467.364634	3013.659742
467.736184	2954.952985
468.107674	2909.270049
468.479105	2886.327758
468.850477	2855.309538
469.221790	2821.047336
469.593043	2787.788324
469.964238	2766.282762
470.335373	2748.676532
470.706449	2737.722104
471.077467	2725.116699
471.448425	2753.029568
471.819324	2772.304420
472.190164	2757.785897
472.560945	2714.197560
472.931667	2684.724454
473.302330	2673.124759
473.672934	2658.354178
474.043479	2657.469456
474.413965	2649.799340
474.784393	2640.148051
475.154761	2637.259470
475.525070	2634.204531
475.895321	2628.326545
476.265513	2622.781276
476.635645	2626.312604
477.005719	2621.425206
477.375734	2619.759104
477.745691	2619.474279
478.115588	2620.936214
478.485427	2620.522839
478.855207	2625.178345
479.224928	2631.699077
479.594591	2636.359624
479.964194	2629.460805
480.333739	2627.789662
480.703226	2625.669857
481.072653	2625.241359
481.442022	2623.471914
481.811333	2623.499641
482.180584	2620.747171
482.549777	2617.362036
482.918912	2612.348608
483.287988	2615.612755
483.657005	2611.657970
484.025964	2607.753597
484.394864	2608.172012
484.763706	2605.487598
485.132489	2606.609255
485.501213	2603.219079
485.869879	2601.116917
486.238487	2600.549788
486.607036	2601.868049
486.975527	2600.542226
487.343959	2601.341249
487.712333	2601.384099
488.080648	2598.908892
488.448905	2598.717328
488.817104	2600.703543
489.185244	2598.019128
489.553326	2598.082143
489.921350	2602.548605
490.289315	2613.301386
490.657222	2611.973042
491.025070	2611.962960
491.392861	2608.845006
491.760593	2605.754779
492.128267	2603.017432
492.495883	2600.872422
492.863440	2600.494335
493.230939	2597.414190
493.598380	2599.357555
493.965763	2590.462439
494.333088	2590.049064
494.700354	2588.324990
495.067563	2591.642069
495.434713	2587.972109
495.801805	2593.063674
496.168839	2592.065526
496.535815	2588.826584
496.902733	2590.613673
497.269593	2590.389342
497.636395	2587.473035
498.003139	2590.079311
498.369825	2589.149218
498.736453	2591.931935
499.103023	2588.766091
499.469535	2591.823550
499.835989	2586.815164
500.202385	2589.013107
500.568723	2584.370204
500.935003	2588.382963
501.301226	2586.084197
501.667390	2586.487489
502.033497	2590.341451
502.399546	2587.094948
502.765537	2586.351378
503.131470	2586.772314
503.497345	2585.683425
503.863163	2585.023034
504.228923	2588.178796
504.594625	2587.803230
504.960269	2586.132088
505.325856	2585.479258
505.691385	2584.193764
506.056856	2589.297932
506.422270	2585.265009
506.787625	2584.597056
507.152924	2584.218970
507.518164	2584.082859
507.883347	2584.433219
508.248472	2583.929103
508.613540	2586.578230
508.978550	2584.357602
509.343503	2587.110072
509.708398	2587.331882
510.073236	2586.719382
510.438016	2587.883889
510.802738	2587.155442
511.167403	2586.167376
511.532010	2586.681573
511.896561	2587.238621
512.261053	2588.803899
512.625488	2585.217118
512.989866	2583.490523
513.354186	2586.542942
513.718449	2582.910790
514.082655	2586.011100
514.446803	2583.961871
514.810894	2588.763570
515.174927	2587.228539
515.538904	2588.317428
515.902822	2589.376070
516.266684	2586.794999
516.630488	2591.480752
516.994235	2586.530339
517.357925	2587.881368
517.721558	2588.796337
518.085133	2587.868765
518.448651	2588.982860
518.812112	2589.701225
519.175516	2587.944382
519.538863	2589.733992
519.902152	2589.386152
520.265385	2589.313056
520.628560	2591.543766
520.991678	2590.404466
521.354739	2588.534197
521.717743	2587.929259
522.080690	2588.753488
522.443580	2591.485793
522.806413	2590.734661
523.169189	2589.733992
523.531908	2589.686101
523.894569	2589.849939
524.257174	2588.743405
524.619722	2590.374219
524.982213	2589.386152
525.344647	2588.871955
525.707025	2589.466811
526.069345	2591.750454
526.431608	2589.940679
526.793815	2590.026379
527.155964	2589.066039
527.518057	2588.879517
527.880093	2588.831626
528.242072	2589.784404
528.603995	2589.544949
528.965860	2588.072932
529.327669	2590.888416
529.689421	2588.234249
530.051117	2590.903540
530.412755	2591.362285
530.774337	2589.456729
531.135862	2588.564444
531.497331	2588.929928
531.858743	2582.888105
532.220098	2587.687284
532.581396	2585.988415
532.942638	2586.631162
533.303824	2588.937490
533.664953	2590.734661
534.026025	2590.623756
534.387040	2589.146698
534.747999	2587.467993
535.108902	2588.957654
535.469748	2587.415061
535.830537	2587.503282
536.191270	2587.233580
536.551947	2590.921184
536.912567	2588.050247
537.273131	2591.178283
537.633638	2588.894640
537.994089	2587.420102
538.354483	2588.183837
538.714821	2586.744588
539.075103	2589.802048
539.435328	2589.532346
539.795497	2585.839701
540.155609	2589.136615
540.515665	2587.909094
540.875665	2587.868765
541.235609	2590.396904
541.595496	2592.743561
541.955328	2589.333220
542.315102	2591.200968
542.674821	2589.897830
543.034483	2590.041502
543.394090	2590.228025
543.753640	2587.019331
544.113134	2587.725092
544.472571	2590.288519
544.831953	2587.173086
545.191278	2588.508992
545.550548	2589.166862
545.909761	2589.741554
546.268918	2590.543097
546.628019	2594.099631
546.987064	2589.537387
547.346053	2592.511668
547.704986	2589.038313
548.063863	2589.176945
548.422684	2591.309353
548.781449	2587.435226
549.140158	2585.980853
549.498811	2592.499065
549.857408	2587.964547
550.215949	2587.505802
550.574434	2585.953127
550.932864	2586.255596
551.291237	2584.700400
551.649555	2590.699373
552.007817	2587.853642
552.366022	2590.926225
552.724173	2589.154259
553.082267	2590.228025
553.440305	2592.551997
553.798288	2590.737182
554.156215	2590.545618
554.514086	2591.291709
554.871902	2589.003025
555.229661	2588.997984
555.587365	2591.203488
555.945014	2589.547469
556.302606	2586.991604
556.660143	2590.543097
557.017625	2588.733323
557.375050	2588.778693
557.732421	2590.628797
558.089735	2590.056626
558.446994	2591.422779
558.804197	2591.263982
559.161345	2589.043354
559.518437	2590.091914
559.875474	2589.060998
560.232455	2590.442274
560.589381	2588.236769
560.946251	2593.905547
561.303065	2590.822881
561.659825	2589.852459
562.016528	2589.701225
562.373177	2591.415217
562.729770	2588.047726
563.086307	2588.093097
563.442789	2590.918663
563.799216	2592.065526
564.155587	2588.703076
564.511904	2589.686101
564.868164	2589.396235
565.224370	2593.328335
565.580520	2588.556883
565.936615	2587.702407
566.292654	2588.403127
566.648638	2588.466142
567.004567	2589.711307
567.360441	2587.679722
567.716260	2588.819023
568.072023	2592.728437
568.427732	2584.166038
568.783385	2588.380442
569.138982	2586.094279
569.494525	2586.532859
569.850013	2582.129412
570.205445	2590.157449
570.560823	2589.176945
570.916145	2584.730647
571.271412	2586.351378
571.626625	2590.578385
571.981782	2587.493199
572.336884	2585.963209
572.691931	2588.468662
573.046923	2587.672160
573.401860	2586.091758
573.756743	2586.979002
574.111570	2586.701738
574.466342	2587.568817
574.821059	2586.573189
575.175722	2586.860534
575.530330	2586.575709
575.884882	2588.372881
576.239380	2585.456573
576.593823	2588.919846
576.948211	2587.659557
577.302544	2587.072263
577.656823	2585.113775
578.011047	2587.523446
578.365216	2587.016810
578.719330	2586.132088
579.073389	2586.182499
579.427394	2583.510688
579.781344	2584.902046
580.135239	2584.186202
580.489080	2585.237283
580.842866	2582.353743
581.196597	2591.004363
581.550273	2584.748291
581.903895	2582.605801
582.257463	2586.490010
582.610975	2584.002200
582.964434	2583.160328
583.317837	2584.408013
583.671186	2584.095462
584.024481	2583.533373
584.377721	2582.971284
584.730906	2585.882551
585.084037	2582.943558
585.437113	2581.216963
585.790135	2585.159145
586.143103	2583.077148
586.496016	2583.107395
586.848874	2576.810994
587.201679	2579.485326
587.554428	2580.259143
587.907124	2580.778382
588.259765	2578.386355
588.612352	2581.985739
588.964884	2580.140676
589.317362	2580.491037
589.669786	2579.155131
590.022155	2578.698906
590.374470	2580.778382
590.726731	2584.226532
591.078937	2578.464493
591.431090	2578.961046
591.783188	2580.047415
592.135232	2580.339802
592.487222	2581.637899
592.839157	2580.929617
593.191038	2583.092272
593.542866	2581.668146
593.894639	2577.549523
594.246358	2579.326530
594.598022	2577.773855
594.949633	2580.054977
595.301190	2576.795871
595.652692	2579.175295
596.004141	2576.130438
596.355535	2578.542631
596.706876	2578.371231
597.058162	2577.766293
597.409395	2576.329564
597.760573	2579.518094
598.111698	2576.140521
598.462768	2579.689493
598.813785	2581.340471
599.164748	2580.181006
599.515657	2578.494740
599.866511	2575.827969
600.217312	2576.720253
600.568060	2575.132290
600.918753	2579.165213
601.269392	2577.531879
601.619978	2576.400140
601.970510	2578.751838
602.320988	2576.697568
602.671412	2575.792681
603.021783	2575.863257
603.372100	2579.145048
603.722363	2576.379976
604.072572	2576.364852
604.422728	2577.095819
604.772830	2570.451579
605.122878	2573.357804
605.472872	2572.442834
605.822813	2569.771023
606.172701	2574.988617
606.522534	2575.769996
606.872314	2576.243864
607.222041	2578.827456
607.571714	2578.154462
607.921333	2576.440469
608.270899	2575.656570
608.620411	2575.959039
608.969870	2578.832497
609.319276	2577.972980
609.668627	2581.332909
610.017926	2579.581108
610.367171	2583.402303
610.716362	2583.616552
611.065500	2583.064546
611.414585	2581.002714
611.763616	2581.622776
612.112594	2577.221848
612.461518	2577.899883
612.810389	2578.109091
613.159207	2578.610686
613.507971	2574.950808
613.856682	2578.638412
614.205340	2579.397106
614.553945	2576.125397
614.902496	2578.119174
615.250994	2577.889801
615.599439	2577.103381
615.947830	2576.543813
616.296169	2578.754359
616.644454	2575.144893
616.992686	2577.978021
617.340864	2574.844944
617.688990	2574.625654
618.037063	2576.206056
618.385082	2576.211097
618.733048	2576.558937
619.080961	2576.004410
619.428821	2578.522466
619.776628	2575.545665
620.124382	2579.157651
620.472083	2577.894842
620.819731	2579.944071
621.167326	2575.308730
621.514868	2575.822928
621.862357	2576.221179
622.209793	2576.327043
622.557176	2575.273442
622.904506	2573.060376
623.251783	2569.914696
623.599007	2571.595921
623.946179	2570.688513
624.293297	2570.023081
624.640363	2570.880077
624.987376	2572.498287
625.334336	2572.520972
625.681243	2571.666497
626.028097	2570.751527
626.374899	2570.260015
626.721647	2571.674058
627.068343	2573.824111
627.414987	2571.124573
627.761577	2568.682134
628.108115	2570.764130
628.454600	2568.793039
628.801032	2570.260015
629.147412	2570.383523
629.493739	2569.589541
629.840014	2570.731363
630.186236	2572.939388
630.532405	2569.138358
630.878521	2570.590210
631.224585	2573.793864
631.570597	2566.897565
631.916556	2566.469067
632.262462	2565.937225
632.608316	2567.757082
632.954117	2567.936043
633.299866	2567.031156
633.645562	2569.332442
633.991206	2568.157854
634.336797	2567.976372
634.682336	2566.837071
635.027823	2567.487380
635.373257	2568.132648
635.718639	2564.349262
636.063968	2567.028635
636.409245	2563.729200
636.754470	2563.988819
637.099642	2564.429920
637.444762	2564.467729
637.789829	2563.416648
638.134845	2565.627194
638.479808	2564.888665
638.824719	2565.632236
639.169577	2563.051165
639.514383	2562.516803
639.859137	2564.659293
640.203839	2563.610733
640.548489	2561.954714
640.893086	2562.196689
641.237632	2560.868345
641.582125	2562.226936
641.926566	2555.933056
642.270955	2564.908830
642.615292	2563.693912
642.959576	2563.683830
643.303809	2565.168449
643.647990	2563.830023
643.992118	2564.946639
644.336195	2562.501679
