Dividing Wavelength (nm)	Counts (n)	Blue Motor Position (mm): 0.000000	Red Motor Position (mm): 29.200000	
326.493990	2128.380195
326.888308	2128.380195
327.282561	2128.380195
327.676750	2096.666296
328.070874	2094.259145
328.464933	2095.539598
328.858929	2102.239292
329.252859	2114.784203
329.646726	2127.019083
330.040528	2137.338325
330.434265	2154.074956
330.827938	2173.881650
331.221547	2190.116686
331.615091	2209.489840
332.008571	2227.562376
332.401986	2247.553072
332.795338	2265.171905
333.188625	2289.934052
333.581847	2304.387040
333.975006	2323.697180
334.368100	2340.874912
334.761129	2360.774867
335.154095	2375.220293
335.546996	2393.716287
335.939833	2412.867630
336.332606	2425.505803
336.725315	2440.231013
337.117960	2449.443722
337.510540	2458.210288
337.903056	2468.826958
338.295508	2476.585294
338.687896	2483.642909
339.080220	2494.917450
339.472480	2499.872904
339.864676	2502.653101
340.256807	2507.890859
340.648875	2508.783144
341.040879	2511.555778
341.432818	2515.840759
341.824694	2517.025430
342.216506	2516.816222
342.608253	2515.145080
342.999937	2514.028464
343.391557	2516.334792
343.783113	2515.573578
344.174605	2516.075173
344.566033	2511.787671
344.957397	2512.309431
345.348697	2508.982269
345.739934	2512.216169
346.131106	2506.680983
346.522215	2503.565549
346.913260	2505.604696
347.304241	2503.376506
347.695159	2499.129334
348.086012	2499.260404
348.476802	2494.872080
348.867528	2498.433655
349.258191	2494.793942
349.648789	2491.081132
350.039324	2490.360247
350.429796	2491.287819
350.820203	2489.571306
351.210548	2488.847901
351.600828	2487.932931
351.991045	2486.995277
352.381198	2488.353868
352.771288	2487.839670
353.161314	2485.006542
353.551276	2486.647437
353.941175	2483.176603
354.331010	2486.443270
354.720782	2484.504947
355.110490	2486.657519
355.500135	2486.042499
355.889717	2486.854124
356.279235	2485.772797
356.668689	2487.973261
357.058080	2485.883702
357.447408	2484.462097
357.836672	2483.348002
358.225873	2486.236583
358.615010	2484.515029
359.004084	2489.354537
359.393095	2487.121306
359.782043	2491.232367
360.170927	2490.755977
360.559748	2489.478045
360.948505	2492.689260
361.337199	2494.168839
361.725830	2493.256390
362.114398	2491.108858
362.502903	2492.109527
362.891344	2495.804693
363.279722	2491.675988
363.668037	2497.974910
364.056289	2497.899292
364.444478	2498.874756
364.832603	2498.680671
365.220665	2497.770743
365.608665	2500.394664
365.996601	2500.608913
366.384474	2502.884994
366.772284	2499.514982
367.160031	2502.451454
367.547715	2506.640653
367.935336	2508.576456
368.322893	2510.915552
368.710388	2515.838238
369.097820	2524.133457
369.485189	2521.474248
369.872495	2533.446989
370.259738	2536.035621
370.646918	2544.787064
371.034035	2550.660009
371.421090	2561.251473
371.808081	2575.437280
372.195010	2582.540266
372.581875	2594.003849
372.968678	2608.590428
373.355418	2617.069649
373.742096	2638.497073
374.128710	2651.099958
374.515262	2665.028666
374.901751	2681.609021
375.288177	2694.252235
375.674540	2719.936914
376.060841	2736.877711
376.447079	2754.781369
376.833254	2774.943464
377.219367	2787.886626
377.605417	2825.385249
377.991404	2833.987978
378.377329	2858.954293
378.763191	2873.261087
379.148991	2911.581418
379.534727	2937.714760
379.920402	2966.098977
380.306013	2977.507108
380.691563	3027.086856
381.077049	3045.482026
381.462474	3066.198648
381.847835	3105.076026
382.233134	3127.763739
382.618371	3128.028400
383.003545	3193.886034
383.388657	3199.569935
383.773706	3234.313567
384.158693	3251.186309
384.543618	3278.658077
384.928480	3316.585198
385.313280	3362.563041
385.698017	3356.574151
386.082692	3412.667069
386.467305	3416.432811
386.851856	3448.222328
387.236344	3469.649752
387.620770	3500.940194
388.005133	3527.822147
388.389435	3558.031261
388.773674	3565.197261
389.157851	3611.923716
389.541965	3625.688587
389.926018	3590.397989
390.310008	3662.027744
390.693936	3677.541895
391.077802	3721.838514
391.461606	3710.934498
391.845348	3771.569497
392.229027	3770.805762
392.612645	3782.954943
392.996200	3864.072149
393.379694	3901.389291
393.763125	3964.365905
394.146494	3933.839198
394.529801	3998.166842
394.913047	4042.309705
395.296230	4009.214530
395.679351	4063.313673
396.062410	4088.136314
396.445408	4071.745003
396.828343	4106.266824
397.211217	4128.944455
397.594028	4047.068555
397.976778	4111.595324
398.359466	4140.203872
398.742092	4169.130013
399.124656	4093.245524
399.507158	4171.698481
399.889598	4194.595401
400.271977	4258.741563
400.654294	4225.467428
401.036549	4233.840784
401.418742	4206.457236
401.800874	4308.792659
402.182944	4333.723686
402.564952	4394.446904
402.946898	4378.597517
403.328783	4376.838154
403.710606	4292.602994
404.092367	4487.977952
404.474067	4449.566881
404.855705	4457.055515
405.237282	4383.825193
405.618797	4494.823839
406.000250	4531.261299
406.381642	4607.024800
406.762972	4569.637083
407.144240	4583.699382
407.525447	4579.918516
407.906593	4641.942352
408.287677	4682.947098
408.668700	4613.790029
409.049661	4662.018748
409.430560	4706.244790
409.811399	4630.125888
410.192176	4791.248727
410.572891	4732.925097
410.953545	4832.051826
411.334138	4716.185946
411.714669	4781.874701
412.095139	4678.520965
412.475547	4817.505576
412.855894	4800.882372
413.236180	4812.421573
413.616405	4761.780662
413.996568	4845.645297
414.376670	4793.169406
414.756711	4747.620061
415.136691	4780.866470
415.516609	4855.160475
415.896466	4890.398140
416.276262	4932.784162
416.655997	4911.507972
417.035670	5088.959108
417.415283	5182.822872
417.794834	5123.357421
418.174324	5079.126338
418.553753	4988.614941
418.933121	5171.535729
419.312428	5236.642231
419.691674	5177.612840
420.070859	5301.514319
420.449983	5216.906113
420.829045	5326.989790
421.208047	5235.966716
421.586988	5307.893899
421.965867	5321.502494
422.344686	5449.126865
422.723444	5307.871214
423.102141	5127.554182
423.480777	5421.624850
423.859352	5193.527762
424.237866	5450.926557
424.616319	5443.626966
424.994712	5552.606630
425.373044	5431.308907
425.751314	5571.581533
426.129524	5377.413931
426.507673	5569.176903
426.885762	5651.609851
427.263789	5588.023257
427.641756	5468.144618
428.019662	5592.388896
428.397508	5597.437611
428.775292	5540.318818
429.153016	5639.677439
429.530679	5568.012396
429.908282	5653.487680
430.285824	5527.063104
430.663305	5798.093178
431.040726	5533.223394
431.418086	5533.281367
431.795385	5640.453777
432.172624	5652.822248
432.549802	5646.997195
432.926920	5659.307692
433.303977	5664.187529
433.680974	5703.841246
434.057910	5721.351693
434.434786	5734.516667
434.811601	5697.953178
435.188355	5930.393220
435.565050	5803.930835
435.941683	5792.237878
436.318257	6000.659343
436.694770	5977.832998
437.071222	6016.511251
437.447614	5948.115396
437.823946	5863.008117
438.200218	6017.343042
438.576429	5886.177260
438.952580	5979.783925
439.328670	6025.935688
439.704700	5933.319610
440.080670	5918.412918
440.456580	6190.100863
440.832429	6075.031486
441.208218	5918.828813
441.583947	6073.211629
441.959616	6079.646662
442.335224	5999.741853
442.710773	6141.037833
443.086261	6167.478685
443.461689	5960.922448
443.837057	6111.927691
444.212365	6262.912769
444.587612	6158.573487
444.962800	6315.786911
445.337927	6290.359331
445.712995	5901.714096
446.088002	6478.621221
446.462949	6308.116795
446.837837	6237.124746
447.212664	6413.207209
447.587431	6557.122069
447.962139	7099.136848
448.336786	8022.940893
448.711374	7760.957169
449.085901	6840.729823
449.460369	6760.023470
449.834776	6690.296751
450.209124	7083.847029
450.583412	7229.334729
450.957640	7381.663274
451.331808	7148.426730
451.705917	6696.162133
452.079965	6619.259331
452.453954	6837.190933
452.827883	6704.873247
453.201752	6800.234234
453.575562	6600.949861
453.949311	6805.590460
454.323001	6693.986875
454.696632	6762.160919
455.070202	6897.062196
455.443713	7052.100362
455.817164	7150.435630
456.190556	7229.685089
456.563888	7301.014895
456.937160	7341.636513
457.310373	7000.753690
457.683526	7022.954931
458.056619	6913.695483
458.429653	6893.170426
458.802628	6826.317164
459.175542	6931.659635
459.548398	7279.136287
459.921194	7431.507683
460.293930	7436.387520
460.666607	7943.804860
461.039224	8245.381807
461.411782	8362.686936
461.784280	8373.525417
462.156719	8261.397553
462.529099	8138.761403
462.901419	7726.747899
463.273680	7607.983356
463.645882	7613.634489
464.018024	7475.668191
464.390106	7624.722507
464.762130	7997.067171
465.134094	8426.631452
465.505999	9382.986228
465.877845	10525.984683
466.249631	11143.095011
466.621358	10756.824159
466.993026	10150.723712
467.364634	9892.218384
467.736184	9527.790852
468.107674	9187.412144
468.479105	9193.353144
468.850477	8957.729613
469.221790	8721.538952
469.593043	8386.461018
469.964238	8238.992144
470.335373	8224.118220
470.706449	8259.434023
471.077467	8209.072896
471.448425	9359.073515
471.819324	10300.342637
472.190164	10302.041506
472.560945	9148.098706
472.931667	8393.574086
473.302330	8246.662260
473.672934	7898.989003
474.043479	8184.230090
474.413965	8086.537570
474.784393	7938.272194
475.154761	8044.872433
475.525070	8078.489368
475.895321	7895.687047
476.265513	8000.701843
476.635645	8100.569622
477.005719	8044.338071
477.375734	8093.819517
477.745691	8243.083041
478.115588	8294.739744
478.485427	8436.728883
478.855207	8794.877658
479.224928	9343.062810
479.594591	9767.139795
479.964194	9561.014576
480.333739	9464.284916
480.703226	9311.674066
481.072653	9302.504207
481.442022	9380.316937
481.811333	9441.841699
482.180584	9223.758863
482.549777	8929.473946
482.918912	8732.818534
483.287988	8661.760950
483.657005	8588.732275
484.025964	8297.257801
484.394864	8296.680588
484.763706	8199.255249
485.132489	7967.737738
485.501213	7856.897889
485.869879	7830.434352
486.238487	7625.604709
486.607036	7629.378013
486.975527	7399.703043
487.343959	7433.544309
487.712333	7368.629371
488.080648	7253.703666
488.448905	7184.407966
488.817104	7069.187353
489.185244	7128.887218
489.553326	7114.774507
489.921350	7308.276677
490.289315	7731.539516
490.657222	7821.997981
491.025070	7654.931622
491.392861	7499.316243
491.760593	7230.516879
492.128267	6971.628423
492.495883	6732.304686
492.863440	6493.820300
493.230939	6252.613692
493.598380	6142.144367
493.965763	5996.094578
494.333088	5891.510800
494.700354	5766.654023
495.067563	5725.525769
495.434713	5568.919804
495.801805	5545.687647
496.168839	5447.503614
496.535815	5344.059137
496.902733	5277.309219
497.269593	5171.828116
497.636395	5144.033714
498.003139	5057.802257
498.369825	4956.575887
498.736453	4927.954737
499.103023	4845.854505
499.469535	4780.100215
499.835989	4713.809042
500.202385	4636.908760
500.568723	4535.727762
500.935003	4539.279254
501.301226	4419.292231
501.667390	4429.931586
502.033497	4390.792068
502.399546	4300.431906
502.765537	4224.733940
503.131470	4175.870035
503.497345	4153.202487
503.863163	4038.032286
504.228923	4037.044220
504.594625	3996.162983
504.960269	3902.914240
505.325856	3884.274573
505.691385	3807.888490
506.056856	3786.516518
506.422270	3741.075557
506.787625	3687.755273
507.152924	3652.288235
507.518164	3612.253912
507.883347	3559.243659
508.248472	3513.936288
508.613540	3501.693846
508.978550	3448.829787
509.343503	3411.444590
509.708398	3388.469531
510.073236	3364.612270
510.438016	3330.085408
510.802738	3292.632155
511.167403	3268.364041
511.532010	3226.804768
511.896561	3220.604149
512.261053	3194.743030
512.625488	3154.388593
512.989866	3124.910446
513.354186	3099.283741
513.718449	3066.672516
514.082655	3057.558110
514.446803	3029.304963
514.810894	3017.743077
515.174927	2987.223932
515.538904	2972.259267
515.902822	2956.578758
516.266684	2933.006322
516.630488	2912.453538
516.994235	2900.637073
517.357925	2884.381873
517.721558	2875.534648
518.085133	2858.772811
518.448651	2844.869309
518.812112	2828.450271
519.175516	2815.844866
519.538863	2806.780871
519.902152	2795.299643
520.265385	2789.956020
520.628560	2777.534617
520.991678	2765.251846
521.354739	2760.661875
521.717743	2748.406830
522.080690	2741.316447
522.443580	2736.008112
522.806413	2728.706001
523.169189	2722.041595
523.531908	2716.708055
523.894569	2705.683051
524.257174	2700.294058
524.619722	2699.469829
524.982213	2695.036134
525.344647	2690.511699
525.707025	2685.223528
526.069345	2682.506346
526.431608	2677.437466
526.793815	2677.336643
527.155964	2669.898421
527.518057	2671.219203
527.880093	2666.725014
528.242072	2659.690084
528.603995	2659.765701
528.965860	2655.858807
529.327669	2653.305463
529.689421	2653.002993
530.051117	2650.356388
530.412755	2648.448311
530.774337	2645.990748
531.135862	2644.611993
531.497331	2641.541930
531.858743	2635.913482
532.220098	2637.304840
532.581396	2633.793677
532.942638	2631.578090
533.303824	2635.321146
533.664953	2634.955663
534.026025	2631.802421
534.387040	2632.356948
534.747999	2629.276803
535.108902	2631.028604
535.469748	2626.771349
535.830537	2626.451236
536.191270	2622.927470
536.551947	2625.775722
536.912567	2625.243880
537.273131	2623.358488
537.633638	2622.264558
537.994089	2623.635752
538.354483	2622.637603
538.714821	2621.410082
539.075103	2619.960751
539.435328	2620.694238
539.795497	2619.958230
540.155609	2617.909001
540.515665	2618.864300
540.875665	2617.301542
541.235609	2614.057559
541.595496	2617.813219
541.955328	2619.910339
542.315102	2614.090327
542.674821	2616.447066
543.034483	2613.150152
543.394090	2613.021602
543.753640	2613.624020
544.113134	2613.676952
544.472571	2616.396655
544.831953	2612.525049
545.191278	2614.062601
545.550548	2613.256016
545.909761	2615.345574
546.268918	2609.855758
546.628019	2616.053856
546.987064	2611.035388
547.346053	2612.187291
547.704986	2611.655450
548.063863	2611.458845
548.422684	2611.171499
548.781449	2611.413474
549.140158	2609.124790
549.498811	2610.352311
549.857408	2608.078751
550.215949	2607.620006
550.574434	2606.049687
550.932864	2608.010695
551.291237	2605.888370
551.649555	2610.127980
552.007817	2609.923813
552.366022	2611.778958
552.724173	2607.793926
553.082267	2610.024636
553.440305	2610.264091
553.798288	2606.339553
554.156215	2611.027826
554.514086	2611.403392
554.871902	2607.541868
555.229661	2611.904987
555.587365	2607.110849
555.945014	2607.370469
556.302606	2610.024636
556.660143	2608.398864
557.017625	2609.094543
557.375050	2607.751076
557.732421	2607.937599
558.089735	2609.989348
558.446994	2607.493977
558.804197	2609.752414
559.161345	2607.877105
559.518437	2608.736622
559.875474	2605.477516
560.232455	2608.860130
560.589381	2607.536827
560.946251	2608.439193
561.303065	2608.537496
561.659825	2606.707557
562.016528	2607.738473
562.373177	2608.136724
562.729770	2607.236878
563.086307	2606.402567
563.442789	2607.856940
563.799216	2605.898452
564.155587	2606.584049
564.511904	2606.218565
564.868164	2605.258225
565.224370	2607.612444
565.580520	2604.877618
565.936615	2606.228647
566.292654	2606.579008
566.648638	2606.074892
567.004567	2605.278390
567.360441	2604.192021
567.716260	2603.902155
568.072023	2604.890221
568.427732	2601.497525
568.783385	2600.577514
569.138982	2599.954932
569.494525	2603.163626
569.850013	2600.897627
570.205445	2604.323091
570.560823	2603.912237
570.916145	2604.340735
571.271412	2602.513317
571.626625	2604.318050
571.981782	2604.406270
572.336884	2603.413163
572.691931	2607.657815
573.046923	2605.742176
573.401860	2602.591455
573.756743	2600.421238
574.111570	2601.260590
574.466342	2603.259408
574.821059	2601.021136
575.175722	2601.147164
575.530330	2601.643718
575.884882	2604.300406
576.239380	2601.268152
576.593823	2601.157247
576.948211	2599.223964
577.302544	2599.045003
577.656823	2600.648090
578.011047	2601.989037
578.365216	2601.157247
578.719330	2599.193717
579.073389	2599.768409
579.427394	2598.188007
579.781344	2598.291351
580.135239	2600.733790
580.489080	2599.770929
580.842866	2599.889397
581.196597	2600.161619
581.550273	2599.206320
581.903895	2597.509972
582.257463	2600.567432
582.610975	2600.005343
582.964434	2598.999633
583.317837	2598.611464
583.671186	2598.379571
584.024481	2599.299582
584.377721	2597.189859
584.730906	2594.626432
585.084037	2599.108018
585.437113	2596.859663
585.790135	2598.777822
586.143103	2596.395877
586.496016	2596.403439
586.848874	2594.573500
587.201679	2596.259766
587.554428	2590.341451
587.907124	2593.464446
588.259765	2593.850094
588.612352	2595.317070
588.964884	2595.128027
589.317362	2597.676330
589.669786	2595.342276
590.022155	2597.275558
590.374470	2593.721545
590.726731	2595.208685
591.078937	2592.302460
591.431090	2598.308995
591.783188	2592.567121
592.135232	2592.640217
592.487222	2592.204157
592.839157	2595.785897
593.191038	2592.526791
593.542866	2590.767429
593.894639	2591.037130
594.246358	2592.158787
594.598022	2592.725917
594.949633	2590.991760
595.301190	2591.664754
595.652692	2592.932604
596.004141	2591.480752
596.355535	2593.320773
596.706876	2588.919846
597.058162	2590.089393
597.409395	2590.971595
597.760573	2594.112234
598.111698	2592.698191
598.462768	2591.407655
598.813785	2593.368664
599.164748	2590.517892
599.515657	2588.970257
599.866511	2588.435895
600.217312	2590.850608
600.568060	2589.426482
600.918753	2592.985536
601.269392	2589.237438
601.619978	2590.437233
601.970510	2589.590319
602.320988	2588.665268
602.671412	2589.832295
603.021783	2584.992787
603.372100	2587.402458
603.722363	2590.296081
604.072572	2587.878847
604.422728	2591.541246
604.772830	2588.022520
605.122878	2584.392890
605.472872	2587.246183
605.822813	2586.588312
606.172701	2585.897674
606.522534	2590.046544
606.872314	2592.355392
607.222041	2586.850452
607.571714	2587.767942
607.921333	2588.511512
608.270899	2587.364650
608.620411	2588.554362
608.969870	2592.151225
609.319276	2591.347161
609.668627	2591.362285
610.017926	2594.961669
610.367171	2599.173553
610.716362	2597.439396
611.065500	2595.985023
611.414585	2591.556369
611.763616	2594.447471
612.112594	2592.509147
612.461518	2591.011925
612.810389	2589.638210
613.159207	2593.613160
613.507971	2591.357244
613.856682	2592.607450
614.205340	2590.162490
614.553945	2589.867583
614.902496	2590.200299
615.250994	2592.040320
615.599439	2589.023189
615.947830	2590.038982
616.296169	2588.592171
616.644454	2592.932604
616.992686	2592.035279
617.340864	2591.843715
617.688990	2589.381111
618.037063	2591.846236
618.385082	2590.429671
618.733048	2590.749785
619.080961	2589.852459
619.428821	2590.081832
619.776628	2591.634507
620.124382	2590.316245
620.472083	2592.781370
620.819731	2589.973447
621.167326	2589.421441
621.514868	2590.512850
621.862357	2589.184506
622.209793	2588.468662
622.557176	2586.820205
622.904506	2586.069073
623.251783	2581.718557
623.599007	2582.653692
623.946179	2585.229721
624.293297	2583.951789
624.640363	2585.633013
624.987376	2586.787438
625.334336	2586.603436
625.681243	2583.876171
626.028097	2583.881212
626.374899	2582.913311
626.721647	2582.605801
627.068343	2586.353898
627.414987	2581.466500
627.761577	2585.653178
628.108115	2586.346337
628.454600	2581.416088
628.801032	2583.402303
629.147412	2584.972622
629.493739	2581.894998
629.840014	2582.028588
630.186236	2586.734506
630.532405	2584.377766
630.878521	2581.342992
631.224585	2584.324834
631.570597	2579.132446
631.916556	2580.415419
632.262462	2582.341140
632.608316	2580.390213
632.954117	2580.238979
633.299866	2582.343661
633.645562	2579.616396
633.991206	2580.919535
634.336797	2577.794019
634.682336	2578.824935
635.027823	2578.303176
635.373257	2577.695717
635.718639	2577.756211
636.063968	2575.782599
636.409245	2576.238823
636.754470	2580.604462
637.099642	2575.414595
637.444762	2576.697568
637.789829	2579.137487
638.134845	2577.025243
638.479808	2576.720253
638.824719	2574.618092
639.169577	2576.289235
639.514383	2575.757393
639.859137	2573.022567
640.203839	2576.390058
640.548489	2572.848647
640.893086	2569.922257
641.237632	2568.717422
641.582125	2572.016857
641.926566	2568.626681
642.270955	2573.952660
642.615292	2575.152455
642.959576	2575.608679
643.303809	2574.255129
643.647990	2576.579101
643.992118	2573.952660
644.336195	2573.055335
