Dividing Wavelength (nm)	Counts (n)	Blue Motor Position (mm): 0.000000	Red Motor Position (mm): 45.300000	
326.493990	2127.334156
326.888308	2127.334156
327.282561	2127.334156
327.676750	2094.647314
328.070874	2094.289392
328.464933	2096.318457
328.858929	2102.337594
329.252859	2112.049377
329.646726	2124.052364
330.040528	2137.040897
330.434265	2153.394400
330.827938	2170.446103
331.221547	2189.824299
331.615091	2210.412371
332.008571	2226.990205
332.401986	2246.640623
332.795338	2268.146185
333.188625	2286.064967
333.581847	2306.751342
333.975006	2325.088539
334.368100	2342.367093
334.761129	2359.630525
335.154095	2376.483102
335.546996	2396.095711
335.939833	2422.869279
336.332606	2435.613316
336.725315	2447.298711
337.117960	2459.147943
337.510540	2467.057513
337.903056	2478.437918
338.295508	2483.894967
338.687896	2492.840495
339.080220	2502.229644
339.472480	2507.071672
339.864676	2514.348578
340.256807	2516.929648
340.648875	2522.364012
341.040879	2525.151770
341.432818	2521.698580
341.824694	2527.127903
342.216506	2529.645959
342.608253	2525.923067
342.999937	2527.657224
343.391557	2527.818541
343.783113	2522.487520
344.174605	2524.952645
344.566033	2522.066584
344.957397	2523.352078
345.348697	2517.521984
345.739934	2519.843435
346.131106	2516.254134
346.522215	2514.532580
346.913260	2513.731036
347.304241	2511.979235
347.695159	2511.238186
348.086012	2509.015037
348.476802	2503.489932
348.867528	2506.864985
349.258191	2503.222751
349.648789	2505.473626
350.039324	2499.666217
350.429796	2499.681340
350.820203	2497.012049
351.210548	2504.349449
351.600828	2496.399549
351.991045	2496.830568
352.381198	2497.097749
352.771288	2495.706391
353.161314	2497.458192
353.551276	2493.226143
353.941175	2495.134220
354.331010	2493.521050
354.720782	2496.192862
355.110490	2496.722183
355.500135	2498.655466
355.889717	2495.920640
356.279235	2495.550115
356.668689	2496.825527
357.058080	2498.980620
357.447408	2496.074395
357.836672	2494.488952
358.225873	2495.146823
358.615010	2494.141112
359.004084	2499.885507
359.393095	2497.627070
359.782043	2499.121772
360.170927	2499.212513
360.559748	2502.494304
360.948505	2500.142606
361.337199	2504.321723
361.725830	2503.449603
362.114398	2505.322392
362.502903	2502.360714
362.891344	2503.764675
363.279722	2506.751559
363.668037	2505.352638
364.056289	2504.861126
364.444478	2508.584018
364.832603	2506.801970
365.220665	2508.760458
365.608665	2507.853051
365.996601	2510.933196
366.384474	2510.240037
366.772284	2512.115346
367.160031	2515.447549
367.547715	2515.971829
367.935336	2519.099865
368.322893	2522.981553
368.710388	2523.215967
369.097820	2531.589324
369.485189	2534.240971
369.872495	2541.394368
370.259738	2547.282436
370.646918	2554.103117
371.034035	2560.815413
371.421090	2575.049111
371.808081	2583.296439
372.195010	2590.641400
372.581875	2605.215376
372.968678	2615.706017
373.355418	2624.412089
373.742096	2646.880512
374.128710	2660.564724
374.515262	2675.690706
374.901751	2691.459436
375.288177	2703.190201
375.674540	2728.320352
376.060841	2743.814339
376.447079	2763.265631
376.833254	2784.312448
377.219367	2792.743778
377.605417	2831.971517
377.991404	2838.756910
378.377329	2865.941332
378.763191	2880.711913
379.148991	2921.147008
379.534727	2943.507046
379.920402	2972.576859
380.306013	2984.554641
380.691563	3034.484749
381.077049	3054.727502
381.462474	3076.399423
381.847835	3110.437293
382.233134	3135.885038
382.618371	3133.997126
383.003545	3201.878783
383.388657	3210.872202
383.773706	3242.039135
384.158693	3256.424068
384.543618	3286.255096
384.928480	3320.083758
385.313280	3367.228629
385.698017	3364.607229
386.082692	3418.950868
386.467305	3424.193668
386.851856	3455.232052
387.236344	3478.297851
387.620770	3512.653315
388.005133	3536.387067
388.389435	3560.718196
388.773674	3573.623550
389.157851	3618.641054
389.541965	3632.453815
389.926018	3598.461315
390.310008	3670.461595
390.693936	3687.104964
391.077802	3729.211202
391.461606	3719.529666
391.845348	3782.050056
392.229027	3779.126187
392.612645	3793.624545
392.996200	3866.915360
393.379694	3910.002102
393.763125	3974.349910
394.146494	3937.486473
394.529801	4002.030886
394.913047	4053.884195
395.296230	4019.760624
395.679351	4074.585693
396.062410	4094.110082
396.445408	4075.724994
396.828343	4110.226651
397.211217	4132.982419
397.594028	4054.612641
397.976778	4119.217548
398.359466	4146.061693
398.742092	4176.250643
399.124656	4096.406327
399.507158	4180.293648
399.889598	4203.649314
400.271977	4268.052575
400.654294	4238.902103
401.036549	4247.827465
401.418742	4216.413515
401.800874	4318.264988
402.182944	4338.905992
402.564952	4405.343358
402.946898	4389.163775
403.328783	4384.790574
403.710606	4296.467038
404.092367	4495.138911
404.474067	4456.377479
404.855705	4462.951144
405.237282	4391.112181
405.618797	4502.556969
406.000250	4538.525602
406.381642	4614.301706
406.762972	4576.825768
407.144240	4587.742387
407.525447	4591.034260
407.906593	4646.711284
408.287677	4692.996638
408.668700	4620.887973
409.049661	4673.240356
409.430560	4710.340728
409.811399	4641.276920
410.192176	4802.954286
410.572891	4736.174121
410.953545	4841.042724
411.334138	4723.672059
411.714669	4790.467348
412.095139	4684.882901
412.475547	4825.039581
412.855894	4809.399401
413.236180	4817.150175
413.616405	4775.280872
413.996568	4860.773800
414.376670	4798.792813
414.756711	4756.663891
415.136691	4787.001554
415.516609	4862.999469
415.896466	4906.174431
416.276262	4940.633238
416.655997	4915.981996
417.035670	5102.076190
417.415283	5185.630795
417.794834	5134.246314
418.174324	5089.390127
418.553753	4994.775231
418.933121	5178.381616
419.312428	5250.417183
419.691674	5183.863870
420.070859	5310.190145
420.449983	5221.082709
420.829045	5339.247355
421.208047	5244.657665
421.586988	5317.255322
421.965867	5326.904090
422.344686	5460.416529
422.723444	5315.758099
423.102141	5133.225480
423.480777	5431.843269
423.859352	5206.007139
424.237866	5462.397703
424.616319	5455.186332
424.994712	5561.199277
425.373044	5440.395587
425.751314	5578.492955
426.129524	5388.325509
426.507673	5581.588224
426.885762	5662.589484
427.263789	5596.315955
427.641756	5476.122244
428.019662	5599.461635
428.397508	5603.975988
428.775292	5552.856167
429.153016	5650.987268
429.530679	5575.221246
429.908282	5661.006561
430.285824	5532.532756
430.663305	5806.151463
431.040726	5539.068612
431.418086	5542.136154
431.795385	5646.893851
432.172624	5658.614534
432.549802	5655.100850
432.926920	5670.196585
433.303977	5669.707593
433.680974	5713.868101
434.057910	5731.701182
434.434786	5737.143108
434.811601	5705.789652
435.188355	5937.521412
435.565050	5817.332742
435.941683	5790.808711
436.318257	6011.432289
436.694770	5998.229507
437.071222	6030.926431
437.447614	5961.819773
437.823946	5876.452874
438.200218	6025.769330
438.576429	5894.618672
438.952580	5990.740873
439.328670	6028.219331
439.704700	5942.300425
440.080670	5928.757366
440.456580	6204.027051
440.832429	6077.017700
441.208218	5929.468168
441.583947	6082.250418
441.959616	6092.221820
442.335224	6015.964286
442.710773	6152.864380
443.086261	6174.221229
443.461689	5976.918029
443.837057	6124.356655
444.212365	6277.774090
444.587612	6169.391803
444.962800	6323.567932
445.337927	6302.891639
445.712995	5913.911168
446.088002	6494.460527
446.462949	6319.751778
446.837837	6252.228043
447.212664	6426.256236
447.587431	6569.666980
447.962139	7107.510205
448.336786	8035.909262
448.711374	7783.327289
449.085901	6854.167018
449.460369	6773.879082
449.834776	6709.642179
450.209124	7095.197187
450.583412	7247.586226
450.957640	7395.269349
451.331808	7164.664287
451.705917	6714.597633
452.079965	6633.104860
452.453954	6846.711152
452.827883	6726.333439
453.201752	6814.737633
453.575562	6614.888651
453.949311	6826.236505
454.323001	6710.579833
454.696632	6781.876872
455.070202	6923.737462
455.443713	7075.826553
455.817164	7178.708941
456.190556	7259.443020
456.563888	7331.559246
456.937160	7370.789506
457.310373	7032.621344
457.683526	7059.614202
458.056619	6947.511543
458.429653	6937.915707
458.802628	6873.477158
459.175542	6983.056719
459.548398	7336.507139
459.921194	7500.029567
460.293930	7500.140472
460.666607	8028.206379
461.039224	8341.395623
461.411782	8465.473543
461.784280	8479.543403
462.156719	8376.953402
462.529099	8257.422603
462.901419	7842.069335
463.273680	7735.655618
463.645882	7748.283708
464.018024	7618.526929
464.390106	7775.631968
464.762130	8169.325919
465.134094	8636.557701
465.505999	9652.761055
465.877845	10887.868953
466.249631	11530.467355
466.621358	11143.982254
466.993026	10516.918168
467.364634	10254.256409
467.736184	9901.756247
468.107674	9561.196057
468.479105	9590.666643
468.850477	9360.633752
469.221790	9131.362075
469.593043	8803.888721
469.964238	8659.908326
470.335373	8681.650822
470.706449	8741.569977
471.077467	8715.807160
471.448425	10027.679229
471.819324	11101.944072
472.190164	11129.988011
472.560945	9872.953614
472.931667	9084.068490
473.302330	8949.303324
473.672934	8595.500024
474.043479	8956.975960
474.413965	8889.182523
474.784393	8775.940564
475.154761	8931.258514
475.525070	9021.676649
475.895321	8848.853293
476.265513	9026.821147
476.635645	9197.345738
477.005719	9196.461015
477.375734	9306.383375
477.745691	9545.031598
478.115588	9677.709726
478.485427	9924.000338
478.855207	10455.403488
479.224928	11268.166038
479.594591	11902.537276
479.964194	11719.825696
480.333739	11655.089719
480.703226	11574.491751
481.072653	11663.649598
481.442022	11898.355639
481.811333	12087.683733
482.180584	11895.585525
482.549777	11600.320103
482.918912	11428.046232
483.287988	11451.195211
483.657005	11457.214348
484.025964	11144.138530
484.394864	11270.242993
484.763706	11243.310629
485.132489	11002.010759
485.501213	10962.840993
485.869879	11044.318643
486.238487	10885.499611
486.607036	10987.714047
486.975527	10772.925605
487.343959	10961.447114
487.712333	11006.245328
488.080648	10935.709503
488.448905	10985.334622
488.817104	10923.678790
489.185244	11186.640498
489.553326	11342.903664
489.921350	11877.001311
490.289315	12942.998663
490.657222	13288.796611
491.025070	13191.598123
491.392861	13072.072366
491.760593	12692.896938
492.128267	12331.786485
492.495883	12005.986794
492.863440	11668.685711
493.230939	11338.883344
493.598380	11271.059660
493.965763	11136.743157
494.333088	11040.545339
494.700354	10962.316713
495.067563	11022.525734
495.434713	10852.810249
495.801805	10980.777419
496.168839	10898.762887
496.535815	10836.330717
496.902733	10837.863228
497.269593	10770.820923
497.636395	10869.594771
498.003139	10857.899294
498.369825	10729.859027
498.736453	10885.824766
499.103023	10814.671400
499.469535	10842.160812
499.835989	10822.631382
500.202385	10789.488316
500.568723	10638.672116
500.935003	10861.881805
501.301226	10666.020376
501.667390	10929.692886
502.033497	11021.535148
502.399546	10883.944415
502.765537	10790.234406
503.131470	10867.623680
503.497345	11041.793024
503.863163	10652.084106
504.228923	10965.238062
504.594625	11025.139573
504.960269	10783.070927
505.325856	10989.536424
505.691385	10784.855495
506.056856	10942.593199
506.422270	10966.180758
506.787625	10857.377534
507.152924	10975.731224
507.518164	10957.124325
507.883347	10867.343896
508.248472	10800.276385
508.613540	11030.168124
508.978550	10915.701164
509.343503	10880.725638
509.708398	11003.724751
510.073236	11121.612134
510.438016	11122.489295
510.802738	11064.727754
511.167403	11119.973759
511.532010	11027.695438
511.896561	11248.429921
512.261053	11322.842392
512.625488	11192.508401
512.989866	11172.132057
513.354186	11165.339102
513.718449	11064.014431
514.082655	11257.874522
514.446803	11151.975003
514.810894	11283.181115
515.174927	11139.339351
515.538904	11164.469503
515.902822	11323.036477
516.266684	11200.937210
516.630488	11145.781946
516.994235	11204.254289
517.357925	11269.154104
517.721558	11354.082423
518.085133	11376.825588
518.448651	11390.330840
518.812112	11263.732343
519.175516	11283.891917
519.538863	11403.165617
519.902152	11318.491877
520.265385	11477.802421
520.628560	11386.436548
520.991678	11364.348733
521.354739	11431.116295
521.717743	11363.511901
522.080690	11339.982316
522.443580	11470.833025
522.806413	11432.487489
523.169189	11461.554782
523.531908	11518.550067
523.894569	11333.517036
524.257174	11342.671771
524.619722	11463.367077
524.982213	11415.176166
525.344647	11466.054012
525.707025	11411.377657
526.069345	11507.691422
526.431608	11427.184195
526.793815	11530.926100
527.155964	11320.480612
527.518057	11365.603980
527.880093	11318.728811
528.242072	11388.957125
528.603995	11297.596294
528.965860	11218.283821
529.327669	11265.406006
529.689421	11214.911289
530.051117	11192.115191
530.412755	11296.043619
530.774337	11182.491628
531.135862	11164.784575
531.497331	11187.764675
531.858743	11040.114320
532.220098	11212.007584
532.581396	11078.346431
532.942638	11061.014944
533.303824	11028.870027
533.664953	11031.390603
534.026025	10953.509818
534.387040	11053.886752
534.747999	11060.944368
535.108902	11112.263314
535.469748	10870.711386
535.830537	10964.802002
536.191270	10949.494539
536.551947	10971.408434
536.912567	10977.702315
537.273131	10890.402133
537.633638	10873.552077
537.994089	10857.485919
538.354483	10816.271966
538.714821	10958.520725
539.075103	10964.517177
539.435328	10928.858575
539.795497	10754.036401
540.155609	10917.589076
540.515665	11002.575368
540.875665	10740.601726
541.235609	10805.282251
541.595496	10796.853441
541.955328	10960.766559
542.315102	10844.154588
542.674821	10791.721547
543.034483	10790.683069
543.394090	10794.360591
543.753640	10720.691689
544.113134	10944.874321
544.472571	10802.209667
544.831953	10950.152409
545.191278	10749.932902
545.550548	10776.925760
545.909761	10914.385423
546.268918	10886.981710
546.628019	10971.552107
546.987064	10840.182159
547.346053	10758.278532
547.704986	10858.988183
548.063863	10845.054434
548.422684	10836.434061
548.781449	10758.628892
549.140158	10857.506084
549.498811	10727.648481
549.857408	10584.736811
550.215949	10814.091667
550.574434	10673.836685
550.932864	10765.802454
551.291237	10822.402009
551.649555	10782.287027
552.007817	10781.578745
552.366022	10749.413663
552.724173	10744.122972
553.082267	10722.322502
553.440305	10863.815088
553.798288	10663.411578
554.156215	10817.938067
554.514086	10793.833790
554.871902	10646.768209
555.229661	10680.296923
555.587365	10657.967132
555.945014	10550.562829
556.302606	10676.531181
556.660143	10574.929246
557.017625	10719.111287
557.375050	10628.609973
557.732421	10758.535631
558.089735	10675.369195
558.446994	10676.072436
558.804197	10708.033352
559.161345	10711.320184
559.518437	10557.567512
559.875474	10648.976234
560.232455	10676.339618
560.589381	10632.708431
560.946251	10622.006061
561.303065	10734.408669
561.659825	10664.739923
562.016528	10588.691596
562.373177	10480.044648
562.729770	10589.828376
563.086307	10502.762608
563.442789	10602.406055
563.799216	10472.523247
564.155587	10526.519046
564.511904	10476.178083
564.868164	10463.411361
565.224370	10485.902469
565.580520	10406.436241
565.936615	10415.966542
566.292654	10285.309917
566.648638	10413.128372
567.004567	10367.095076
567.360441	10358.283139
567.716260	10264.570610
568.072023	10358.280618
568.427732	10310.881169
568.783385	10222.582839
569.138982	10289.297469
569.494525	10304.849429
569.850013	10183.788640
570.205445	10265.092369
570.560823	10163.429940
570.916145	10082.910110
571.271412	10150.935440
571.626625	10097.070711
571.981782	10071.915354
572.336884	10045.111539
572.691931	10049.457013
573.046923	9996.759312
573.401860	9951.078896
573.756743	9891.023630
574.111570	9930.337068
574.466342	9918.195449
574.821059	9944.132186
575.175722	9839.603861
575.530330	9850.974183
575.884882	9838.252832
576.239380	9762.053271
576.593823	9745.044418
576.948211	9757.223845
577.302544	9636.520978
577.656823	9655.158124
578.011047	9655.072424
578.365216	9626.058063
578.719330	9553.379748
579.073389	9566.471625
579.427394	9506.928036
579.781344	9487.486827
580.135239	9432.341645
580.489080	9448.488460
580.842866	9344.668418
581.196597	9352.852731
581.550273	9397.129185
581.903895	9357.591415
582.257463	9423.076004
582.610975	9303.736769
582.964434	9334.258435
583.317837	9252.390096
583.671186	9235.368640
584.024481	9227.784224
584.377721	9147.314806
584.730906	9127.581209
585.084037	9155.216815
585.437113	9091.864634
585.790135	9112.840876
586.143103	9010.697016
586.496016	8989.720775
586.848874	9046.101040
587.201679	9035.958238
587.554428	8917.009693
587.907124	8966.145819
588.259765	8939.586500
588.612352	8939.163043
588.964884	8816.201739
589.317362	8833.190428
589.669786	8828.403852
590.022155	8879.690031
590.374470	8896.250221
590.726731	8836.625974
591.078937	8685.582922
591.431090	8796.173235
591.783188	8670.058689
592.135232	8661.511413
592.487222	8664.193307
592.839157	8717.858910
593.191038	8650.103282
593.542866	8592.490455
593.894639	8496.199375
594.246358	8546.565543
594.598022	8557.822440
594.949633	8455.028272
595.301190	8430.354344
595.652692	8462.824416
596.004141	8572.083864
596.355535	8349.615224
596.706876	8329.256525
597.058162	8260.653983
597.409395	8336.293975
597.760573	8399.943584
598.111698	8311.173906
598.462768	8293.968448
598.813785	8260.084332
599.164748	8228.811534
599.515657	8214.794606
599.866511	8126.551728
600.217312	8253.666943
600.568060	8113.676622
600.918753	8219.661840
601.269392	8185.702107
601.619978	8098.936288
601.970510	8165.487080
602.320988	8161.577665
602.671412	8214.368628
603.021783	8154.048702
603.372100	8126.534084
603.722363	8127.761605
604.072572	8107.289480
604.422728	8119.163917
604.772830	8042.745066
605.122878	8048.481899
605.472872	8047.602218
605.822813	8080.538597
606.172701	8020.485852
606.522534	8090.651151
606.872314	8095.528468
607.222041	8068.313799
607.571714	8120.832539
607.921333	8080.392403
608.270899	8084.889112
608.620411	8170.631578
608.969870	8083.202847
609.319276	8072.424860
609.668627	8087.949093
610.017926	8124.936039
610.367171	8170.419849
610.716362	8147.134760
611.065500	8133.269066
611.414585	8164.108325
611.763616	8151.376891
612.112594	8132.066751
612.461518	8148.503433
612.810389	8205.135755
613.159207	8151.371849
613.507971	8093.058302
613.856682	8213.252013
614.205340	8170.608892
614.553945	8247.501612
614.902496	8140.533369
615.250994	8207.154737
615.599439	8187.607663
615.947830	8194.168725
616.296169	8171.163419
616.644454	8180.892846
616.992686	8180.429060
617.340864	8242.042042
617.688990	8147.167527
618.037063	8235.198676
618.385082	8178.523504
618.733048	8267.033563
619.080961	8205.400416
619.428821	8223.052016
619.776628	8226.474959
620.124382	8175.715581
620.472083	8164.511617
620.819731	8193.919188
621.167326	8086.865245
621.514868	8093.360772
621.862357	7979.773493
622.209793	8001.649580
622.557176	7930.521420
622.904506	7904.340187
623.251783	7834.815114
623.599007	7788.978423
623.946179	7790.531098
624.293297	7748.828153
624.640363	7669.740011
624.987376	7647.445508
625.334336	7602.690144
625.681243	7548.727113
626.028097	7537.200515
626.374899	7516.277206
626.721647	7498.711305
627.068343	7434.814680
627.414987	7409.591267
627.761577	7363.479832
628.108115	7401.439721
628.454600	7291.267824
628.801032	7347.098603
629.147412	7305.660318
629.493739	7294.486601
629.840014	7228.097125
630.186236	7288.122144
630.532405	7171.164854
630.878521	7221.626804
631.224585	7180.334713
631.570597	7100.384534
631.916556	7132.219420
632.262462	7130.560881
632.608316	7092.653924
632.954117	7069.436890
633.299866	7054.207565
633.645562	7048.183386
633.991206	6971.116746
634.336797	6912.916625
634.682336	6869.076231
635.027823	6833.289080
635.373257	6823.572256
635.718639	6756.403922
636.063968	6773.301869
636.409245	6664.896897
636.754470	6658.262739
637.099642	6617.222705
637.444762	6561.051648
637.789829	6574.536735
638.134845	6518.700915
638.479808	6501.503019
638.824719	6504.210118
639.169577	6435.247134
639.514383	6455.477284
639.859137	6382.743516
640.203839	6391.868005
640.548489	6377.357043
