Dividing Wavelength (nm)	Counts (n)	Blue Motor Position (mm): 0.000000	Red Motor Position (mm): 0.500000	
326.493990	2089.149936
326.888308	2089.149936
327.282561	2089.149936
327.676750	2065.106153
328.070874	2069.428942
328.464933	2071.299210
328.858929	2082.861096
329.252859	2096.124372
329.646726	2110.869747
330.040528	2125.481532
330.434265	2146.094810
330.827938	2164.721873
331.221547	2183.926149
331.615091	2203.800898
332.008571	2226.544063
332.401986	2244.868658
332.795338	2267.117790
333.188625	2287.063115
333.581847	2303.920734
333.975006	2321.476552
334.368100	2342.664522
334.761129	2355.947962
335.154095	2375.205170
335.546996	2388.894423
335.939833	2400.242060
336.332606	2414.896694
336.725315	2425.170566
337.117960	2434.123655
337.510540	2441.007351
337.903056	2451.918928
338.295508	2459.410083
338.687896	2463.972327
339.080220	2472.668318
339.472480	2477.240644
339.864676	2479.620069
340.256807	2482.521253
340.648875	2486.062663
341.040879	2487.829588
341.432818	2487.143991
341.824694	2485.717344
342.216506	2488.822695
342.608253	2488.227839
342.999937	2487.257417
343.391557	2488.588281
343.783113	2483.781541
344.174605	2484.988898
344.566033	2479.998155
344.957397	2479.604945
345.348697	2475.065386
345.739934	2474.515900
346.131106	2475.173771
346.522215	2472.464151
346.913260	2471.970118
347.304241	2470.208234
347.695159	2465.774540
348.086012	2467.624643
348.476802	2464.307564
348.867528	2464.547019
349.258191	2464.468881
349.648789	2461.723972
350.039324	2460.657768
350.429796	2461.224898
350.820203	2460.935032
351.210548	2459.689867
351.600828	2457.933025
351.991045	2457.086111
352.381198	2457.199537
352.771288	2459.205916
353.161314	2459.876390
353.551276	2458.487552
353.941175	2455.356995
354.331010	2458.033848
354.720782	2457.164249
355.110490	2459.221040
355.500135	2457.330607
355.889717	2459.644497
356.279235	2458.364043
356.668689	2460.264558
357.058080	2458.517799
357.447408	2458.159877
357.836672	2454.174845
358.225873	2457.207099
358.615010	2455.629218
359.004084	2461.028293
359.393095	2462.389405
359.782043	2462.961576
360.170927	2461.429065
360.559748	2462.505351
360.948505	2460.466205
361.337199	2464.380661
361.725830	2464.390743
362.114398	2465.852678
362.502903	2466.936526
362.891344	2463.664817
363.279722	2468.035497
363.668037	2466.079529
364.056289	2467.339818
364.444478	2466.732359
364.832603	2467.286886
365.220665	2466.540795
365.608665	2466.916361
365.996601	2469.925930
366.384474	2468.995837
366.772284	2470.856023
367.160031	2468.390898
367.547715	2470.520786
367.935336	2470.367031
368.322893	2471.034984
368.710388	2472.219655
369.097820	2474.067238
369.485189	2470.084726
369.872495	2471.196301
370.259738	2468.990796
370.646918	2471.337453
371.034035	2469.636063
371.421090	2474.289048
371.808081	2471.299644
372.195010	2473.195118
372.581875	2471.415591
372.968678	2473.394244
373.355418	2476.978504
373.742096	2474.614203
374.128710	2475.108236
374.515262	2473.651343
374.901751	2473.573205
375.288177	2474.352063
375.674540	2475.173771
376.060841	2474.957001
376.447079	2475.544296
376.833254	2473.701754
377.219367	2472.050776
377.605417	2474.273925
377.991404	2474.110087
378.377329	2474.677217
378.763191	2473.139665
379.148991	2477.795171
379.534727	2476.973463
379.920402	2479.325161
380.306013	2475.138483
380.691563	2480.545120
381.077049	2476.250057
381.462474	2478.758031
381.847835	2477.719554
382.233134	2480.693834
382.618371	2479.320120
383.003545	2483.040492
383.388657	2477.044039
383.773706	2481.018989
384.158693	2480.010758
384.543618	2478.107722
384.928480	2481.626448
385.313280	2480.177116
385.698017	2482.014617
386.082692	2483.211891
386.467305	2480.338433
386.851856	2482.576705
387.236344	2480.721561
387.620770	2481.417240
388.005133	2477.527990
388.389435	2479.773824
388.773674	2482.314565
389.157851	2482.241469
389.541965	2482.485965
389.926018	2484.129381
390.310008	2481.843218
390.693936	2484.066366
391.077802	2486.097951
391.461606	2485.251038
391.845348	2483.816829
392.229027	2482.123002
392.612645	2482.188537
392.996200	2483.791623
393.379694	2482.609473
393.763125	2484.941007
394.146494	2484.300780
394.529801	2484.741881
394.913047	2484.099134
395.296230	2487.327993
395.679351	2484.583085
396.062410	2488.142139
396.445408	2487.201964
396.828343	2485.782879
397.211217	2485.394710
397.594028	2480.852631
397.976778	2485.369505
398.359466	2487.849752
398.742092	2484.078969
399.124656	2486.939824
399.507158	2487.338075
399.889598	2484.658702
400.271977	2486.970071
400.654294	2492.177583
401.036549	2488.190030
401.418742	2488.232880
401.800874	2486.420585
402.182944	2489.074753
402.564952	2489.306646
402.946898	2486.660040
403.328783	2490.390494
403.710606	2488.008549
404.092367	2488.411841
404.474067	2489.674650
404.855705	2489.493168
405.237282	2486.105513
405.618797	2488.973930
406.000250	2489.238590
406.381642	2489.442757
406.762972	2490.324959
407.144240	2489.528457
407.525447	2493.397542
407.906593	2491.522233
408.287677	2491.524753
408.668700	2490.405617
409.049661	2490.919815
409.430560	2489.142808
409.811399	2492.948879
410.192176	2491.232367
410.572891	2493.452995
410.953545	2490.072901
411.334138	2491.708756
411.714669	2493.344610
412.095139	2495.514827
412.475547	2492.732110
412.855894	2491.923005
413.236180	2490.468632
413.616405	2497.435506
413.996568	2492.094404
414.376670	2493.372336
414.756711	2492.119610
415.136691	2492.729589
415.516609	2492.888386
415.896466	2492.893427
416.276262	2495.252687
416.655997	2490.244300
417.035670	2491.033241
417.415283	2492.792604
417.794834	2489.692294
418.174324	2494.047851
418.553753	2493.001812
418.933121	2493.989878
419.312428	2495.913078
419.691674	2497.148161
420.070859	2496.976761
420.449983	2496.810403
420.829045	2498.224447
421.208047	2495.320742
421.586988	2494.453664
421.965867	2495.945845
422.344686	2495.446771
422.723444	2494.892244
423.102141	2493.463077
423.480777	2495.734117
423.859352	2496.117245
424.237866	2497.934581
424.616319	2495.227481
424.994712	2497.687564
425.373044	2501.929695
425.751314	2497.755620
426.129524	2495.212358
426.507673	2499.968686
426.885762	2496.901144
427.263789	2497.526247
427.641756	2498.461381
428.019662	2498.055568
428.397508	2495.116576
428.775292	2499.232678
429.153016	2497.541371
429.530679	2500.167812
429.908282	2498.831906
430.285824	2498.884838
430.663305	2497.705208
431.040726	2499.469612
431.418086	2500.011536
431.795385	2500.871053
432.172624	2500.578666
432.549802	2501.163440
432.926920	2499.356186
433.303977	2499.300733
433.680974	2502.728718
434.057910	2497.697646
434.434786	2501.496156
434.811601	2501.254180
435.188355	2500.193018
435.565050	2499.308295
435.941683	2500.371978
436.318257	2498.330311
436.694770	2496.137409
437.071222	2497.241422
437.447614	2496.933912
437.823946	2498.859632
438.200218	2500.969355
438.576429	2499.870384
438.952580	2502.542195
439.328670	2503.252998
439.704700	2501.165960
440.080670	2503.709222
440.456580	2501.934736
440.832429	2504.725015
441.208218	2501.544047
441.583947	2502.602689
441.959616	2500.344252
442.335224	2502.005312
442.710773	2503.268121
443.086261	2500.782833
443.461689	2504.662000
443.837057	2500.261073
444.212365	2504.712412
444.587612	2503.368944
444.962800	2503.305930
445.337927	2501.506238
445.712995	2502.080930
446.088002	2503.169819
446.462949	2502.643018
446.837837	2502.426249
447.212664	2503.666373
447.587431	2504.485560
447.962139	2504.359531
448.336786	2504.810714
448.711374	2503.091681
449.085901	2505.655108
449.460369	2502.002792
449.834776	2502.743841
450.209124	2501.047493
450.583412	2502.653101
450.957640	2505.236692
451.331808	2501.052534
451.705917	2505.438338
452.079965	2506.146620
452.453954	2505.012361
452.827883	2503.999089
453.201752	2505.871877
453.575562	2502.998420
453.949311	2505.708040
454.323001	2504.525889
454.696632	2505.844151
455.070202	2504.699809
455.443713	2507.522855
455.817164	2504.316681
456.190556	2499.678820
456.563888	2503.668893
456.937160	2501.962463
457.310373	2508.518483
457.683526	2504.903976
458.056619	2506.587721
458.429653	2507.263236
458.802628	2502.524551
459.175542	2505.299706
459.548398	2505.917248
459.921194	2505.566888
460.293930	2507.422032
460.666607	2505.975221
461.039224	2505.511435
461.411782	2507.532937
461.784280	2505.400529
462.156719	2505.256857
462.529099	2506.648215
462.901419	2507.951353
463.273680	2507.106960
463.645882	2504.659480
464.018024	2509.819101
464.390106	2506.491939
464.762130	2506.736435
465.134094	2507.621158
465.505999	2507.296003
465.877845	2507.147289
466.249631	2505.839110
466.621358	2508.563853
466.993026	2509.441014
467.364634	2510.124091
467.736184	2505.130828
468.107674	2506.171826
468.479105	2505.791219
468.850477	2510.416477
469.221790	2508.311796
469.593043	2506.174347
469.964238	2504.626712
470.335373	2506.534789
470.706449	2508.273987
471.077467	2507.913545
471.448425	2508.105108
471.819324	2508.405057
472.190164	2504.820797
472.560945	2508.246261
472.931667	2509.521673
473.302330	2506.688544
473.672934	2505.340036
474.043479	2508.374810
474.413965	2506.141579
474.784393	2502.668224
475.154761	2509.869512
475.525070	2503.900786
475.895321	2506.547392
476.265513	2503.323574
476.635645	2509.060407
477.005719	2507.880777
477.375734	2507.265756
477.745691	2509.284738
478.115588	2510.083761
478.485427	2507.553102
478.855207	2510.280366
479.224928	2506.295334
479.594591	2511.787671
479.964194	2511.124760
480.333739	2508.394975
480.703226	2509.405726
481.072653	2511.439832
481.442022	2510.300531
481.811333	2509.902280
482.180584	2510.098885
482.549777	2509.372959
482.918912	2511.064266
483.287988	2509.493946
483.657005	2506.307937
484.025964	2510.214831
484.394864	2509.942609
484.763706	2509.972856
485.132489	2508.899090
485.501213	2509.158710
485.869879	2509.125942
486.238487	2510.166940
486.607036	2512.979904
486.975527	2512.296828
487.343959	2508.894049
487.712333	2511.780110
488.080648	2512.690038
488.448905	2513.683145
488.817104	2510.250119
489.185244	2508.289111
489.553326	2509.390603
489.921350	2511.797754
490.289315	2512.188443
490.657222	2511.160048
491.025070	2508.737773
491.392861	2512.148114
491.760593	2507.777433
492.128267	2510.693741
492.495883	2513.635254
492.863440	2509.577125
493.230939	2511.129801
493.598380	2510.673576
493.965763	2508.049656
494.333088	2507.497649
494.700354	2505.549243
495.067563	2506.910355
495.434713	2507.154851
495.801805	2509.713237
496.168839	2512.768176
496.535815	2511.815398
496.902733	2512.105264
497.269593	2514.366222
497.636395	2510.108967
498.003139	2510.519821
498.369825	2510.108967
498.736453	2512.405213
499.103023	2512.470748
499.469535	2512.788340
499.835989	2512.072497
500.202385	2511.764986
500.568723	2509.567043
500.935003	2513.670542
501.301226	2511.288597
501.667390	2513.158865
502.033497	2515.273629
502.399546	2508.752897
502.765537	2514.565347
503.131470	2514.209946
503.497345	2511.477640
503.863163	2513.791530
504.228923	2512.294307
504.594625	2509.529234
504.960269	2512.488392
505.325856	2512.768176
505.691385	2511.676766
506.056856	2511.757424
506.422270	2511.475120
506.787625	2514.812364
507.152924	2512.228772
507.518164	2511.233144
507.883347	2510.459327
508.248472	2513.055522
508.613540	2513.136180
508.978550	2511.946468
509.343503	2512.180881
509.708398	2513.693228
510.073236	2512.294307
510.438016	2513.393279
510.802738	2510.429080
511.167403	2513.262209
511.532010	2508.289111
511.896561	2513.093330
512.261053	2513.005110
512.625488	2510.204749
512.989866	2508.379851
513.354186	2508.382372
513.718449	2510.358504
514.082655	2512.107785
514.446803	2511.611231
514.810894	2511.563340
515.174927	2513.037877
515.538904	2513.211797
515.902822	2510.683659
516.266684	2511.301200
516.630488	2513.652898
516.994235	2512.788340
517.357925	2512.932013
517.721558	2514.933351
518.085133	2510.333298
518.448651	2514.751870
518.812112	2515.513084
519.175516	2512.213649
519.538863	2513.622651
519.902152	2513.254647
520.265385	2513.715913
520.628560	2512.359842
520.991678	2514.603156
521.354739	2514.386386
521.717743	2514.106602
522.080690	2510.809688
522.443580	2509.463699
522.806413	2511.129801
523.169189	2511.323885
523.531908	2513.572240
523.894569	2513.521828
524.257174	2513.027795
524.619722	2510.214831
524.982213	2513.889833
525.344647	2511.838083
525.707025	2511.598628
526.069345	2513.065604
526.431608	2515.712210
526.793815	2510.620644
527.155964	2514.769514
527.518057	2512.546365
527.880093	2512.450583
528.242072	2516.034843
528.603995	2514.928310
528.965860	2512.034688
529.327669	2517.209432
529.689421	2514.968639
530.051117	2514.197343
530.412755	2514.106602
530.774337	2512.538803
531.135862	2513.443690
531.497331	2512.511077
531.858743	2512.316993
532.220098	2512.148114
532.581396	2508.987310
532.942638	2513.216838
533.303824	2514.809843
533.664953	2514.887981
534.026025	2512.049811
534.387040	2516.193640
534.747999	2513.322703
535.108902	2515.656757
535.469748	2514.245234
535.830537	2514.497292
536.191270	2513.368073
536.551947	2514.509894
536.912567	2511.444873
537.273131	2510.519821
537.633638	2515.071983
537.994089	2515.117353
538.354483	2514.575429
538.714821	2513.615090
539.075103	2512.311951
539.435328	2514.459483
539.795497	2513.272291
540.155609	2513.010151
540.515665	2513.136180
540.875665	2514.585512
541.235609	2516.090296
541.595496	2516.057529
541.955328	2513.869668
542.315102	2516.027282
542.674821	2511.313803
543.034483	2514.993845
543.394090	2515.598784
543.753640	2516.740605
544.113134	2515.515605
544.472571	2516.395286
544.831953	2514.625841
545.191278	2513.625172
545.550548	2513.461334
545.909761	2512.599297
546.268918	2514.172137
546.628019	2513.000069
546.987064	2512.453104
547.346053	2515.187930
547.704986	2513.680625
548.063863	2512.322034
548.422684	2513.748680
548.781449	2514.076355
549.140158	2512.959740
549.498811	2516.319669
549.857408	2516.538959
550.215949	2511.928824
550.574434	2511.538134
550.932864	2513.736077
551.291237	2510.242558
551.649555	2515.069463
552.007817	2514.550224
552.366022	2513.978053
552.724173	2515.114833
553.082267	2513.342867
553.440305	2514.698938
553.798288	2514.174658
554.156215	2515.200532
554.514086	2516.067611
554.871902	2511.391941
555.229661	2514.172137
555.587365	2514.668691
555.945014	2514.860255
556.302606	2515.286232
556.660143	2512.831190
557.017625	2514.333454
557.375050	2511.875892
557.732421	2516.042405
558.089735	2513.365552
558.446994	2515.850841
558.804197	2512.516118
559.161345	2516.551562
559.518437	2514.514936
559.875474	2516.455780
560.232455	2515.515605
560.589381	2515.510563
560.946251	2518.381501
561.303065	2512.884122
561.659825	2517.337982
562.016528	2513.068124
562.373177	2514.570388
562.729770	2515.702127
563.086307	2515.021572
563.442789	2514.212466
563.799216	2514.729185
564.155587	2511.946468
564.511904	2514.978722
564.868164	2516.677591
565.224370	2516.833866
565.580520	2516.675070
565.936615	2515.071983
566.292654	2514.454442
566.648638	2516.027282
567.004567	2515.757580
567.360441	2514.734226
567.716260	2516.571726
568.072023	2515.815553
568.427732	2508.974708
568.783385	2512.173320
569.138982	2512.006962
569.494525	2511.651560
569.850013	2511.472599
570.205445	2516.097858
570.560823	2514.731705
570.916145	2514.101561
571.271412	2515.142559
571.626625	2514.870337
571.981782	2515.389576
572.336884	2513.791530
572.691931	2515.225738
573.046923	2516.244051
573.401860	2513.930162
573.756743	2514.388907
574.111570	2513.670542
574.466342	2514.792199
574.821059	2514.295645
575.175722	2512.710203
575.530330	2516.014679
575.884882	2515.477796
576.239380	2517.620286
576.593823	2518.865451
576.948211	2516.657426
577.302544	2515.767662
577.656823	2516.589370
578.011047	2512.916890
578.365216	2516.100378
578.719330	2510.920593
579.073389	2515.497961
579.427394	2511.913700
579.781344	2513.330264
580.135239	2514.290604
580.489080	2516.228928
580.842866	2512.503515
581.196597	2516.823784
581.550273	2515.571057
581.903895	2513.547034
582.257463	2512.828670
582.610975	2513.179030
582.964434	2514.656088
583.317837	2515.150121
583.671186	2517.746315
584.024481	2514.764473
584.377721	2517.035513
584.730906	2512.047291
585.084037	2515.382014
585.437113	2515.840759
585.790135	2515.500481
586.143103	2515.888650
586.496016	2513.662981
586.848874	2510.837414
587.201679	2512.059894
587.554428	2510.035870
587.907124	2514.086438
588.259765	2510.081241
588.612352	2516.201202
588.964884	2517.343023
589.317362	2517.705986
589.669786	2514.295645
590.022155	2512.992507
590.374470	2515.548372
590.726731	2517.189268
591.078937	2512.110305
591.431090	2516.453259
591.783188	2515.785306
592.135232	2517.143897
592.487222	2515.235821
592.839157	2515.598784
593.191038	2517.360667
593.542866	2516.584329
593.894639	2516.954854
594.246358	2517.224556
594.598022	2516.806140
594.949633	2516.707838
595.301190	2513.935203
595.652692	2514.101561
596.004141	2513.153824
596.355535	2513.967970
596.706876	2514.487209
597.058162	2513.874709
597.409395	2514.729185
597.760573	2516.604494
598.111698	2513.302538
598.462768	2516.695235
598.813785	2513.826818
599.164748	2515.679442
599.515657	2513.809174
599.866511	2513.814215
600.217312	2514.348577
600.568060	2515.606345
600.918753	2516.937210
601.269392	2515.835718
601.619978	2513.418485
601.970510	2517.486696
602.320988	2514.028464
602.671412	2516.372601
603.021783	2514.923269
603.372100	2514.333454
603.722363	2515.621469
604.072572	2514.847652
604.422728	2517.781603
604.772830	2511.175171
605.122878	2512.808505
605.472872	2512.117867
605.822813	2511.505367
606.172701	2514.456962
606.522534	2514.572909
606.872314	2516.697755
607.222041	2517.201871
607.571714	2516.617097
607.921333	2516.912004
608.270899	2514.005779
608.620411	2513.783968
608.969870	2515.646675
609.319276	2514.088958
609.668627	2515.198012
610.017926	2518.714217
610.367171	2516.488547
610.716362	2517.353105
611.065500	2513.733557
611.414585	2515.908815
611.763616	2516.775893
612.112594	2514.502333
612.461518	2513.751201
612.810389	2512.674914
613.159207	2517.040554
613.507971	2516.264216
613.856682	2516.206243
614.205340	2516.186078
614.553945	2516.962416
614.902496	2516.002076
615.250994	2514.943434
615.599439	2515.412261
615.947830	2516.972498
616.296169	2517.426202
616.644454	2517.839577
616.992686	2514.076355
617.340864	2517.075842
617.688990	2514.429236
618.037063	2516.997704
618.385082	2515.805471
618.733048	2515.742457
619.080961	2512.964781
619.428821	2514.318331
619.776628	2515.084586
620.124382	2515.550893
620.472083	2516.576767
620.819731	2516.813702
621.167326	2516.264216
621.514868	2515.180368
621.862357	2513.607528
622.209793	2516.385204
622.557176	2512.755573
622.904506	2515.155162
623.251783	2511.701972
623.599007	2513.239524
623.946179	2509.267094
624.293297	2512.211128
624.640363	2515.634072
624.987376	2517.766480
625.334336	2514.847652
625.681243	2518.401665
626.028097	2512.279184
626.374899	2514.162055
626.721647	2515.182888
627.068343	2515.722292
627.414987	2516.198681
627.761577	2515.898732
628.108115	2516.483506
628.454600	2517.975688
628.801032	2513.915038
629.147412	2514.230110
629.493739	2515.621469
629.840014	2514.618279
630.186236	2515.777745
630.532405	2517.587519
630.878521	2513.937723
631.224585	2516.831346
631.570597	2514.935872
631.916556	2514.184740
632.262462	2515.344205
632.608316	2515.666839
632.954117	2512.858917
633.299866	2516.407889
633.645562	2512.155676
633.991206	2513.932682
634.336797	2518.134484
634.682336	2517.063239
635.027823	2514.870337
635.373257	2512.309431
635.718639	2514.593073
636.063968	2516.828825
636.409245	2512.432939
636.754470	2513.549555
637.099642	2514.522497
637.444762	2515.744977
637.789829	2514.940913
638.134845	2515.818074
638.479808	2513.988135
638.824719	2513.544513
639.169577	2514.462003
639.514383	2515.011489
639.859137	2513.332785
640.203839	2515.540810
640.548489	2515.792868
640.893086	2513.443690
641.237632	2512.160717
641.582125	2510.741632
641.926566	2511.011334
642.270955	2515.205574
642.615292	2516.186078
642.959576	2514.237672
643.303809	2514.436798
643.647990	2515.109792
643.992118	2515.089627
644.336195	2514.925790
