Dividing Wavelength (nm)	Counts (n)	Blue Motor Position (mm): 0.000000	Red Motor Position (mm): 42.000000	
326.493990	2075.248954
326.888308	2075.248954
327.282561	2075.248954
327.676750	2052.717517
328.070874	2055.414534
328.464933	2060.286809
328.858929	2069.449107
329.252859	2083.120716
329.646726	2098.110587
330.040528	2113.846548
330.434265	2132.450927
330.827938	2152.451705
331.221547	2175.023471
331.615091	2195.046934
332.008571	2213.492516
332.401986	2237.687534
332.795338	2254.219998
333.188625	2273.792278
333.581847	2292.981430
333.975006	2309.612196
334.368100	2328.488797
334.761129	2346.889008
335.154095	2360.966431
335.546996	2393.282747
335.939833	2452.730554
336.332606	2464.668006
336.725315	2476.761734
337.117960	2481.807929
337.510540	2494.962820
337.903056	2502.448934
338.295508	2506.239882
338.687896	2517.239679
339.080220	2522.197654
339.472480	2529.966072
339.864676	2533.192411
340.256807	2531.511186
340.648875	2535.652494
341.040879	2540.446631
341.432818	2538.261291
341.824694	2538.722556
342.216506	2541.752290
342.608253	2538.795653
342.999937	2540.297917
343.391557	2539.549306
343.783113	2534.364479
344.174605	2533.941022
344.566033	2535.960004
344.957397	2534.072092
345.348697	2529.799714
345.739934	2528.375588
346.131106	2523.846111
346.522215	2529.446833
346.913260	2523.750329
347.304241	2524.388035
347.695159	2524.874507
348.086012	2520.483662
348.476802	2517.474093
348.867528	2519.929135
349.258191	2513.746160
349.648789	2515.601304
350.039324	2515.767662
350.429796	2513.549555
350.820203	2512.475789
351.210548	2514.230110
351.600828	2511.611231
351.991045	2514.003258
352.381198	2511.044101
352.771288	2514.063752
353.161314	2510.655932
353.551276	2514.194822
353.941175	2514.010820
354.331010	2513.143742
354.720782	2512.957219
355.110490	2513.050480
355.500135	2514.459483
355.889717	2513.400841
356.279235	2512.601818
356.668689	2518.197498
357.058080	2516.586850
357.447408	2514.613238
357.836672	2512.871519
358.225873	2512.463186
358.615010	2514.857734
359.004084	2521.328055
359.393095	2522.316121
359.782043	2519.190606
360.170927	2521.139012
360.559748	2523.173117
360.948505	2525.209743
361.337199	2528.000022
361.725830	2524.367871
362.114398	2527.306863
362.502903	2526.966586
362.891344	2528.468849
363.279722	2527.747964
363.668037	2531.533871
364.056289	2529.963552
364.444478	2530.044210
364.832603	2532.151412
365.220665	2531.886752
365.608665	2534.929088
365.996601	2534.818183
366.384474	2534.946732
366.772284	2535.624767
367.160031	2535.743234
367.547715	2537.835313
367.935336	2538.077289
368.322893	2544.338402
368.710388	2541.807742
369.097820	2543.806560
369.485189	2544.759338
369.872495	2547.632796
370.259738	2549.377035
370.646918	2547.637837
371.034035	2549.860986
371.421090	2552.736964
371.808081	2556.497665
372.195010	2560.906154
372.581875	2563.968655
372.968678	2570.123904
373.355418	2579.525656
373.742096	2588.025041
374.128710	2595.916967
374.515262	2606.362238
374.901751	2619.872530
375.288177	2635.106897
375.674540	2649.663229
376.060841	2666.180570
376.447079	2687.875175
376.833254	2715.009186
377.219367	2734.518451
377.605417	2765.841661
377.991404	2792.746299
378.377329	2827.162256
378.763191	2861.555528
379.148991	2908.821387
379.534727	2955.532718
379.920402	2997.795231
380.306013	3042.732077
380.691563	3104.498814
381.077049	3154.925476
381.462474	3208.094526
381.847835	3279.026081
382.233134	3345.198787
382.618371	3402.443609
383.003545	3486.283039
383.388657	3564.698187
383.773706	3648.267915
384.158693	3719.340623
384.543618	3810.285558
384.928480	3883.949419
385.313280	3981.465499
385.698017	4077.980910
386.082692	4196.563972
386.467305	4254.479268
386.851856	4375.018297
387.236344	4522.910628
387.620770	4587.956636
388.005133	4698.892267
388.389435	4840.725131
388.773674	4918.444600
389.157851	5046.114342
389.541965	5175.598899
389.926018	5197.326272
390.310008	5369.708528
390.693936	5491.515407
391.077802	5600.613538
391.461606	5731.106326
391.845348	5834.417213
392.229027	5955.515810
392.612645	6172.862638
392.996200	6287.687519
393.379694	6458.118849
393.763125	6667.465365
394.146494	6760.983810
394.529801	6890.639766
394.913047	7125.696167
395.296230	7126.701877
395.679351	7182.996442
396.062410	7433.882067
396.445408	7330.760223
396.828343	7488.825602
397.211217	7623.555480
397.594028	7508.700351
397.976778	7707.798202
398.359466	7878.022844
398.742092	7859.448712
399.124656	7992.394022
399.507158	8192.273251
399.889598	8208.977114
400.271977	8413.864730
400.654294	8447.769010
401.036549	8647.711254
401.418742	8679.566305
401.800874	8968.888207
402.182944	9056.765601
402.564952	9416.298173
402.946898	9257.761446
403.328783	9306.675762
403.710606	9505.753447
404.092367	9758.983208
404.474067	10116.164082
404.855705	9916.294934
405.237282	9871.282472
405.618797	10292.029775
406.000250	10534.572289
406.381642	10891.740560
406.762972	10842.029742
407.144240	10660.381845
407.525447	10917.397512
407.906593	10864.271312
408.287677	11123.663883
408.668700	11263.298804
409.049661	11253.806311
409.430560	11420.176991
409.811399	11392.037270
410.192176	11556.371324
410.572891	11632.407047
410.953545	12107.906322
411.334138	11588.080182
411.714669	12178.248062
412.095139	11527.949298
412.475547	11999.771052
412.855894	11872.310518
413.236180	12188.592510
413.616405	11891.696275
413.996568	12158.824497
414.376670	12146.125830
414.756711	12034.779344
415.136691	12306.036271
415.516609	12477.100265
415.896466	12562.053790
416.276262	12848.121627
416.655997	13303.388230
417.035670	13360.743958
417.415283	13967.913130
417.794834	14065.729159
418.174324	13812.446466
418.553753	13730.590731
418.933121	14209.497826
419.312428	14044.054718
419.691674	13945.923617
420.070859	14423.008335
420.449983	14069.252926
420.829045	14631.011384
421.208047	14384.418302
421.586988	14835.616695
421.965867	15087.470221
422.344686	15085.849490
422.723444	15659.074052
423.102141	14348.111912
423.480777	15553.829883
423.859352	15046.909097
424.237866	16151.408260
424.616319	15867.576175
424.994712	16518.406781
425.373044	16313.073023
425.751314	17012.810383
426.129524	16137.729089
426.507673	17223.918782
426.885762	16945.798325
427.263789	17119.652597
427.641756	17306.944066
428.019662	17370.959158
428.397508	17427.997293
428.775292	17709.858287
429.153016	17703.987863
429.530679	17765.621010
429.908282	17796.228376
430.285824	17528.422119
430.663305	18253.150998
431.040726	17858.227006
431.418086	17701.318572
431.795385	18332.539089
432.172624	18776.959651
432.549802	18333.486826
432.926920	18549.782573
433.303977	18427.736238
433.680974	18677.348971
434.057910	18988.473863
434.434786	19029.135810
434.811601	18956.996898
435.188355	20004.563791
435.565050	19675.590694
435.941683	19633.759199
436.318257	20536.425687
436.694770	20342.404278
437.071222	20939.788570
437.447614	20011.182826
437.823946	20036.028153
438.200218	20218.147397
438.576429	19995.073819
438.952580	20292.796803
439.328670	20268.793349
439.704700	20698.261848
440.080670	20249.836090
440.456580	20879.186339
440.832429	21046.235054
441.208218	20043.804133
441.583947	20493.517906
441.959616	20621.323758
442.335224	20865.643280
442.710773	21013.369252
443.086261	21566.076318
443.461689	20894.897095
443.837057	21061.575286
444.212365	21726.291749
444.587612	21730.075135
444.962800	21322.961633
445.337927	21757.824167
445.712995	20465.390788
446.088002	22371.521633
446.462949	22588.250919
446.837837	22760.050922
447.212664	22779.187142
447.587431	25742.760500
447.962139	28733.712365
448.336786	31062.042366
448.711374	29401.012420
449.085901	25640.525900
449.460369	25663.390053
449.834776	25652.370091
450.209124	28214.715494
450.583412	27701.321866
450.957640	28200.247383
451.331808	26840.328077
451.705917	25458.976306
452.079965	25487.123589
452.453954	25883.746450
452.827883	25801.749562
453.201752	25588.637304
453.575562	25764.540805
453.949311	26901.033652
454.323001	26972.260115
454.696632	26758.961334
455.070202	28374.434372
455.443713	28565.146263
455.817164	29135.083993
456.190556	29703.249758
456.563888	29112.953328
456.937160	29563.879498
457.310373	27831.983533
457.683526	28281.190670
458.056619	28270.543753
458.429653	28261.757022
458.802628	28878.738800
459.175542	28997.304218
459.548398	30394.717105
459.921194	32027.413245
460.293930	32770.393622
460.666607	34879.196496
461.039224	36682.470159
461.411782	37058.459578
461.784280	35742.221870
462.156719	35198.203232
462.529099	34644.888707
462.901419	33294.156904
463.273680	32223.264592
463.645882	32377.347460
464.018024	32352.885261
464.390106	33314.407219
464.762130	36231.009627
465.134094	40580.754099
465.505999	46088.628051
465.877845	50655.512664
466.249631	51670.548991
466.621358	49822.227577
466.993026	47596.890870
467.364634	45452.673890
467.736184	43465.304851
468.107674	42187.929398
468.479105	41395.215518
468.850477	40667.784579
469.221790	39197.990805
469.593043	37419.144053
469.964238	36500.630699
470.335373	36442.707841
470.706449	38314.430291
471.077467	41087.072468
471.448425	45795.064018
471.819324	48586.055995
472.190164	46601.109230
472.560945	42944.122640
472.931667	39770.436509
473.302330	38655.023248
473.672934	37807.542272
474.043479	38336.893673
474.413965	37524.400825
474.784393	37152.250245
475.154761	38095.039276
475.525070	38145.856627
475.895321	37657.885537
476.265513	38288.087742
476.635645	39303.734048
477.005719	39155.224176
477.375734	39654.220269
477.745691	40414.418707
478.115588	41769.896757
478.485427	43913.188685
478.855207	47409.649813
479.224928	50053.364481
479.594591	51609.223354
479.964194	50520.560975
480.333739	50667.767709
480.703226	50729.536967
481.072653	51376.059906
481.442022	51852.030529
481.811333	52071.890372
482.180584	50792.231277
482.549777	50250.435788
482.918912	49725.697043
483.287988	49419.862842
483.657005	48600.178788
484.025964	47919.360879
484.394864	47907.010052
484.763706	47453.177656
485.132489	46560.948878
485.501213	46417.805315
485.869879	46546.967238
486.238487	46144.965466
486.607036	46338.684405
486.975527	45773.797911
487.343959	46020.078441
487.712333	46071.425113
488.080648	45970.806203
488.448905	46420.318330
488.817104	46218.931795
489.185244	47246.807941
489.553326	49019.620432
489.921350	51776.168725
490.289315	54590.501245
490.657222	55119.320804
491.025070	55342.593508
491.392861	54423.470174
491.760593	53171.968443
492.128267	51482.486226
492.495883	49938.075813
492.863440	48518.486890
493.230939	47127.713202
493.598380	46024.945675
493.965763	45688.453697
494.333088	44869.059509
494.700354	44367.089136
495.067563	44052.750508
495.434713	43912.273715
495.801805	43995.966951
496.168839	43595.853091
496.535815	43249.679577
496.902733	43285.325576
497.269593	42836.539375
497.636395	42753.196499
498.003139	43172.829707
498.369825	42607.718882
498.736453	42927.234774
499.103023	42424.102415
499.469535	42307.926504
499.835989	42398.831110
500.202385	42049.947976
500.568723	42076.648448
500.935003	42247.160435
501.301226	42062.760069
501.667390	42664.373889
502.033497	42906.944130
502.399546	42337.283663
502.765537	41639.338434
503.131470	42002.535924
503.497345	42376.513922
503.863163	41004.490806
504.228923	41643.048723
504.594625	42036.462890
504.960269	41309.896509
505.325856	42013.001360
505.691385	41365.974305
506.056856	41503.948165
506.422270	41955.312916
506.787625	41486.989723
507.152924	41714.136554
507.518164	41802.649133
507.883347	41006.398883
508.248472	41212.758516
508.613540	41739.947262
508.978550	42022.062834
509.343503	41771.295677
509.708398	41986.351300
510.073236	42507.581402
510.438016	42500.488498
510.802738	41955.116311
511.167403	42586.709873
511.532010	42796.184939
511.896561	43105.298410
512.261053	43967.862519
512.625488	43501.966642
512.989866	43359.783418
513.354186	43204.319275
513.718449	43191.255125
514.082655	43866.525244
514.446803	43534.605592
514.810894	44068.241974
515.174927	43972.838137
515.538904	43862.038617
515.902822	44551.789451
516.266684	43976.737470
516.630488	44393.277930
516.994235	44246.623203
517.357925	44829.899826
517.721558	45006.627557
518.085133	45304.113607
518.448651	45422.525270
518.812112	45182.702458
519.175516	45292.753367
519.538863	45623.090096
519.902152	45560.841928
520.265385	46034.251645
520.628560	46051.494912
520.991678	45835.761253
521.354739	46061.007569
521.717743	46377.854170
522.080690	46267.846111
522.443580	46814.503793
522.806413	46842.343565
523.169189	46808.096487
523.531908	46983.024525
523.894569	46817.533527
524.257174	46981.373547
524.619722	47274.914894
524.982213	47239.901560
525.344647	47156.467944
525.707025	47203.577526
526.069345	47598.516642
526.431608	47517.898510
526.793815	47838.082355
527.155964	47369.179430
527.518057	47523.020322
527.880093	47294.126732
528.242072	47820.430755
528.603995	47524.759520
528.965860	47494.590735
529.327669	47604.122405
529.689421	47484.150505
530.051117	47442.003939
530.412755	47590.624716
530.774337	47664.026436
531.135862	47452.673541
531.497331	47646.329466
531.858743	47542.917756
532.220098	47863.948516
532.581396	47578.714990
532.942638	47224.894045
533.303824	47542.748878
533.664953	47502.964092
534.026025	47212.429793
534.387040	47687.132565
534.747999	47628.554357
535.108902	47775.937531
535.469748	47296.579253
535.830537	47397.054490
536.191270	47599.308103
536.551947	47234.139522
536.912567	47547.898416
537.273131	47660.376641
537.633638	47158.166813
537.994089	47478.839650
538.354483	47056.698468
538.714821	47652.542688
539.075103	47988.439810
539.435328	47744.778159
539.795497	47615.255793
540.155609	47607.595760
540.515665	48070.580371
540.875665	47508.768980
541.235609	47837.492540
541.595496	47805.158579
541.955328	48473.746649
542.315102	47830.109770
542.674821	47590.372658
543.034483	47636.703383
543.394090	47609.397973
543.753640	47562.132114
544.113134	48566.085464
544.472571	47549.337666
544.831953	48790.275658
545.191278	47985.442844
545.550548	47723.668327
545.909761	48180.222946
546.268918	48373.762925
546.628019	48666.971556
546.987064	48208.221515
547.346053	47468.984194
547.704986	48337.418726
548.063863	47904.739012
548.422684	48062.499401
548.781449	47901.938651
549.140158	48297.686872
549.498811	48145.817071
549.857408	47549.665341
550.215949	48392.236233
550.574434	48310.751022
550.932864	48056.946570
551.291237	48786.104103
551.649555	48383.169718
552.007817	48608.292525
552.366022	48254.645500
552.724173	48408.191485
553.082267	48807.173606
553.440305	49066.273790
553.798288	48370.382831
554.156215	48678.813226
554.514086	48903.273122
554.871902	48583.807641
555.229661	48605.915621
555.587365	48421.379143
555.945014	48524.352272
556.302606	48432.855330
556.660143	48658.250360
557.017625	48716.238752
557.375050	48504.774951
557.732421	48834.395837
558.089735	48804.254778
558.446994	48697.392399
558.804197	49155.645886
559.161345	49064.665662
559.518437	48324.004216
559.875474	48616.852404
560.232455	48797.441658
560.589381	48949.364391
560.946251	48636.202873
561.303065	49310.200101
561.659825	49068.731353
562.016528	48748.716386
562.373177	48451.013566
562.729770	48936.993400
563.086307	48440.338923
563.442789	48875.241786
563.799216	48895.103932
564.155587	48698.340136
564.511904	48711.416889
564.868164	48783.195358
565.224370	48992.602368
565.580520	48730.805166
565.936615	48923.694836
566.292654	48618.631932
566.648638	48878.142970
567.004567	48815.574689
567.360441	48861.272748
567.716260	48706.040498
568.072023	48968.556064
568.427732	48940.353329
568.783385	48468.589549
569.138982	48856.077839
569.494525	48796.672883
569.850013	48536.067914
570.205445	48518.592754
570.560823	48435.847255
570.916145	48298.841296
571.271412	48329.819187
571.626625	48047.123882
571.981782	48077.786700
572.336884	47753.980786
572.691931	48072.609435
573.046923	47658.387906
573.401860	47491.359355
573.756743	47430.762166
574.111570	47540.135039
574.466342	47369.378556
574.821059	47463.832135
575.175722	46954.148796
575.530330	46963.477451
575.884882	46666.871082
576.239380	46601.338603
576.593823	46560.553148
576.948211	46478.319325
577.302544	45988.926631
577.656823	45962.979812
578.011047	46177.680033
578.365216	45905.387150
578.719330	45649.069682
579.073389	45486.636144
579.427394	45558.762452
579.781344	45492.567061
580.135239	45117.815246
580.489080	45179.705492
580.842866	44645.975849
581.196597	45048.025512
581.550273	44998.309653
581.903895	44833.176576
582.257463	45203.769440
582.610975	44559.615842
582.964434	44836.639849
583.317837	44436.518427
583.671186	44242.945681
584.024481	44431.459629
584.377721	43928.796097
584.730906	44187.485427
585.084037	44205.764651
585.437113	43901.049586
585.790135	43889.903595
586.143103	43451.048467
586.496016	43540.191191
586.848874	43538.890573
587.201679	43522.216957
587.554428	42987.335410
587.907124	43130.599962
588.259765	42867.257646
588.612352	43059.413828
588.964884	42426.607868
589.317362	42678.685725
589.669786	42597.303858
590.022155	42330.309227
590.374470	42704.337636
590.726731	42209.182903
591.078937	41685.379292
591.431090	41750.135433
591.783188	41377.042158
592.135232	41040.424151
592.487222	41265.002514
592.839157	41305.104892
593.191038	40931.079003
593.542866	40659.403661
593.894639	40047.142923
594.246358	40281.624633
594.598022	40213.483356
594.949633	39804.676026
595.301190	39730.172814
595.652692	39521.902584
596.004141	39803.884565
596.355535	38816.546858
596.706876	38716.278308
597.058162	38520.749594
597.409395	38946.873288
597.760573	38993.791307
598.111698	38547.497957
598.462768	38507.229220
598.813785	38499.906944
599.164748	37950.655588
599.515657	38274.635423
599.866511	37748.734692
600.217312	38290.580592
600.568060	37264.284848
600.918753	37966.061354
601.269392	37864.444296
601.619978	37491.789601
601.970510	37643.356932
602.320988	37776.733260
602.671412	38000.971345
603.021783	37739.474092
603.372100	37362.315126
603.722363	37414.213805
604.072572	37427.136802
604.422728	37408.570233
604.772830	37176.175561
605.122878	37220.005873
605.472872	37113.229194
605.822813	37324.607295
606.172701	37115.409493
606.522534	37301.990158
606.872314	37499.399222
607.222041	37224.338745
607.571714	37528.532050
607.921333	36964.805022
608.270899	37180.362239
608.620411	37461.230126
608.969870	37209.222845
609.319276	37156.845257
609.668627	37157.835843
610.017926	37545.929072
610.367171	37635.419635
610.716362	37631.560632
611.065500	37540.514873
611.414585	37650.389342
611.763616	37861.815334
612.112594	37743.938034
612.461518	37874.909731
612.810389	38100.234185
613.159207	37909.804598
613.507971	37915.304497
613.856682	38279.434601
614.205340	38123.771332
614.553945	38679.992083
614.902496	38102.270811
615.250994	38468.704722
615.599439	38457.253741
615.947830	38559.289216
616.296169	38569.512676
616.644454	38579.539531
616.992686	38659.701438
617.340864	39048.462620
617.688990	38687.702527
618.037063	39169.324284
618.385082	39031.287409
618.733048	39227.264785
619.080961	39165.094756
619.428821	39092.776883
619.776628	39128.183427
620.124382	38894.047037
620.472083	38928.674722
620.819731	38984.490378
621.167326	38625.386304
621.514868	38556.244359
621.862357	38095.646735
622.209793	38068.726973
622.557176	37706.094092
622.904506	37424.868283
623.251783	37053.988074
623.599007	36807.160579
623.946179	36564.572694
624.293297	36453.483307
624.640363	35879.472325
624.987376	35804.734698
625.334336	35527.496443
625.681243	35153.873846
626.028097	35067.667595
626.374899	34875.995364
626.721647	34785.060510
627.068343	34614.374602
627.414987	34340.443344
627.761577	34066.907815
628.108115	34290.248575
628.454600	33742.499483
628.801032	33826.351516
629.147412	33705.976323
629.493739	33622.451966
629.840014	33254.011675
630.186236	33456.252685
630.532405	33035.283572
630.878521	33153.556603
631.224585	32935.163736
631.570597	32617.311424
631.916556	32662.762467
632.262462	32544.529765
632.608316	32468.952787
632.954117	32309.700216
633.299866	32217.167317
633.645562	32091.128388
633.991206	31634.236013
634.336797	31199.033201
634.682336	31150.144091
635.027823	30893.824103
