Dividing Wavelength (nm)	Counts (n)	Blue Motor Position (mm): 0.000000	Red Motor Position (mm): 38.800000	
326.493990	2129.017901
326.888308	2129.017901
327.282561	2129.017901
327.676750	2093.513054
328.070874	2096.426841
328.464933	2095.693353
328.858929	2101.679724
329.252859	2113.292022
329.646726	2124.115379
330.040528	2136.748510
330.434265	2152.381128
330.827938	2174.405930
331.221547	2189.453774
331.615091	2208.375745
332.008571	2226.017263
332.401986	2251.023906
332.795338	2268.168871
333.188625	2287.786521
333.581847	2305.080199
333.975006	2324.622232
334.368100	2343.771055
334.761129	2358.786132
335.154095	2374.423791
335.546996	2396.201575
335.939833	2416.104051
336.332606	2432.442430
336.725315	2444.420212
337.117960	2452.312138
337.510540	2460.531740
337.903056	2472.012967
338.295508	2481.331540
338.687896	2488.774804
339.080220	2498.910044
339.472480	2503.794922
339.864676	2507.137207
340.256807	2511.611231
340.648875	2514.376304
341.040879	2519.556089
341.432818	2520.576923
341.824694	2521.867458
342.216506	2520.133302
342.608253	2522.500123
342.999937	2522.147243
343.391557	2520.342509
343.783113	2522.053981
344.174605	2520.095493
344.566033	2518.217663
344.957397	2517.839577
345.348697	2515.273629
345.739934	2512.085099
346.131106	2508.548730
346.522215	2511.873371
346.913260	2511.258350
347.304241	2507.684172
347.695159	2504.462875
348.086012	2504.167967
348.476802	2500.989520
348.867528	2498.756289
349.258191	2499.197390
349.648789	2498.479025
350.039324	2496.371823
350.429796	2495.315701
350.820203	2494.355361
351.210548	2491.507109
351.600828	2490.831595
351.991045	2492.974085
352.381198	2489.384784
352.771288	2492.512820
353.161314	2488.074084
353.551276	2492.633807
353.941175	2490.050216
354.331010	2489.863693
354.720782	2492.028869
355.110490	2488.633652
355.500135	2491.691112
355.889717	2489.415031
356.279235	2491.600371
356.668689	2492.837974
357.058080	2490.138436
357.447408	2491.983498
357.836672	2489.311687
358.225873	2490.224136
358.615010	2489.387304
359.004084	2495.240084
359.393095	2496.722183
359.782043	2497.125475
360.170927	2494.672954
360.559748	2497.362410
360.948505	2497.382574
361.337199	2497.007008
361.725830	2499.192348
362.114398	2496.462564
362.502903	2496.724704
362.891344	2500.881135
363.279722	2498.970538
363.668037	2503.063955
364.056289	2502.416166
364.444478	2503.111846
364.832603	2500.727380
365.220665	2504.135200
365.608665	2503.000940
365.996601	2504.672083
366.384474	2505.939933
366.772284	2506.290293
367.160031	2508.291631
367.547715	2510.434122
367.935336	2513.277332
368.322893	2516.574247
368.710388	2517.630369
369.097820	2524.897192
369.485189	2525.794517
369.872495	2535.050076
370.259738	2540.091230
370.646918	2549.450132
371.034035	2555.436502
371.421090	2566.466547
371.808081	2578.260326
372.195010	2584.970102
372.581875	2600.380909
372.968678	2613.871037
373.355418	2621.674743
373.742096	2641.443628
374.128710	2655.120278
374.515262	2670.634429
374.901751	2686.239321
375.288177	2695.825075
375.674540	2722.323900
376.060841	2741.538258
376.447079	2761.019797
376.833254	2782.772376
377.219367	2791.264199
377.605417	2829.443378
377.991404	2839.616427
378.377329	2859.617204
378.763191	2879.365925
379.148991	2915.684918
379.534727	2940.842796
379.920402	2970.797332
380.306013	2983.057418
380.691563	3031.591127
381.077049	3055.254303
381.462474	3074.256932
381.847835	3110.386882
382.233134	3129.238277
382.618371	3131.264821
383.003545	3203.134030
383.388657	3208.296172
383.773706	3242.709609
384.158693	3257.913729
384.543618	3283.265691
384.928480	3318.069817
385.313280	3366.820296
385.698017	3363.916591
386.082692	3415.411978
386.467305	3422.847680
386.851856	3453.628965
387.236344	3476.334322
387.620770	3508.998478
388.005133	3533.977396
388.389435	3559.352043
388.773674	3574.755289
389.157851	3614.499746
389.541965	3629.683701
389.926018	3594.191458
390.310008	3667.189886
390.693936	3686.726878
391.077802	3730.189186
391.461606	3714.428018
391.845348	3779.552164
392.229027	3780.446969
392.612645	3789.019451
392.996200	3868.271431
393.379694	3906.067482
393.763125	3976.000888
394.146494	3938.736679
394.529801	4003.843181
394.913047	4055.250347
395.296230	4018.696941
395.679351	4075.077205
396.062410	4097.714507
396.445408	4076.178698
396.828343	4111.020632
397.211217	4137.390908
397.594028	4054.262281
397.976778	4118.514308
398.359466	4149.335922
398.742092	4176.127134
399.124656	4096.121502
399.507158	4180.671734
399.889598	4205.640569
400.271977	4267.606433
400.654294	4234.158377
401.036549	4244.603648
401.418742	4213.093915
401.800874	4319.205163
402.182944	4338.548070
402.564952	4403.568872
402.946898	4390.292994
403.328783	4384.041963
403.710606	4299.834529
404.092367	4491.272346
404.474067	4455.938899
404.855705	4467.200837
405.237282	4393.168972
405.618797	4505.599306
406.000250	4536.335221
406.381642	4617.296151
406.762972	4577.526489
407.144240	4595.762863
407.525447	4591.966874
407.906593	4649.637674
408.287677	4694.541752
408.668700	4619.093323
409.049661	4671.052495
409.430560	4713.216706
409.811399	4641.710459
410.192176	4801.661230
410.572891	4738.399790
410.953545	4841.952652
411.334138	4723.503181
411.714669	4791.795692
412.095139	4688.053787
412.475547	4828.059232
412.855894	4807.919822
413.236180	4817.649249
413.616405	4774.212147
413.996568	4859.687431
414.376670	4801.935973
414.756711	4753.684569
415.136691	4788.244199
415.516609	4868.073391
415.896466	4903.472373
416.276262	4940.570224
416.655997	4922.437194
417.035670	5098.849852
417.415283	5195.261919
417.794834	5135.718331
418.174324	5088.346608
418.553753	5000.317979
418.933121	5180.398077
419.312428	5249.396350
419.691674	5187.291855
420.070859	5315.316998
420.449983	5226.227207
420.829045	5342.854301
421.208047	5245.000464
421.586988	5322.351928
421.965867	5329.843083
422.344686	5460.603052
422.723444	5317.207431
423.102141	5133.845542
423.480777	5439.359630
423.859352	5206.445719
424.237866	5465.256037
424.616319	5454.122649
424.994712	5564.707920
425.373044	5446.863387
425.751314	5588.323205
426.129524	5391.367845
426.507673	5582.929171
426.885762	5667.308004
427.263789	5596.104226
427.641756	5478.146267
428.019662	5600.452221
428.397508	5610.801710
428.775292	5554.665942
429.153016	5654.503473
429.530679	5583.639973
429.908282	5662.556716
430.285824	5536.855545
430.663305	5807.966278
431.040726	5544.071957
431.418086	5547.797369
431.795385	5648.189428
432.172624	5660.865409
432.549802	5657.036653
432.926920	5669.601729
433.303977	5676.815620
433.680974	5714.432710
434.057910	5733.515998
434.434786	5739.646041
434.811601	5708.335434
435.188355	5945.834274
435.565050	5816.962217
435.941683	5800.580988
436.318257	6016.092835
436.694770	5997.095247
437.071222	6031.624630
437.447614	5964.859589
437.823946	5875.177462
438.200218	6027.758065
438.576429	5896.791409
438.952580	5996.306307
439.328670	6037.812647
439.704700	5944.596671
440.080670	5934.695845
440.456580	6203.200302
440.832429	6087.528506
441.208218	5934.136277
441.583947	6092.073106
441.959616	6092.312561
442.335224	6022.195152
442.710773	6160.952912
443.086261	6189.541295
443.461689	5977.941383
443.837057	6128.319002
444.212365	6282.273320
444.587612	6174.279202
444.962800	6327.240412
445.337927	6310.639893
445.712995	5916.711528
446.088002	6498.362380
446.462949	6322.968035
446.837837	6258.010247
447.212664	6432.739160
447.587431	6571.348205
447.962139	7116.032275
448.336786	8042.704737
448.711374	7787.188813
449.085901	6857.481577
449.460369	6777.498630
449.834776	6715.346244
450.209124	7104.704803
450.583412	7249.895075
450.957640	7400.033239
451.331808	7168.697210
451.705917	6719.265741
452.079965	6643.774463
452.453954	6850.066040
452.827883	6728.473409
453.201752	6822.921947
453.575562	6624.605475
453.949311	6826.029818
454.323001	6714.564865
454.696632	6788.016998
455.070202	6926.870539
455.443713	7081.502892
455.817164	7187.170518
456.190556	7266.422497
456.563888	7341.782706
456.937160	7389.030921
457.310373	7037.783485
457.683526	7065.587969
458.056619	6956.678882
458.429653	6944.643127
458.802628	6878.230966
459.175542	6990.111814
459.548398	7343.529466
459.921194	7504.259095
460.293930	7505.592480
460.666607	8041.361270
461.039224	8347.593722
461.411782	8473.559553
461.784280	8498.553594
462.156719	8380.857775
462.529099	8256.888241
462.901419	7848.731219
463.273680	7741.662153
463.645882	7754.053309
464.018024	7617.470807
464.390106	7788.592775
464.762130	8179.640120
465.134094	8648.071697
465.505999	9667.216564
465.877845	10889.855168
466.249631	11542.072091
466.621358	11156.668318
466.993026	10527.786896
467.364634	10278.453947
467.736184	9908.428214
468.107674	9576.611906
468.479105	9607.594837
468.850477	9374.660762
469.221790	9144.758941
469.593043	8813.504722
469.964238	8678.124535
470.335373	8693.502575
470.706449	8752.942820
471.077467	8726.527174
471.448425	10035.790445
471.819324	11116.525610
472.190164	11141.028138
472.560945	9891.477334
472.931667	9099.184390
473.302330	8965.629101
473.672934	8608.866643
474.043479	8960.973595
474.413965	8899.784070
474.784393	8786.128736
475.154761	8946.013971
475.525070	9033.906489
475.895321	8861.017597
476.265513	9037.135348
476.635645	9200.178866
477.005719	9200.181387
477.375734	9323.490530
477.745691	9554.103154
478.115588	9688.699441
478.485427	9928.827243
478.855207	10464.480086
479.224928	11288.033225
479.594591	11921.260122
479.964194	11723.513300
480.333739	11664.882160
480.703226	11583.729666
481.072653	11676.645693
481.442022	11909.292422
481.811333	12100.745363
482.180584	11912.102866
482.549777	11619.983124
482.918912	11446.242277
483.287988	11460.163423
483.657005	11479.733182
484.025964	11159.942547
484.394864	11296.608228
484.763706	11259.492733
485.132489	11010.046358
485.501213	10977.019239
485.869879	11049.372399
486.238487	10890.182843
486.607036	11002.585450
486.975527	10780.865422
487.343959	10975.219547
487.712333	11019.490960
488.080648	10951.770620
488.448905	10992.399799
488.817104	10933.829153
489.185244	11196.014523
489.553326	11357.336488
489.921350	11891.844989
490.289315	12950.623408
490.657222	13291.463381
491.025070	13201.894680
491.392861	13077.342892
491.760593	12703.364894
492.128267	12349.861542
492.495883	12026.337932
492.863440	11685.472753
493.230939	11350.321722
493.598380	11284.058275
493.965763	11155.261836
494.333088	11051.313243
494.700354	10971.025307
495.067563	11041.563652
495.434713	10859.348626
495.801805	10988.623975
496.168839	10915.605382
496.535815	10853.871412
496.902733	10846.135761
497.269593	10780.557912
497.636395	10875.490400
498.003139	10868.021931
498.369825	10737.198947
498.736453	10895.115612
499.103023	10814.888169
499.469535	10840.648465
499.835989	10840.630821
500.202385	10796.056939
500.568723	10654.740794
500.935003	10873.378157
501.301226	10679.276090
501.667390	10936.647158
502.033497	11035.310101
502.399546	10892.267360
502.765537	10807.565893
503.131470	10878.910823
503.497345	11050.993130
503.863163	10662.776393
504.228923	10972.157046
504.594625	11039.232118
504.960269	10782.468509
505.325856	11001.809113
505.691385	10797.246651
506.056856	10951.707605
506.422270	10973.437499
506.787625	10859.487257
507.152924	10983.993675
507.518164	10968.860131
507.883347	10887.702595
508.248472	10801.622373
508.613540	11035.100893
508.978550	10924.508060
509.343503	10884.569518
509.708398	11006.053764
510.073236	11124.052052
510.438016	11134.439350
510.802738	11073.748899
511.167403	11129.388114
511.532010	11028.260047
511.896561	11260.654719
512.261053	11327.820532
512.625488	11197.148783
512.989866	11179.388798
513.354186	11169.346820
513.718449	11067.873434
514.082655	11270.127047
514.446803	11160.620582
514.810894	11288.320571
515.174927	11148.962914
515.538904	11170.707931
515.902822	11322.144193
516.266684	11204.662623
516.630488	11152.937864
516.994235	11206.933663
517.357925	11275.931935
517.721558	11355.385561
518.085133	11376.901206
518.448651	11385.098122
518.812112	11266.910791
519.175516	11283.193717
519.538863	11404.504044
519.902152	11316.926598
520.265385	11483.478760
520.628560	11391.268494
520.991678	11364.880574
521.354739	11428.154617
521.717743	11363.738753
522.080690	11341.227481
522.443580	11474.124899
522.806413	11434.524115
523.169189	11460.160903
523.531908	11514.318018
523.894569	11333.645585
524.257174	11345.121772
524.619722	11457.519338
524.982213	11404.471276
525.344647	11448.256218
525.707025	11408.337841
526.069345	11503.287974
526.431608	11418.914182
526.793815	11532.927438
527.155964	11316.611526
527.518057	11375.391380
527.880093	11322.791981
528.242072	11388.516024
528.603995	11292.298041
528.965860	11217.245343
529.327669	11258.890315
529.689421	11216.300127
530.051117	11184.319047
530.412755	11290.213524
530.774337	11179.683706
531.135862	11159.579584
531.497331	11188.901455
531.858743	11030.498319
532.220098	11205.960720
532.581396	11076.428272
532.942638	11056.886239
533.303824	11019.289314
533.664953	11024.811898
534.026025	10938.950965
534.387040	11037.644155
534.747999	11039.524505
535.108902	11094.967115
535.469748	10856.621361
535.830537	10963.546755
536.191270	10941.358116
536.551947	10963.662702
536.912567	10954.089550
537.273131	10882.961390
537.633638	10864.944306
537.994089	10850.254384
538.354483	10795.683894
538.714821	10942.804928
539.075103	10944.685278
539.435328	10913.901472
539.795497	10740.755481
540.155609	10895.922197
540.515665	10985.652215
540.875665	10720.182533
541.235609	10790.370518
541.595496	10782.816348
541.955328	10938.257807
542.315102	10821.466875
542.674821	10763.092834
543.034483	10771.209092
543.394090	10772.804617
543.753640	10704.600326
544.113134	10925.370097
544.472571	10772.958372
544.831953	10913.649414
545.191278	10723.436597
545.550548	10745.892417
545.909761	10883.087419
546.268918	10855.610610
546.628019	10936.697570
546.987064	10803.197733
547.346053	10716.623478
547.704986	10814.540330
548.063863	10798.111209
548.422684	10795.812443
548.781449	10704.058402
549.140158	10801.498865
549.498811	10685.708602
549.857408	10538.290140
550.215949	10758.162586
550.574434	10609.715728
550.932864	10698.366939
551.291237	10757.121587
551.649555	10705.782477
552.007817	10719.789323
552.366022	10675.623774
552.724173	10663.182206
553.082267	10646.054886
553.440305	10773.827971
553.798288	10582.649773
554.156215	10725.800898
554.514086	10702.230984
554.871902	10546.862622
555.229661	10586.334857
555.587365	10554.507532
555.945014	10451.814187
556.302606	10562.374252
556.660143	10453.991965
557.017625	10596.500343
557.375050	10493.852369
557.732421	10625.325661
558.089735	10530.841835
558.446994	10530.912411
558.804197	10559.210928
559.161345	10545.854391
559.518437	10402.322659
559.875474	10482.950874
560.232455	10506.956848
560.589381	10449.991810
560.946251	10440.156519
561.303065	10540.006653
561.659825	10462.425816
562.016528	10387.690710
562.373177	10268.989181
562.729770	10373.051199
563.086307	10277.997723
563.442789	10367.725220
563.799216	10230.948634
564.155587	10278.877404
564.511904	10223.001255
564.868164	10199.171721
565.224370	10215.124452
565.580520	10122.057190
565.936615	10121.505184
566.292654	9984.194236
566.648638	10098.888047
567.004567	10048.204287
567.360441	10023.855513
567.716260	9924.436398
568.072023	10005.016722
568.427732	9941.357031
568.783385	9847.596610
569.138982	9901.728520
569.494525	9915.352239
569.850013	9778.958780
570.205445	9838.683850
570.560823	9732.169311
570.916145	9637.549374
571.271412	9687.277836
571.626625	9622.128484
571.981782	9591.952137
572.336884	9547.312720
572.691931	9551.406137
573.046923	9476.242533
573.401860	9421.654398
573.756743	9342.611627
574.111570	9366.892344
574.466342	9341.797480
574.821059	9349.951547
575.175722	9237.997602
575.530330	9226.604594
575.884882	9207.405360
576.239380	9112.213252
576.593823	9088.235004
576.948211	9075.720339
577.302544	8962.140622
577.656823	8949.048746
578.011047	8941.408877
578.365216	8883.851503
578.719330	8810.227972
579.073389	8791.459756
579.427394	8735.439934
579.781344	8692.406124
580.135239	8626.399776
580.489080	8619.284188
580.842866	8501.048965
581.196597	8486.013724
581.550273	8502.218513
581.903895	8446.975029
582.257463	8490.860793
582.610975	8353.766615
582.964434	8363.236422
583.317837	8270.267463
583.671186	8238.503153
584.024481	8208.972073
584.377721	8123.819423
584.730906	8080.238648
585.084037	8084.037157
585.437113	8011.366404
585.790135	8002.715784
586.143103	7897.764002
586.496016	7852.446550
586.848874	7876.434880
587.201679	7847.347423
587.554428	7724.262610
587.907124	7737.200732
588.259765	7692.541150
588.612352	7667.373189
588.964884	7549.374901
589.317362	7533.112139
589.669786	7501.073086
590.022155	7532.822273
590.374470	7511.339395
590.726731	7448.128367
591.078937	7304.715102
591.431090	7361.891869
591.783188	7245.100937
592.135232	7212.411575
592.487222	7192.670417
592.839157	7206.011830
593.191038	7127.606765
593.542866	7068.731129
593.894639	6969.019626
594.246358	6984.919426
594.598022	6969.727908
594.949633	6872.468927
595.301190	6832.631209
595.652692	6829.001578
596.004141	6878.954372
596.355535	6701.286466
596.706876	6665.799264
597.058162	6587.016111
597.409395	6626.503469
597.760573	6643.996273
598.111698	6559.630043
598.462768	6524.324322
598.813785	6480.957796
599.164748	6425.885711
599.515657	6403.752525
599.866511	6307.839532
600.217312	6376.958792
600.568060	6260.608962
600.918753	6305.553369
601.269392	6261.801194
601.619978	6180.522671
601.970510	6192.404671
602.320988	6174.405231
602.671412	6176.746847
603.021783	6117.314163
603.372100	6080.929636
603.722363	6050.143309
604.072572	6015.510582
604.422728	5994.380586
604.772830	5927.852478
605.122878	5904.605198
605.472872	5884.135592
605.822813	5872.377101
606.172701	5819.865922
606.522534	5833.666081
606.872314	5816.097659
607.222041	5766.412047
607.571714	5778.775477
607.921333	5726.097940
608.270899	5703.657243
608.620411	5733.074897
608.969870	5651.786291
609.319276	5627.629082
609.668627	5612.472853
610.017926	5609.939673
610.367171	5601.019351
610.716362	5571.757974
611.065500	5542.660434
611.414585	5524.096385
611.763616	5503.132746
612.112594	5465.999607
612.461518	5444.443633
612.810389	5455.319923
613.159207	5396.464452
613.507971	5348.208006
613.856682	5381.847626
614.205340	5341.765412
614.553945	5356.220920
614.902496	5280.505310
615.250994	5285.380106
615.599439	5254.787864
615.947830	5231.243155
616.296169	5199.277198
616.644454	5178.636194
616.992686	5151.411443
617.340864	5155.182226
617.688990	5089.241413
618.037063	5115.750320
618.385082	5065.298453
618.733048	5077.606430
619.080961	5026.353018
619.428821	5012.515051
619.776628	4986.835413
620.124382	4951.716215
620.472083	4917.874949
620.819731	4908.442951
621.167326	4839.003577
621.514868	4821.916586
621.862357	4753.583746
622.209793	4741.227877
622.557176	4692.421947
622.904506	4657.275022
623.251783	4610.256180
623.599007	4565.621804
623.946179	4550.941964
624.293297	4508.928988
624.640363	4461.481648
624.987376	4437.021969
625.334336	4404.758585
625.681243	4362.755691
626.028097	4339.248790
626.374899	4312.087053
626.721647	4285.109319
627.068343	4246.287393
627.414987	4217.777147
627.761577	4182.002599
628.108115	4179.981096
628.454600	4129.967809
628.801032	4122.108650
629.147412	4101.366823
629.493739	4077.648194
629.840014	4039.408521
630.186236	4044.444634
630.532405	3988.099657
630.878521	3991.341119
631.224585	3960.814412
631.570597	3922.703289
631.916556	3915.343205
632.262462	3906.269128
632.608316	3873.254611
632.954117	3851.416333
633.299866	3835.335052
633.645562	3812.841423
633.991206	3778.869088
634.336797	3745.363059
634.682336	3722.773648
635.027823	3693.794575
635.373257	3680.097760
635.718639	3642.546205
636.063968	3636.539671
636.409245	3595.678598
636.754470	3577.472471
637.099642	3555.190571
637.444762	3528.202754
637.789829	3515.103316
638.134845	3494.611025
638.479808	3477.927327
638.824719	3467.257724
639.169577	3439.788477
639.514383	3430.981581
639.859137	3405.894279
640.203839	3395.050757
640.548489	3376.327912
