Dividing Wavelength (nm)	Counts (n)	Blue Motor Position (mm): 0.000000	Red Motor Position (mm): 37.900000	
326.493990	2128.445730
326.888308	2128.445730
327.282561	2128.445730
327.676750	2096.184866
328.070874	2093.699577
328.464933	2095.867273
328.858929	2101.394898
329.252859	2112.593822
329.646726	2124.538836
330.040528	2135.586524
330.434265	2154.800882
330.827938	2172.618841
331.221547	2189.620132
331.615091	2209.389017
332.008571	2227.433827
332.401986	2246.910325
332.795338	2267.115269
333.188625	2283.836777
333.581847	2305.740590
333.975006	2322.290698
334.368100	2341.021105
334.761129	2357.074660
335.154095	2374.804398
335.546996	2395.974723
335.939833	2415.012641
336.332606	2431.381268
336.725315	2442.665890
337.117960	2452.954885
337.510540	2460.539301
337.903056	2473.810139
338.295508	2478.228710
338.687896	2491.270175
339.080220	2497.435506
339.472480	2501.745693
339.864676	2505.768534
340.256807	2513.184071
340.648875	2513.486540
341.040879	2517.514422
341.432818	2519.407375
341.824694	2520.206398
342.216506	2519.387211
342.608253	2518.852848
342.999937	2520.498785
343.391557	2521.776718
343.783113	2519.235976
344.174605	2515.707168
344.566033	2515.807992
344.957397	2514.139370
345.348697	2514.235152
345.739934	2512.785820
346.131106	2512.687517
346.522215	2507.066631
346.913260	2507.684172
347.304241	2504.737618
347.695159	2504.755262
348.086012	2503.099243
348.476802	2502.433810
348.867528	2499.025990
349.258191	2496.117245
349.648789	2498.617657
350.039324	2494.229333
350.429796	2497.553973
350.820203	2490.846718
351.210548	2491.479383
351.600828	2491.181955
351.991045	2493.339569
352.381198	2489.185658
352.771288	2489.858652
353.161314	2489.236070
353.551276	2489.367140
353.941175	2488.384115
354.331010	2490.740854
354.720782	2489.654485
355.110490	2490.884527
355.500135	2489.200782
355.889717	2489.770432
356.279235	2492.399394
356.668689	2491.547439
357.058080	2492.069198
357.447408	2490.004846
357.836672	2486.649958
358.225873	2487.567448
358.615010	2485.734988
359.004084	2492.916112
359.393095	2491.819661
359.782043	2490.841677
360.170927	2493.606750
360.559748	2495.645897
360.948505	2497.594303
361.337199	2498.206803
361.725830	2496.933912
362.114398	2497.800990
362.502903	2498.877276
362.891344	2500.792915
363.279722	2498.784015
363.668037	2501.919613
364.056289	2503.530261
364.444478	2501.007164
364.832603	2502.915241
365.220665	2501.886845
365.608665	2504.046980
365.996601	2505.876918
366.384474	2506.297855
366.772284	2509.209121
367.160031	2507.600993
367.547715	2510.645850
367.935336	2511.555778
368.322893	2513.806653
368.710388	2519.477952
369.097820	2524.725793
369.485189	2529.003212
369.872495	2534.382123
370.259738	2539.584594
370.646918	2549.674463
371.034035	2554.892057
371.421090	2567.467216
371.808081	2576.110274
372.195010	2584.455904
372.581875	2599.894438
372.968678	2610.828700
373.355418	2618.912191
373.742096	2639.623771
374.128710	2654.096924
374.515262	2668.537309
374.901751	2684.797551
375.288177	2695.061340
375.674540	2721.078735
376.060841	2738.654718
376.447079	2755.890423
376.833254	2776.985131
377.219367	2789.497275
377.605417	2828.372133
377.991404	2835.147444
378.377329	2860.494365
378.763191	2876.469782
379.148991	2913.945719
379.534727	2938.017229
379.920402	2968.488483
380.306013	2981.408961
380.691563	3028.884027
381.077049	3051.165927
381.462474	3068.157136
381.847835	3108.229268
382.233134	3132.512506
382.618371	3127.920015
383.003545	3199.025490
383.388657	3200.825182
383.773706	3235.997312
384.158693	3251.647574
384.543618	3278.496760
384.928480	3316.350784
385.313280	3361.663195
385.698017	3361.942979
386.082692	3414.771751
386.467305	3417.259561
386.851856	3449.709468
387.236344	3473.687716
387.620770	3505.401615
388.005133	3529.972199
388.389435	3559.359605
388.773674	3571.705391
389.157851	3612.102677
389.541965	3628.186479
389.926018	3596.500306
390.310008	3664.361799
390.693936	3683.094726
391.077802	3720.774831
391.461606	3714.428018
391.845348	3776.207358
392.229027	3770.384826
392.612645	3786.897125
392.996200	3867.787480
393.379694	3906.816093
393.763125	3967.879589
394.146494	3936.379940
394.529801	3996.442767
394.913047	4045.599058
395.296230	4011.644367
395.679351	4069.113520
396.062410	4091.554217
396.445408	4071.934046
396.828343	4108.563070
397.211217	4133.335300
397.594028	4051.852610
397.976778	4116.515490
398.359466	4142.313595
398.742092	4170.221423
399.124656	4092.020523
399.507158	4175.950694
399.889598	4198.300649
400.271977	4261.980505
400.654294	4231.267275
401.036549	4238.418152
401.418742	4212.612485
401.800874	4309.286693
402.182944	4333.844673
402.564952	4394.855238
402.946898	4384.599010
403.328783	4383.757138
403.710606	4293.107109
404.092367	4486.957119
404.474067	4452.987303
404.855705	4460.208756
405.237282	4391.412130
405.618797	4494.954909
406.000250	4532.186351
406.381642	4613.202734
406.762972	4575.033638
407.144240	4583.711984
407.525447	4583.074278
407.906593	4644.498218
408.287677	4684.577911
408.668700	4613.641315
409.049661	4667.473276
409.430560	4706.713618
409.811399	4635.905571
410.192176	4794.200322
410.572891	4731.226228
410.953545	4837.098021
411.334138	4717.766347
411.714669	4783.218168
412.095139	4677.679092
412.475547	4823.378521
412.855894	4804.340603
413.236180	4811.143640
413.616405	4761.284108
413.996568	4853.048232
414.376670	4795.604283
414.756711	4753.702213
415.136691	4782.910658
415.516609	4858.386813
415.896466	4896.364346
416.276262	4931.823822
416.655997	4914.699023
417.035670	5087.993727
417.415283	5183.397564
417.794834	5128.547289
418.174324	5083.013067
418.553753	4989.741639
418.933121	5173.224515
419.312428	5242.240432
419.691674	5181.045865
420.070859	5304.642355
420.449983	5219.986258
420.829045	5334.811140
421.208047	5237.027879
421.586988	5312.564528
421.965867	5327.383000
422.344686	5453.903358
422.723444	5313.494621
423.102141	5130.079800
423.480777	5427.432260
423.859352	5197.656467
424.237866	5455.428308
424.616319	5449.348676
424.994712	5553.040169
425.373044	5429.146252
425.751314	5575.097738
426.129524	5378.550711
426.507673	5573.877779
426.885762	5660.625954
427.263789	5588.560139
427.641756	5468.777283
428.019662	5589.870839
428.397508	5596.734370
428.775292	5540.865783
429.153016	5647.675230
429.530679	5571.813426
429.908282	5653.601106
430.285824	5523.201580
430.663305	5801.511081
431.040726	5536.898395
431.418086	5534.176172
431.795385	5641.414117
432.172624	5653.712012
432.549802	5643.972502
432.926920	5658.702754
433.303977	5667.025699
433.680974	5706.165217
434.057910	5725.664401
434.434786	5728.162292
434.811601	5698.409402
435.188355	5931.149393
435.565050	5808.422503
435.941683	5786.596827
436.318257	6008.639489
436.694770	5986.599565
437.071222	6020.297158
437.447614	5948.498524
437.823946	5865.995000
438.200218	6021.527199
438.576429	5888.009719
438.952580	5984.583103
439.328670	6029.673704
439.704700	5932.389517
440.080670	5924.459782
440.456580	6194.257295
440.832429	6075.588533
441.208218	5920.943577
441.583947	6076.692546
441.959616	6082.973823
442.335224	6009.892216
442.710773	6145.920191
443.086261	6168.005486
443.461689	5966.051822
443.837057	6112.762002
444.212365	6272.115395
444.587612	6163.297048
444.962800	6317.329504
445.337927	6301.041536
445.712995	5906.987143
446.088002	6484.814279
446.462949	6313.929246
446.837837	6245.505665
447.212664	6420.075781
447.587431	6560.492080
447.962139	7100.674400
448.336786	8022.076336
448.711374	7767.248529
449.085901	6845.236614
449.460369	6763.930364
449.834776	6695.746238
450.209124	7085.180414
450.583412	7239.689259
450.957640	7385.519757
451.331808	7151.806824
451.705917	6702.811415
452.079965	6629.190404
452.453954	6838.728485
452.827883	6716.052006
453.201752	6807.611962
453.575562	6608.413289
453.949311	6810.288815
454.323001	6700.023657
454.696632	6778.927797
455.070202	6912.843528
455.443713	7068.403454
455.817164	7171.792478
456.190556	7252.665189
456.563888	7324.148750
456.937160	7366.834720
457.310373	7026.367793
457.683526	7048.183386
458.056619	6935.906807
458.429653	6928.869357
458.802628	6865.088678
459.175542	6972.467776
459.548398	7329.527661
459.921194	7483.340827
460.293930	7486.587330
460.666607	8019.207919
461.039224	8328.210485
461.411782	8457.180845
461.784280	8474.119122
462.156719	8366.689613
462.529099	8243.637568
462.901419	7833.602717
463.273680	7725.243115
463.645882	7742.176351
464.018024	7598.276614
464.390106	7769.272553
464.762130	8159.039444
465.134094	8628.338100
465.505999	9645.486670
465.877845	10865.070335
466.249631	11511.121927
466.621358	11127.149841
466.993026	10501.106589
467.364634	10247.937323
467.736184	9884.500377
468.107674	9554.372856
468.479105	9585.302855
468.850477	9350.614458
469.221790	9122.524932
469.593043	8791.338768
469.964238	8652.936410
470.335373	8665.940067
470.706449	8722.713541
471.077467	8711.736429
471.448425	10011.071147
471.819324	11084.758779
472.190164	11114.010074
472.560945	9864.575217
472.931667	9077.313344
473.302330	8943.448024
473.672934	8590.184127
474.043479	8948.491698
474.413965	8880.526862
474.784393	8765.535622
475.154761	8926.227442
475.525070	9014.301441
475.895321	8833.613885
476.265513	9013.663735
476.635645	9179.482409
477.005719	9175.391513
477.375734	9293.702352
477.745691	9532.148929
478.115588	9662.810596
478.485427	9908.607175
478.855207	10446.173136
479.224928	11257.950140
479.594591	11881.611447
479.964194	11697.758045
480.333739	11639.815023
480.703226	11558.539020
481.072653	11642.365847
481.442022	11884.063968
481.811333	12074.997670
482.180584	11875.315045
482.549777	11587.628998
482.918912	11407.133005
483.287988	11433.006727
483.657005	11453.841816
484.025964	11128.899122
484.394864	11258.648339
484.763706	11228.935779
485.132489	10985.695064
485.501213	10957.439397
485.869879	11026.568740
486.238487	10865.168638
486.607036	10978.403035
486.975527	10757.809705
487.343959	10947.054620
487.712333	10997.027578
488.080648	10931.548031
488.448905	10970.138064
488.817104	10906.672457
489.185244	11175.179435
489.553326	11328.385141
489.921350	11871.728264
490.289315	12917.576124
490.657222	13268.362293
491.025070	13179.978264
491.392861	13051.665775
491.760593	12673.435563
492.128267	12322.362048
492.495883	11992.703354
492.863440	11656.720532
493.230939	11322.633185
493.598380	11256.659604
493.965763	11124.581373
494.333088	11028.000428
494.700354	10950.175094
495.067563	11002.877837
495.434713	10838.765594
495.801805	10965.843001
496.168839	10886.427183
496.535815	10821.774385
496.902733	10815.969497
497.269593	10753.968346
497.636395	10855.986176
498.003139	10840.766933
498.369825	10708.103928
498.736453	10864.795592
499.103023	10795.756990
499.469535	10820.231792
499.835989	10802.623042
500.202385	10773.142374
500.568723	10624.884560
500.935003	10848.759682
501.301226	10651.038066
501.667390	10910.660010
502.033497	11008.851605
502.399546	10875.742458
502.765537	10773.376788
503.131470	10851.940650
503.497345	11022.482885
503.863163	10635.402928
504.228923	10953.247678
504.594625	11003.021510
504.960269	10754.842986
505.325856	10978.834054
505.691385	10771.990471
506.056856	10927.416805
506.422270	10948.176277
506.787625	10839.935142
507.152924	10950.396905
507.518164	10929.168606
507.883347	10855.595487
508.248472	10774.367375
508.613540	11012.796307
508.978550	10888.670497
509.343503	10872.556449
509.708398	10986.446196
510.073236	11096.698752
510.438016	11106.912129
510.802738	11046.824096
511.167403	11102.259144
511.532010	11002.023362
511.896561	11234.526418
512.261053	11301.999742
512.625488	11167.912611
512.989866	11153.658749
513.354186	11139.808179
513.718449	11049.841227
514.082655	11234.987684
514.446803	11125.566919
514.810894	11253.130797
515.174927	11120.137596
515.538904	11145.015691
515.902822	11295.620162
516.266684	11182.592451
516.630488	11125.413164
516.994235	11180.523058
517.357925	11240.651420
517.721558	11335.195740
518.085133	11346.543377
518.448651	11353.739624
518.812112	11238.219063
519.175516	11250.413615
519.538863	11375.013294
519.902152	11290.309306
520.265385	11447.835282
520.628560	11357.316323
520.991678	11336.866883
521.354739	11398.479865
521.717743	11329.602580
522.080690	11315.903244
522.443580	11448.919130
522.806413	11398.598332
523.169189	11431.070924
523.531908	11488.945891
523.894569	11301.034361
524.257174	11305.175669
524.619722	11426.065059
524.982213	11377.261648
525.344647	11422.291755
525.707025	11378.963038
526.069345	11467.238683
526.431608	11382.244829
526.793815	11491.889925
527.155964	11275.276585
527.518057	11333.219608
527.880093	11288.867536
528.242072	11354.689882
528.603995	11260.150603
528.965860	11179.839981
529.327669	11229.994421
529.689421	11180.243274
530.051117	11149.719087
530.412755	11252.049469
530.774337	11143.946966
531.135862	11124.170519
531.497331	11141.867490
531.858743	10989.712864
532.220098	11156.544809
532.581396	11028.897753
532.942638	11008.765905
533.303824	10969.681839
533.664953	10979.650721
534.026025	10893.220138
534.387040	10993.884419
534.747999	10998.058494
535.108902	11048.475074
535.469748	10808.591768
535.830537	10908.754454
536.191270	10880.488704
536.551947	10902.158104
536.912567	10898.674667
537.273131	10818.958901
537.633638	10795.429315
537.994089	10789.808429
538.354483	10730.358102
538.714821	10875.649197
539.075103	10877.358148
539.435328	10840.635863
539.795497	10665.337299
540.155609	10820.493932
540.515665	10900.605429
540.875665	10642.669751
541.235609	10704.116375
541.595496	10700.131343
541.955328	10840.358599
542.315102	10729.748122
542.674821	10673.607312
543.034483	10665.158338
543.394090	10670.902733
543.753640	10595.698800
544.113134	10800.848556
544.472571	10662.829325
544.831953	10793.581733
545.191278	10595.051012
545.550548	10627.470672
545.909761	10753.247461
546.268918	10721.412574
546.628019	10791.885384
546.987064	10651.640484
547.346053	10573.913454
547.704986	10657.533593
548.063863	10646.100256
548.422684	10625.093768
548.781449	10531.960971
549.140158	10628.625096
549.498811	10497.398821
549.857408	10356.208704
550.215949	10566.467669
550.574434	10412.319267
550.932864	10498.611218
551.291237	10549.078209
551.649555	10486.726698
552.007817	10487.971863
552.366022	10449.104567
552.724173	10432.251989
553.082267	10400.280992
553.440305	10514.813487
553.798288	10321.822994
554.156215	10458.150917
554.514086	10418.787067
554.871902	10265.309139
555.229661	10282.799422
555.587365	10244.678217
555.945014	10143.955963
556.302606	10244.716025
556.660143	10129.182861
557.017625	10262.047512
557.375050	10150.990893
557.732421	10257.238251
558.089735	10162.512450
558.446994	10143.658535
558.804197	10164.906998
559.161345	10151.111881
559.518437	9997.646555
559.875474	10057.462366
560.232455	10062.679960
560.589381	10013.445531
560.946251	9977.134100
561.303065	10068.210106
561.659825	9988.055759
562.016528	9902.764478
562.373177	9788.410944
562.729770	9854.636582
563.086307	9772.347307
563.442789	9834.124127
563.799216	9696.198157
564.155587	9720.824194
564.511904	9656.055449
564.868164	9628.001428
565.224370	9628.079566
565.580520	9519.674594
565.936615	9523.589050
566.292654	9365.054844
566.648638	9467.859094
567.004567	9400.131192
567.360441	9368.782777
567.716260	9256.019727
568.072023	9322.656219
568.427732	9244.664528
568.783385	9154.848811
569.138982	9175.857819
569.494525	9170.945215
569.850013	9043.469558
570.205445	9079.138242
570.560823	8969.165470
570.916145	8868.682671
571.271412	8904.961335
571.626625	8829.490221
571.981782	8789.728120
572.336884	8733.017660
572.691931	8719.053663
573.046923	8633.946384
573.401860	8580.469824
573.756743	8496.602668
574.111570	8498.117534
574.466342	8464.765261
574.821059	8455.502140
575.175722	8342.391251
575.530330	8314.717837
575.884882	8287.992160
576.239380	8194.859363
576.593823	8160.332500
576.948211	8131.618088
577.302544	8028.715535
577.656823	7995.411152
578.011047	7972.544478
578.365216	7906.477637
578.719330	7825.761202
579.073389	7790.276520
579.427394	7732.706543
579.781344	7683.520005
580.135239	7614.229345
580.489080	7587.899399
580.842866	7480.089283
581.196597	7457.557846
581.550273	7461.069009
581.903895	7398.382261
582.257463	7416.490086
582.610975	7290.234388
582.964434	7290.667927
583.317837	7198.634102
583.671186	7168.346849
584.024481	7128.788915
584.377721	7042.043260
584.730906	6997.028277
585.084037	6986.588048
585.437113	6917.531802
585.790135	6896.495067
586.143103	6800.803884
586.496016	6757.117245
586.848874	6754.647080
587.201679	6722.839919
587.554428	6616.121213
587.907124	6615.924608
588.259765	6568.134470
588.612352	6531.944026
588.964884	6434.405261
589.317362	6411.213433
589.669786	6377.790583
590.022155	6387.588065
590.374470	6356.708477
590.726731	6303.075642
591.078937	6178.763308
591.431090	6204.942020
591.783188	6110.107834
592.135232	6069.723151
592.487222	6050.256735
592.839157	6042.881527
593.191038	5975.637576
593.542866	5924.043887
593.894639	5834.820505
594.246358	5836.395865
594.598022	5814.703780
594.949633	5734.713272
595.301190	5690.968659
595.652692	5679.469787
596.004141	5702.313776
596.355535	5567.329320
596.706876	5523.231827
597.058162	5457.215397
597.409395	5469.450277
597.760573	5477.354806
598.111698	5403.486779
598.462768	5364.649730
598.813785	5331.660419
599.164748	5281.906751
599.515657	5258.808184
599.866511	5182.986710
600.217312	5223.419284
600.568060	5127.460921
600.918753	5150.115866
601.269392	5108.954845
601.619978	5037.536818
601.970510	5041.733579
602.320988	5020.568294
602.671412	5013.346842
603.021783	4962.335406
603.372100	4924.824180
603.722363	4891.870157
604.072572	4869.109348
604.422728	4847.137479
604.772830	4790.253099
605.122878	4764.031537
605.472872	4746.591665
605.822813	4732.095827
606.172701	4687.930278
606.522534	4695.381104
606.872314	4671.816230
607.222041	4629.914159
607.571714	4630.057832
607.921333	4588.584260
608.270899	4569.382505
608.620411	4577.274431
608.969870	4524.395248
609.319276	4495.786700
609.668627	4476.441272
610.017926	4470.112103
610.367171	4462.527687
610.716362	4430.876803
611.065500	4406.853184
611.414585	4386.423908
611.763616	4366.894478
612.112594	4337.139067
612.461518	4314.534534
612.810389	4319.210204
613.159207	4272.498872
613.507971	4239.098708
613.856682	4247.580449
614.205340	4219.917117
614.553945	4222.599011
614.902496	4171.007843
615.250994	4170.435672
615.599439	4147.415243
615.947830	4125.304742
616.296169	4100.300619
616.644454	4086.762600
616.992686	4066.754260
617.340864	4063.457346
617.688990	4019.175850
618.037063	4031.292264
618.385082	3997.975278
618.733048	3996.967047
619.080961	3967.864466
619.428821	3955.667394
619.776628	3934.842388
620.124382	3904.224940
620.472083	3874.847616
620.819731	3870.010629
621.167326	3824.189061
621.514868	3809.161381
621.862357	3766.873662
622.209793	3751.425046
622.557176	3717.949264
622.904506	3689.597815
623.251783	3661.450532
623.599007	3627.034575
623.946179	3612.377420
624.293297	3588.391610
624.640363	3557.953123
624.987376	3535.409083
625.334336	3515.226824
625.681243	3488.612052
626.028097	3471.915751
626.374899	3456.847742
626.721647	3433.504679
627.068343	3415.737132
627.414987	3400.069226
627.761577	3375.838920
628.108115	3368.851881
628.454600	3341.909434
628.801032	3333.974658
629.147412	3317.820280
629.493739	3304.264618
629.840014	3285.793830
630.186236	3283.921041
630.532405	3255.698142
630.878521	3253.096906
631.224585	3238.807756
631.570597	3214.542162
631.916556	3210.542006
632.262462	3200.469781
632.608316	3186.714992
632.954117	3172.254442
633.299866	3162.351096
633.645562	3151.290804
633.991206	3130.236425
634.336797	3110.696913
634.682336	3094.008173
635.027823	3080.386975
635.373257	3068.474729
635.718639	3048.539486
636.063968	3044.015050
636.409245	3022.179292
636.754470	3012.936337
637.099642	2998.803462
637.444762	2986.593788
637.789829	2978.049032
638.134845	2966.134265
638.479808	2958.184365
638.824719	2950.380659
639.169577	2937.162753
639.514383	2929.296033
639.859137	2918.208015
640.203839	2914.548137
640.548489	2902.898031
640.893086	2896.296640
