Dividing Wavelength (nm)	Counts (n)	Blue Motor Position (mm): 0.000000	Red Motor Position (mm): 6.000000	
326.493990	2126.187293
326.888308	2126.187293
327.282561	2126.187293
327.676750	2095.632860
328.070874	2092.610688
328.464933	2097.112438
328.858929	2102.130907
329.252859	2113.546600
329.646726	2123.207971
330.040528	2137.456793
330.434265	2154.513537
330.827938	2175.923317
331.221547	2189.269772
331.615091	2208.680735
332.008571	2228.522716
332.401986	2246.675911
332.795338	2265.544950
333.188625	2287.189144
333.581847	2305.838893
333.975006	2323.051913
334.368100	2339.113029
334.761129	2360.182531
335.154095	2376.576363
335.546996	2391.319218
335.939833	2404.590055
336.332606	2422.541604
336.725315	2434.920158
337.117960	2445.335181
337.510540	2454.028651
337.903056	2465.013325
338.295508	2469.537761
338.687896	2476.948257
339.080220	2487.549804
339.472480	2493.556338
339.864676	2495.860146
340.256807	2502.091012
340.648875	2505.231651
341.040879	2508.137876
341.432818	2511.245747
341.824694	2512.962260
342.216506	2511.906138
342.608253	2513.773886
342.999937	2510.066117
343.391557	2510.454286
343.783113	2511.843124
344.174605	2510.837414
344.566033	2506.945643
344.957397	2506.028153
345.348697	2503.195025
345.739934	2503.953718
346.131106	2501.460868
346.522215	2497.687564
346.913260	2496.747389
347.304241	2496.129848
347.695159	2494.557008
348.086012	2493.977275
348.476802	2491.653303
348.867528	2488.845380
349.258191	2490.178765
349.648789	2488.537870
350.039324	2487.849752
350.429796	2486.365133
350.820203	2483.164000
351.210548	2482.649802
351.600828	2480.088896
351.991045	2482.995121
352.381198	2478.730305
352.771288	2478.735346
353.161314	2478.165696
353.551276	2480.643423
353.941175	2478.851293
354.331010	2479.272229
354.720782	2478.190902
355.110490	2481.399596
355.500135	2480.209884
355.889717	2481.379431
356.279235	2481.119812
356.668689	2482.256592
357.058080	2480.106540
357.447408	2474.808287
357.836672	2477.109574
358.225873	2477.994297
358.615010	2476.746611
359.004084	2481.787765
359.393095	2483.176603
359.782043	2483.587457
360.170927	2482.889257
360.559748	2484.444453
360.948505	2481.747436
361.337199	2482.004534
361.725830	2485.898826
362.114398	2485.724906
362.502903	2484.114257
362.891344	2488.810092
363.279722	2489.208343
363.668037	2486.627272
364.056289	2488.832777
364.444478	2490.317397
364.832603	2487.479228
365.220665	2490.022490
365.608665	2489.591471
365.996601	2490.430823
366.384474	2490.637510
366.772284	2491.741523
367.160031	2495.000629
367.547715	2496.112203
367.935336	2496.550784
368.322893	2499.716628
368.710388	2506.675941
369.097820	2510.910511
369.485189	2511.694410
369.872495	2521.219670
370.259738	2520.408044
370.646918	2531.596885
371.034035	2536.484284
371.421090	2543.461241
371.808081	2548.111705
372.195010	2555.847356
372.581875	2565.692729
372.968678	2573.977866
373.355418	2580.097827
373.742096	2589.625607
374.128710	2597.172215
374.515262	2605.558174
374.901751	2609.664194
375.288177	2612.973711
375.674540	2624.961575
376.060841	2630.297637
376.447079	2636.594038
376.833254	2641.960346
377.219367	2641.138638
377.605417	2656.514157
377.991404	2650.406799
378.377329	2654.747233
378.763191	2652.282108
379.148991	2663.750733
379.534727	2666.523368
379.920402	2669.749707
380.306013	2661.653613
380.691563	2671.746003
381.077049	2665.999088
381.462474	2664.597647
381.847835	2663.672596
382.233134	2659.458191
382.618371	2651.132725
383.003545	2656.438540
383.388657	2645.451345
383.773706	2640.816004
384.158693	2634.754017
384.543618	2627.020887
384.928480	2621.619290
385.313280	2618.839094
385.698017	2611.547065
386.082692	2606.405088
386.467305	2595.758171
386.851856	2590.036461
387.236344	2583.382138
387.620770	2576.937023
388.005133	2571.351425
388.389435	2567.535271
388.773674	2559.550083
389.157851	2549.059442
389.541965	2545.288659
389.926018	2540.187012
390.310008	2534.830786
390.693936	2536.312885
391.077802	2532.695857
391.461606	2527.483304
391.845348	2524.269568
392.229027	2522.096831
392.612645	2520.897036
392.996200	2519.276305
393.379694	2518.192457
393.763125	2517.632889
394.146494	2513.995697
394.529801	2515.293794
394.913047	2513.461334
395.296230	2512.874040
395.679351	2510.565192
396.062410	2511.762466
396.445408	2510.880264
396.828343	2510.608041
397.211217	2506.325581
397.594028	2507.419512
397.976778	2506.179388
398.359466	2511.064266
398.742092	2505.939933
399.124656	2511.782630
399.507158	2511.205418
399.889598	2513.415964
400.271977	2513.342867
400.654294	2510.754235
401.036549	2509.075531
401.418742	2512.286746
401.800874	2509.110819
402.182944	2513.965450
402.564952	2510.668535
402.946898	2512.067455
403.328783	2512.543844
403.710606	2512.856396
404.092367	2511.225583
404.474067	2514.351098
404.855705	2508.894049
405.237282	2515.503002
405.618797	2513.592404
406.000250	2515.200532
406.381642	2510.940758
406.762972	2514.033505
407.144240	2514.983763
407.525447	2514.777076
407.906593	2513.897394
408.287677	2512.848834
408.668700	2513.894874
409.049661	2513.284894
409.430560	2516.140708
409.811399	2514.787158
410.192176	2513.489061
410.572891	2517.189268
410.953545	2516.443177
411.334138	2516.168434
411.714669	2514.814884
412.095139	2517.527025
412.475547	2513.347908
412.855894	2517.055677
413.236180	2516.175996
413.616405	2517.453928
413.996568	2514.404030
414.376670	2518.061387
414.756711	2516.982580
415.136691	2515.664319
415.516609	2516.160872
415.896466	2519.114988
416.276262	2519.301511
416.655997	2513.597446
417.035670	2513.670542
417.415283	2514.318331
417.794834	2516.034843
418.174324	2518.091634
418.553753	2517.020389
418.933121	2517.315297
419.312428	2516.622138
419.691674	2518.366377
420.070859	2520.818898
420.449983	2519.966943
420.829045	2518.890657
421.208047	2518.194978
421.586988	2520.037520
421.965867	2517.020389
422.344686	2518.701614
422.723444	2521.721265
423.102141	2520.105575
423.480777	2518.494927
423.859352	2520.375277
424.237866	2520.198837
424.616319	2518.063908
424.994712	2518.411748
425.373044	2520.506347
425.751314	2520.937366
426.129524	2521.446522
426.507673	2523.551204
426.885762	2519.709845
427.263789	2521.781759
427.641756	2519.793024
428.019662	2523.047088
428.397508	2525.305525
428.775292	2520.211439
429.153016	2521.832170
429.530679	2522.666481
429.908282	2520.592047
430.285824	2523.677233
430.663305	2520.982736
431.040726	2521.887623
431.418086	2524.357788
431.795385	2524.211595
432.172624	2521.872500
432.549802	2521.280164
432.926920	2523.518436
433.303977	2524.350227
433.680974	2524.090607
434.057910	2522.275792
434.434786	2522.951307
434.811601	2524.594723
435.188355	2522.827798
435.565050	2522.711852
435.941683	2522.726975
436.318257	2523.631862
436.694770	2517.562313
437.071222	2520.269413
437.447614	2520.234125
437.823946	2520.912160
438.200218	2523.049609
438.576429	2524.246883
438.952580	2525.638242
439.328670	2525.426513
439.704700	2522.144722
440.080670	2526.346524
440.456580	2524.927439
440.832429	2523.921729
441.208218	2526.018849
441.583947	2524.662778
441.959616	2524.587161
442.335224	2523.357119
442.710773	2526.059178
443.086261	2524.791328
443.461689	2523.795700
443.837057	2522.883251
444.212365	2524.566996
444.587612	2522.716893
444.962800	2528.050434
445.337927	2523.049609
445.712995	2524.509023
446.088002	2526.709487
446.462949	2526.265865
446.837837	2525.270237
447.212664	2527.485824
447.587431	2527.354754
447.962139	2526.182686
448.336786	2526.719569
448.711374	2527.901720
449.085901	2527.163191
449.460369	2528.940197
449.834776	2524.970289
450.209124	2524.826616
450.583412	2528.431041
450.957640	2526.948942
451.331808	2525.514733
451.705917	2527.558921
452.079965	2528.693181
452.453954	2527.505989
452.827883	2527.241328
453.201752	2528.632687
453.575562	2526.868283
453.949311	2526.724610
454.323001	2527.937008
454.696632	2530.200486
455.070202	2527.135464
455.443713	2528.441123
455.817164	2524.630011
456.190556	2524.841739
456.563888	2522.926101
456.937160	2524.083046
457.310373	2527.430372
457.683526	2528.776360
458.056619	2527.621936
458.429653	2527.778211
458.802628	2529.046062
459.175542	2529.814837
459.548398	2530.767616
459.921194	2529.847605
460.293930	2530.568490
460.666607	2529.716535
461.039224	2526.505320
461.411782	2530.079498
461.784280	2531.191073
462.156719	2531.397760
462.529099	2530.749972
462.901419	2527.558921
463.273680	2531.806093
463.645882	2530.644107
464.018024	2531.606968
464.390106	2531.042358
464.762130	2530.412214
465.134094	2530.011442
465.505999	2531.690147
465.877845	2529.295599
466.249631	2530.931453
466.621358	2528.607481
466.993026	2536.242309
467.364634	2533.578059
467.736184	2529.368695
468.107674	2528.436082
468.479105	2529.466998
468.850477	2531.438089
469.221790	2530.412214
469.593043	2531.148223
469.964238	2532.164015
470.335373	2532.794159
470.706449	2531.359951
471.077467	2531.599406
471.448425	2531.309540
471.819324	2536.017977
472.190164	2533.099149
472.560945	2531.428007
472.931667	2533.830117
473.302330	2530.455064
473.672934	2530.233253
474.043479	2530.137471
474.413965	2530.293747
474.784393	2529.542615
475.154761	2529.368695
475.525070	2527.997502
475.895321	2530.694519
476.265513	2528.055475
476.635645	2531.972451
477.005719	2529.945908
477.375734	2531.884231
477.745691	2531.120496
478.115588	2532.428676
478.485427	2532.985723
478.855207	2535.327339
479.224928	2532.368182
479.594591	2532.532019
479.964194	2533.179808
480.333739	2533.520086
480.703226	2532.990764
481.072653	2531.843902
481.442022	2534.306506
481.811333	2534.490508
482.180584	2533.293234
482.549777	2535.145858
482.918912	2534.727442
483.287988	2535.476053
483.657005	2536.333049
484.025964	2534.533358
484.394864	2535.077802
484.763706	2533.615868
485.132489	2533.550333
485.501213	2534.780374
485.869879	2534.167874
486.238487	2530.429858
486.607036	2534.588810
486.975527	2534.467823
487.343959	2535.836496
487.712333	2535.221475
488.080648	2535.045035
488.448905	2535.027391
488.817104	2534.939170
489.185244	2534.515713
489.553326	2534.787936
489.921350	2533.368851
490.289315	2533.202493
490.657222	2535.602082
491.025070	2536.789274
491.392861	2538.160468
491.760593	2534.185518
492.128267	2536.040663
492.495883	2534.435055
492.863440	2535.690302
493.230939	2535.206352
493.598380	2535.347504
493.965763	2531.831299
494.333088	2530.119827
494.700354	2531.496062
495.067563	2534.548481
495.434713	2532.889941
495.801805	2534.684592
496.168839	2531.831299
496.535815	2537.477391
496.902733	2534.364479
497.269593	2537.242978
497.636395	2536.080992
498.003139	2534.155271
498.369825	2533.515044
498.736453	2535.551671
499.103023	2531.740558
499.469535	2534.341794
499.835989	2533.482277
500.202385	2535.440765
500.568723	2536.380940
500.935003	2536.806918
501.301226	2537.820190
501.667390	2535.710467
502.033497	2537.537885
502.399546	2537.535365
502.765537	2535.508821
503.131470	2534.888759
503.497345	2535.965045
503.863163	2537.926054
504.228923	2538.674665
504.594625	2537.963863
504.960269	2534.155271
505.325856	2534.130065
505.691385	2536.839685
506.056856	2535.934798
506.422270	2538.667104
506.787625	2535.896990
507.152924	2535.448327
507.518164	2535.110570
507.883347	2537.714326
508.248472	2536.698533
508.613540	2537.598379
508.978550	2538.546116
509.343503	2537.560570
509.708398	2538.261291
510.073236	2535.912113
510.438016	2537.704243
510.802738	2538.810777
511.167403	2533.484798
511.532010	2537.643749
511.896561	2539.272042
512.261053	2537.585776
512.625488	2534.825744
512.989866	2533.371372
513.354186	2532.511855
513.718449	2531.480939
514.082655	2537.565612
514.446803	2536.885056
514.810894	2539.410674
515.174927	2538.939326
515.538904	2537.668955
515.902822	2535.198790
516.266684	2535.765920
516.630488	2537.663914
516.994235	2535.302133
517.357925	2538.331867
517.721558	2539.352701
518.085133	2538.183153
518.448651	2537.628626
518.812112	2539.279604
519.175516	2539.831610
519.538863	2536.693492
519.902152	2539.413194
520.265385	2536.907741
520.628560	2537.283307
520.991678	2540.229861
521.354739	2535.687782
521.717743	2537.275745
522.080690	2535.362627
522.443580	2538.979655
522.806413	2538.382278
523.169189	2534.966897
523.531908	2537.996630
523.894569	2538.097453
524.257174	2537.815149
524.619722	2540.302958
524.982213	2540.930582
525.344647	2538.256250
525.707025	2537.515200
526.069345	2536.116280
526.431608	2539.599717
526.793815	2538.863709
527.155964	2536.708615
527.518057	2536.948070
527.880093	2535.108049
528.242072	2537.127031
528.603995	2542.415202
528.965860	2540.136600
529.327669	2537.424459
529.689421	2538.314223
530.051117	2536.776671
530.412755	2538.185673
530.774337	2537.794984
531.135862	2537.941178
531.497331	2535.644932
531.858743	2533.474715
532.220098	2537.121990
532.581396	2532.607637
532.942638	2536.174253
533.303824	2537.396733
533.664953	2540.469316
534.026025	2537.535365
534.387040	2535.531506
534.747999	2537.890766
535.108902	2539.256919
535.469748	2539.571991
535.830537	2539.783719
536.191270	2538.856147
536.551947	2539.544264
536.912567	2538.667104
537.273131	2538.886394
537.633638	2537.865560
537.994089	2539.256919
538.354483	2540.560057
538.714821	2537.636188
539.075103	2537.580735
539.435328	2538.523431
539.795497	2537.222813
540.155609	2542.246323
540.515665	2538.203317
540.875665	2541.848072
541.235609	2537.900848
541.595496	2542.760521
541.955328	2536.829603
542.315102	2539.400592
542.674821	2535.960004
543.034483	2539.428318
543.394090	2538.737680
543.753640	2538.218441
544.113134	2537.149716
544.472571	2539.478729
544.831953	2539.564429
545.191278	2537.172402
545.550548	2539.763555
545.909761	2539.612320
546.268918	2536.799356
546.628019	2540.955787
546.987064	2538.495704
547.346053	2537.646270
547.704986	2539.728267
548.063863	2540.829759
548.422684	2537.794984
548.781449	2538.425128
549.140158	2538.094933
549.498811	2539.516538
549.857408	2538.606610
550.215949	2537.709284
550.574434	2534.208203
550.932864	2537.658873
551.291237	2532.658048
551.649555	2541.356559
552.007817	2538.775488
552.366022	2540.560057
552.724173	2540.802032
553.082267	2538.626774
553.440305	2539.302289
553.798288	2539.050231
554.156215	2538.276414
554.514086	2538.838503
554.871902	2538.803215
555.229661	2541.396888
555.587365	2537.784902
555.945014	2541.311189
556.302606	2540.713812
556.660143	2539.186343
557.017625	2541.464944
557.375050	2540.512166
557.732421	2540.302958
558.089735	2540.169367
558.446994	2537.237937
558.804197	2538.956970
559.161345	2542.037115
559.518437	2539.264480
559.875474	2540.668442
560.232455	2538.566281
560.589381	2538.992258
560.946251	2542.034594
561.303065	2538.077289
561.659825	2538.697351
562.016528	2540.638195
562.373177	2538.815818
562.729770	2539.148534
563.086307	2541.386806
563.442789	2539.813966
563.799216	2539.977804
564.155587	2537.053934
564.511904	2538.367155
564.868164	2537.663914
565.224370	2541.472506
565.580520	2537.633667
565.936615	2539.879501
566.292654	2538.793132
566.648638	2542.228679
567.004567	2538.162988
567.360441	2539.108205
567.716260	2540.411343
568.072023	2538.974614
568.427732	2533.396577
568.783385	2539.768596
569.138982	2535.130734
569.494525	2538.843544
569.850013	2535.075282
570.205445	2539.055272
570.560823	2538.334387
570.916145	2540.023174
571.271412	2538.946888
571.626625	2541.157434
571.981782	2538.888914
572.336884	2540.998637
572.691931	2540.166847
573.046923	2541.994265
573.401860	2540.073586
573.756743	2541.727084
574.111570	2539.655170
574.466342	2540.905376
574.821059	2539.337577
575.175722	2540.013092
575.530330	2538.722556
575.884882	2539.713143
576.239380	2540.192053
576.593823	2541.555685
576.948211	2538.410005
577.302544	2540.280273
577.656823	2538.387320
578.011047	2538.979655
578.365216	2541.200283
578.719330	2539.786240
579.073389	2538.450334
579.427394	2541.154913
579.781344	2538.851106
580.135239	2540.439069
580.489080	2540.371014
580.842866	2538.296579
581.196597	2543.914945
581.550273	2539.937474
581.903895	2540.877650
582.257463	2542.470654
582.610975	2540.373534
582.964434	2540.862526
583.317837	2539.445962
583.671186	2539.120807
584.024481	2539.307330
584.377721	2539.415715
584.730906	2536.675848
585.084037	2539.322454
585.437113	2537.628626
585.790135	2538.427649
586.143103	2538.283976
586.496016	2540.129038
586.848874	2533.008408
587.201679	2541.916127
587.554428	2536.620395
587.907124	2540.476878
588.259765	2535.990251
588.612352	2539.486291
588.964884	2540.028215
589.317362	2541.996786
589.669786	2540.615510
590.022155	2538.752803
590.374470	2543.002496
590.726731	2538.336908
591.078937	2540.434028
591.431090	2542.145500
591.783188	2539.090561
592.135232	2538.956970
592.487222	2539.410674
592.839157	2541.608617
593.191038	2541.263298
593.542866	2539.761034
593.894639	2537.479912
594.246358	2540.580222
594.598022	2540.514687
594.949633	2540.517207
595.301190	2534.697195
595.652692	2540.728936
596.004141	2537.270704
596.355535	2539.322454
596.706876	2539.057793
597.058162	2538.878832
597.409395	2539.481250
597.760573	2543.383103
598.111698	2540.587783
598.462768	2538.956970
598.813785	2540.925541
599.164748	2537.016126
599.515657	2539.277083
599.866511	2539.239275
600.217312	2537.915972
600.568060	2539.856816
600.918753	2542.649615
601.269392	2541.626261
601.619978	2540.857485
601.970510	2543.304965
602.320988	2537.981507
602.671412	2541.893442
603.021783	2536.663245
603.372100	2538.536034
603.722363	2539.188863
604.072572	2539.907228
604.422728	2540.164326
604.772830	2537.237937
605.122878	2535.188708
605.472872	2535.070240
605.822813	2533.688964
606.172701	2537.414377
606.522534	2539.332536
606.872314	2538.021836
607.222041	2539.014943
607.571714	2540.033256
607.921333	2537.885725
608.270899	2537.318595
608.620411	2540.381096
608.969870	2544.088865
609.319276	2539.508976
609.668627	2543.993083
610.017926	2547.965512
610.367171	2545.296221
610.716362	2547.307641
611.065500	2547.305121
611.414585	2541.177598
611.763616	2541.248174
612.112594	2541.931251
612.461518	2541.956457
612.810389	2541.956457
613.159207	2541.323792
613.507971	2541.205325
613.856682	2543.415871
614.205340	2539.342618
614.553945	2541.424615
614.902496	2538.984696
615.250994	2540.111394
615.599439	2542.450490
615.947830	2541.394368
616.296169	2539.193904
616.644454	2539.745911
616.992686	2540.335726
617.340864	2538.818338
617.688990	2538.110056
618.037063	2538.019315
618.385082	2540.068544
618.733048	2539.718184
619.080961	2540.812115
619.428821	2539.153575
619.776628	2538.720036
620.124382	2541.364121
620.472083	2539.876981
620.819731	2538.097453
621.167326	2541.129707
621.514868	2540.965870
621.862357	2538.059645
622.209793	2540.305479
622.557176	2541.013761
622.904506	2536.181815
623.251783	2533.903213
623.599007	2536.133924
623.946179	2534.188038
624.293297	2535.773481
624.640363	2539.410674
624.987376	2537.134593
625.334336	2541.011240
625.681243	2538.677186
626.028097	2538.755324
626.374899	2542.682383
626.721647	2537.474871
627.068343	2542.326981
627.414987	2539.037628
627.761577	2539.614841
628.108115	2534.467822
628.454600	2540.386137
628.801032	2536.968235
629.147412	2538.951929
629.493739	2537.472350
629.840014	2539.967721
630.186236	2538.909079
630.532405	2540.083668
630.878521	2536.602751
631.224585	2538.755324
631.570597	2537.069058
631.916556	2541.855633
632.262462	2538.447813
632.608316	2537.996630
632.954117	2537.817669
633.299866	2537.033770
633.645562	2536.887576
633.991206	2537.482432
634.336797	2536.620395
634.682336	2540.048380
635.027823	2538.331867
635.373257	2539.766075
635.718639	2538.604089
636.063968	2538.929244
636.409245	2538.599048
636.754470	2538.379758
637.099642	2537.691640
637.444762	2538.286497
637.789829	2537.653832
638.134845	2538.236085
638.479808	2537.129552
638.824719	2535.748276
639.169577	2536.759027
639.514383	2536.547298
639.859137	2540.439069
640.203839	2539.007382
640.548489	2537.787422
640.893086	2536.338091
641.237632	2534.540919
641.582125	2535.067720
641.926566	2534.530837
642.270955	2536.950591
642.615292	2538.515869
642.959576	2536.683410
643.303809	2537.714326
643.647990	2536.786753
643.992118	2535.597041
644.336195	2540.088709
