Dividing Wavelength (nm)	Counts (n)	Blue Motor Position (mm): 0.000000	Red Motor Position (mm): 37.500000	
326.493990	2077.603173
326.888308	2077.603173
327.282561	2077.603173
327.676750	2054.673485
328.070874	2054.388659
328.464933	2063.503066
328.858929	2073.298028
329.252859	2083.566858
329.646726	2100.822728
330.040528	2116.047012
330.434265	2135.566360
330.827938	2156.111582
331.221547	2174.756290
331.615091	2194.129444
332.008571	2215.766076
332.401986	2235.035887
332.795338	2254.451891
333.188625	2276.585077
333.581847	2294.897068
333.975006	2313.014975
334.368100	2330.001143
334.761129	2348.764318
335.154095	2364.265866
335.546996	2392.483724
335.939833	2435.068872
336.332606	2449.867179
336.725315	2458.880762
337.117960	2469.305868
337.510540	2475.244347
337.903056	2489.155411
338.295508	2491.817140
338.687896	2499.378871
339.080220	2506.718791
339.472480	2514.908146
339.864676	2515.923938
340.256807	2517.169103
340.648875	2519.218332
341.040879	2522.555576
341.432818	2522.931142
341.824694	2523.926770
342.216506	2520.841584
342.608253	2522.870648
342.999937	2522.784948
343.391557	2520.992818
343.783113	2520.065246
344.174605	2518.557941
344.566033	2518.787313
344.957397	2517.484175
345.348697	2516.670029
345.739934	2513.657939
346.131106	2512.536283
346.522215	2508.087464
346.913260	2508.546209
347.304241	2508.536127
347.695159	2505.125787
348.086012	2505.264418
348.476802	2501.672596
348.867528	2499.494818
349.258191	2498.688233
349.648789	2499.799807
350.039324	2499.167143
350.429796	2497.795949
350.820203	2498.163953
351.210548	2497.191010
351.600828	2493.452995
351.991045	2495.008191
352.381198	2496.518016
352.771288	2495.151864
353.161314	2494.113386
353.551276	2493.974754
353.941175	2497.743017
354.331010	2496.855774
354.720782	2496.906185
355.110490	2496.391987
355.500135	2498.254694
355.889717	2498.272338
356.279235	2496.719662
356.668689	2499.494818
357.058080	2499.109169
357.447408	2499.646052
357.836672	2498.584889
358.225873	2501.065137
358.615010	2500.498007
359.004084	2503.144613
359.393095	2501.397853
359.782043	2503.189983
360.170927	2505.657628
360.559748	2505.433297
360.948505	2504.528410
361.337199	2509.294821
361.725830	2508.989831
362.114398	2510.139214
362.502903	2510.474451
362.891344	2513.448732
363.279722	2512.740449
363.668037	2513.151303
364.056289	2513.224400
364.444478	2514.305728
364.832603	2512.979904
365.220665	2517.189268
365.608665	2513.252127
365.996601	2517.872344
366.384474	2516.279339
366.772284	2521.282685
367.160031	2520.329907
367.547715	2522.348889
367.935336	2522.769825
368.322893	2523.299146
368.710388	2525.948272
369.097820	2528.463808
369.485189	2522.928621
369.872495	2527.329549
370.259738	2527.450536
370.646918	2531.112935
371.034035	2532.358100
371.421090	2534.699716
371.808081	2539.783719
372.195010	2543.549461
372.581875	2548.890564
372.968678	2552.379042
373.355418	2561.027142
373.742096	2569.060220
374.128710	2577.814184
374.515262	2587.183168
374.901751	2601.822679
375.288177	2618.254320
375.674540	2633.239150
376.060841	2651.863693
376.447079	2672.895387
376.833254	2696.104859
377.219367	2717.625545
377.605417	2748.999166
377.991404	2773.156375
378.377329	2810.886891
378.763191	2837.756241
379.148991	2885.352295
379.534727	2932.471960
379.920402	2978.056593
380.306013	3020.573685
380.691563	3081.879157
381.077049	3136.152219
381.462474	3188.708769
381.847835	3255.279726
382.233134	3322.241372
382.618371	3380.701113
383.003545	3461.122640
383.388657	3535.991337
383.773706	3622.895788
384.158693	3692.438505
384.543618	3780.807411
384.928480	3854.204091
385.313280	3952.458700
385.698017	4053.420408
386.082692	4168.875434
386.467305	4227.589753
386.851856	4346.477805
387.236344	4491.171523
387.620770	4555.534455
388.005133	4668.216846
388.389435	4808.217250
388.773674	4888.737080
389.157851	5013.273745
389.541965	5142.788549
389.926018	5164.311755
390.310008	5332.749308
390.693936	5453.510148
391.077802	5560.952260
391.461606	5691.903793
391.845348	5801.506040
392.229027	5922.511376
392.612645	6135.076669
392.996200	6248.729482
393.379694	6419.874135
393.763125	6630.183512
394.146494	6718.635597
394.529801	6850.839857
394.913047	7086.849036
395.296230	7084.630928
395.679351	7138.586398
396.062410	7390.460088
396.445408	7288.623739
396.828343	7441.753828
397.211217	7570.575474
397.594028	7465.182591
397.976778	7664.998806
398.359466	7828.826223
398.742092	7805.679766
399.124656	7947.560520
399.507158	8133.642111
399.889598	8158.500041
400.271977	8367.201290
400.654294	8398.368223
401.036549	8595.615970
401.418742	8619.054815
401.800874	8915.449456
402.182944	8998.878031
402.564952	9357.853555
402.946898	9194.033699
403.328783	9245.347604
403.710606	9438.368344
404.092367	9693.334782
404.474067	10047.289317
404.855705	9852.932672
405.237282	9807.794180
405.618797	10230.825126
406.000250	10466.103338
406.381642	10823.067441
406.762972	10774.274113
407.144240	10589.909035
407.525447	10843.627787
407.906593	10785.394899
408.287677	11056.369521
408.668700	11189.788698
409.049661	11185.070178
409.430560	11343.889210
409.811399	11317.478605
410.192176	11476.862245
410.572891	11559.859802
410.953545	12027.867923
411.334138	11520.654749
411.714669	12097.955084
412.095139	11450.313009
412.475547	11928.136255
412.855894	11797.162037
413.236180	12104.627052
413.616405	11807.682925
413.996568	12082.670306
414.376670	12062.568705
414.756711	11946.748195
415.136691	12223.721791
415.516609	12393.066751
415.896466	12482.605205
416.276262	12777.111933
416.655997	13222.757495
417.035670	13265.569494
417.415283	13881.621179
417.794834	13963.867604
418.174324	13723.041603
418.553753	13637.183191
418.933121	14118.212612
419.312428	13947.803968
419.691674	13853.695708
420.070859	14325.182224
420.449983	13981.418382
420.829045	14532.356003
421.208047	14280.936017
421.586988	14742.317540
421.965867	14990.531353
422.344686	14981.021216
422.723444	15552.499019
423.102141	14260.824333
423.480777	15451.302897
423.859352	14944.369507
424.237866	16044.336673
424.616319	15766.407779
424.994712	16407.748413
425.373044	16192.934765
425.751314	16897.057929
426.129524	16022.238775
426.507673	17106.437212
426.885762	16831.296077
427.263789	17004.532808
427.641756	17192.404009
428.019662	17256.076303
428.397508	17307.586813
428.775292	17589.513342
429.153016	17569.454590
429.530679	17639.945045
429.908282	17672.513419
430.285824	17411.968944
430.663305	18132.062483
431.040726	17736.263851
431.418086	17576.653358
431.795385	18210.359164
432.172624	18655.717380
432.549802	18211.100214
432.926920	18422.253984
433.303977	18304.467424
433.680974	18562.824038
434.057910	18860.710860
434.434786	18905.594773
434.811601	18835.873095
435.188355	19889.731348
435.565050	19551.243073
435.941683	19509.018368
436.318257	20399.782691
436.694770	20198.174346
437.071222	20804.259670
437.447614	19877.995542
437.823946	19909.840510
438.200218	20086.590926
438.576429	19860.603561
438.952580	20166.233595
439.328670	20142.283073
439.704700	20552.562420
440.080670	20126.315218
440.456580	20744.269939
440.832429	20905.233981
441.208218	19921.667057
441.583947	20367.307578
441.959616	20483.233952
442.335224	20735.982282
442.710773	20873.729290
443.086261	21423.124319
443.461689	20769.150554
443.837057	20924.052609
444.212365	21579.465623
444.587612	21580.420922
444.962800	21171.701812
445.337927	21617.463320
445.712995	20335.346662
446.088002	22228.594839
446.462949	22425.492226
446.837837	22611.203293
447.212664	22627.975212
447.587431	25581.529277
447.962139	28558.585201
448.336786	30866.548940
448.711374	29207.258193
449.085901	25476.925334
449.460369	25491.721121
449.834776	25493.120041
450.209124	28036.351910
450.583412	27520.160441
450.957640	28017.676955
451.331808	26678.887646
451.705917	25284.292764
452.079965	25334.840413
452.453954	25725.391205
452.827883	25636.669418
453.201752	25428.898262
453.575562	25589.156543
453.949311	26716.890384
454.323001	26797.246377
454.696632	26582.031957
455.070202	28181.020422
455.443713	28369.773825
455.817164	28955.744945
456.190556	29511.892599
456.563888	28904.466328
456.937160	29365.053870
457.310373	27651.371593
457.683526	28097.123019
458.056619	28095.129243
458.429653	28072.519668
458.802628	28692.200984
459.175542	28822.965994
459.548398	30201.439266
459.921194	31829.568121
460.293930	32573.778540
460.666607	34668.042726
461.039224	36467.278425
461.411782	36831.058169
461.784280	35520.169126
462.156719	34983.997044
462.529099	34402.953651
462.901419	33053.958526
463.273680	32023.337472
463.645882	32165.107321
464.018024	32157.510302
464.390106	33090.015379
464.762130	36003.146952
465.134094	40348.122493
465.505999	45850.133583
465.877845	50375.718543
466.249631	51383.999724
466.621358	49520.464108
466.993026	47301.131415
467.364634	45154.300597
467.736184	43183.305225
468.107674	41906.995977
468.479105	41119.534978
468.850477	40405.574003
469.221790	38941.688461
469.593043	37186.550256
469.964238	36260.419718
470.335373	36210.247634
470.706449	38065.674554
471.077467	40849.278721
471.448425	45533.249173
471.819324	48286.432496
472.190164	46289.457538
472.560945	42668.250537
472.931667	39490.934776
473.302330	38403.361286
473.672934	37541.951602
474.043479	38075.230062
474.413965	37287.338045
474.784393	36908.447442
475.154761	37852.867286
475.525070	37903.334277
475.895321	37418.372757
476.265513	38055.272133
476.635645	39046.320130
477.005719	38900.850074
477.375734	39410.540975
477.745691	40136.933435
478.115588	41498.667556
478.485427	43627.574552
478.855207	47106.515150
479.224928	49773.920720
479.594591	51329.993843
479.964194	50217.191898
480.333739	50359.269258
480.703226	50425.925915
481.072653	51082.606779
481.442022	51554.496588
481.811333	51760.425202
482.180584	50469.917544
482.549777	49952.049891
482.918912	49417.274209
483.287988	49109.012692
483.657005	48287.329821
484.025964	47591.443903
484.394864	47583.171370
484.763706	47135.408523
485.132489	46250.459172
485.501213	46087.045128
485.869879	46243.678820
486.238487	45823.599470
486.607036	46011.400094
486.975527	45464.296270
487.343959	45672.891655
487.712333	45743.011584
488.080648	45641.197921
488.448905	46084.141424
488.817104	45882.981741
489.185244	46915.468022
489.553326	48669.955919
489.921350	51427.119233
490.289315	54264.646101
490.657222	54792.704446
491.025070	55007.954154
491.392861	54089.090439
491.760593	52817.156912
492.128267	51117.819239
492.495883	49567.775337
492.863440	48138.822470
493.230939	46749.399812
493.598380	45650.423232
493.965763	45327.071022
494.333088	44487.880223
494.700354	43983.656454
495.067563	43692.602916
495.434713	43543.629258
495.801805	43614.477634
496.168839	43207.273391
496.535815	42861.762789
496.902733	42882.890264
497.269593	42458.883856
497.636395	42392.196952
498.003139	42788.902992
498.369825	42220.649007
498.736453	42528.040925
499.103023	42045.836915
499.469535	41915.734817
499.835989	42005.963909
500.202385	41651.185145
500.568723	41680.728827
500.935003	41861.638195
501.301226	41648.835967
501.667390	42269.432253
502.033497	42505.121319
502.399546	41929.290479
502.765537	41225.260577
503.131470	41599.636827
503.497345	41957.495735
503.863163	40583.178894
504.228923	41230.536145
504.594625	41643.227684
504.960269	40888.501418
505.325856	41585.929929
505.691385	40952.829062
506.056856	41079.178021
506.422270	41521.176308
506.787625	41071.999418
507.152924	41279.190841
507.518164	41367.058153
507.883347	40574.800497
508.248472	40803.573099
508.613540	41300.225056
508.978550	41582.312901
509.343503	41349.661131
509.708398	41548.718652
510.073236	42070.107550
510.438016	42063.972466
510.802738	41511.787159
511.167403	42136.673466
511.532010	42363.714433
511.896561	42637.454128
512.261053	43501.328936
512.625488	43030.409549
512.989866	42902.543203
513.354186	42742.484047
513.718449	42731.131369
514.082655	43407.510542
514.446803	43069.904469
514.810894	43608.705513
515.174927	43503.559647
515.538904	43390.592430
515.902822	44070.296244
516.266684	43510.965102
516.630488	43925.496662
516.994235	43784.692194
517.357925	44363.514958
517.721558	44510.918296
518.085133	44809.951981
518.448651	44931.612667
518.812112	44697.032655
519.175516	44796.960927
519.538863	45120.429084
519.902152	45076.785295
520.265385	45532.130037
520.628560	45550.159723
520.991678	45341.957549
521.354739	45577.782726
521.717743	45885.111629
522.080690	45755.448111
522.443580	46303.550083
522.806413	46343.307143
523.169189	46282.495704
523.531908	46442.764067
523.894569	46290.816129
524.257174	46464.007490
524.619722	46734.835918
524.982213	46712.357413
525.344647	46619.975748
525.707025	46671.987853
526.069345	47068.416630
526.431608	46947.151674
526.793815	47266.155890
527.155964	46787.483208
527.518057	46936.338399
527.880093	46731.992707
528.242072	47239.077332
528.603995	46919.937005
528.965860	46904.390087
529.327669	46979.082343
529.689421	46887.814773
530.051117	46812.749472
530.412755	46950.466233
530.774337	47017.843775
531.135862	46809.215623
531.497331	46976.357599
531.858743	46870.488327
532.220098	47185.048765
532.581396	46880.545429
532.942638	46535.672533
533.303824	46821.178281
533.664953	46775.455015
534.026025	46480.726476
534.387040	46934.674818
534.747999	46864.383490
535.108902	47011.502003
535.469748	46489.566140
535.830537	46586.973835
536.191270	46764.104858
536.551947	46397.562561
536.912567	46682.239040
537.273131	46778.426776
537.633638	46262.966274
537.994089	46570.186792
538.354483	46128.264123
538.714821	46687.912858
539.075103	46987.455699
539.435328	46738.538646
539.795497	46577.708194
540.155609	46555.181798
540.515665	46984.748600
540.875665	46393.413692
541.235609	46687.471757
541.595496	46652.276942
541.955328	47277.470759
542.315102	46599.498582
542.674821	46340.048037
543.034483	46338.883531
543.394090	46283.624923
543.753640	46203.994857
544.113134	47166.247782
544.472571	46125.158772
544.831953	47302.510171
545.191278	46492.232910
545.550548	46165.361974
545.909761	46571.956238
546.268918	46715.127527
546.628019	46980.017477
546.987064	46498.168869
547.346053	45709.515638
547.704986	46522.484874
548.063863	46041.654579
548.422684	46157.404513
548.781449	45958.783051
549.140158	46284.572660
549.498811	46067.397231
549.857408	45446.561491
550.215949	46220.726446
550.574434	46075.989878
550.932864	45792.677032
551.291237	46422.594411
551.649555	45976.772409
552.007817	46139.115207
552.366022	45720.429736
552.724173	45814.774930
553.082267	46118.161651
553.440305	46320.017012
553.798288	45565.709162
554.156215	45800.284133
554.514086	45923.832732
554.871902	45598.159070
555.229661	45530.297577
555.587365	45255.247182
555.945014	45273.702846
556.302606	45121.429753
556.660143	45248.081182
557.017625	45235.649697
557.375050	44925.606132
557.732421	45180.736408
558.089735	45064.744499
558.446994	44872.053955
558.804197	45218.711420
559.161345	45048.209514
559.518437	44245.524231
559.875474	44431.328559
560.232455	44500.601575
560.589381	44548.858020
560.946251	44181.632648
561.303065	44705.937853
561.659825	44367.832706
562.016528	43963.234739
562.373177	43575.612858
562.729770	43937.537458
563.086307	43359.511196
563.442789	43659.631249
563.799216	43576.915997
564.155587	43266.020477
564.511904	43143.104544
564.868164	43100.602576
565.224370	43186.960062
565.580520	42823.749968
565.936615	42871.348543
566.292654	42485.216323
566.648638	42586.982095
567.004567	42412.033892
567.360441	42304.995073
567.716260	42035.268136
568.072023	42135.403096
568.427732	41969.705410
568.783385	41425.578387
569.138982	41636.538073
569.494525	41424.761720
569.850013	41077.151477
570.205445	40892.899825
570.560823	40686.061283
570.916145	40417.582032
571.271412	40304.566924
571.626625	39920.143655
571.981782	39762.073235
572.336884	39343.554122
572.691931	39454.363725
573.046923	38945.086199
573.401860	38638.571442
573.756743	38449.886095
574.111570	38369.225113
574.466342	38085.009900
574.821059	37996.764502
575.175722	37425.253932
575.530330	37271.957484
575.884882	36864.841461
576.239380	36657.130799
576.593823	36462.572508
576.948211	36227.347228
577.302544	35666.909552
577.656823	35485.647304
578.011047	35487.391543
578.365216	35103.404334
578.719330	34727.399792
579.073389	34431.226963
579.427394	34305.056964
579.781344	34096.103658
580.135239	33636.839419
580.489080	33494.144518
580.842866	32923.909360
581.196597	33059.420616
581.550273	32823.161900
581.903895	32535.107849
582.257463	32644.387461
582.610975	31991.230363
582.964434	32000.564060
583.317837	31529.039735
583.671186	31217.866952
584.024481	31185.291016
584.377721	30661.772230
584.730906	30659.763330
585.084037	30492.525572
585.437113	30098.813977
585.790135	29912.286243
586.143103	29437.833008
586.496016	29322.650204
586.848874	29147.707042
587.201679	28949.345200
587.554428	28415.872656
587.907124	28325.288163
588.259765	27965.566548
588.612352	27925.779241
588.964884	27332.677409
589.317362	27310.657649
589.669786	27070.272748
590.022155	26745.685455
590.374470	26783.090817
590.726731	26315.901884
591.078937	25821.941904
591.431090	25700.311464
591.783188	25291.380626
592.135232	24910.702934
592.487222	24875.515681
592.839157	24726.244595
593.191038	24338.204298
593.542866	24015.189845
593.894639	23496.346729
594.246358	23468.010403
594.598022	23260.329988
594.949633	22853.546682
595.301190	22643.859887
595.652692	22371.778732
596.004141	22364.612732
596.355535	21657.268271
596.706876	21453.111623
597.058162	21189.958351
597.409395	21252.932444
597.760573	21118.689038
598.111698	20739.599310
598.462768	20553.305990
598.813785	20406.305944
599.164748	19958.548139
599.515657	19969.464758
599.866511	19559.611388
600.217312	19677.697896
600.568060	19020.729686
600.918753	19201.336584
601.269392	19007.264764
601.619978	18694.728349
601.970510	18606.056973
602.320988	18516.069857
602.671412	18476.890009
603.021783	18204.158545
603.372100	17875.107310
603.722363	17743.381960
604.072572	17613.904964
604.422728	17461.243703
604.772830	17210.302626
605.122878	17084.576249
605.472872	16904.322231
605.822813	16846.762337
606.172701	16624.455014
606.522534	16567.905871
606.872314	16503.280799
607.222041	16260.544200
607.571714	16250.867705
607.921333	15897.956689
608.270899	15839.875035
608.620411	15811.231199
608.969870	15594.416213
609.319276	15441.104642
609.668627	15307.085567
610.017926	15329.760677
610.367171	15228.584720
610.716362	15121.508091
611.065500	14952.253872
611.414585	14866.549215
611.763616	14819.404344
612.112594	14648.917562
612.461518	14579.815946
612.810389	14524.706052
613.159207	14351.645761
613.507971	14236.715015
613.856682	14236.657042
614.205340	14062.318818
614.553945	14133.895641
614.902496	13832.306092
615.250994	13844.041898
615.599439	13720.062281
615.947830	13646.589984
616.296169	13538.873129
616.644454	13435.751286
616.992686	13353.507382
617.340864	13369.477757
617.688990	13165.416891
618.037063	13207.414743
618.385082	13063.900655
618.733048	13004.926717
619.080961	12879.124723
619.428821	12756.329777
619.776628	12653.437306
620.124382	12484.959424
620.472083	12388.844785
620.819731	12292.778037
621.167326	12092.437542
621.514868	11959.938374
621.862357	11741.104407
622.209793	11624.305913
622.557176	11436.946389
622.904506	11257.370407
623.251783	11061.113247
623.599007	10902.478217
623.946179	10750.772254
624.293297	10627.473193
624.640363	10403.096476
624.987376	10292.410382
625.334336	10149.902004
625.681243	9976.962700
626.028097	9878.642556
626.374899	9758.075800
626.721647	9659.062498
627.068343	9548.988903
627.414987	9417.928986
627.761577	9291.469121
628.108115	9265.010625
628.454600	9081.779806
628.801032	9034.647538
629.147412	8954.662071
629.493739	8868.901962
629.840014	8722.738747
630.186236	8709.412457
630.532405	8568.444151
630.878521	8529.516361
631.224585	8436.476826
631.570597	8320.517684
631.916556	8277.403216
632.262462	8204.377062
632.608316	8138.655539
632.954117	8046.838483
633.299866	7968.652708
633.645562	7892.178404
633.991206	7749.556600
634.336797	7613.064839
634.682336	7537.949126
635.027823	7431.517765
635.373257	7333.242992
