Dividing Wavelength (nm)	Counts (n)	Blue Motor Position (mm): 0.000000	Red Motor Position (mm): 27.700000	
326.493990	2128.438168
326.888308	2128.438168
327.282561	2128.438168
327.676750	2094.007088
328.070874	2094.430544
328.464933	2094.584300
328.858929	2103.371031
329.252859	2112.188009
329.646726	2123.880965
330.040528	2138.795219
330.434265	2153.152425
330.827938	2172.618841
331.221547	2187.941428
331.615091	2207.531352
332.008571	2227.035576
332.401986	2245.080386
332.795338	2266.522934
333.188625	2285.505399
333.581847	2305.496094
333.975006	2323.286326
334.368100	2340.408605
334.761129	2356.686491
335.154095	2375.305993
335.546996	2392.745864
335.939833	2409.477454
336.332606	2426.060330
336.725315	2437.266815
337.117960	2444.400047
337.510540	2456.299691
337.903056	2468.801753
338.295508	2473.797536
338.687896	2483.337920
339.080220	2491.287819
339.472480	2496.843171
339.864676	2502.842144
340.256807	2504.016733
340.648875	2505.803822
341.040879	2510.749194
341.432818	2513.201715
341.824694	2515.855882
342.216506	2513.753721
342.608253	2516.291942
342.999937	2515.082065
343.391557	2516.002076
343.783113	2516.125584
344.174605	2511.840603
344.566033	2510.867661
344.957397	2511.099554
345.348697	2508.732732
345.739934	2506.565036
346.131106	2506.554954
346.522215	2507.230468
346.913260	2503.338698
347.304241	2499.094046
347.695159	2498.695795
348.086012	2498.352996
348.476802	2494.620022
348.867528	2493.319404
349.258191	2491.996101
349.648789	2491.744044
350.039324	2487.204485
350.429796	2489.684732
350.820203	2487.451501
351.210548	2485.515698
351.600828	2484.434371
351.991045	2484.406644
352.381198	2484.199957
352.771288	2484.189875
353.161314	2485.245996
353.551276	2480.414050
353.941175	2483.980667
354.331010	2482.634679
354.720782	2482.609473
355.110490	2485.641727
355.500135	2482.622076
355.889717	2483.539566
356.279235	2483.675677
356.668689	2489.599033
357.058080	2485.654330
357.447408	2482.851448
357.836672	2482.037302
358.225873	2484.020996
358.615010	2483.075780
359.004084	2488.532829
359.393095	2486.667602
359.782043	2489.195740
360.170927	2488.931080
360.559748	2491.605412
360.948505	2490.975268
361.337199	2489.213384
361.725830	2493.543736
362.114398	2492.366626
362.502903	2492.636328
362.891344	2492.653972
363.279722	2494.617501
363.668037	2495.857625
364.056289	2496.709580
364.444478	2492.510299
364.832603	2497.004488
365.220665	2495.814775
365.608665	2496.255876
365.996601	2496.366782
366.384474	2502.101094
366.772284	2498.390805
367.160031	2501.352483
367.547715	2503.711743
367.935336	2508.095026
368.322893	2510.822290
368.710388	2513.020233
369.097820	2521.209588
369.485189	2521.847294
369.872495	2528.224353
370.259738	2535.773481
370.646918	2544.043494
371.034035	2548.590615
371.421090	2559.431616
371.808081	2572.049624
372.195010	2578.595563
372.581875	2594.205496
372.968678	2606.584049
373.355418	2616.648712
373.742096	2636.914151
374.128710	2650.361429
374.515262	2660.718479
374.901751	2681.107426
375.288177	2692.145032
375.674540	2713.804350
376.060841	2733.966445
376.447079	2750.226687
376.833254	2771.391971
377.219367	2786.333951
377.605417	2822.438695
377.991404	2831.490087
378.377329	2855.183510
378.763191	2870.906868
379.148991	2910.253074
379.534727	2932.776950
379.920402	2963.129737
380.306013	2975.104998
380.691563	3023.850435
381.077049	3045.870195
381.462474	3063.204203
381.847835	3104.108125
382.233134	3126.906743
382.618371	3126.049747
383.003545	3191.998122
383.388657	3203.091181
383.773706	3229.945407
384.158693	3250.785537
384.543618	3272.170112
384.928480	3309.051193
385.313280	3359.664378
385.698017	3357.065663
386.082692	3410.227151
386.467305	3415.782503
386.851856	3447.410702
387.236344	3467.736634
387.620770	3501.877848
388.005133	3528.621170
388.389435	3553.116136
388.773674	3563.987384
389.157851	3606.123869
389.541965	3623.576343
389.926018	3588.389090
390.310008	3658.428361
390.693936	3678.615661
391.077802	3719.073441
391.461606	3706.954508
391.845348	3768.557408
392.229027	3769.429527
392.612645	3786.463586
392.996200	3858.660471
393.379694	3898.873755
393.763125	3962.493117
394.146494	3932.137809
394.529801	3993.329855
394.913047	4042.360117
395.296230	4005.733614
395.679351	4061.914753
396.062410	4087.082713
396.445408	4066.408941
396.828343	4103.234570
397.211217	4125.803816
397.594028	4046.428328
397.976778	4110.335035
398.359466	4136.233963
398.742092	4167.549611
399.124656	4089.938527
399.507158	4173.054551
399.889598	4192.495761
400.271977	4256.243672
400.654294	4226.337027
401.036549	4234.428078
401.418742	4207.127710
401.800874	4307.678564
402.182944	4331.336699
402.564952	4395.782810
402.946898	4383.671438
403.328783	4377.163308
403.710606	4287.612252
404.092367	4484.025688
404.474067	4444.616468
404.855705	4455.553251
405.237282	4381.284452
405.618797	4489.681862
406.000250	4523.611348
406.381642	4607.198720
406.762972	4568.333945
407.144240	4581.171243
407.525447	4577.680244
407.906593	4638.295078
408.287677	4681.313764
408.668700	4609.684009
409.049661	4657.590094
409.430560	4699.081311
409.811399	4631.454232
410.192176	4792.420795
410.572891	4728.786310
410.953545	4829.395138
411.334138	4715.180236
411.714669	4779.293630
412.095139	4675.239174
412.475547	4816.988858
412.855894	4797.819871
413.236180	4806.936797
413.616405	4761.271505
413.996568	4846.945915
414.376670	4790.928613
414.756711	4743.720728
415.136691	4774.481849
415.516609	4855.740208
415.896466	4893.445518
416.276262	4928.731074
416.655997	4904.059667
417.035670	5086.012554
417.415283	5175.956821
417.794834	5124.254747
418.174324	5076.520061
418.553753	4985.645701
418.933121	5171.243342
419.312428	5236.594340
419.691674	5175.445143
420.070859	5297.985511
420.449983	5214.078026
420.829045	5328.930634
421.208047	5237.814299
421.586988	5307.656965
421.965867	5319.433100
422.344686	5448.277431
422.723444	5304.450791
423.102141	5123.478409
423.480777	5424.117701
423.859352	5190.253533
424.237866	5446.797852
424.616319	5439.435247
424.994712	5548.989602
425.373044	5428.823618
425.751314	5572.191513
426.129524	5375.208426
426.507673	5568.579526
426.885762	5652.219830
427.263789	5582.780457
427.641756	5461.971725
428.019662	5583.763482
428.397508	5591.801601
428.775292	5535.864958
429.153016	5638.512933
429.530679	5566.522735
429.908282	5649.106918
430.285824	5517.174880
430.663305	5794.105626
431.040726	5527.489081
431.418086	5531.395975
431.795385	5634.298528
432.172624	5647.040045
432.549802	5637.708869
432.926920	5657.593700
433.303977	5662.871788
433.680974	5700.146080
434.057910	5717.084357
434.434786	5723.446293
434.811601	5693.973187
435.188355	5925.241161
435.565050	5800.172654
435.941683	5785.528103
436.318257	5998.158931
436.694770	5976.275282
437.071222	6016.319687
437.447614	5944.647083
437.823946	5855.680799
438.200218	6010.252659
438.576429	5874.489344
438.952580	5972.804447
439.328670	6019.460326
439.704700	5929.153096
440.080670	5911.738430
440.456580	6186.216654
440.832429	6070.597791
441.208218	5909.553090
441.583947	6068.467903
441.959616	6068.901442
442.335224	5996.220607
442.710773	6132.598942
443.086261	6161.406616
443.461689	5954.643691
443.837057	6103.289673
444.212365	6258.559733
444.587612	6150.346324
444.962800	6298.367204
445.337927	6281.093690
445.712995	5888.607096
446.088002	6467.870961
446.462949	6292.330422
446.837837	6222.981789
447.212664	6396.959570
447.587431	6534.507453
447.962139	7068.900008
448.336786	7986.611818
448.711374	7727.751089
449.085901	6804.463762
449.460369	6722.542491
449.834776	6648.810575
450.209124	7036.187960
450.583412	7173.103178
450.957640	7316.834036
451.331808	7079.872079
451.705917	6627.819211
452.079965	6550.394649
452.453954	6750.019300
452.827883	6620.164218
453.201752	6703.539862
453.575562	6500.663667
453.949311	6693.666762
454.323001	6578.559576
454.696632	6634.022350
455.070202	6757.545743
455.443713	6893.130096
455.817164	6980.294167
456.190556	7046.713889
456.563888	7101.241530
456.937160	7123.904037
457.310373	6790.729138
457.683526	6796.776002
458.056619	6679.914494
458.429653	6651.996584
458.802628	6571.701086
459.175542	6654.832233
459.548398	6966.509132
459.921194	7085.964313
460.293930	7060.652680
460.666607	7501.620051
461.039224	7758.101356
461.411782	7841.227462
461.784280	7829.763878
462.156719	7707.094961
462.529099	7571.389620
462.901419	7182.520053
463.273680	7058.500107
463.645882	7040.977056
464.018024	6889.785291
464.390106	6994.361507
464.762130	7276.676204
465.134094	7616.026517
465.505999	8392.104590
465.877845	9310.320516
466.249631	9793.888157
466.621358	9445.005023
466.993026	8891.146053
467.364634	8637.848237
467.736184	8297.925753
468.107674	7968.425856
468.479105	7916.388545
468.850477	7688.518309
469.221790	7459.884338
469.593043	7152.648696
469.964238	6980.909188
470.335373	6934.187774
470.706449	6913.186327
471.077467	6840.563465
471.448425	7657.295923
471.819324	8319.610277
472.190164	8269.443234
472.560945	7363.084102
472.931667	6766.433297
473.302330	6611.364884
473.672934	6324.538354
474.043479	6475.979657
474.413965	6375.101127
474.784393	6220.919957
475.154761	6253.130410
475.525070	6228.176698
475.895321	6070.169293
476.265513	6095.821204
476.635645	6121.387416
477.005719	6039.995466
477.375734	6029.456934
477.745691	6079.636580
478.115588	6067.263068
478.485427	6105.028872
478.855207	6280.750892
479.224928	6574.481282
479.594591	6777.957375
479.964194	6592.596669
480.333739	6470.068904
480.703226	6322.015257
481.072653	6272.846362
481.442022	6264.150372
481.811333	6254.315081
482.180584	6082.063895
482.549777	5868.321493
482.918912	5725.679524
483.287988	5641.661133
483.657005	5566.537859
484.025964	5369.378332
484.394864	5320.287576
484.763706	5223.056321
485.132489	5075.753806
485.501213	4982.205114
485.869879	4934.367084
486.238487	4801.608298
486.607036	4770.111168
486.975527	4632.268378
487.343959	4614.367241
487.712333	4553.487747
488.080648	4476.055623
488.448905	4405.489552
488.817104	4328.012058
489.185244	4322.118950
489.553326	4287.463538
489.921350	4339.135364
490.289315	4473.444306
490.657222	4475.211230
491.025070	4382.481726
491.392861	4294.117861
491.760593	4155.675173
492.128267	4032.774363
492.495883	3916.074172
492.863440	3807.752379
493.230939	3709.434755
493.598380	3654.052639
493.965763	3584.913214
494.333088	3536.603837
494.700354	3479.900938
495.067563	3451.458748
495.434713	3384.063563
495.801805	3365.065974
496.168839	3319.057884
496.535815	3276.535751
496.902733	3245.439393
497.269593	3202.519010
497.636395	3184.665763
498.003139	3146.352994
498.369825	3111.531224
498.736453	3093.952720
499.103023	3062.508523
499.469535	3036.990202
499.835989	3010.604803
500.202385	2985.575474
500.568723	2957.808799
500.935003	2948.185236
501.301226	2915.107705
501.667390	2915.826070
502.033497	2899.091960
502.399546	2873.825697
502.765537	2848.836697
503.131470	2836.460664
503.497345	2827.648727
503.863163	2804.416570
504.228923	2798.334418
504.594625	2788.615073
504.960269	2770.572783
505.325856	2765.932401
505.691385	2750.045205
506.056856	2743.710995
506.422270	2736.665983
506.787625	2725.124261
507.152924	2720.388097
507.518164	2709.985676
507.883347	2703.780016
508.248472	2695.610826
508.613540	2694.345496
508.978550	2685.402489
509.343503	2679.380831
509.708398	2678.354956
510.073236	2674.173319
510.438016	2671.045283
510.802738	2667.150992
511.167403	2663.155877
511.532010	2656.289826
511.896561	2658.429796
512.261053	2656.032727
512.625488	2646.661222
512.989866	2643.442445
513.354186	2644.047384
513.718449	2636.382309
514.082655	2641.315078
514.446803	2640.140489
514.810894	2640.422794
515.174927	2636.218472
515.538904	2633.995323
515.902822	2633.987761
516.266684	2632.591362
516.630488	2628.061885
516.994235	2629.488531
517.357925	2625.289250
517.721558	2630.559777
518.085133	2626.156329
518.448651	2623.897892
518.812112	2624.245731
519.175516	2624.139867
519.538863	2619.015534
519.902152	2620.643827
520.265385	2621.551235
520.628560	2621.268930
520.991678	2618.319855
521.354739	2619.098713
521.717743	2616.898250
522.080690	2616.973867
522.443580	2616.439505
522.806413	2619.381018
523.169189	2617.583847
523.531908	2615.148969
523.894569	2611.284925
524.257174	2615.166613
524.619722	2612.910697
524.982213	2612.736777
525.344647	2613.271139
525.707025	2611.330295
526.069345	2610.380038
526.431608	2611.559668
526.793815	2609.248299
527.155964	2611.438680
527.518057	2612.555296
527.880093	2610.518669
528.242072	2610.170830
528.603995	2608.671087
528.965860	2606.150510
529.327669	2607.776282
529.689421	2606.604213
530.051117	2604.612958
530.412755	2605.860643
530.774337	2602.402412
531.135862	2606.815942
531.497331	2603.569439
531.858743	2598.608943
532.220098	2604.030704
532.581396	2600.519541
532.942638	2603.418204
533.303824	2603.675303
533.664953	2605.124635
534.026025	2605.553133
534.387040	2604.696137
534.747999	2605.222937
535.108902	2604.814604
535.469748	2601.948708
535.830537	2604.078595
536.191270	2603.758482
536.551947	2604.948194
536.912567	2601.651280
537.273131	2601.568101
537.633638	2602.697319
537.994089	2600.418718
538.354483	2601.497525
538.714821	2602.528441
539.075103	2601.663883
539.435328	2604.615478
539.795497	2599.644901
540.155609	2602.286465
540.515665	2600.847216
540.875665	2602.374685
541.235609	2601.016094
541.595496	2601.348811
541.955328	2601.767226
542.315102	2601.101794
542.674821	2602.422576
543.034483	2601.474839
543.394090	2602.314192
543.753640	2602.480550
544.113134	2600.451485
544.472571	2601.069027
544.831953	2602.271342
545.191278	2602.467947
545.550548	2600.315374
545.909761	2602.236054
546.268918	2602.914089
546.628019	2605.008688
546.987064	2600.882504
547.346053	2599.196238
547.704986	2600.413677
548.063863	2598.873604
548.422684	2600.532144
548.781449	2602.624222
549.140158	2601.754623
549.498811	2602.336877
549.857408	2601.232864
550.215949	2599.349993
550.574434	2596.042996
550.932864	2599.571804
551.291237	2596.877307
551.649555	2602.382247
552.007817	2600.191866
552.366022	2601.734459
552.724173	2603.380396
553.082267	2601.890735
553.440305	2602.664552
553.798288	2600.262442
554.156215	2602.780498
554.514086	2604.975921
554.871902	2600.743872
555.229661	2602.069696
555.587365	2601.938626
555.945014	2602.538523
556.302606	2601.926023
556.660143	2602.599017
557.017625	2600.133892
557.375050	2599.637339
557.732421	2604.300406
558.089735	2601.169850
558.446994	2597.719180
558.804197	2603.561877
559.161345	2602.024325
559.518437	2600.864860
559.875474	2601.522730
560.232455	2603.425766
560.589381	2599.465940
560.946251	2603.660180
561.303065	2602.331836
561.659825	2600.033069
562.016528	2600.264962
562.373177	2600.900148
562.729770	2601.585745
563.086307	2600.942998
563.442789	2601.973914
563.799216	2601.321084
564.155587	2601.389140
564.511904	2600.433841
564.868164	2600.010384
565.224370	2600.781681
565.580520	2601.711774
565.936615	2602.488111
566.292654	2597.104159
566.648638	2601.121959
567.004567	2600.426279
567.360441	2599.229005
567.716260	2599.483584
568.072023	2599.995261
568.427732	2595.062492
568.783385	2596.118613
569.138982	2596.123655
569.494525	2596.408480
569.850013	2594.472677
570.205445	2599.203800
570.560823	2599.571804
570.916145	2600.668255
571.271412	2599.803697
571.626625	2599.150867
571.981782	2595.874118
572.336884	2595.148191
572.691931	2598.180445
573.046923	2598.233377
573.401860	2597.270517
573.756743	2596.423603
574.111570	2595.077615
574.466342	2595.947214
574.821059	2596.658017
575.175722	2593.560228
575.530330	2594.833119
575.884882	2595.581731
576.239380	2596.600044
576.593823	2595.168356
576.948211	2596.042996
577.302544	2595.372523
577.656823	2594.190372
578.011047	2596.869745
578.365216	2593.076277
578.719330	2596.118613
579.073389	2594.248345
579.427394	2594.598706
579.781344	2594.414703
580.135239	2595.889241
580.489080	2594.291195
580.842866	2592.851946
581.196597	2597.041145
581.550273	2595.445619
581.903895	2594.828078
582.257463	2593.222471
582.610975	2592.259610
582.964434	2591.284147
583.317837	2592.917481
583.671186	2594.013932
584.024481	2590.830443
584.377721	2591.987388
584.730906	2588.927408
585.084037	2591.170721
585.437113	2591.853797
585.790135	2589.978488
586.143103	2592.935125
586.496016	2592.017635
586.848874	2588.047726
587.201679	2590.719538
587.554428	2588.319948
587.907124	2589.018148
588.259765	2590.033941
588.612352	2591.470670
588.964884	2588.317428
589.317362	2590.250710
589.669786	2589.887747
590.022155	2591.604260
590.374470	2590.049064
590.726731	2591.788262
591.078937	2589.320617
591.431090	2588.773652
591.783188	2590.729620
592.135232	2586.094279
592.487222	2589.781883
592.839157	2589.602922
593.191038	2588.040164
593.542866	2587.299115
593.894639	2588.309866
594.246358	2589.260124
594.598022	2585.592684
594.949633	2590.001173
595.301190	2587.843559
595.652692	2587.641913
596.004141	2590.946390
596.355535	2586.868096
596.706876	2585.945565
597.058162	2585.607808
597.409395	2588.420772
597.760573	2586.404310
598.111698	2586.464804
598.462768	2587.639393
598.813785	2587.120154
599.164748	2585.375915
599.515657	2587.508323
599.866511	2585.839701
600.217312	2587.846080
600.568060	2585.620411
600.918753	2583.934145
601.269392	2586.608477
601.619978	2583.059504
601.970510	2587.488158
602.320988	2586.613518
602.671412	2586.517736
603.021783	2584.801223
603.372100	2586.426995
603.722363	2585.998497
604.072572	2585.161666
604.422728	2586.563106
604.772830	2581.106057
605.122878	2580.470872
605.472872	2583.551017
605.822813	2579.462641
606.172701	2581.085893
606.522534	2583.510688
606.872314	2585.945565
607.222041	2584.614700
607.571714	2588.083014
607.921333	2588.057808
608.270899	2586.603436
608.620411	2585.033116
608.969870	2587.682242
609.319276	2588.541759
609.668627	2589.096286
610.017926	2592.367995
610.367171	2592.862028
610.716362	2591.032089
611.065500	2592.529312
611.414585	2587.583940
611.763616	2587.757860
612.112594	2585.537232
612.461518	2589.436564
612.810389	2584.849114
613.159207	2587.500761
613.507971	2585.451532
613.856682	2587.548652
614.205340	2587.084866
614.553945	2588.582088
614.902496	2585.794330
615.250994	2586.989084
615.599439	2587.972109
615.947830	2585.242324
616.296169	2584.171079
616.644454	2587.329362
616.992686	2585.096131
617.340864	2590.190217
617.688990	2584.738209
618.037063	2585.491861
618.385082	2585.718713
618.733048	2588.511512
619.080961	2585.925400
619.428821	2586.089238
619.776628	2585.658219
620.124382	2588.428333
620.472083	2589.187027
620.819731	2587.324321
621.167326	2588.972778
621.514868	2586.719382
621.862357	2583.442632
622.209793	2585.375915
622.557176	2586.283322
622.904506	2581.469020
623.251783	2578.711509
623.599007	2581.708475
623.946179	2577.854513
624.293297	2580.801068
624.640363	2583.243507
624.987376	2580.012127
625.334336	2579.835687
625.681243	2581.799216
626.028097	2581.655543
626.374899	2582.015986
626.721647	2578.968608
627.068343	2579.616396
627.414987	2579.926427
627.761577	2579.016499
628.108115	2579.661767
628.454600	2575.371745
628.801032	2578.293093
629.147412	2580.095306
629.493739	2578.671180
629.840014	2577.005079
630.186236	2576.727815
630.532405	2578.189750
630.878521	2578.711509
631.224585	2579.722261
631.570597	2577.960377
631.916556	2576.712692
632.262462	2575.714543
632.608316	2578.832497
632.954117	2575.966601
633.299866	2577.872157
633.645562	2575.001220
633.991206	2577.907445
634.336797	2574.565160
634.682336	2577.529359
635.027823	2574.232444
635.373257	2573.698082
635.718639	2572.626837
636.063968	2574.635736
636.409245	2572.367217
636.754470	2574.683627
637.099642	2571.878225
637.444762	2574.751683
637.789829	2576.503484
638.134845	2572.447876
638.479808	2574.469378
638.824719	2571.109449
639.169577	2571.132134
639.514383	2568.384706
639.859137	2573.070458
640.203839	2572.944429
640.548489	2571.301013
640.893086	2570.670869
641.237632	2567.736917
641.582125	2568.931671
641.926566	2564.656772
642.270955	2570.537278
642.615292	2569.677762
642.959576	2569.390416
643.303809	2571.742114
643.647990	2572.304203
643.992118	2572.102557
644.336195	2570.242371
