Dividing Wavelength (nm)	Counts (n)	Blue Motor Position (mm): 0.000000	Red Motor Position (mm): 32.900000	
326.493990	2126.388939
326.888308	2126.388939
327.282561	2126.388939
327.676750	2093.538260
328.070874	2093.969279
328.464933	2096.048755
328.858929	2102.677872
329.252859	2112.185488
329.646726	2124.818620
330.040528	2139.022071
330.434265	2152.451705
330.827938	2172.323933
331.221547	2191.807993
331.615091	2209.888091
332.008571	2227.401059
332.401986	2248.110119
332.795338	2267.213572
333.188625	2286.206119
333.581847	2305.102884
333.975006	2322.628456
334.368100	2342.175530
334.761129	2359.000381
335.154095	2375.469830
335.546996	2395.203427
335.939833	2413.618762
336.332606	2428.341452
336.725315	2440.825869
337.117960	2450.353650
337.510540	2458.248097
337.903056	2469.704119
338.295508	2477.974132
338.687896	2485.896305
339.080220	2492.227994
339.472480	2500.959273
339.864676	2504.843482
340.256807	2509.337671
340.648875	2511.928824
341.040879	2516.284381
341.432818	2516.864113
341.824694	2517.733712
342.216506	2517.242200
342.608253	2518.996521
342.999937	2519.263702
343.391557	2517.867303
343.783113	2514.280522
344.174605	2515.586181
344.566033	2513.108454
344.957397	2514.910666
345.348697	2512.143073
345.739934	2510.050994
346.131106	2506.796929
346.522215	2509.488905
346.913260	2503.870539
347.304241	2503.142092
347.695159	2501.234016
348.086012	2501.483553
348.476802	2497.576659
348.867528	2493.037100
349.258191	2496.263438
349.648789	2494.521719
350.039324	2491.071050
350.429796	2493.362254
350.820203	2489.593992
351.210548	2490.198930
351.600828	2487.786738
351.991045	2490.687922
352.381198	2486.138281
352.771288	2485.729947
353.161314	2485.581233
353.551276	2486.120637
353.941175	2486.271871
354.331010	2487.706079
354.720782	2486.370174
355.110490	2489.021821
355.500135	2484.734319
355.889717	2485.908908
356.279235	2488.537870
356.668689	2488.300936
357.058080	2489.442757
357.447408	2483.201808
357.836672	2484.005872
358.225873	2486.155925
358.615010	2484.199957
359.004084	2491.597850
359.393095	2487.499392
359.782043	2492.527943
360.170927	2491.605412
360.559748	2494.332676
360.948505	2491.527274
361.337199	2493.768067
361.725830	2495.083808
362.114398	2492.893427
362.502903	2496.276041
362.891344	2496.518016
363.279722	2498.297544
363.668037	2496.855774
364.056289	2497.203613
364.444478	2498.806700
364.832603	2497.483397
365.220665	2502.496825
365.608665	2499.449447
365.996601	2502.900117
366.384474	2502.736280
366.772284	2504.349449
367.160031	2509.178874
367.547715	2506.507063
367.935336	2511.737260
368.322893	2514.668691
368.710388	2514.419154
369.097820	2522.858045
369.485189	2524.193951
369.872495	2530.094622
370.259738	2539.592155
370.646918	2546.191026
371.034035	2552.026161
371.421090	2563.635939
371.808081	2574.330747
372.195010	2582.517580
372.581875	2599.138265
372.968678	2608.489605
373.355418	2617.238527
373.742096	2641.297434
374.128710	2653.388642
374.515262	2666.782987
374.901751	2681.664474
375.288177	2694.980682
375.674540	2717.118909
376.060841	2736.817217
376.447079	2755.734147
376.833254	2776.980090
377.219367	2787.745474
377.605417	2824.402224
377.991404	2835.127279
378.377329	2858.598891
378.763191	2876.016078
379.148991	2913.169382
379.534727	2939.196859
379.920402	2965.103349
380.306013	2978.969042
380.691563	3028.203471
381.077049	3049.623334
381.462474	3067.421128
381.847835	3106.714401
382.233134	3128.963534
382.618371	3130.937146
383.003545	3197.755119
383.388657	3200.842826
383.773706	3237.214751
384.158693	3252.638161
384.543618	3277.130607
384.928480	3315.493788
385.313280	3361.428782
385.698017	3355.732278
386.082692	3411.038777
386.467305	3420.047319
386.851856	3448.058490
387.236344	3469.858960
387.620770	3502.276100
388.005133	3526.599667
388.389435	3555.188050
388.773674	3567.743044
389.157851	3610.645784
389.541965	3629.172024
389.926018	3589.830860
390.310008	3659.686128
390.693936	3679.797812
391.077802	3720.590829
391.461606	3709.696895
391.845348	3774.032101
392.229027	3774.422790
392.612645	3784.510139
392.996200	3864.195658
393.379694	3902.815937
393.763125	3969.517964
394.146494	3934.444137
394.529801	3999.026358
394.913047	4043.509500
395.296230	4006.782174
395.679351	4064.112696
396.062410	4088.912652
396.445408	4068.972368
396.828343	4103.466463
397.211217	4129.806492
397.594028	4047.421435
397.976778	4116.399543
398.359466	4141.239829
398.742092	4167.713448
399.124656	4088.912652
399.507158	4173.916588
399.889598	4196.153118
400.271977	4261.463787
400.654294	4230.947162
401.036549	4240.747165
401.418742	4210.817834
401.800874	4309.228719
402.182944	4331.951720
402.564952	4396.107965
402.946898	4378.267321
403.328783	4380.059451
403.710606	4291.803971
404.092367	4483.808918
404.474067	4449.188794
404.855705	4457.869661
405.237282	4384.173033
405.618797	4499.174355
406.000250	4532.249365
406.381642	4612.617961
406.762972	4573.153288
407.144240	4584.732818
407.525447	4583.979166
407.906593	4642.181807
408.287677	4684.998847
408.668700	4612.254998
409.049661	4667.145601
409.430560	4707.832754
409.811399	4631.920539
410.192176	4795.682421
410.572891	4731.314448
410.953545	4836.001570
411.334138	4715.954053
411.714669	4782.411584
412.095139	4679.635060
412.475547	4819.801822
412.855894	4801.205005
413.236180	4807.955110
413.616405	4761.614304
413.996568	4851.563612
414.376670	4793.751659
414.756711	4748.550153
415.136691	4780.163229
415.516609	4858.790106
415.896466	4892.596083
416.276262	4927.949695
416.655997	4906.421448
417.035670	5091.162092
417.415283	5183.193397
417.794834	5124.153924
418.174324	5084.049024
418.553753	4987.896576
418.933121	5172.788455
419.312428	5239.755143
419.691674	5176.612171
420.070859	5306.983971
420.449983	5213.742789
420.829045	5330.818546
421.208047	5238.499896
421.586988	5311.573941
421.965867	5321.510056
422.344686	5453.326146
422.723444	5305.181758
423.102141	5128.015448
423.480777	5424.450417
423.859352	5195.859296
424.237866	5452.673317
424.616319	5444.627635
424.994712	5556.251384
425.373044	5435.019196
425.751314	5571.594136
426.129524	5376.224219
426.507673	5571.568930
426.885762	5653.122197
427.263789	5587.078040
427.641756	5469.414989
428.019662	5591.254636
428.397508	5598.624803
428.775292	5544.341658
429.153016	5640.095855
429.530679	5568.272016
429.908282	5653.026415
430.285824	5525.858268
430.663305	5798.146111
431.040726	5534.360174
431.418086	5530.327251
431.795385	5642.079549
432.172624	5652.045910
432.549802	5645.873017
432.926920	5660.477240
433.303977	5666.100647
433.680974	5702.200350
434.057910	5720.434203
434.434786	5729.757817
434.811601	5698.817736
435.188355	5932.734836
435.565050	5805.112985
435.941683	5785.555829
436.318257	5998.244630
436.694770	5983.685778
437.071222	6017.312795
437.447614	5952.602023
437.823946	5859.025605
438.200218	6018.736921
438.576429	5885.426128
438.952580	5980.686291
439.328670	6024.942581
439.704700	5930.990597
440.080670	5925.102529
440.456580	6189.251429
440.832429	6076.327062
441.208218	5921.084729
441.583947	6076.102731
441.959616	6079.971816
442.335224	6008.679819
442.710773	6141.151259
443.086261	6169.898439
443.461689	5966.127439
443.837057	6115.433813
444.212365	6267.283449
444.587612	6163.128170
444.962800	6317.629453
445.337927	6291.057531
445.712995	5905.535290
446.088002	6482.593651
446.462949	6312.726931
446.837837	6241.923925
447.212664	6414.729637
447.587431	6555.042593
447.962139	7100.482836
448.336786	8024.518775
448.711374	7770.119466
449.085901	6842.106058
449.460369	6763.711074
449.834776	6694.611978
450.209124	7092.202741
450.583412	7236.102478
450.957640	7386.331383
451.331808	7149.689539
451.705917	6700.313523
452.079965	6626.846268
452.453954	6839.091448
452.827883	6713.261727
453.201752	6809.590615
453.575562	6605.837259
453.949311	6811.239073
454.323001	6698.097936
454.696632	6775.298166
455.070202	6911.091728
455.443713	7068.811787
455.817164	7164.031622
456.190556	7245.378201
456.563888	7322.661610
456.937160	7363.263063
457.310373	7024.774788
457.683526	7047.780093
458.056619	6940.804288
458.429653	6930.079233
458.802628	6861.580035
459.175542	6969.312013
459.548398	7322.097001
459.921194	7486.264696
460.293930	7490.806776
460.666607	8020.866459
461.039224	8332.051844
461.411782	8453.034496
461.784280	8475.288669
462.156719	8363.170887
462.529099	8240.570026
462.901419	7830.572983
463.273680	7723.473670
463.645882	7735.668221
464.018024	7605.881195
464.390106	7767.946729
464.762130	8155.122468
465.134094	8621.678736
465.505999	9643.240836
465.877845	10862.373318
466.249631	11514.383553
466.621358	11125.450972
466.993026	10503.662454
467.364634	10246.548485
467.736184	9875.239777
468.107674	9549.886229
468.479105	9584.551723
468.850477	9343.592131
469.221790	9119.580898
469.593043	8795.207854
469.964238	8653.783324
470.335373	8663.812700
470.706449	8712.671563
471.077467	8703.020274
471.448425	10013.319502
471.819324	11081.655948
472.190164	11109.097469
472.560945	9853.429225
472.931667	9071.339577
473.302330	8932.793545
473.672934	8579.675842
474.043479	8937.033156
474.413965	8878.646512
474.784393	8760.648224
475.154761	8920.530939
475.525070	9004.846757
475.895321	8835.353083
476.265513	9003.510852
476.635645	9173.370010
477.005719	9174.988220
477.375734	9288.535169
477.745691	9522.497640
478.115588	9652.844234
478.485427	9894.829701
478.855207	10439.113000
479.224928	11242.161246
479.594591	11874.095086
479.964194	11687.804287
480.333739	11622.128135
480.703226	11541.741895
481.072653	11631.817232
481.442022	11862.271060
481.811333	12054.896069
482.180584	11861.976152
482.549777	11568.696945
482.918912	11393.547096
483.287988	11411.803634
483.657005	11418.894017
484.025964	11098.170768
484.394864	11227.221786
484.763706	11196.289266
485.132489	10942.416759
485.501213	10908.328476
485.869879	10979.741462
486.238487	10822.434777
486.607036	10926.569892
486.975527	10704.111334
487.343959	10895.871785
487.712333	10928.871178
488.080648	10854.796464
488.448905	10888.000023
488.817104	10820.655249
489.185244	11083.692575
489.553326	11227.141128
489.921350	11753.092270
490.289315	12769.585491
490.657222	13105.656533
491.025070	13012.427954
491.392861	12871.303373
491.760593	12492.231288
492.128267	12144.643731
492.495883	11819.161633
492.863440	11466.505195
493.230939	11129.478854
493.598380	11053.763244
493.965763	10912.590772
494.333088	10807.424741
494.700354	10706.294154
495.067563	10761.905642
495.434713	10583.466440
495.801805	10688.670280
496.168839	10604.551066
496.535815	10518.314568
496.902733	10506.755202
497.269593	10419.639022
497.636395	10503.584316
498.003139	10466.584768
498.369825	10321.681842
498.736453	10453.901225
499.103023	10365.570127
499.469535	10368.229336
499.835989	10345.256797
500.202385	10280.722467
500.568723	10117.920924
500.935003	10304.272217
501.301226	10090.058466
501.667390	10299.420106
502.033497	10363.803202
502.399546	10212.823165
502.765537	10098.008366
503.131470	10138.612340
503.497345	10264.590774
503.863163	9881.205983
504.228923	10132.129416
504.594625	10156.185802
504.960269	9900.569055
505.325856	10068.295805
505.691385	9840.039921
506.056856	9945.715108
506.422270	9929.845556
506.787625	9800.020721
507.152924	9852.118525
507.518164	9802.778232
507.883347	9689.891674
508.248472	9587.881405
508.613540	9734.452953
508.978550	9594.898692
509.343503	9535.818889
509.708398	9577.665507
510.073236	9627.933373
510.438016	9590.308721
510.802738	9491.824739
511.167403	9485.634202
511.532010	9342.437707
511.896561	9489.878854
512.261053	9489.720058
512.625488	9331.014452
512.989866	9263.311756
513.354186	9198.842960
513.718449	9066.424452
514.082655	9167.865070
514.446803	9025.071867
514.810894	9057.781393
515.174927	8900.149554
515.538904	8868.594451
515.902822	8914.947861
516.266684	8780.212942
516.630488	8670.030963
516.994235	8665.569542
517.357925	8630.296588
517.721558	8637.021488
518.085133	8579.217097
518.448651	8527.751957
518.812112	8394.806648
519.175516	8327.640835
519.538863	8346.262857
519.902152	8237.694047
520.265385	8253.732478
520.628560	8147.533011
520.991678	8051.667909
521.354739	8031.170577
521.717743	7932.996627
522.080690	7850.500664
522.443580	7852.653237
522.806413	7756.291581
523.169189	7719.004687
523.531908	7680.691918
523.894569	7507.787903
524.257174	7440.775844
524.619722	7432.876356
524.982213	7356.366764
525.344647	7301.418188
525.707025	7214.586833
526.069345	7193.668565
526.431608	7075.771100
526.793815	7069.948567
527.155964	6896.411887
527.518057	6863.009202
527.880093	6768.076713
528.242072	6737.940696
528.603995	6622.284024
528.965860	6519.575555
529.327669	6479.596685
529.689421	6394.128962
530.051117	6320.281100
530.412755	6291.027284
530.774337	6195.540268
531.135862	6106.674808
531.497331	6071.663995
531.858743	5938.070897
532.220098	5947.641528
532.581396	5835.869065
532.942638	5776.834633
533.303824	5707.705290
533.664953	5639.995032
534.026025	5556.253905
534.387040	5535.045771
534.747999	5476.212985
535.108902	5440.892140
535.469748	5304.574299
535.830537	5281.664776
536.191270	5216.880907
536.551947	5166.376108
536.912567	5117.373572
537.273131	5049.527203
537.633638	4987.387420
537.994089	4928.889871
538.354483	4867.803689
538.714821	4858.495198
539.075103	4810.221109
539.435328	4748.472016
539.795497	4667.838760
540.155609	4649.904855
540.515665	4628.142194
540.875665	4521.829300
541.235609	4485.449814
541.595496	4445.057568
541.955328	4429.606432
542.315102	4362.962378
542.674821	4307.555056
543.034483	4264.659878
543.394090	4224.441553
543.753640	4171.055733
544.113134	4167.554652
544.472571	4107.511989
544.831953	4085.527517
545.191278	4017.963453
545.550548	3987.086386
545.909761	3968.794559
546.268918	3928.898867
546.628019	3906.243922
546.987064	3846.405426
547.346053	3807.202893
547.704986	3783.391003
548.063863	3747.354314
548.422684	3720.605952
548.781449	3672.825896
549.140158	3656.542969
549.498811	3611.361628
549.857408	3568.249680
550.215949	3555.785427
550.574434	3517.994417
550.932864	3494.860562
551.291237	3479.873212
551.649555	3446.349539
552.007817	3422.462031
552.366022	3397.959503
552.724173	3373.832541
553.082267	3345.022347
553.440305	3332.573217
553.798288	3295.044347
554.156215	3282.247378
554.514086	3259.078235
554.871902	3229.161508
555.229661	3213.425546
555.587365	3190.042154
555.945014	3168.166067
556.302606	3152.288953
556.660143	3130.654841
557.017625	3118.356946
557.375050	3095.281064
557.732421	3087.845363
558.089735	3065.676888
558.446994	3050.986966
558.804197	3037.557332
559.161345	3022.653161
559.518437	3000.721621
559.875474	2986.745022
560.232455	2974.936119
560.589381	2961.657720
560.946251	2948.699434
561.303065	2940.522683
561.659825	2923.405445
562.016528	2909.711150
562.373177	2896.243708
562.729770	2880.500184
563.086307	2872.701519
563.442789	2867.642721
563.799216	2850.926255
564.155587	2844.922241
564.511904	2833.564521
564.868164	2822.670588
565.224370	2815.013075
565.580520	2804.424132
565.936615	2799.393060
566.292654	2786.127264
566.648638	2782.205246
567.004567	2776.191149
567.360441	2770.204779
567.716260	2758.980650
568.072023	2757.740526
568.427732	2744.157137
568.783385	2740.073803
569.138982	2733.643811
569.494525	2729.653738
569.850013	2722.202912
570.205445	2724.907491
570.560823	2717.812067
570.916145	2709.158927
571.271412	2707.253371
571.626625	2703.502752
571.981782	2697.534026
572.336884	2694.355578
572.691931	2694.476566
573.046923	2688.225535
573.401860	2682.249247
573.756743	2684.719413
574.111570	2680.331088
574.466342	2676.703978
574.821059	2673.039059
575.175722	2670.422701
575.530330	2666.780467
575.884882	2664.980775
576.239380	2663.715445
576.593823	2661.036072
576.948211	2659.954745
577.302544	2652.342602
577.656823	2651.354536
578.011047	2651.732623
578.365216	2652.524084
578.719330	2647.258599
579.073389	2645.789102
579.427394	2644.143166
579.781344	2642.361118
580.135239	2640.992444
580.489080	2639.066724
580.842866	2640.659728
581.196597	2641.632671
581.550273	2636.102525
581.903895	2634.542288
582.257463	2635.868112
582.610975	2631.628501
582.964434	2630.355610
583.317837	2631.066412
583.671186	2628.560959
584.024481	2629.629684
584.377721	2628.470218
584.730906	2628.296298
585.084037	2625.574075
585.437113	2624.966616
585.790135	2627.388891
586.143103	2623.124075
586.496016	2623.837398
586.848874	2618.798765
587.201679	2620.122067
587.554428	2616.678959
587.907124	2621.891512
588.259765	2615.753908
588.612352	2617.218363
588.964884	2615.224587
589.317362	2617.321707
589.669786	2617.031840
590.022155	2616.477313
590.374470	2612.998917
590.726731	2616.744494
591.078937	2612.242744
591.431090	2612.076386
591.783188	2611.952878
592.135232	2610.057404
592.487222	2613.472786
592.839157	2613.674432
593.191038	2611.675614
593.542866	2608.963473
593.894639	2609.331478
594.246358	2605.056579
594.598022	2606.553802
594.949633	2605.961466
595.301190	2607.163782
595.652692	2608.532455
596.004141	2607.998092
596.355535	2606.584049
596.706876	2604.706219
597.058162	2603.614809
597.409395	2603.907196
597.760573	2607.010026
598.111698	2604.781836
598.462768	2605.747217
598.813785	2602.223451
599.164748	2601.668924
599.515657	2602.714963
599.866511	2603.214037
600.217312	2603.040118
600.568060	2601.298399
600.918753	2600.993409
601.269392	2603.486260
601.619978	2597.129365
601.970510	2602.193204
602.320988	2597.812441
602.671412	2601.127000
603.021783	2599.788573
603.372100	2599.478542
603.722363	2599.733121
604.072572	2596.789087
604.422728	2599.254211
604.772830	2594.538212
605.122878	2592.700711
605.472872	2595.186000
605.822813	2594.901175
606.172701	2596.204313
606.522534	2596.791607
606.872314	2598.566094
607.222041	2598.913933
607.571714	2598.707246
607.921333	2599.622215
608.270899	2597.575507
608.620411	2598.218254
608.969870	2598.893769
609.319276	2601.356372
609.668627	2602.450303
610.017926	2606.677310
610.367171	2605.434666
610.716362	2605.999275
611.065500	2602.372165
611.414585	2599.302102
611.763616	2601.931064
612.112594	2597.986361
612.461518	2601.071547
612.810389	2600.418718
613.159207	2600.464088
613.507971	2601.260590
613.856682	2600.847216
614.205340	2601.893255
614.553945	2598.724890
614.902496	2599.171032
615.250994	2601.260590
615.599439	2598.298912
615.947830	2598.465271
616.296169	2599.491145
616.644454	2599.312184
616.992686	2596.980651
617.340864	2597.910744
617.688990	2600.443923
618.037063	2600.660693
618.385082	2595.327152
618.733048	2600.217072
619.080961	2597.658686
619.428821	2600.232195
619.776628	2596.995774
620.124382	2597.005857
620.472083	2596.416042
620.819731	2597.431834
621.167326	2596.831937
621.514868	2597.096597
621.862357	2594.366812
622.209793	2598.593820
622.557176	2596.453850
622.904506	2592.819178
623.251783	2589.255082
623.599007	2589.106368
623.946179	2589.050916
624.293297	2590.593509
624.640363	2592.385639
624.987376	2592.662902
625.334336	2593.368664
625.681243	2591.994950
626.028097	2591.604260
626.374899	2590.875813
626.721647	2590.419589
627.068343	2590.689291
627.414987	2586.893302
627.761577	2592.088211
628.108115	2590.396904
628.454600	2588.982860
628.801032	2588.514033
629.147412	2586.106882
629.493739	2588.108220
629.840014	2591.815989
630.186236	2590.182655
630.532405	2586.842890
630.878521	2587.833477
631.224585	2588.992942
631.570597	2589.401276
631.916556	2587.651996
632.262462	2586.522777
632.608316	2585.907756
632.954117	2585.363312
633.299866	2588.206523
633.645562	2585.214598
633.991206	2584.309711
634.336797	2583.608990
634.682336	2584.319793
635.027823	2583.051943
635.373257	2583.601428
635.718639	2582.966243
636.063968	2580.685121
636.409245	2582.573033
636.754470	2579.558423
637.099642	2583.629155
637.444762	2585.098651
637.789829	2580.972467
638.134845	2582.391552
638.479808	2581.257292
638.824719	2579.694534
639.169577	2579.611355
639.514383	2578.892991
639.859137	2577.168916
640.203839	2580.244020
640.548489	2578.363670
640.893086	2574.300500
641.237632	2573.960222
641.582125	2574.900397
641.926566	2573.105746
642.270955	2579.076993
642.615292	2578.840059
642.959576	2577.357959
643.303809	2576.662280
