Dividing Wavelength (nm)	Counts (n)	Blue Motor Position (mm): 0.000000	Red Motor Position (mm): 10.200000	
326.493990	2129.945473
326.888308	2129.945473
327.282561	2129.945473
327.676750	2091.526840
328.070874	2095.285020
328.464933	2099.564960
328.858929	2102.012440
329.252859	2110.600045
329.646726	2124.821140
330.040528	2138.603655
330.434265	2153.217960
330.827938	2174.587411
331.221547	2191.392098
331.615091	2208.101002
332.008571	2227.622870
332.401986	2248.528535
332.795338	2265.970928
333.188625	2285.041613
333.581847	2307.131949
333.975006	2322.701552
334.368100	2343.105623
334.761129	2358.556759
335.154095	2374.443955
335.546996	2393.242418
335.939833	2408.809501
336.332606	2421.992118
336.725315	2433.758172
337.117960	2444.180757
337.510540	2452.521346
337.903056	2465.088943
338.295508	2471.370220
338.687896	2479.922538
339.080220	2488.187510
339.472480	2494.675475
339.864676	2500.868532
340.256807	2505.140910
340.648875	2506.933040
341.040879	2506.612927
341.432818	2508.021929
341.824694	2510.156858
342.216506	2513.363032
342.608253	2512.558968
342.999937	2511.044101
343.391557	2512.899246
343.783113	2512.929493
344.174605	2508.873884
344.566033	2506.176867
344.957397	2504.157885
345.348697	2505.050169
345.739934	2504.634274
346.131106	2501.218892
346.522215	2499.560353
346.913260	2498.957935
347.304241	2499.154540
347.695159	2492.956441
348.086012	2497.372492
348.476802	2492.911071
348.867528	2489.987202
349.258191	2487.030565
349.648789	2489.989722
350.039324	2485.992087
350.429796	2485.765235
350.820203	2482.914463
351.210548	2482.460759
351.600828	2482.717858
351.991045	2481.518063
352.381198	2480.814822
352.771288	2480.305666
353.161314	2480.048567
353.551276	2480.429174
353.941175	2480.996304
354.331010	2476.698720
354.720782	2482.400265
355.110490	2476.930613
355.500135	2481.437405
355.889717	2481.258444
356.279235	2481.124853
356.668689	2482.059987
357.058080	2483.385811
357.447408	2479.909935
357.836672	2476.328195
358.225873	2479.912456
358.615010	2478.904225
359.004084	2482.117960
359.393095	2485.301449
359.782043	2484.787251
360.170927	2483.602580
360.559748	2487.204485
360.948505	2487.660709
361.337199	2486.470997
361.725830	2489.949393
362.114398	2485.745071
362.502903	2489.568786
362.891344	2484.696511
363.279722	2487.401090
363.668037	2486.677684
364.056289	2491.081132
364.444478	2487.151553
364.832603	2490.259424
365.220665	2492.510299
365.608665	2492.946359
365.996601	2496.278562
366.384474	2493.591627
366.772284	2495.502224
367.160031	2494.904847
367.547715	2498.635301
367.935336	2499.368789
368.322893	2500.351814
368.710388	2507.820283
369.097820	2514.489730
369.485189	2514.053670
369.872495	2522.593385
370.259738	2525.857532
370.646918	2534.757689
371.034035	2544.177085
371.421090	2553.495658
371.808081	2562.259704
372.195010	2570.567525
372.581875	2584.400451
372.968678	2595.173397
373.355418	2610.085130
373.742096	2627.305712
374.128710	2641.173926
374.515262	2652.745895
374.901751	2670.367248
375.288177	2685.639423
375.674540	2708.523741
376.060841	2723.380022
376.447079	2742.962384
376.833254	2763.568100
377.219367	2773.012702
377.605417	2811.922848
377.991404	2820.243272
378.377329	2838.837568
378.763191	2859.740713
379.148991	2895.507699
379.534727	2920.645413
379.920402	2946.199022
380.306013	2954.350568
380.691563	2997.686847
381.077049	3014.723426
381.462474	3029.935108
381.847835	3056.738923
382.233134	3072.472364
382.618371	3064.769481
383.003545	3123.743419
383.388657	3117.852831
383.773706	3135.706077
384.158693	3140.379227
384.543618	3147.237717
384.928480	3165.905109
385.313280	3192.310673
385.698017	3175.924402
386.082692	3202.486242
386.467305	3188.819674
386.851856	3198.186138
387.236344	3197.646734
387.620770	3199.166642
388.005133	3197.810572
388.389435	3192.797144
388.773674	3177.845082
389.157851	3180.098478
389.541965	3165.204389
389.926018	3123.612349
390.310008	3136.963845
390.693936	3122.977164
391.077802	3116.799230
391.461606	3084.341761
391.845348	3084.707244
392.229027	3060.376115
392.612645	3037.133875
392.996200	3040.899617
393.379694	3028.642052
393.763125	3026.292874
394.146494	2981.829897
394.529801	2972.927219
394.913047	2959.084211
395.296230	2921.661205
395.679351	2908.090419
396.062410	2883.285422
396.445408	2855.110413
396.828343	2833.864470
397.211217	2810.959987
397.594028	2774.371293
397.976778	2758.295053
398.359466	2746.314751
398.742092	2721.918087
399.124656	2700.639377
399.507158	2691.615711
399.889598	2679.658094
400.271977	2666.223419
400.654294	2648.629792
401.036549	2634.721249
401.418742	2621.586523
401.800874	2612.865327
402.182944	2603.259408
402.564952	2594.230701
402.946898	2588.501430
403.328783	2572.460478
403.710606	2565.017215
404.092367	2563.903120
404.474067	2557.221070
404.855705	2552.363919
405.237282	2545.853268
405.618797	2541.563247
406.000250	2537.701723
406.381642	2536.549819
406.762972	2530.903727
407.144240	2530.901206
407.525447	2529.046062
407.906593	2527.334590
408.287677	2525.371060
408.668700	2525.925587
409.049661	2526.288550
409.430560	2521.514578
409.811399	2526.225536
410.192176	2525.121523
410.572891	2523.793179
410.953545	2521.713703
411.334138	2520.072808
411.714669	2522.837881
412.095139	2518.948630
412.475547	2523.881399
412.855894	2521.479290
413.236180	2521.640607
413.616405	2522.666481
413.996568	2523.410052
414.376670	2519.752694
414.756711	2518.482324
415.136691	2518.991480
415.516609	2521.212108
415.896466	2521.602798
416.276262	2521.307890
416.655997	2518.631038
417.035670	2518.116840
417.415283	2521.305370
417.794834	2519.044412
418.174324	2521.663292
418.553753	2521.048271
418.933121	2521.015503
419.312428	2522.109434
419.691674	2522.560617
420.070859	2523.750329
420.449983	2522.666481
420.829045	2522.913498
421.208047	2521.552386
421.586988	2522.119516
421.965867	2521.232273
422.344686	2523.773015
422.723444	2522.747140
423.102141	2521.670853
423.480777	2524.254445
423.859352	2522.555576
424.237866	2523.823426
424.616319	2524.400638
424.994712	2525.456760
425.373044	2525.066071
425.751314	2524.909795
426.129524	2526.142357
426.507673	2524.370391
426.885762	2526.475073
427.263789	2528.758716
427.641756	2524.309898
428.019662	2522.774866
428.397508	2522.585823
428.775292	2524.299815
429.153016	2522.855525
429.530679	2528.325177
429.908282	2526.139836
430.285824	2525.529857
430.663305	2521.849814
431.040726	2525.771832
431.418086	2525.668488
431.795385	2525.907943
432.172624	2526.757378
432.549802	2527.725279
432.926920	2523.147912
433.303977	2526.704446
433.680974	2529.340969
434.057910	2528.975485
434.434786	2526.898530
434.811601	2527.115300
435.188355	2526.064219
435.565050	2527.165711
435.941683	2527.962213
436.318257	2524.806451
436.694770	2523.296626
437.071222	2526.328880
437.447614	2524.594723
437.823946	2524.869466
438.200218	2528.158818
438.576429	2525.948272
438.952580	2527.571524
439.328670	2531.163346
439.704700	2529.416586
440.080670	2531.233922
440.456580	2527.894158
440.832429	2527.987419
441.208218	2529.598068
441.583947	2529.023376
441.959616	2527.904240
442.335224	2530.049251
442.710773	2528.625125
443.086261	2530.157636
443.461689	2528.161339
443.837057	2532.106042
444.212365	2529.908099
444.587612	2528.247039
444.962800	2531.301978
445.337927	2529.686288
445.712995	2527.372398
446.088002	2531.637215
446.462949	2531.254087
446.837837	2526.482635
447.212664	2531.465815
447.587431	2530.573531
447.962139	2532.443799
448.336786	2535.138296
448.711374	2532.199303
449.085901	2532.763913
449.460369	2531.604447
449.834776	2529.993798
450.209124	2531.574200
450.583412	2532.279962
450.957640	2531.087729
451.331808	2532.469005
451.705917	2528.357944
452.079965	2532.012781
452.453954	2534.346835
452.827883	2534.636701
453.201752	2533.757020
453.575562	2531.173428
453.949311	2530.828109
454.323001	2532.073274
454.696632	2534.001516
455.070202	2535.254243
455.443713	2534.576207
455.817164	2532.307688
456.190556	2531.669982
456.563888	2531.816176
456.937160	2530.762574
457.310373	2533.605785
457.683526	2530.502955
458.056619	2534.508152
458.429653	2532.463964
458.802628	2534.258615
459.175542	2534.278779
459.548398	2534.084695
459.921194	2535.534027
460.293930	2533.837678
460.666607	2535.783564
461.039224	2537.643749
461.411782	2537.212731
461.784280	2538.939326
462.156719	2536.020498
462.529099	2536.275076
462.901419	2535.075282
463.273680	2535.735673
463.645882	2536.650642
464.018024	2537.384130
464.390106	2535.715508
464.762130	2537.850437
465.134094	2537.729449
465.505999	2539.904707
465.877845	2542.049718
466.249631	2543.196580
466.621358	2541.732125
466.993026	2544.285470
467.364634	2542.528627
467.736184	2541.192722
468.107674	2537.545447
468.479105	2541.626261
468.850477	2536.638039
469.221790	2536.489325
469.593043	2538.273894
469.964238	2537.389171
470.335373	2537.812628
470.706449	2542.233720
471.077467	2539.725746
471.448425	2542.755479
471.819324	2541.782537
472.190164	2544.325799
472.560945	2543.998124
472.931667	2541.149872
473.302330	2541.429656
473.672934	2541.845551
474.043479	2538.190715
474.413965	2538.001671
474.784393	2532.900024
475.154761	2536.978317
475.525070	2534.866074
475.895321	2534.873635
476.265513	2537.202648
476.635645	2538.699871
477.005719	2540.693647
477.375734	2540.043339
477.745691	2539.970242
478.115588	2538.664583
478.485427	2541.056611
478.855207	2541.429656
479.224928	2545.830583
479.594591	2544.923176
479.964194	2541.938813
480.333739	2544.595501
480.703226	2542.518545
481.072653	2540.345808
481.442022	2545.039122
481.811333	2539.435880
482.180584	2547.375697
482.549777	2543.544420
482.918912	2542.906714
483.287988	2542.589121
483.657005	2542.722712
484.025964	2542.180788
484.394864	2542.160623
484.763706	2544.197249
485.132489	2543.098278
485.501213	2541.943854
485.869879	2541.729605
486.238487	2540.623071
486.607036	2542.652136
486.975527	2541.631302
487.343959	2540.355890
487.712333	2543.312527
488.080648	2541.709440
488.448905	2542.833617
488.817104	2540.136600
489.185244	2542.672300
489.553326	2542.526107
489.921350	2544.116591
490.289315	2545.013916
490.657222	2545.069369
491.025070	2546.309493
491.392861	2543.062990
491.760593	2543.050387
492.128267	2547.360573
492.495883	2544.582898
492.863440	2543.123484
493.230939	2545.797816
493.598380	2543.907383
493.965763	2541.212886
494.333088	2540.938143
494.700354	2538.989738
495.067563	2540.900335
495.434713	2540.277752
495.801805	2544.940820
496.168839	2543.199101
496.535815	2542.952084
496.902733	2541.875798
497.269593	2544.214893
497.636395	2544.537527
498.003139	2541.384286
498.369825	2543.793957
498.736453	2543.798998
499.103023	2543.488967
499.469535	2543.282280
499.835989	2543.884698
500.202385	2543.945192
500.568723	2543.572146
500.935003	2542.286652
501.301226	2540.615510
501.667390	2544.734132
502.033497	2544.411498
502.399546	2543.892260
502.765537	2541.964018
503.131470	2544.351005
503.497345	2543.453679
503.863163	2545.225645
504.228923	2545.092054
504.594625	2544.469472
504.960269	2543.151210
505.325856	2545.633978
505.691385	2543.557023
506.056856	2543.360418
506.422270	2543.874616
506.787625	2544.610624
507.152924	2544.106509
507.518164	2546.259081
507.883347	2542.929399
508.248472	2544.963505
508.613540	2545.139945
508.978550	2544.598021
509.343503	2545.336550
509.708398	2544.671118
510.073236	2542.815973
510.438016	2545.823022
510.802738	2544.903011
511.167403	2547.068187
511.532010	2546.780841
511.896561	2547.597508
512.261053	2546.599359
512.625488	2541.908566
512.989866	2540.618030
513.354186	2542.150541
513.718449	2541.497712
514.082655	2541.762372
514.446803	2544.860161
514.810894	2545.742363
515.174927	2546.120450
515.538904	2548.434339
515.902822	2546.158258
516.266684	2545.722198
516.630488	2544.265305
516.994235	2546.493495
517.357925	2544.557692
517.721558	2545.132383
518.085133	2547.796633
518.448651	2546.858979
518.812112	2544.224976
519.175516	2544.862682
519.538863	2545.969215
519.902152	2544.650953
520.265385	2545.071890
520.628560	2545.880995
520.991678	2544.146838
521.354739	2546.985007
521.717743	2545.578526
522.080690	2546.674977
522.443580	2546.057435
522.806413	2547.269833
523.169189	2546.133053
523.531908	2545.344112
523.894569	2547.479041
524.257174	2546.180943
524.619722	2547.264792
524.982213	2550.387786
525.344647	2546.160779
525.707025	2546.881664
526.069345	2545.306303
526.431608	2544.958464
526.793815	2547.703372
527.155964	2545.863351
527.518057	2548.527601
527.880093	2549.440049
528.242072	2546.148176
528.603995	2546.163299
528.965860	2547.884853
529.327669	2547.206818
529.689421	2546.347302
530.051117	2548.618341
530.412755	2547.678166
530.774337	2544.575336
531.135862	2546.596839
531.497331	2545.477702
531.858743	2545.291180
532.220098	2544.792106
532.581396	2543.534338
532.942638	2541.966539
533.303824	2548.368804
533.664953	2544.285470
534.026025	2546.599359
534.387040	2545.553320
534.747999	2546.654812
535.108902	2546.924514
535.469748	2544.028371
535.830537	2545.412167
536.191270	2547.594987
536.551947	2548.232693
536.912567	2548.769576
537.273131	2544.613145
537.633638	2547.489123
537.994089	2546.511139
538.354483	2546.248999
538.714821	2547.055584
539.075103	2547.310162
539.435328	2545.709596
539.795497	2547.879812
540.155609	2546.634647
540.515665	2545.946530
540.875665	2546.601880
541.235609	2544.555171
541.595496	2549.089689
541.955328	2549.084648
542.315102	2545.986859
542.674821	2546.377548
543.034483	2547.005172
543.394090	2548.109185
543.753640	2548.361242
544.113134	2546.377548
544.472571	2545.485264
544.831953	2547.068187
545.191278	2549.495502
545.550548	2546.133053
545.909761	2546.145655
546.268918	2550.544062
546.628019	2547.627755
546.987064	2548.497354
547.346053	2549.745039
547.704986	2546.349822
548.063863	2549.256047
548.422684	2547.496685
548.781449	2548.467107
549.140158	2547.332847
549.498811	2548.250337
549.857408	2548.129349
550.215949	2547.098433
550.574434	2544.023330
550.932864	2545.996941
551.291237	2543.020140
551.649555	2546.969884
552.007817	2548.194884
552.366022	2549.203115
552.724173	2548.855276
553.082267	2545.311344
553.440305	2547.509287
553.798288	2548.762014
554.156215	2547.602549
554.514086	2547.962991
554.871902	2548.366284
555.229661	2547.534493
555.587365	2546.889226
555.945014	2548.310831
556.302606	2545.737322
556.660143	2548.706562
557.017625	2547.383259
557.375050	2547.973074
557.732421	2547.930224
558.089735	2548.245296
558.446994	2547.151366
558.804197	2547.557178
559.161345	2542.178267
559.518437	2546.692621
559.875474	2548.812426
560.232455	2547.226983
560.589381	2548.005841
560.946251	2548.877961
561.303065	2549.503064
561.659825	2546.813608
562.016528	2546.768238
562.373177	2550.082797
562.729770	2545.628937
563.086307	2547.680687
563.442789	2546.513660
563.799216	2548.988866
564.155587	2546.259081
564.511904	2545.533155
564.868164	2546.806047
565.224370	2549.757642
565.580520	2548.157076
565.936615	2550.213867
566.292654	2548.817467
566.648638	2547.859648
567.004567	2548.663712
567.360441	2548.378887
567.716260	2545.182795
568.072023	2547.453835
568.427732	2544.877805
568.783385	2544.976108
569.138982	2544.116591
569.494525	2542.342105
569.850013	2544.650953
570.205445	2549.578681
570.560823	2549.165307
570.916145	2545.475182
571.271412	2550.123126
571.626625	2549.001469
571.981782	2546.811088
572.336884	2549.147663
572.691931	2546.987528
573.046923	2549.785368
573.401860	2548.739329
573.756743	2547.259750
574.111570	2547.045501
574.466342	2550.808723
574.821059	2547.660522
575.175722	2548.434339
575.530330	2547.355532
575.884882	2548.530121
576.239380	2548.325954
576.593823	2550.405430
576.948211	2545.616334
577.302544	2546.085162
577.656823	2543.632640
578.011047	2548.920811
578.365216	2547.826880
578.719330	2545.578526
579.073389	2549.871068
579.427394	2547.756304
579.781344	2546.599359
580.135239	2544.882846
580.489080	2546.153217
580.842866	2549.992056
581.196597	2546.790923
581.550273	2548.777138
581.903895	2543.688093
582.257463	2548.850234
582.610975	2549.596325
582.964434	2547.640358
583.317837	2545.475182
583.671186	2547.448794
584.024481	2547.398382
584.377721	2546.100285
584.730906	2546.392672
585.084037	2546.778320
585.437113	2546.546427
585.790135	2548.956099
586.143103	2545.679349
586.496016	2551.191850
586.848874	2544.565254
587.201679	2546.503577
587.554428	2541.868236
587.907124	2543.461241
588.259765	2541.331353
588.612352	2546.276725
588.964884	2547.005172
589.317362	2545.210521
589.669786	2547.297559
590.022155	2549.263609
590.374470	2550.418033
590.726731	2546.206149
591.078937	2547.736139
591.431090	2547.486602
591.783188	2545.641540
592.135232	2547.945347
592.487222	2546.425439
592.839157	2544.991231
593.191038	2546.284287
593.542866	2547.468958
593.894639	2544.991231
594.246358	2546.596839
594.598022	2548.358722
594.949633	2548.038609
595.301190	2547.196736
595.652692	2547.128680
596.004141	2546.881664
596.355535	2545.331509
596.706876	2545.913762
597.058162	2547.695810
597.409395	2546.979966
597.760573	2544.351005
598.111698	2546.054915
598.462768	2546.173382
598.813785	2547.239586
599.164748	2546.128011
599.515657	2545.117260
599.866511	2545.845707
600.217312	2545.361756
600.568060	2546.327137
600.918753	2547.025337
601.269392	2545.969215
601.619978	2545.177754
601.970510	2546.382590
602.320988	2542.790768
602.671412	2544.671118
603.021783	2543.705737
603.372100	2548.469627
603.722363	2544.610624
604.072572	2546.564071
604.422728	2546.498536
604.772830	2542.332023
605.122878	2540.015612
605.472872	2541.986703
605.822813	2540.421425
606.172701	2542.077444
606.522534	2544.809750
606.872314	2543.647764
607.222041	2545.568443
607.571714	2544.938299
607.921333	2547.738660
608.270899	2544.618186
608.620411	2544.088865
608.969870	2548.472148
609.319276	2548.545245
609.668627	2549.752601
610.017926	2552.303425
610.367171	2554.445915
610.716362	2555.547407
611.065500	2553.639331
611.414585	2546.654812
611.763616	2548.056253
612.112594	2548.086500
612.461518	2548.036088
612.810389	2550.259237
613.159207	2547.884853
613.507971	2543.796478
613.856682	2549.800492
614.205340	2547.577343
614.553945	2546.347302
614.902496	2545.487785
615.250994	2548.986346
615.599439	2544.182126
615.947830	2544.645912
616.296169	2544.973587
616.644454	2545.442414
616.992686	2544.325799
617.340864	2548.285625
617.688990	2545.444935
618.037063	2544.913093
618.385082	2545.679349
618.733048	2546.659853
619.080961	2547.060625
619.428821	2545.162630
619.776628	2546.556509
620.124382	2545.177754
620.472083	2546.312013
620.819731	2544.693803
621.167326	2548.232693
621.514868	2547.965512
621.862357	2544.618186
622.209793	2545.858310
622.557176	2546.022147
622.904506	2542.664739
623.251783	2539.776158
623.599007	2545.328988
623.946179	2539.854295
624.293297	2543.216745
624.640363	2544.827394
624.987376	2545.500388
625.334336	2545.190357
625.681243	2545.356715
626.028097	2543.927548
626.374899	2546.236396
626.721647	2541.200283
627.068343	2545.432332
627.414987	2546.465769
627.761577	2541.328833
628.108115	2545.112219
628.454600	2543.798998
628.801032	2546.947199
629.147412	2546.054915
629.493739	2544.401416
629.840014	2546.019627
630.186236	2544.388813
630.532405	2542.453010
630.878521	2544.741694
631.224585	2543.521735
631.570597	2545.260933
631.916556	2544.469472
632.262462	2541.999306
632.608316	2542.858823
632.954117	2543.294883
633.299866	2544.265305
633.645562	2544.124153
633.991206	2542.145500
634.336797	2540.839841
634.682336	2543.284801
635.027823	2542.609286
635.373257	2543.320089
635.718639	2541.187681
636.063968	2543.221786
636.409245	2542.599204
636.754470	2543.892260
637.099642	2540.174409
637.444762	2540.867567
637.789829	2543.506611
638.134845	2542.195911
638.479808	2541.837989
638.824719	2542.682383
639.169577	2541.391847
639.514383	2541.074255
639.859137	2541.926210
640.203839	2543.425953
640.548489	2543.282280
640.893086	2538.052083
641.237632	2539.330015
641.582125	2539.662732
641.926566	2538.364634
642.270955	2542.442928
642.615292	2542.016950
642.959576	2542.389996
643.303809	2541.911086
643.647990	2543.461241
643.992118	2539.511497
644.336195	2541.086857
