Dividing Wavelength (nm)	Counts (n)	Blue Motor Position (mm): 0.000000	Red Motor Position (mm): 5.500000	
326.493990	2088.900399
326.888308	2088.900399
327.282561	2088.900399
327.676750	2063.563559
328.070874	2066.147151
328.464933	2072.493963
328.858929	2084.653227
329.252859	2096.943560
329.646726	2106.839345
330.040528	2125.332818
330.434265	2142.807977
330.827938	2162.937305
331.221547	2184.011848
331.615091	2204.279807
332.008571	2223.080791
332.401986	2246.280181
332.795338	2265.837337
333.188625	2282.672270
333.581847	2303.010805
333.975006	2322.661223
334.368100	2340.748883
334.761129	2356.978878
335.154095	2372.719881
335.546996	2391.319218
335.939833	2401.870353
336.332606	2418.503640
336.725315	2425.994795
337.117960	2438.476692
337.510540	2442.275201
337.903056	2454.714248
338.295508	2456.493775
338.687896	2465.898048
339.080220	2471.662607
339.472480	2477.021354
339.864676	2480.454380
340.256807	2483.665595
340.648875	2484.701552
341.040879	2489.558703
341.432818	2486.201295
341.824694	2489.246152
342.216506	2489.551142
342.608253	2486.700369
342.999937	2485.755153
343.391557	2485.034268
343.783113	2484.159628
344.174605	2482.765749
344.566033	2482.213742
344.957397	2480.842548
345.348697	2478.450521
345.739934	2478.233751
346.131106	2475.728298
346.522215	2473.613534
346.913260	2472.101188
347.304241	2471.536578
347.695159	2468.577421
348.086012	2467.256639
348.476802	2465.666155
348.867528	2468.194293
349.258191	2461.255145
349.648789	2462.144909
350.039324	2463.838737
350.429796	2459.314301
350.820203	2461.275310
351.210548	2459.684826
351.600828	2457.675926
351.991045	2461.096349
352.381198	2458.096862
352.771288	2458.817747
353.161314	2459.198354
353.551276	2460.274641
353.941175	2457.527212
354.331010	2460.912347
354.720782	2459.596606
355.110490	2459.178190
355.500135	2458.850515
355.889717	2460.216667
356.279235	2460.491410
356.668689	2463.954683
357.058080	2459.808334
357.447408	2457.018055
357.836672	2457.549897
358.225873	2459.369754
358.615010	2458.127109
359.004084	2463.929477
359.393095	2464.794035
359.782043	2462.018880
360.170927	2464.403346
360.559748	2465.948459
360.948505	2467.750672
361.337199	2465.993830
361.725830	2464.884776
362.114398	2467.574232
362.502903	2465.618264
362.891344	2469.424335
363.279722	2466.316464
363.668037	2469.961218
364.056289	2469.414253
364.444478	2470.482977
364.832603	2467.773357
365.220665	2471.251753
365.608665	2469.610858
365.996601	2468.577421
366.384474	2470.011629
366.772284	2471.234109
367.160031	2471.269397
367.547715	2474.140334
367.935336	2473.754686
368.322893	2472.010447
368.710388	2473.986579
369.097820	2478.780717
369.485189	2473.865592
369.872495	2476.156796
370.259738	2475.761065
370.646918	2476.749132
371.034035	2480.895481
371.421090	2481.918835
371.808081	2486.274392
372.195010	2487.297746
372.581875	2491.565083
372.968678	2498.519354
373.355418	2498.617657
373.742096	2509.136024
374.128710	2517.264885
374.515262	2527.798376
374.901751	2539.486291
375.288177	2552.815102
375.674540	2572.011816
376.060841	2587.034454
376.447079	2605.928699
376.833254	2631.986423
377.219367	2652.461069
377.605417	2680.174813
377.991404	2700.102494
378.377329	2736.315622
378.763191	2759.835126
379.148991	2798.878862
379.534727	2835.971672
379.920402	2868.071219
380.306013	2906.278124
380.691563	2950.032819
381.077049	2988.605208
381.462474	3024.399921
381.847835	3074.778692
382.233134	3118.571195
382.618371	3150.154024
383.003545	3197.944162
383.388657	3242.008888
383.773706	3287.457411
384.158693	3320.933193
384.543618	3362.192517
384.928480	3392.666292
385.313280	3436.680606
385.698017	3476.457830
386.082692	3526.443391
386.467305	3531.993702
386.851856	3576.713777
387.236344	3630.996922
387.620770	3636.693426
388.005133	3661.816016
388.389435	3700.073332
388.773674	3704.691029
389.157851	3730.484093
389.541965	3754.096858
389.926018	3724.613669
390.310008	3759.311931
390.693936	3771.206534
391.077802	3772.464302
391.461606	3781.505611
391.845348	3773.364148
392.229027	3770.241153
392.612645	3798.489258
392.996200	3789.649595
393.379694	3795.323414
393.763125	3812.748162
394.146494	3782.491157
394.529801	3768.872480
394.913047	3778.717853
395.296230	3718.735684
395.679351	3677.304961
396.062410	3678.691278
396.445408	3595.560131
396.828343	3568.277406
397.211217	3538.968138
397.594028	3461.556179
397.976778	3438.997016
398.359466	3413.088006
398.742092	3357.078266
399.124656	3323.617607
399.507158	3298.800007
399.889598	3251.516504
400.271977	3226.691342
400.654294	3177.827438
401.036549	3151.144611
401.418742	3106.265739
401.800874	3088.863676
402.182944	3049.703993
402.564952	3030.272865
402.946898	2977.345791
403.328783	2937.538319
403.710606	2912.718198
404.092367	2891.686505
404.474067	2872.792260
404.855705	2827.805003
405.237282	2795.866773
405.618797	2784.201543
406.000250	2765.783687
406.381642	2745.679566
406.762972	2721.086297
407.144240	2697.223995
407.525447	2679.174144
407.906593	2657.353509
408.287677	2646.903197
408.668700	2632.525827
409.049661	2620.220370
409.430560	2606.964656
409.811399	2597.966196
410.192176	2589.804568
410.572891	2580.317117
410.953545	2577.307548
411.334138	2564.235836
411.714669	2561.062430
412.095139	2552.356357
412.475547	2548.494833
412.855894	2544.691283
413.236180	2544.678680
413.616405	2541.964018
413.996568	2534.916485
414.376670	2534.435055
414.756711	2530.959179
415.136691	2533.724252
415.516609	2533.467153
415.896466	2529.577903
416.276262	2528.433561
416.655997	2526.696884
417.035670	2523.911646
417.415283	2525.930628
417.794834	2522.071625
418.174324	2522.903416
418.553753	2524.617408
418.933121	2525.260155
419.312428	2522.507685
419.691674	2523.455422
420.070859	2521.406193
420.449983	2520.735719
420.829045	2521.300329
421.208047	2518.063908
421.586988	2520.450894
421.965867	2521.507016
422.344686	2521.025586
422.723444	2521.691018
423.102141	2516.044926
423.480777	2521.522139
423.859352	2518.419309
424.237866	2522.013652
424.616319	2521.391069
424.994712	2524.241842
425.373044	2521.595236
425.751314	2524.083046
426.129524	2520.700431
426.507673	2524.761081
426.885762	2522.116996
427.263789	2523.659589
427.641756	2523.619259
428.019662	2522.444671
428.397508	2523.019362
428.775292	2526.386853
429.153016	2525.671009
429.530679	2525.683612
429.908282	2524.561955
430.285824	2521.645648
430.663305	2523.170597
431.040726	2523.359640
431.418086	2523.830988
431.795385	2525.575227
432.172624	2525.683612
432.549802	2524.826616
432.926920	2526.666637
433.303977	2530.513037
433.680974	2527.372398
434.057910	2525.547501
434.434786	2529.829961
434.811601	2527.569003
435.188355	2527.064888
435.565050	2528.400794
435.941683	2529.053623
436.318257	2527.569003
436.694770	2524.312418
437.071222	2529.530012
437.447614	2523.112623
437.823946	2526.144877
438.200218	2525.975999
438.576429	2528.922553
438.952580	2528.388191
439.328670	2531.538912
439.704700	2531.634694
440.080670	2529.918181
440.456580	2529.963552
440.832429	2530.379447
441.208218	2528.821730
441.583947	2528.501617
441.959616	2530.266021
442.335224	2532.262318
442.710773	2531.402801
443.086261	2535.115611
443.461689	2530.119827
443.837057	2531.105373
444.212365	2536.877494
444.587612	2534.182997
444.962800	2534.006557
445.337927	2534.049407
445.712995	2530.760054
446.088002	2536.433873
446.462949	2535.564273
446.837837	2534.881197
447.212664	2534.999664
447.587431	2542.029553
447.962139	2543.972918
448.336786	2549.041798
448.711374	2545.346632
449.085901	2540.136600
449.460369	2539.599717
449.834776	2539.047711
450.209124	2543.688093
450.583412	2542.942002
450.957640	2541.288504
451.331808	2541.114584
451.705917	2539.652649
452.079965	2540.907897
452.453954	2538.722556
452.827883	2537.928575
453.201752	2537.321116
453.575562	2538.402443
453.949311	2541.220448
454.323001	2536.857329
454.696632	2541.671631
455.070202	2540.214738
455.443713	2542.090047
455.817164	2540.270191
456.190556	2539.060314
456.563888	2538.616692
456.937160	2540.121477
457.310373	2538.725077
457.683526	2540.827238
458.056619	2542.231199
458.429653	2539.685417
458.802628	2540.691127
459.175542	2539.035108
459.548398	2542.780685
459.921194	2544.076262
460.293930	2547.635316
460.666607	2547.383259
461.039224	2551.761501
461.411782	2551.496840
461.784280	2547.186654
462.156719	2548.646068
462.529099	2549.447611
462.901419	2543.859492
463.273680	2544.489636
463.645882	2542.072403
464.018024	2544.608103
464.390106	2545.097095
464.762130	2548.106664
465.134094	2557.248797
465.505999	2562.113510
465.877845	2567.951166
466.249631	2568.878739
466.621358	2563.782132
466.993026	2566.254818
467.364634	2566.138872
467.736184	2559.595454
468.107674	2555.706204
468.479105	2555.048333
468.850477	2552.215205
469.221790	2554.602191
469.593043	2551.206974
469.964238	2546.246478
470.335373	2549.094730
470.706449	2550.402910
471.077467	2552.568085
471.448425	2557.354661
471.819324	2563.376319
472.190164	2556.795093
472.560945	2556.069167
472.931667	2548.610780
473.302330	2547.998279
473.672934	2546.032229
474.043479	2545.351674
474.413965	2545.586087
474.784393	2539.713143
475.154761	2544.681200
475.525070	2540.784388
475.895321	2540.572660
476.265513	2540.330684
476.635645	2545.344112
477.005719	2541.185160
477.375734	2545.344112
477.745691	2544.179605
478.115588	2545.485264
478.485427	2545.144986
478.855207	2553.014227
479.224928	2550.738147
479.594591	2555.786862
479.964194	2551.113712
480.333739	2551.859803
480.703226	2554.216543
481.072653	2554.463559
481.442022	2555.744012
481.811333	2553.334341
482.180584	2553.296532
482.549777	2551.194371
482.918912	2548.814946
483.287988	2552.452139
483.657005	2548.593136
484.025964	2546.556509
484.394864	2548.157076
484.763706	2547.468958
485.132489	2545.694472
485.501213	2548.517518
485.869879	2546.921993
486.238487	2544.819832
486.607036	2545.679349
486.975527	2548.729247
487.343959	2547.395862
487.712333	2546.528783
488.080648	2546.433001
488.448905	2545.941489
488.817104	2544.983669
489.185244	2548.043650
489.553326	2547.710934
489.921350	2551.655637
490.289315	2552.212684
490.657222	2553.961964
491.025070	2551.824515
491.392861	2553.483055
491.760593	2551.358208
492.128267	2551.080945
492.495883	2545.999462
492.863440	2547.970553
493.230939	2543.403268
493.598380	2544.222455
493.965763	2540.920499
494.333088	2543.536858
494.700354	2539.960160
495.067563	2543.173895
495.434713	2538.362114
495.801805	2544.429143
496.168839	2542.155582
496.535815	2543.264636
496.902733	2543.587270
497.269593	2542.886549
497.636395	2541.492670
498.003139	2542.054759
498.369825	2543.811601
498.736453	2542.052238
499.103023	2542.034594
499.469535	2540.524769
499.835989	2538.435211
500.202385	2540.860006
500.568723	2540.804553
500.935003	2543.277239
501.301226	2538.276414
501.667390	2541.979142
502.033497	2543.526776
502.399546	2542.049718
502.765537	2538.001671
503.131470	2539.637526
503.497345	2540.199614
503.863163	2541.596014
504.228923	2539.098122
504.594625	2537.825231
504.960269	2536.411187
505.325856	2534.888759
505.691385	2537.361445
506.056856	2537.605941
506.422270	2536.040663
506.787625	2539.148534
507.152924	2537.066537
507.518164	2539.718184
507.883347	2536.711136
508.248472	2538.619213
508.613540	2537.396733
508.978550	2537.074099
509.343503	2536.096115
509.708398	2539.945036
510.073236	2536.736342
510.438016	2541.026364
510.802738	2536.199459
511.167403	2538.631816
511.532010	2537.626105
511.896561	2535.534027
512.261053	2538.941847
512.625488	2533.820034
512.989866	2533.918337
513.354186	2535.508821
513.718449	2533.048738
514.082655	2536.764068
514.446803	2535.899510
514.810894	2538.873791
515.174927	2537.827752
515.538904	2539.151054
515.902822	2536.554860
516.266684	2538.936805
516.630488	2538.193235
516.994235	2538.432690
517.357925	2536.569984
517.721558	2538.530993
518.085133	2536.023018
518.448651	2538.165509
518.812112	2538.594007
519.175516	2535.045035
519.538863	2537.326157
519.902152	2535.463450
520.265385	2538.495704
520.628560	2536.234747
520.991678	2534.931609
521.354739	2535.725590
521.717743	2537.575694
522.080690	2540.068544
522.443580	2536.872453
522.806413	2536.796836
523.169189	2537.152237
523.531908	2536.401105
523.894569	2536.275076
524.257174	2535.266845
524.619722	2534.435055
524.982213	2534.437576
525.344647	2534.321629
525.707025	2533.981351
526.069345	2535.004705
526.431608	2537.351363
526.793815	2536.968235
527.155964	2537.812628
527.518057	2534.150230
527.880093	2537.212731
528.242072	2532.219468
528.603995	2536.474202
528.965860	2534.417411
529.327669	2532.501773
529.689421	2533.275590
530.051117	2534.954294
530.412755	2535.218954
530.774337	2535.118131
531.135862	2534.740045
531.497331	2531.538912
531.858743	2530.949097
532.220098	2532.963038
532.581396	2531.107893
532.942638	2531.236443
533.303824	2532.562266
533.664953	2534.878677
534.026025	2534.931609
534.387040	2535.554191
534.747999	2530.470188
535.108902	2531.944725
535.469748	2533.053779
535.830537	2534.588810
536.191270	2533.262987
536.551947	2535.917154
536.912567	2530.818027
537.273131	2535.710467
537.633638	2532.269879
537.994089	2533.580579
538.354483	2533.814993
538.714821	2533.681403
539.075103	2533.328522
539.435328	2531.622091
539.795497	2531.112935
540.155609	2535.471012
540.515665	2530.898686
540.875665	2533.759540
541.235609	2532.950435
541.595496	2532.393388
541.955328	2531.974972
542.315102	2533.630991
542.674821	2532.481608
543.034483	2531.402801
543.394090	2531.818696
543.753640	2533.804911
544.113134	2532.915147
544.472571	2531.526309
544.831953	2532.332894
545.191278	2531.629653
545.550548	2532.093439
545.909761	2531.581762
546.268918	2530.825589
546.628019	2532.786598
546.987064	2530.276103
547.346053	2531.329704
547.704986	2532.355579
548.063863	2530.487832
548.422684	2532.436237
548.781449	2529.963552
549.140158	2530.099663
549.498811	2531.891793
549.857408	2531.223840
550.215949	2530.991947
550.574434	2529.572862
550.932864	2528.287368
551.291237	2526.522964
551.649555	2531.886752
552.007817	2531.390198
552.366022	2531.077647
552.724173	2530.361803
553.082267	2529.237625
553.440305	2531.654859
553.798288	2530.316432
554.156215	2532.300126
554.514086	2531.715353
554.871902	2530.876000
555.229661	2533.618388
555.587365	2530.601258
555.945014	2528.849457
556.302606	2528.090763
556.660143	2531.105373
557.017625	2531.813655
557.375050	2530.613860
557.732421	2531.773326
558.089735	2533.522606
558.446994	2529.605630
558.804197	2531.947246
559.161345	2530.061854
559.518437	2532.070754
559.875474	2532.501772
560.232455	2528.035310
560.589381	2529.890455
560.946251	2532.907585
561.303065	2527.153108
561.659825	2532.262318
562.016528	2529.845084
562.373177	2530.145033
562.729770	2530.008922
563.086307	2528.327697
563.442789	2528.461288
563.799216	2529.771988
564.155587	2529.093952
564.511904	2532.574869
564.868164	2529.444313
565.224370	2528.917512
565.580520	2529.734179
565.936615	2527.397604
566.292654	2534.298944
566.648638	2530.006401
567.004567	2528.736031
567.360441	2532.030425
567.716260	2531.475898
568.072023	2530.694519
568.427732	2528.201668
568.783385	2527.077491
569.138982	2524.786287
569.494525	2529.250228
569.850013	2526.517923
570.205445	2529.809796
570.560823	2527.442975
570.916145	2533.431865
571.271412	2527.629497
571.626625	2532.292565
571.981782	2530.170239
572.336884	2527.695032
572.691931	2530.634025
573.046923	2528.189065
573.401860	2530.833151
573.756743	2530.008922
574.111570	2528.952800
574.466342	2529.484642
574.821059	2528.110927
575.175722	2528.289888
575.530330	2528.236956
575.884882	2529.098994
576.239380	2527.400125
576.593823	2530.117307
576.948211	2528.234436
577.302544	2529.439272
577.656823	2531.183511
578.011047	2527.178314
578.365216	2530.152595
578.719330	2526.946421
579.073389	2530.989426
579.427394	2528.889786
579.781344	2527.140505
580.135239	2527.301822
580.489080	2528.037831
580.842866	2526.132275
581.196597	2531.735517
581.550273	2526.253262
581.903895	2527.158149
582.257463	2529.129241
582.610975	2529.255269
582.964434	2528.615043
583.317837	2525.539939
583.671186	2529.197296
584.024481	2527.853829
584.377721	2531.233922
584.730906	2527.102697
585.084037	2529.895496
585.437113	2528.045392
585.790135	2528.897347
586.143103	2525.902902
586.496016	2528.317615
586.848874	2526.822913
587.201679	2525.187058
587.554428	2522.747140
587.907124	2524.854342
588.259765	2523.057171
588.612352	2528.113448
588.964884	2528.509179
589.317362	2526.611184
589.669786	2527.163191
590.022155	2527.059847
590.374470	2524.521626
590.726731	2526.278468
591.078937	2525.315608
591.431090	2528.579755
591.783188	2529.227543
592.135232	2523.100021
592.487222	2526.936339
592.839157	2528.647810
593.191038	2526.865762
593.542866	2526.893489
593.894639	2528.914992
594.246358	2527.816020
594.598022	2524.748478
594.949633	2526.717048
595.301190	2527.432892
595.652692	2526.059178
596.004141	2526.301153
596.355535	2528.453726
596.706876	2524.861904
597.058162	2525.159332
597.409395	2525.297964
597.760573	2526.094466
598.111698	2526.235618
598.462768	2528.322656
598.813785	2525.038344
599.164748	2528.748633
599.515657	2525.870135
599.866511	2527.410207
600.217312	2525.340813
600.568060	2527.281658
600.918753	2528.189065
601.269392	2527.586648
601.619978	2525.965917
601.970510	2524.869466
602.320988	2525.126564
602.671412	2527.836185
603.021783	2526.555732
603.372100	2526.943900
603.722363	2525.187058
604.072572	2526.028931
604.422728	2528.579755
604.772830	2523.548683
605.122878	2522.336286
605.472872	2522.979033
605.822813	2523.447860
606.172701	2523.707480
606.522534	2523.775535
606.872314	2525.383663
607.222041	2525.444157
607.571714	2525.353416
607.921333	2526.172604
608.270899	2525.970958
608.620411	2525.943231
608.969870	2522.479959
609.319276	2524.675381
609.668627	2524.521626
610.017926	2525.597912
610.367171	2523.808303
610.716362	2525.509692
611.065500	2526.407018
611.414585	2525.746626
611.763616	2526.422141
612.112594	2526.311236
612.461518	2525.325690
612.810389	2523.957017
613.159207	2528.834333
613.507971	2525.023221
613.856682	2527.513551
614.205340	2525.633200
614.553945	2523.914167
614.902496	2529.532533
615.250994	2526.832995
615.599439	2524.340144
615.947830	2530.329035
616.296169	2526.555732
616.644454	2526.452388
616.992686	2522.608508
617.340864	2525.895340
617.688990	2525.731503
618.037063	2525.970958
618.385082	2527.206040
618.733048	2526.507841
619.080961	2524.990453
619.428821	2523.112623
619.776628	2529.242667
620.124382	2524.758560
620.472083	2527.100176
620.819731	2528.267203
621.167326	2527.629497
621.514868	2528.262162
621.862357	2523.435257
622.209793	2525.698735
622.557176	2524.566996
622.904506	2523.778056
623.251783	2525.040865
623.599007	2521.993487
623.946179	2519.135153
624.293297	2523.203364
624.640363	2525.459281
624.987376	2524.539270
625.334336	2523.737727
625.681243	2525.739065
626.028097	2525.033303
626.374899	2524.871986
626.721647	2523.765453
627.068343	2524.700587
627.414987	2526.497758
627.761577	2527.004394
628.108115	2524.866945
628.454600	2521.955679
628.801032	2523.437778
629.147412	2526.709487
629.493739	2525.857532
629.840014	2522.714372
630.186236	2527.029600
630.532405	2522.825278
630.878521	2522.510206
631.224585	2523.926770
631.570597	2523.919208
631.916556	2523.972140
632.262462	2527.344672
632.608316	2525.587830
632.954117	2523.324352
633.299866	2523.170597
633.645562	2522.190092
633.991206	2524.403159
634.336797	2524.395597
634.682336	2525.033303
635.027823	2524.183869
635.373257	2524.259486
635.718639	2521.212108
636.063968	2524.070443
636.409245	2523.226049
636.754470	2523.422654
637.099642	2522.527850
637.444762	2522.777387
637.789829	2522.671522
638.134845	2523.226049
638.479808	2521.471728
638.824719	2523.800741
639.169577	2522.638755
639.514383	2521.796882
639.859137	2522.724455
640.203839	2524.055319
640.548489	2521.945596
640.893086	2519.094824
641.237632	2517.194309
641.582125	2521.353261
641.926566	2518.792355
642.270955	2523.662109
642.615292	2521.779238
642.959576	2523.838550
643.303809	2522.779907
643.647990	2522.273271
643.992118	2521.126409
644.336195	2520.614732
