Dividing Wavelength (nm)	Counts (n)	Blue Motor Position (mm): 0.000000	Red Motor Position (mm): 41.000000	
326.493990	2075.306927
326.888308	2075.306927
327.282561	2075.306927
327.676750	2054.766746
328.070874	2057.224308
328.464933	2060.806048
328.858929	2074.596125
329.252859	2086.437795
329.646726	2097.888776
330.040528	2113.828904
330.434265	2134.169960
330.827938	2154.558907
331.221547	2173.700168
331.615091	2194.890658
332.008571	2215.226673
332.401986	2237.634602
332.795338	2255.707138
333.188625	2273.504932
333.581847	2292.447068
333.975006	2312.583957
334.368100	2328.703046
334.761129	2347.325068
335.154095	2361.011801
335.546996	2396.156205
335.939833	2447.376849
336.332606	2459.566359
336.725315	2471.332412
337.117960	2479.468834
337.510540	2486.768425
337.903056	2496.802842
338.295508	2502.272493
338.687896	2511.580984
339.080220	2516.788496
339.472480	2519.208250
339.864676	2525.121523
340.256807	2528.768798
340.648875	2530.782739
341.040879	2531.770805
341.432818	2531.082688
341.824694	2533.434386
342.216506	2531.763243
342.608253	2532.012781
342.999937	2532.128727
343.391557	2532.655528
343.783113	2530.838192
344.174605	2531.619571
344.566033	2527.044723
344.957397	2523.405010
345.348697	2524.083046
345.739934	2521.585154
346.131106	2522.361492
346.522215	2521.320493
346.913260	2517.106089
347.304241	2517.340502
347.695159	2517.539628
348.086012	2515.795389
348.476802	2512.879081
348.867528	2513.541993
349.258191	2511.805315
349.648789	2509.889677
350.039324	2510.751714
350.429796	2510.318175
350.820203	2507.522855
351.210548	2506.711229
351.600828	2504.238543
351.991045	2507.374141
352.381198	2505.312309
352.771288	2509.788854
353.161314	2505.110663
353.551276	2507.532938
353.941175	2505.534120
354.331010	2504.420025
354.720782	2507.384223
355.110490	2507.273318
355.500135	2505.692916
355.889717	2508.674759
356.279235	2506.829697
356.668689	2509.914883
357.058080	2511.986797
357.447408	2508.326919
357.836672	2507.190139
358.225873	2506.980931
358.615010	2508.314316
359.004084	2513.599966
359.393095	2514.772034
359.782043	2517.559792
360.170927	2516.140708
360.559748	2516.702796
360.948505	2517.625328
361.337199	2519.160359
361.725830	2520.531553
362.114398	2520.947448
362.502903	2521.035668
362.891344	2522.684125
363.279722	2520.740761
363.668037	2524.196472
364.056289	2523.679753
364.444478	2524.665299
364.832603	2527.160670
365.220665	2525.721421
365.608665	2524.529188
365.996601	2529.308202
366.384474	2529.890455
366.772284	2530.810465
367.160031	2533.555374
367.547715	2533.278110
367.935336	2532.723583
368.322893	2534.646783
368.710388	2535.891948
369.097820	2538.241126
369.485189	2534.757689
369.872495	2539.950077
370.259738	2541.792619
370.646918	2539.808925
371.034035	2545.812939
371.421090	2545.011396
371.808081	2548.817467
372.195010	2554.271995
372.581875	2561.296843
372.968678	2563.519992
373.355418	2570.620457
373.742096	2579.664287
374.128710	2590.548138
374.515262	2600.862339
374.901751	2611.105964
375.288177	2626.400825
375.674540	2645.978146
376.060841	2662.802997
376.447079	2684.356450
376.833254	2708.327136
377.219367	2730.790518
377.605417	2760.472832
377.991404	2786.805299
378.377329	2824.906340
378.763191	2854.913808
379.148991	2900.785787
379.534727	2948.102057
379.920402	2990.611587
380.306013	3035.566077
380.691563	3098.615788
381.077049	3149.357522
381.462474	3202.284596
381.847835	3271.003085
382.233134	3337.992458
382.618371	3392.447001
383.003545	3475.265597
383.388657	3552.601938
383.773706	3639.103097
384.158693	3706.349569
384.543618	3798.156542
384.928480	3874.522461
385.313280	3975.211948
385.698017	4074.011001
386.082692	4189.375287
386.467305	4248.858381
386.851856	4368.167369
387.236344	4516.384854
387.620770	4574.146395
388.005133	4692.462276
388.389435	4827.292977
388.773674	4916.042490
389.157851	5040.518661
389.541965	5166.239997
389.926018	5194.992217
390.310008	5363.328947
390.693936	5477.773222
391.077802	5595.781592
391.461606	5721.749945
391.845348	5829.905380
392.229027	5951.331653
392.612645	6164.542213
392.996200	6281.373474
393.379694	6450.219361
393.763125	6665.118708
394.146494	6753.772439
394.529801	6884.862604
394.913047	7120.970086
395.296230	7120.191227
395.679351	7169.786099
396.062410	7422.052999
396.445408	7325.817372
396.828343	7479.060887
397.211217	7612.893440
397.594028	7504.075093
397.976778	7701.602624
398.359466	7867.358283
398.742092	7853.059050
399.124656	7988.257755
399.507158	8179.637599
399.889598	8200.606278
400.271977	8417.060822
400.654294	8445.225748
401.036549	8643.136407
401.418742	8668.684975
401.800874	8968.041293
402.182944	9052.546155
402.564952	9415.305065
402.946898	9251.954037
403.328783	9304.321543
403.710606	9496.175255
404.092367	9742.133151
404.474067	10102.890723
404.855705	9910.482484
405.237282	9867.383139
405.618797	10284.364700
406.000250	10533.392659
406.381642	10885.010619
406.762972	10834.858700
407.144240	10647.295010
407.525447	10908.406614
407.906593	10854.294869
408.287677	11116.092070
408.668700	11260.463155
409.049661	11253.755900
409.430560	11408.910012
409.811399	11383.353883
410.192176	11543.922194
410.572891	11629.173147
410.953545	12106.401538
411.334138	11584.642115
411.714669	12167.041577
412.095139	11528.191274
412.475547	11991.501039
412.855894	11862.323992
413.236180	12185.477077
413.616405	11886.836603
413.996568	12159.452120
414.376670	12136.386321
414.756711	12020.142354
415.136691	12299.467648
415.516609	12471.580202
415.896466	12556.803428
416.276262	12844.615504
416.655997	13303.594918
417.035670	13352.239532
417.415283	13971.870436
417.794834	14057.038210
418.174324	13803.689982
418.553753	13714.985839
418.933121	14206.500860
419.312428	14040.712433
419.691674	13946.944451
420.070859	14411.925358
420.449983	14056.047623
420.829045	14620.608963
421.208047	14375.908835
421.586988	14834.633670
421.965867	15081.690538
422.344686	15079.641309
422.723444	15653.700182
423.102141	14346.949926
423.480777	15549.698658
423.859352	15034.664134
424.237866	16151.246943
424.616319	15859.457397
424.994712	16508.284144
425.373044	16296.711958
425.751314	16993.565778
426.129524	16129.340609
426.507673	17205.352213
426.885762	16936.353723
427.263789	17113.474663
427.641756	17300.854352
428.019662	17365.217283
428.397508	17414.396260
428.775292	17699.788582
429.153016	17681.640428
429.530679	17758.228158
429.908282	17799.724416
430.285824	17518.974996
430.663305	18242.123474
431.040726	17860.414867
431.418086	17683.200665
431.795385	18325.189087
432.172624	18772.609135
432.549802	18334.190067
432.926920	18545.084218
433.303977	18421.076874
433.680974	18675.582047
434.057910	18972.473241
434.434786	19033.940030
434.811601	18953.894068
435.188355	20001.912144
435.565050	19665.768006
435.941683	19631.268869
436.318257	20527.959069
436.694770	20330.711322
437.071222	20936.272366
437.447614	19995.358644
437.823946	20025.540032
438.200218	20206.517455
438.576429	19982.470934
438.952580	20293.709252
439.328670	20254.887327
439.704700	20691.158863
440.080670	20254.849518
440.456580	20873.852799
440.832429	21044.543747
441.208218	20043.244565
441.583947	20492.297946
441.959616	20615.254209
442.335224	20865.476922
442.710773	21014.261536
443.086261	21554.113660
443.461689	20895.996067
443.837057	21067.601985
444.212365	21711.695088
444.587612	21711.984955
444.962800	21322.265954
445.337927	21756.016913
445.712995	20458.255034
446.088002	22361.726671
446.462949	22570.574113
446.837837	22751.173450
447.212664	22764.988732
447.587431	25727.765588
447.962139	28739.837367
448.336786	31057.114638
448.711374	29395.136956
449.085901	25651.049309
449.460369	25664.824262
449.834776	25647.722147
450.209124	28217.349497
450.583412	27693.659312
450.957640	28195.463328
451.331808	26834.031676
451.705917	25452.755522
452.079965	25490.861604
452.453954	25876.656067
452.827883	25803.002289
453.201752	25590.172335
453.575562	25751.227118
453.949311	26895.866469
454.323001	26956.814019
454.696632	26736.492911
455.070202	28352.336474
455.443713	28555.182422
455.817164	29125.097468
456.190556	29693.238027
456.563888	29114.919378
456.937160	29538.754388
457.310373	27833.513523
457.683526	28269.631304
458.056619	28273.565924
458.429653	28252.849303
458.802628	28876.780311
459.175542	29006.716052
459.548398	30381.632790
459.921194	32012.446059
460.293930	32767.850360
460.666607	34868.315166
461.039224	36688.466612
461.411782	37019.511623
461.784280	35744.558445
462.156719	35200.559972
462.529099	34611.307060
462.901419	33271.774181
463.273680	32230.607033
463.645882	32375.857799
464.018024	32347.289580
464.390106	33291.795123
464.762130	36217.083439
465.134094	40573.883007
465.505999	46070.830257
465.877845	50630.286730
466.249631	51657.046260
466.621358	49817.259520
466.993026	47574.324145
467.364634	45434.195541
467.736184	43454.554590
468.107674	42164.283866
468.479105	41372.316076
468.850477	40650.664821
469.221790	39181.780975
469.593043	37393.971051
469.964238	36506.357450
470.335373	36440.847655
470.706449	38312.814601
471.077467	41079.785480
471.448425	45805.554659
471.819324	48584.533567
472.190164	46584.780933
472.560945	42929.543623
472.931667	39752.721895
473.302330	38647.012854
473.672934	37792.307905
474.043479	38337.375103
474.413965	37522.235649
474.784393	37165.442945
475.154761	38093.216898
475.525070	38139.121645
475.895321	37655.632142
476.265513	38291.283833
476.635645	39312.838372
477.005719	39141.686158
477.375734	39658.293522
477.745691	40389.782589
478.115588	41770.168979
478.485427	43904.853137
478.855207	47401.367198
479.224928	50063.469474
479.594591	51624.089717
479.964194	50500.802173
480.333739	50670.673934
480.703226	50718.143959
481.072653	51386.646329
481.442022	51864.774566
481.811333	52070.428437
482.180584	50795.102214
482.549777	50261.579258
482.918912	49729.941694
483.287988	49413.561399
483.657005	48583.293443
484.025964	47901.303466
484.394864	47891.536230
484.763706	47458.027246
485.132489	46560.779999
485.501213	46403.579178
485.869879	46544.371044
486.238487	46147.382699
486.607036	46334.790114
486.975527	45783.779395
487.343959	45994.703793
487.712333	46075.163129
488.080648	45965.601212
488.448905	46424.951150
488.817104	46233.309166
489.185244	47241.839884
489.553326	49022.793838
489.921350	51781.537554
490.289315	54583.476397
490.657222	55106.624658
491.025070	55332.178484
491.392861	54431.200783
491.760593	53177.826264
492.128267	51469.359061
492.495883	49917.107133
492.863440	48508.593625
493.230939	47120.723642
493.598380	46024.645726
493.965763	45682.404312
494.333088	44865.429879
494.700354	44365.352458
495.067563	44052.926949
495.434713	43895.153957
495.801805	43982.522194
496.168839	43590.159108
496.535815	43233.999068
496.902733	43255.222326
497.269593	42823.628980
497.636395	42754.000563
498.003139	43162.288655
498.369825	42603.741411
498.736453	42904.337853
499.103023	42413.702514
499.469535	42288.301292
499.835989	42383.402659
500.202385	42027.489636
500.568723	42044.349775
500.935003	42230.537230
501.301226	42027.242619
501.667390	42654.236129
502.033497	42897.484405
502.399546	42321.683812
502.765537	41591.613830
503.131470	41974.673467
503.497345	42335.040350
503.863163	40971.166259
504.228923	41609.527570
504.594625	42021.165508
504.960269	41264.029571
505.325856	41967.734319
505.691385	41334.159583
506.056856	41452.001595
506.422270	41899.013309
506.787625	41454.678448
507.152924	41666.880778
507.518164	41752.172060
507.883347	40958.969187
508.248472	41187.280524
508.613540	41685.401977
508.978550	41972.654485
509.343503	41731.825963
509.708398	41911.974116
510.073236	42459.438382
510.438016	42442.459776
510.802738	41899.411561
511.167403	42537.072152
511.532010	42744.510591
511.896561	43044.681056
512.261053	43899.083536
512.625488	43452.505361
512.989866	43309.326509
513.354186	43144.596725
513.718449	43115.751243
514.082655	43816.678315
514.446803	43479.412520
514.810894	43998.772353
515.174927	43907.033436
515.538904	43805.663394
515.902822	44481.868647
516.266684	43911.847738
516.630488	44333.646121
516.994235	44185.345457
517.357925	44762.280309
517.721558	44933.460250
518.085133	45237.010808
518.448651	45360.869438
518.812112	45121.114681
519.175516	45216.891563
519.538863	45537.755964
519.902152	45506.657086
520.265385	45962.969729
520.628560	45982.305075
520.991678	45755.160765
521.354739	45996.110275
521.717743	46323.409709
522.080690	46192.843824
522.443580	46743.269769
522.806413	46785.842313
523.169189	46735.002276
523.531908	46914.875687
523.894569	46742.634583
524.257174	46919.143023
524.619722	47188.716205
524.982213	47169.292639
525.344647	47084.744927
525.707025	47141.233577
526.069345	47545.914722
526.431608	47449.968962
526.793815	47769.517622
527.155964	47290.489539
527.518057	47448.179352
527.880093	47226.839931
528.242072	47740.883868
528.603995	47444.693394
528.965860	47423.182791
529.327669	47531.129018
529.689421	47417.637522
530.051117	47371.258906
530.412755	47504.052981
530.774337	47585.369313
531.135862	47381.212664
531.497331	47564.682938
531.858743	47453.364179
532.220098	47791.365982
532.581396	47498.018720
532.942638	47147.900503
533.303824	47463.874985
533.664953	47429.993390
534.026025	47141.480593
534.387040	47616.145557
534.747999	47546.428920
535.108902	47706.460349
535.469748	47208.061633
535.830537	47332.716764
536.191270	47510.533384
536.551947	47146.476377
536.912567	47456.595558
537.273131	47574.646779
537.633638	47063.829180
537.994089	47402.645130
538.354483	46967.442318
538.714821	47563.803257
539.075103	47897.053773
539.435328	47662.294800
539.795497	47519.662914
540.155609	47518.143006
540.515665	48001.912293
540.875665	47413.302129
541.235609	47736.210718
541.595496	47712.953355
541.955328	48383.464625
542.315102	47729.143021
542.674821	47509.109258
543.034483	47553.378151
543.394090	47526.468471
543.753640	47461.987072
544.113134	48466.426894
544.472571	47440.814226
544.831953	48695.189414
545.191278	47885.073471
545.550548	47609.077859
545.909761	48066.499557
546.268918	48252.515613
546.628019	48572.346577
546.987064	48096.007951
547.346053	47361.771455
547.704986	48229.560719
548.063863	47784.555384
548.422684	47946.111762
548.781449	47785.523285
549.140158	48171.998304
549.498811	48001.090585
549.857408	47414.781708
550.215949	48261.284700
550.574434	48163.254422
550.932864	47935.268240
551.291237	48651.883382
551.649555	48248.966641
552.007817	48457.536819
552.366022	48112.863048
552.724173	48273.766597
553.082267	48654.255245
553.440305	48914.557745
553.798288	48209.670846
554.156215	48501.538531
554.514086	48719.394515
554.871902	48440.908573
555.229661	48439.365980
555.587365	48248.719624
555.945014	48354.077219
556.302606	48273.292728
556.660143	48463.165268
557.017625	48534.560609
557.375050	48308.968974
557.732421	48655.235750
558.089735	48612.368298
558.446994	48506.814098
558.804197	48960.641453
559.161345	48874.878823
559.518437	48102.057335
559.875474	48399.109846
560.232455	48568.744673
560.589381	48733.290455
560.946251	48404.924817
561.303065	49059.833716
561.659825	48829.470629
562.016528	48482.959358
562.373177	48191.706695
562.729770	48669.492133
563.086307	48153.151950
563.442789	48607.125498
563.799216	48611.808730
564.155587	48393.330163
564.511904	48395.061800
564.868164	48448.976940
565.224370	48683.894709
565.580520	48407.626876
565.936615	48589.683106
566.292654	48271.452707
566.648638	48517.095531
567.004567	48439.678532
567.360441	48486.893979
567.716260	48308.427050
568.072023	48568.391792
568.427732	48532.786123
568.783385	48042.390238
569.138982	48408.496475
569.494525	48332.188529
569.850013	48072.536338
570.205445	48024.305099
570.560823	47942.580433
570.916145	47793.788257
571.271412	47800.581212
571.626625	47512.600257
571.981782	47520.272893
572.336884	47163.908687
572.691931	47457.928944
573.046923	47048.677992
573.401860	46856.010133
573.756743	46795.909497
574.111570	46867.612349
574.466342	46687.673403
574.821059	46754.503980
575.175722	46252.831034
575.530330	46244.172853
575.884882	45901.482776
576.239380	45838.579258
576.593823	45773.949145
576.948211	45675.097160
577.302544	45152.011913
577.656823	45116.794412
578.011047	45296.783769
578.365216	45002.881979
578.719330	44736.441875
579.073389	44551.910439
579.427394	44588.093320
579.781344	44497.632335
580.135239	44110.731339
580.489080	44121.141322
580.842866	43569.911313
581.196597	43961.356910
581.550273	43853.889592
581.903895	43680.063046
582.257463	44009.961194
582.610975	43355.039693
582.964434	43569.999534
583.317837	43156.138447
583.671186	42931.875156
584.024481	43088.687808
584.377721	42577.303080
584.730906	42812.520798
585.084037	42778.165334
585.437113	42443.687297
585.790135	42403.161462
586.143103	41955.358286
586.496016	42005.542973
586.848874	41968.414874
587.201679	41909.589650
587.554428	41356.149096
587.907124	41459.873357
588.259765	41167.191526
588.612352	41318.746255
588.964884	40664.744763
589.317362	40884.473536
589.669786	40753.380851
590.022155	40464.880657
590.374470	40785.745059
590.726731	40273.798242
591.078937	39748.648642
591.431090	39779.679465
591.783188	39386.497191
592.135232	39023.183754
592.487222	39186.814567
592.839157	39195.528201
593.191038	38797.617325
593.542866	38500.287551
593.894639	37882.789055
594.246358	38069.646984
594.598022	37969.751479
594.949633	37527.155815
595.301190	37411.095851
595.652692	37203.513738
596.004141	37410.506036
596.355535	36447.338141
596.706876	36329.284400
597.058162	36094.323781
597.409395	36461.476057
597.760573	36457.057486
598.111698	36022.757041
598.462768	35944.306604
598.813785	35895.314151
599.164748	35324.431204
599.515657	35596.915652
599.866511	35070.609108
600.217312	35543.658382
600.568060	34555.728339
600.918753	35137.260723
601.269392	35005.986557
601.619978	34624.315758
601.970510	34734.898509
602.320988	34810.926670
602.671412	34977.592258
603.021783	34687.630130
603.372100	34302.054957
603.722363	34303.365657
604.072572	34270.646048
604.422728	34220.393306
604.772830	33965.305880
605.122878	33960.894871
605.472872	33820.506298
605.822813	33956.262050
606.172701	33735.177207
606.522534	33842.604196
606.872314	33969.870645
607.222041	33681.844320
607.571714	33916.084054
607.921333	33346.831921
608.270899	33509.388967
608.620411	33713.848085
608.969870	33422.650874
609.319276	33341.316898
609.668627	33299.419869
610.017926	33599.807103
610.367171	33618.822335
610.716362	33583.660287
611.065500	33444.655511
611.414585	33479.207579
611.763616	33623.311483
612.112594	33474.219358
612.461518	33553.894794
612.810389	33677.118238
613.159207	33462.324755
613.507971	33419.487550
613.856682	33684.405226
614.205340	33496.972606
614.553945	33935.709266
614.902496	33368.261866
615.250994	33644.247395
615.599439	33580.363372
615.947830	33613.755976
616.296169	33541.952301
616.644454	33514.367107
616.992686	33514.452807
617.340864	33785.379538
617.688990	33437.998667
618.037063	33787.179230
618.385082	33614.534834
618.733048	33726.045157
619.080961	33604.613843
619.428821	33495.767770
619.776628	33463.580003
620.124382	33203.229612
620.472083	33196.151832
620.819731	33178.280942
621.167326	32820.033864
621.514868	32688.754656
621.862357	32262.310850
622.209793	32191.868286
622.557176	31826.389674
622.904506	31527.625691
623.251783	31181.457218
623.599007	30912.935117
623.946179	30657.867856
624.293297	30509.831853
624.640363	29979.673868
624.987376	29867.969460
625.334336	29569.533152
625.681243	29219.762775
626.028097	29087.351828
626.374899	28873.581699
626.721647	28747.734335
627.068343	28554.544716
627.414987	28267.521581
627.761577	28009.832920
628.108115	28113.421070
628.454600	27624.595505
628.801032	27645.594431
629.147412	27490.616759
629.493739	27382.985604
629.840014	27023.097631
630.186236	27128.072098
630.532405	26750.305673
630.878521	26786.707844
631.224585	26562.099235
631.570597	26256.670847
631.916556	26255.980209
632.262462	26101.236950
632.608316	26011.955595
632.954117	25826.483983
633.299866	25722.731996
633.645562	25561.830968
633.991206	25149.404090
634.336797	24794.527023
634.682336	24679.001421
635.027823	24435.594349
