Dividing Wavelength (nm)	Counts (n)	Blue Motor Position (mm): 0.000000	Red Motor Position (mm): 22.500000	
326.493990	2084.980902
326.888308	2084.980902
327.282561	2084.980902
327.676750	2059.066850
328.070874	2059.291182
328.464933	2066.845351
328.858929	2076.118553
329.252859	2087.282188
329.646726	2104.389344
330.040528	2121.070522
330.434265	2138.666669
330.827938	2157.802889
331.221547	2176.606393
331.615091	2196.665144
332.008571	2219.456201
332.401986	2239.225086
332.795338	2259.863570
333.188625	2280.013062
333.581847	2298.677934
333.975006	2316.435398
334.368100	2332.292348
334.761129	2350.004442
335.154095	2363.955835
335.546996	2385.519370
335.939833	2405.434449
336.332606	2421.354413
336.725315	2430.768767
337.117960	2440.082299
337.510540	2449.559668
337.903056	2458.739609
338.295508	2461.033334
338.687896	2470.009109
339.080220	2477.923720
339.472480	2482.291880
339.864676	2483.199288
340.256807	2488.016110
340.648875	2491.786893
341.040879	2492.268324
341.432818	2493.488283
341.824694	2494.158756
342.216506	2493.528612
342.608253	2493.773108
342.999937	2490.609784
343.391557	2494.057933
343.783113	2486.193733
344.174605	2489.657006
344.566033	2486.859166
344.957397	2486.377735
345.348697	2482.768269
345.739934	2481.523104
346.131106	2480.993783
346.522215	2479.862044
346.913260	2478.639564
347.304241	2475.577063
347.695159	2474.120170
348.086012	2475.927423
348.476802	2471.957515
348.867528	2470.346866
349.258191	2470.556074
349.648789	2470.165385
350.039324	2469.179839
350.429796	2467.632205
350.820203	2468.728656
351.210548	2467.259159
351.600828	2463.737913
351.991045	2464.887297
352.381198	2467.249077
352.771288	2463.495938
353.161314	2462.205403
353.551276	2469.285703
353.941175	2464.783953
354.331010	2466.770167
354.720782	2463.838737
355.110490	2466.235805
355.500135	2465.502317
355.889717	2470.203193
356.279235	2467.745631
356.668689	2467.307050
357.058080	2468.622792
357.447408	2466.951649
357.836672	2468.151444
358.225873	2467.203707
358.615010	2466.508028
359.004084	2473.149748
359.393095	2470.049438
359.782043	2474.531024
360.170927	2472.869964
360.559748	2471.975159
360.948505	2473.356435
361.337199	2476.799543
361.725830	2480.247692
362.114398	2477.772486
362.502903	2478.263998
362.891344	2478.027064
363.279722	2481.707106
363.668037	2480.731643
364.056289	2481.082003
364.444478	2482.846407
364.832603	2482.710296
365.220665	2481.119812
365.608665	2485.074597
365.996601	2483.345481
366.384474	2485.936634
366.772284	2485.422437
367.160031	2488.963847
367.547715	2485.024186
367.935336	2487.701038
368.322893	2488.880668
368.710388	2489.757829
369.097820	2492.538025
369.485189	2493.314363
369.872495	2492.636328
370.259738	2495.043479
370.646918	2495.678664
371.034035	2497.526247
371.421090	2502.673265
371.808081	2504.901455
372.195010	2506.086126
372.581875	2512.783299
372.968678	2517.738753
373.355418	2524.314939
373.742096	2533.716691
374.128710	2540.403781
374.515262	2553.031872
374.901751	2564.306412
375.288177	2580.899370
375.674540	2596.620208
376.060841	2615.537138
376.447079	2638.791981
376.833254	2657.219919
377.219367	2682.029957
377.605417	2713.736294
377.991404	2736.829820
378.377329	2772.674945
378.763191	2806.359935
379.148991	2853.615711
379.534727	2895.734551
379.920402	2940.946139
380.306013	2984.108499
380.691563	3042.633774
381.077049	3095.049171
381.462474	3150.123777
381.847835	3218.403685
382.233134	3286.502112
382.618371	3343.565453
383.003545	3423.258534
383.388657	3495.157990
383.773706	3584.824994
384.158693	3651.955519
384.543618	3744.485898
384.928480	3816.944923
385.313280	3913.714912
385.698017	4010.641177
386.082692	4128.707521
386.467305	4186.774051
386.851856	4301.949293
387.236344	4457.093323
387.620770	4515.046428
388.005133	4625.077172
388.389435	4763.298049
388.773674	4846.945915
389.157851	4971.480059
389.541965	5099.485037
389.926018	5124.504284
390.310008	5291.391682
390.693936	5407.892747
391.077802	5523.332650
391.461606	5646.760261
391.845348	5759.687148
392.229027	5878.756681
392.612645	6091.473209
392.996200	6205.849428
393.379694	6374.423092
393.763125	6580.205513
394.146494	6673.532394
394.529801	6806.467621
394.913047	7039.381531
395.296230	7037.677621
395.679351	7094.239367
396.062410	7337.129721
396.445408	7240.594146
396.828343	7391.223823
397.211217	7521.285592
397.594028	7411.484220
397.976778	7613.531146
398.359466	7773.623068
398.742092	7758.229905
399.124656	7896.170998
399.507158	8086.633352
399.889598	8106.515662
400.271977	8311.075603
400.654294	8339.416970
401.036549	8545.030512
401.418742	8568.711332
401.800874	8866.159574
402.182944	8944.068086
402.564952	9302.330287
402.946898	9140.824321
403.328783	9189.567237
403.710606	9382.613183
404.092367	9635.482501
404.474067	9987.415533
404.855705	9796.418817
405.237282	9749.168082
405.618797	10168.781125
406.000250	10410.733824
406.381642	10765.608370
406.762972	10707.816582
407.144240	10532.719665
407.525447	10783.217120
407.906593	10725.810981
408.287677	10980.074178
408.668700	11129.614966
409.049661	11119.318409
409.430560	11282.082143
409.811399	11257.428380
410.192176	11415.070302
410.572891	11490.967394
410.953545	11958.902417
411.334138	11452.768051
411.714669	12029.302131
412.095139	11382.222144
412.475547	11851.334277
412.855894	11724.579504
413.236180	12041.025334
413.616405	11740.275137
413.996568	12013.820747
414.376670	11984.229174
414.756711	11874.808409
415.136691	12151.928198
415.516609	12325.585866
415.896466	12404.147207
416.276262	12688.375023
416.655997	13140.949651
417.035670	13188.681816
417.415283	13804.050425
417.794834	13885.936407
418.174324	13634.788643
418.553753	13538.328685
418.933121	14034.894942
419.312428	13861.204506
419.691674	13773.334674
420.070859	14221.674733
420.449983	13883.763670
420.829045	14437.720943
421.208047	14188.377912
421.586988	14636.097908
421.965867	14882.401123
422.344686	14886.991094
422.723444	15443.063131
423.102141	14158.287264
423.480777	15334.443909
423.859352	14831.583772
424.237866	15926.247644
424.616319	15648.550644
424.994712	16282.047242
425.373044	16073.930767
425.751314	16762.030623
426.129524	15894.904270
426.507673	16956.485571
426.885762	16685.057245
427.263789	16860.317999
427.641756	17035.931635
428.019662	17087.517762
428.397508	17129.024102
428.775292	17406.635403
429.153016	17385.696971
429.530679	17439.004652
429.908282	17461.440308
430.285824	17191.781427
430.663305	17882.474956
431.040726	17488.607086
431.418086	17319.279769
431.795385	17919.557684
432.172624	18331.830807
432.549802	17867.681690
432.926920	18053.009629
433.303977	17907.592505
433.680974	18132.604407
434.057910	18410.707221
434.434786	18402.679183
434.811601	18295.426115
435.188355	19268.696482
435.565050	18905.650226
435.941683	18826.887238
436.318257	19639.236413
436.694770	19385.326097
437.071222	19893.489528
437.447614	18947.766546
437.823946	18896.145130
438.200218	18999.808897
438.576429	18712.180824
438.952580	18921.814686
439.328670	18806.553744
439.704700	19115.836094
440.080670	18617.031565
440.456580	19091.005891
440.832429	19141.856010
441.208218	18132.629613
441.583947	18430.629861
441.959616	18426.773378
442.335224	18539.546510
442.710773	18545.104382
443.086261	18890.073061
443.461689	18189.602213
443.837057	18193.004992
444.212365	18618.223798
444.587612	18480.002922
444.962800	17998.159355
445.337927	18199.921455
445.712995	16985.169736
446.088002	18394.860354
446.462949	18392.614520
446.837837	18375.986274
447.212664	18211.753043
447.587431	20315.015689
447.962139	22385.722563
448.336786	23942.395583
448.711374	22446.977624
449.085901	19447.488565
449.460369	19232.085102
449.834776	18983.992277
450.209124	20569.041952
450.583412	19979.428598
450.957640	20081.496840
451.331808	18916.292102
451.705917	17712.852732
452.079965	17499.024630
452.453954	17508.864962
452.827883	17218.832258
453.201752	16851.836258
453.575562	16729.273205
453.949311	17161.660532
454.323001	16962.361036
454.696632	16572.526088
455.070202	17238.722131
455.443713	17086.796877
455.817164	17139.572717
456.190556	17166.381573
456.563888	16592.524345
456.937160	16533.263061
457.310373	15393.155708
457.683526	15338.439024
458.056619	15066.541870
458.429653	14787.375373
458.802628	14814.007789
459.175542	14612.480102
459.548398	14968.771212
459.921194	15414.807463
460.293930	15477.189222
460.666607	16080.219606
461.039224	16541.228084
461.411782	16365.309459
461.784280	15525.748136
462.156719	14974.228261
462.529099	14439.510552
462.901419	13639.207214
463.273680	12955.319243
463.645882	12713.951317
464.018024	12430.126794
464.390106	12472.752270
464.762130	13164.486798
465.134094	14313.096058
465.505999	15803.634180
465.877845	16964.952189
466.249631	16886.789098
466.621358	15852.845924
466.993026	14769.164205
467.364634	13778.733750
467.736184	12905.031212
468.107674	12242.326169
468.479105	11751.705953
468.850477	11294.659822
469.221790	10687.099960
469.593043	10042.003667
469.964238	9595.624618
470.335373	9347.183953
470.706449	9475.274631
471.077467	9778.043811
471.448425	10433.139232
471.819324	10746.068857
472.190164	10132.033634
472.560945	9257.229604
472.931667	8498.112493
473.302330	8093.267510
473.672934	7766.507480
474.043479	7646.563306
474.413965	7355.862649
474.784393	7128.473843
475.154761	7075.070380
475.525070	6921.234529
475.895321	6700.293359
476.265513	6613.525019
476.635645	6573.190747
477.005719	6408.642444
477.375734	6309.709800
477.745691	6229.706688
478.115588	6219.458023
478.485427	6281.426406
478.855207	6466.875333
479.224928	6575.978505
479.594591	6558.662142
479.964194	6291.934692
480.333739	6142.671167
480.703226	5998.398385
481.072653	5921.828300
481.442022	5831.200956
481.811333	5714.518409
482.180584	5497.733671
482.549777	5345.740362
482.918912	5202.934555
483.287988	5081.031894
483.657005	4930.752577
484.025964	4798.195437
484.394864	4702.295046
484.763706	4598.810240
485.132489	4475.889265
485.501213	4392.831215
485.869879	4326.373683
486.238487	4249.344853
486.607036	4197.720917
486.975527	4117.657311
487.343959	4067.651586
487.712333	4017.676107
488.080648	3966.896564
488.448905	3937.609981
488.817104	3883.548647
489.185244	3877.988255
489.553326	3889.116602
489.921350	3933.675361
490.289315	3988.568485
490.657222	3967.345227
491.025070	3940.667441
491.392861	3878.709140
491.760593	3806.867656
492.128267	3732.132550
492.495883	3661.833660
492.863440	3606.796863
493.230939	3551.482802
493.598380	3502.702077
493.965763	3473.947336
494.333088	3439.004578
494.700354	3409.193714
495.067563	3391.736199
495.434713	3371.695092
495.801805	3359.903833
496.168839	3340.228209
496.535815	3320.179540
496.902733	3305.940801
497.269593	3285.478758
497.636395	3272.981737
498.003139	3273.485853
498.369825	3250.367121
498.736453	3244.284969
499.103023	3227.034141
499.469535	3215.104250
499.835989	3203.812066
500.202385	3187.181299
500.568723	3177.076306
500.935003	3174.931295
501.301226	3158.560148
501.667390	3159.787669
502.033497	3153.992863
502.399546	3138.813948
502.765537	3120.741412
503.131470	3116.471555
503.497345	3114.021554
503.863163	3086.333016
504.228923	3085.491144
504.594625	3083.693972
504.960269	3064.802248
505.325856	3067.287537
505.691385	3051.191133
506.056856	3047.644681
506.422270	3044.801470
506.787625	3035.069523
507.152924	3029.252031
507.518164	3025.705580
507.883347	3010.201511
508.248472	3006.743279
508.613540	3006.032477
508.978550	3003.161540
509.343503	2995.778770
509.708398	2991.670229
510.073236	2993.520333
510.438016	2986.112357
510.802738	2977.943168
511.167403	2982.104640
511.532010	2977.476861
511.896561	2975.825883
512.261053	2982.011379
512.625488	2969.975624
512.989866	2965.952783
513.354186	2961.970272
513.718449	2953.836370
514.082655	2958.766618
514.446803	2952.636575
514.810894	2958.350723
515.174927	2954.683284
515.538904	2952.467697
515.902822	2951.474589
516.266684	2942.839093
516.630488	2946.234310
516.994235	2942.534103
517.357925	2947.159362
517.721558	2947.139197
518.085133	2947.514763
518.448651	2947.489557
518.812112	2940.227775
519.175516	2938.506221
519.538863	2940.046293
519.902152	2940.384051
520.265385	2940.235337
520.628560	2937.228288
520.991678	2936.323401
521.354739	2935.204265
521.717743	2938.970007
522.080690	2933.666713
522.443580	2936.439348
522.806413	2937.291303
523.169189	2936.502362
523.531908	2933.666713
523.894569	2932.449275
524.257174	2929.971548
524.619722	2932.769388
524.982213	2933.172680
525.344647	2927.226639
525.707025	2930.279058
526.069345	2929.676640
526.431608	2927.607246
526.793815	2929.258224
527.155964	2924.343099
527.518057	2924.022986
527.880093	2920.350505
528.242072	2921.898140
528.603995	2922.775300
528.965860	2917.933272
529.327669	2918.500402
529.689421	2913.018147
530.051117	2916.065525
530.412755	2913.660894
530.774337	2913.388672
531.135862	2913.204670
531.497331	2908.881880
531.858743	2903.339132
532.220098	2908.415574
532.581396	2906.179822
532.942638	2899.588513
533.303824	2900.939543
533.664953	2902.323339
534.026025	2899.916188
534.387040	2903.979358
534.747999	2900.828637
535.108902	2904.949780
535.469748	2894.887637
535.830537	2892.966958
536.191270	2896.863770
536.551947	2891.890671
536.912567	2894.310425
537.273131	2890.763973
537.633638	2884.888509
537.994089	2888.346740
538.354483	2881.528580
538.714821	2887.393962
539.075103	2890.232132
539.435328	2884.170144
539.795497	2883.492109
540.155609	2882.698127
540.515665	2884.336502
540.875665	2878.740822
541.235609	2881.422715
541.595496	2878.271994
541.955328	2881.856255
542.315102	2876.926006
542.674821	2874.342415
543.034483	2872.467106
543.394090	2871.494163
543.753640	2870.349821
544.113134	2876.336191
544.472571	2869.230685
544.831953	2878.017416
545.191278	2867.483925
545.550548	2867.811600
545.909761	2870.070037
546.268918	2868.517362
546.628019	2870.927033
546.987064	2866.742875
547.346053	2860.799355
547.704986	2865.936291
548.063863	2860.393542
548.422684	2861.943697
548.781449	2858.009076
549.140158	2860.426310
549.498811	2860.774149
549.857408	2855.128057
550.215949	2858.102338
550.574434	2855.105372
550.932864	2855.049919
551.291237	2855.821216
551.649555	2853.887933
552.007817	2855.508664
552.366022	2853.005731
552.724173	2853.530011
553.082267	2856.267358
553.440305	2856.481607
553.798288	2853.093951
554.156215	2852.476410
554.514086	2851.937007
554.871902	2849.774352
555.229661	2848.433405
555.587365	2852.380628
555.945014	2849.373580
556.302606	2846.295955
556.660143	2850.089424
557.017625	2848.733353
557.375050	2845.207066
557.732421	2848.995493
558.089735	2847.722602
558.446994	2846.863085
558.804197	2846.424505
559.161345	2847.498271
559.518437	2844.765965
559.875474	2843.765296
560.232455	2844.912159
560.589381	2844.193794
560.946251	2844.977694
561.303065	2845.320492
561.659825	2843.082220
562.016528	2841.839575
562.373177	2839.739935
562.729770	2841.080882
563.086307	2839.959225
563.442789	2839.359328
563.799216	2841.499297
564.155587	2836.072495
564.511904	2836.926971
564.868164	2841.385872
565.224370	2838.073833
565.580520	2838.845130
565.936615	2839.185408
566.292654	2833.045282
566.648638	2836.072495
567.004567	2836.064934
567.360441	2836.944615
567.716260	2832.768019
568.072023	2836.097701
568.427732	2829.430775
568.783385	2829.259376
569.138982	2831.177535
569.494525	2830.786846
569.850013	2826.441371
570.205445	2829.453460
570.560823	2828.667040
570.916145	2829.730724
571.271412	2828.251145
571.626625	2824.523212
571.981782	2824.568582
572.336884	2822.282419
572.691931	2823.149497
573.046923	2818.927531
573.401860	2818.577171
573.756743	2818.083138
574.111570	2818.425936
574.466342	2816.628765
574.821059	2815.076090
575.175722	2814.367807
575.530330	2814.246820
575.884882	2813.813281
576.239380	2811.207004
576.593823	2810.680203
576.948211	2807.579894
577.302544	2802.881538
577.656823	2805.281128
578.011047	2805.109728
578.365216	2804.028401
578.719330	2804.255253
579.073389	2796.809469
579.427394	2798.959521
579.781344	2798.011784
580.135239	2797.719397
580.489080	2793.880558
580.842866	2794.538429
581.196597	2796.973306
581.550273	2795.607153
581.903895	2791.606998
582.257463	2795.115641
582.610975	2785.935700
582.964434	2790.868469
583.317837	2786.691873
583.671186	2787.816050
584.024481	2784.693055
584.377721	2781.968312
584.730906	2782.124587
585.084037	2783.349588
585.437113	2781.834721
585.790135	2783.846142
586.143103	2777.204421
586.496016	2777.723660
586.848874	2773.403391
587.201679	2773.070675
587.554428	2770.918102
587.907124	2771.785181
588.259765	2770.005654
588.612352	2772.594286
588.964884	2770.270314
589.317362	2771.452465
589.669786	2770.328287
590.022155	2768.009357
590.374470	2765.922319
590.726731	2767.061620
591.078937	2763.323604
591.431090	2764.997267
591.783188	2760.742533
592.135232	2756.886051
592.487222	2759.507451
592.839157	2758.950403
593.191038	2756.404621
593.542866	2759.076432
593.894639	2750.135946
594.246358	2753.662233
594.598022	2749.911614
594.949633	2750.559403
595.301190	2748.321130
595.652692	2744.620923
596.004141	2747.922879
596.355535	2743.363156
596.706876	2741.881056
597.058162	2740.920717
597.409395	2744.356263
597.760573	2743.973135
598.111698	2735.834192
598.462768	2737.064234
598.813785	2737.908627
599.164748	2734.818400
599.515657	2733.386712
599.866511	2731.982751
600.217312	2732.360837
600.568060	2729.656258
600.918753	2731.849160
601.269392	2731.395456
601.619978	2727.886813
601.970510	2730.283882
602.320988	2729.169787
602.671412	2732.335632
603.021783	2728.254817
603.372100	2723.828684
603.722363	2727.259190
604.072572	2726.162739
604.422728	2726.591237
604.772830	2720.282233
605.122878	2719.687377
605.472872	2718.966492
605.822813	2719.828529
606.172701	2720.446070
606.522534	2721.290463
606.872314	2723.082594
607.222041	2721.020762
607.571714	2720.264589
607.921333	2719.266440
608.270899	2715.709906
608.620411	2722.719631
608.969870	2719.523539
609.319276	2714.983980
609.668627	2717.693600
610.017926	2718.490102
610.367171	2717.633106
610.716362	2716.670246
611.065500	2719.498333
611.414585	2717.933055
611.763616	2715.170503
612.112594	2715.336861
612.461518	2719.369784
612.810389	2716.115719
613.159207	2716.730740
613.507971	2716.319886
613.856682	2715.228476
614.205340	2716.430791
614.553945	2717.572612
614.902496	2715.150338
615.250994	2714.053887
615.599439	2716.632437
615.947830	2715.757797
616.296169	2716.662684
616.644454	2718.180072
616.992686	2715.165462
617.340864	2716.128322
617.688990	2714.368959
618.037063	2714.482385
618.385082	2716.829042
618.733048	2714.147148
619.080961	2715.813250
619.428821	2714.830225
619.776628	2714.900801
620.124382	2710.507435
620.472083	2710.000799
620.819731	2710.187322
621.167326	2707.679348
621.514868	2710.633464
621.862357	2706.451827
622.209793	2705.131045
622.557176	2705.625078
622.904506	2698.517051
623.251783	2694.262317
623.599007	2695.467153
623.946179	2692.024045
624.293297	2693.145702
624.640363	2692.492872
624.987376	2692.752492
625.334336	2689.379960
625.681243	2689.170752
626.028097	2686.753518
626.374899	2686.375432
626.721647	2685.079855
627.068343	2681.467869
627.414987	2682.849145
627.761577	2679.990811
628.108115	2681.329237
628.454600	2680.663805
628.801032	2679.968125
629.147412	2676.739266
629.493739	2678.617096
629.840014	2676.562826
630.186236	2675.110974
630.532405	2674.170798
630.878521	2677.180367
631.224585	2674.473268
631.570597	2670.606703
631.916556	2673.790191
632.262462	2672.492094
632.608316	2671.188956
632.954117	2668.716270
633.299866	2669.447237
633.645562	2666.997237
633.991206	2666.019253
634.336797	2664.141423
634.682336	2666.425066
635.027823	2661.393994
635.373257	2661.812410
635.718639	2658.152532
636.063968	2660.849549
636.409245	2657.900474
636.754470	2655.299239
637.099642	2655.216060
637.444762	2652.380411
637.789829	2653.476862
638.134845	2649.398568
638.479808	2652.471152
638.824719	2649.612817
639.169577	2646.610810
639.514383	2648.085348
639.859137	2643.505460
640.203839	2646.951088
640.548489	2645.050573
640.893086	2639.457413
641.237632	2639.530510
641.582125	2641.131076
641.926566	2638.416415
