Dividing Wavelength (nm)	Counts (n)	Blue Motor Position (mm): 0.000000	Red Motor Position (mm): 7.100000	
326.493990	2127.099742
326.888308	2127.099742
327.282561	2127.099742
327.676750	2094.806110
328.070874	2094.917016
328.464933	2096.192428
328.858929	2102.067893
329.252859	2112.896291
329.646726	2124.861470
330.040528	2138.336474
330.434265	2154.785759
330.827938	2173.851403
331.221547	2189.650379
331.615091	2208.310210
332.008571	2227.532129
332.401986	2247.185068
332.795338	2267.828593
333.188625	2287.259720
333.581847	2306.355611
333.975006	2323.034268
334.368100	2341.439521
334.761129	2359.333097
335.154095	2376.757845
335.546996	2391.475494
335.939833	2406.601476
336.332606	2425.546132
336.725315	2437.276897
337.117960	2445.554472
337.510540	2450.895574
337.903056	2464.955352
338.295508	2470.982052
338.687896	2479.161324
339.080220	2488.759681
339.472480	2494.957779
339.864676	2498.264776
340.256807	2503.797443
340.648875	2503.792401
341.040879	2507.666528
341.432818	2512.306910
341.824694	2513.045439
342.216506	2511.328926
342.608253	2513.660460
342.999937	2512.937054
343.391557	2513.731036
343.783113	2511.331447
344.174605	2510.149296
344.566033	2509.640140
344.957397	2507.011178
345.348697	2504.074706
345.739934	2504.324243
346.131106	2502.446413
346.522215	2497.803511
346.913260	2498.380723
347.304241	2498.168994
347.695159	2495.325783
348.086012	2493.642038
348.476802	2492.031389
348.867528	2494.241935
349.258191	2487.711121
349.648789	2489.634321
350.039324	2484.734319
350.429796	2487.842191
350.820203	2482.826243
351.210548	2483.325317
351.600828	2481.732312
351.991045	2481.092086
352.381198	2479.425984
352.771288	2480.101499
353.161314	2480.885398
353.551276	2478.816005
353.941175	2481.013948
354.331010	2479.710809
354.720782	2481.192909
355.110490	2480.792137
355.500135	2480.429174
355.889717	2479.609986
356.279235	2478.596714
356.668689	2481.497898
357.058080	2480.613176
357.447408	2481.018989
357.836672	2475.728298
358.225873	2480.819863
358.615010	2478.750470
359.004084	2482.284318
359.393095	2483.350522
359.782043	2485.916470
360.170927	2483.433702
360.559748	2485.646768
360.948505	2484.469659
361.337199	2483.118629
361.725830	2489.689773
362.114398	2487.572489
362.502903	2486.917139
362.891344	2487.844711
363.279722	2488.235401
363.668037	2489.145329
364.056289	2489.430154
364.444478	2491.358395
364.832603	2488.951244
365.220665	2491.514671
365.608665	2490.970227
365.996601	2493.190855
366.384474	2492.515340
366.772284	2495.406442
367.160031	2493.132882
367.547715	2498.065651
367.935336	2496.661689
368.322893	2503.348780
368.710388	2505.841630
369.097820	2511.616272
369.485189	2515.450070
369.872495	2519.102386
370.259738	2526.490197
370.646918	2531.705270
371.034035	2538.964532
371.421090	2550.808723
371.808081	2558.740978
372.195010	2564.944118
372.581875	2579.732343
372.968678	2593.343458
373.355418	2595.833788
373.742096	2614.047477
374.128710	2624.293622
374.515262	2633.438275
374.901751	2647.782879
375.288177	2653.643220
375.674540	2667.892041
376.060841	2679.680780
376.447079	2689.899198
376.833254	2700.573842
377.219367	2702.323122
377.605417	2722.049157
377.991404	2720.103272
378.377329	2727.392780
378.763191	2733.900910
379.148991	2748.681573
379.534727	2757.218767
379.920402	2761.604571
380.306013	2757.778335
380.691563	2775.238371
381.077049	2773.998247
381.462474	2773.058072
381.847835	2776.402878
382.233134	2775.129987
382.618371	2762.469129
383.003545	2775.429935
383.388657	2765.854263
383.773706	2763.147164
384.158693	2756.051740
384.543618	2746.720564
384.928480	2744.021026
385.313280	2742.801067
385.698017	2727.201216
386.082692	2725.840105
386.467305	2709.282435
386.851856	2701.004860
387.236344	2693.216278
387.620770	2682.211439
388.005133	2674.450582
388.389435	2664.791732
388.773674	2650.676501
389.157851	2641.647794
389.541965	2632.830816
389.926018	2615.824484
390.310008	2611.650408
390.693936	2606.742845
391.077802	2592.894796
391.461606	2583.798033
391.845348	2581.186716
392.229027	2572.231106
392.612645	2562.368088
392.996200	2559.572769
393.379694	2555.703683
393.763125	2552.595812
394.146494	2543.569626
394.529801	2541.878319
394.913047	2536.572504
395.296230	2532.597554
395.679351	2526.679240
396.062410	2527.120341
396.445408	2524.481297
396.828343	2522.616070
397.211217	2515.281191
397.594028	2514.623320
397.976778	2513.146262
398.359466	2515.719771
398.742092	2511.192815
399.124656	2516.256654
399.507158	2513.748680
399.889598	2515.505522
400.271977	2513.269771
400.654294	2514.865296
401.036549	2512.516118
401.418742	2511.323885
401.800874	2511.938906
402.182944	2515.230779
402.564952	2515.150121
402.946898	2513.259688
403.328783	2512.422857
403.710606	2513.300018
404.092367	2514.109123
404.474067	2515.465193
404.855705	2511.971673
405.237282	2515.026613
405.618797	2512.679956
406.000250	2517.842097
406.381642	2516.551562
406.762972	2514.179699
407.144240	2515.356808
407.525447	2517.930317
407.906593	2514.406551
408.287677	2516.521315
408.668700	2515.654236
409.049661	2515.684483
409.430560	2515.303876
409.811399	2517.426202
410.192176	2515.457631
410.572891	2518.114319
410.953545	2515.031654
411.334138	2518.338651
411.714669	2513.973012
412.095139	2518.152128
412.475547	2517.438805
412.855894	2517.227076
413.236180	2515.750018
413.616405	2517.612725
413.996568	2518.462159
414.376670	2519.566172
414.756711	2518.169772
415.136691	2519.046933
415.516609	2518.641120
415.896466	2520.271933
416.276262	2520.990298
416.655997	2516.014679
417.035670	2515.533249
417.415283	2520.554238
417.794834	2515.039216
418.174324	2514.731705
418.553753	2518.076511
418.933121	2521.633045
419.312428	2521.479290
419.691674	2519.062056
420.070859	2520.473579
420.449983	2514.109123
420.829045	2522.051461
421.208047	2522.732016
421.586988	2519.898888
421.965867	2523.452901
422.344686	2520.390400
422.723444	2520.844104
423.102141	2520.150946
423.480777	2521.605318
423.859352	2519.414937
424.237866	2521.272602
424.616319	2520.287057
424.994712	2523.147912
425.373044	2522.719413
425.751314	2521.239835
426.129524	2522.646317
426.507673	2523.208405
426.885762	2523.589013
427.263789	2521.343178
427.641756	2521.814526
428.019662	2525.066071
428.397508	2522.553055
428.775292	2522.986595
429.153016	2520.158507
429.530679	2524.135978
429.908282	2525.131606
430.285824	2521.333096
430.663305	2522.681605
431.040726	2523.992305
431.418086	2524.887110
431.795385	2521.922911
432.172624	2524.738396
432.549802	2527.949611
432.926920	2524.309898
433.303977	2524.138498
433.680974	2526.999353
434.057910	2522.603467
434.434786	2523.412572
434.811601	2526.621267
435.188355	2524.398118
435.565050	2526.906092
435.941683	2523.770494
436.318257	2521.005421
436.694770	2523.107582
437.071222	2522.243024
437.447614	2522.726975
437.823946	2521.701100
438.200218	2527.445495
438.576429	2525.819723
438.952580	2524.854342
439.328670	2525.345855
439.704700	2526.434744
440.080670	2527.626977
440.456580	2525.396266
440.832429	2524.385515
441.208218	2527.188396
441.583947	2527.377440
441.959616	2527.062367
442.335224	2527.243849
442.710773	2525.320649
443.086261	2525.602953
443.461689	2524.327542
443.837057	2528.153777
444.212365	2527.500948
444.587612	2525.900382
444.962800	2529.557739
445.337927	2529.252749
445.712995	2526.825433
446.088002	2530.568490
446.462949	2526.843077
446.837837	2528.771319
447.212664	2523.946934
447.587431	2529.603109
447.962139	2525.970958
448.336786	2532.040507
448.711374	2527.226205
449.085901	2529.275434
449.460369	2527.599250
449.834776	2525.865093
450.209124	2529.051103
450.583412	2531.087729
450.957640	2529.141843
451.331808	2527.667306
451.705917	2528.226874
452.079965	2528.209230
452.453954	2530.192924
452.827883	2530.402132
453.201752	2527.385001
453.575562	2528.549508
453.949311	2529.552697
454.323001	2529.809796
454.696632	2526.817872
455.070202	2529.978675
455.443713	2532.542102
455.817164	2525.600433
456.190556	2524.254445
456.563888	2526.598581
456.937160	2526.023890
457.310373	2531.634694
457.683526	2529.988757
458.056619	2530.729807
458.429653	2528.221833
458.802628	2531.067564
459.175542	2530.467667
459.548398	2529.996319
459.921194	2528.756195
460.293930	2530.099663
460.666607	2530.467667
461.039224	2532.985723
461.411782	2531.180990
461.784280	2533.169725
462.156719	2528.796524
462.529099	2532.267359
462.901419	2529.411545
463.273680	2529.749303
463.645882	2533.734335
464.018024	2529.754344
464.390106	2532.375744
464.762130	2530.830630
465.134094	2530.986906
465.505999	2532.509334
465.877845	2536.766589
466.249631	2535.818852
466.621358	2533.089067
466.993026	2537.051414
467.364634	2537.933616
467.736184	2533.814993
468.107674	2534.064530
468.479105	2533.850281
468.850477	2533.167205
469.221790	2535.160981
469.593043	2533.913296
469.964238	2535.660055
470.335373	2530.543284
470.706449	2530.424817
471.077467	2533.121834
471.448425	2532.569828
471.819324	2535.856660
472.190164	2535.932278
472.560945	2534.752648
472.931667	2532.327853
473.302330	2532.078316
473.672934	2534.840868
474.043479	2532.269879
474.413965	2533.288193
474.784393	2527.750485
475.154761	2532.526978
475.525070	2527.642100
475.895321	2530.548325
476.265513	2531.821217
476.635645	2533.804911
477.005719	2532.068233
477.375734	2535.844057
477.745691	2534.165353
478.115588	2536.368337
478.485427	2533.804911
478.855207	2533.850281
479.224928	2536.267514
479.594591	2535.085364
479.964194	2533.404139
480.333739	2537.381609
480.703226	2534.813142
481.072653	2534.631660
481.442022	2536.413708
481.811333	2534.931609
482.180584	2535.314736
482.549777	2535.251722
482.918912	2536.443955
483.287988	2536.960673
483.657005	2536.229706
484.025964	2535.302133
484.394864	2535.599562
484.763706	2536.564943
485.132489	2539.992927
485.501213	2537.570653
485.869879	2537.432021
486.238487	2534.661907
486.607036	2538.848585
486.975527	2534.956814
487.343959	2534.994623
487.712333	2536.537216
488.080648	2536.514531
488.448905	2534.798018
488.817104	2535.221475
489.185244	2536.882535
489.553326	2536.421270
489.921350	2537.129552
490.289315	2537.956301
490.657222	2536.544778
491.025070	2538.825900
491.392861	2539.050231
491.760593	2536.068389
492.128267	2537.966383
492.495883	2535.039993
492.863440	2538.757844
493.230939	2540.043339
493.598380	2537.404295
493.965763	2532.146371
494.333088	2533.661238
494.700354	2534.835827
495.067563	2535.443286
495.434713	2531.954807
495.801805	2538.178112
496.168839	2537.177443
496.535815	2535.468492
496.902733	2537.197607
497.269593	2535.821372
497.636395	2537.101825
498.003139	2537.679038
498.369825	2536.083512
498.736453	2536.806918
499.103023	2536.811959
499.469535	2535.846578
499.835989	2538.173071
500.202385	2537.583256
500.568723	2535.339942
500.935003	2538.016795
501.301226	2536.819521
501.667390	2536.920344
502.033497	2540.562577
502.399546	2537.636188
502.765537	2538.707433
503.131470	2536.844727
503.497345	2538.354552
503.863163	2540.066024
504.228923	2536.441434
504.594625	2538.740200
504.960269	2537.169881
505.325856	2537.691640
505.691385	2538.720036
506.056856	2537.870601
506.422270	2536.759027
506.787625	2537.381609
507.152924	2536.814480
507.518164	2537.182484
507.883347	2537.676517
508.248472	2538.856147
508.613540	2537.028729
508.978550	2538.543595
509.343503	2538.077289
509.708398	2540.335726
510.073236	2539.249357
510.438016	2539.435880
510.802738	2536.312885
511.167403	2538.778009
511.532010	2536.751465
511.896561	2538.883873
512.261053	2539.405633
512.625488	2536.922864
512.989866	2536.322967
513.354186	2536.688451
513.718449	2535.055117
514.082655	2537.227854
514.446803	2538.200797
514.810894	2540.854964
515.174927	2541.918648
515.538904	2539.415715
515.902822	2540.865047
516.266684	2539.763555
516.630488	2538.949408
516.994235	2540.585263
517.357925	2540.134079
517.721558	2540.252547
518.085133	2540.272711
518.448651	2539.947557
518.812112	2540.323123
519.175516	2539.690458
519.538863	2540.411343
519.902152	2536.960673
520.265385	2540.260108
520.628560	2541.285983
520.991678	2536.638039
521.354739	2540.711292
521.717743	2539.161137
522.080690	2538.374717
522.443580	2541.583411
522.806413	2538.646939
523.169189	2540.552495
523.531908	2539.622402
523.894569	2540.897814
524.257174	2539.705581
524.619722	2537.250539
524.982213	2539.524100
525.344647	2540.754141
525.707025	2540.280273
526.069345	2538.387320
526.431608	2540.660880
526.793815	2538.568801
527.155964	2542.604245
527.518057	2538.120138
527.880093	2540.323123
528.242072	2540.091230
528.603995	2541.303627
528.965860	2539.808925
529.327669	2540.305479
529.689421	2540.683565
530.051117	2541.031405
530.412755	2538.336908
530.774337	2538.901517
531.135862	2541.875798
531.497331	2539.340098
531.858743	2537.895807
532.220098	2536.446475
532.581396	2537.603420
532.942638	2536.212062
533.303824	2540.035777
533.664953	2541.114584
534.026025	2539.866898
534.387040	2538.132741
534.747999	2537.719367
535.108902	2539.035108
535.469748	2538.432690
535.830537	2543.892260
536.191270	2538.188194
536.551947	2543.007537
536.912567	2541.190201
537.273131	2541.475026
537.633638	2536.285158
537.994089	2539.987886
538.354483	2541.248174
538.714821	2538.021836
539.075103	2541.485109
539.435328	2541.820345
539.795497	2541.469985
540.155609	2537.918492
540.515665	2543.415871
540.875665	2540.287835
541.235609	2543.700696
541.595496	2542.634492
541.955328	2540.035777
542.315102	2540.260108
542.674821	2541.807743
543.034483	2540.444110
543.394090	2542.326981
543.753640	2540.945705
544.113134	2539.839172
544.472571	2542.301776
544.831953	2541.129707
545.191278	2542.702547
545.550548	2541.671631
545.909761	2542.488298
546.268918	2541.764893
546.628019	2539.619882
546.987064	2544.794626
547.346053	2540.890252
547.704986	2539.435880
548.063863	2540.844882
548.422684	2542.589121
548.781449	2539.655170
549.140158	2541.588452
549.498811	2543.312527
549.857408	2540.570139
550.215949	2539.226672
550.574434	2536.068389
550.932864	2538.553678
551.291237	2536.360776
551.649555	2538.200797
552.007817	2539.990407
552.366022	2542.072403
552.724173	2539.635005
553.082267	2541.643905
553.440305	2541.643905
553.798288	2543.299924
554.156215	2542.349667
554.514086	2541.099460
554.871902	2544.398896
555.229661	2540.567619
555.587365	2542.815973
555.945014	2541.238092
556.302606	2541.119625
556.660143	2543.234389
557.017625	2541.222969
557.375050	2542.069882
557.732421	2541.303627
558.089735	2539.231713
558.446994	2540.116435
558.804197	2543.735984
559.161345	2541.596014
559.518437	2542.884029
559.875474	2544.713968
560.232455	2543.357897
560.589381	2543.138607
560.946251	2543.141128
561.303065	2542.490819
561.659825	2543.806560
562.016528	2539.803884
562.373177	2541.618699
562.729770	2540.686086
563.086307	2542.311858
563.442789	2541.938812
563.799216	2542.631971
564.155587	2539.766075
564.511904	2543.962836
564.868164	2542.389996
565.224370	2542.377393
565.580520	2540.242464
565.936615	2543.403268
566.292654	2543.098278
566.648638	2542.231199
567.004567	2541.215407
567.360441	2543.977959
567.716260	2541.265818
568.072023	2543.809081
568.427732	2537.603420
568.783385	2540.686086
569.138982	2537.857998
569.494525	2537.134593
569.850013	2538.720036
570.205445	2540.307999
570.560823	2541.785057
570.916145	2540.880170
571.271412	2542.780685
571.626625	2543.378062
571.981782	2541.170037
572.336884	2541.560726
572.691931	2541.321271
573.046923	2538.679707
573.401860	2540.736497
573.756743	2536.254912
574.111570	2540.413863
574.466342	2543.088196
574.821059	2541.709440
575.175722	2540.043339
575.530330	2543.466282
575.884882	2541.626261
576.239380	2540.365972
576.593823	2544.729091
576.948211	2538.994779
577.302544	2542.052238
577.656823	2541.522917
578.011047	2544.971067
578.365216	2537.981507
578.719330	2542.906714
579.073389	2540.295396
579.427394	2543.025181
579.781344	2540.728936
580.135239	2545.797816
580.489080	2540.615510
580.842866	2539.738349
581.196597	2542.705068
581.550273	2543.574667
581.903895	2543.141128
582.257463	2541.298586
582.610975	2542.611807
582.964434	2542.841179
583.317837	2541.926210
583.671186	2539.478729
584.024481	2540.076106
584.377721	2541.147351
584.730906	2540.812115
585.084037	2541.419574
585.437113	2541.170037
585.790135	2540.542413
586.143103	2543.602393
586.496016	2537.099305
586.848874	2539.614841
587.201679	2538.752803
587.554428	2539.597197
587.907124	2539.635005
588.259765	2533.048738
588.612352	2542.730274
588.964884	2541.958977
589.317362	2539.592155
589.669786	2541.406971
590.022155	2541.164995
590.374470	2543.383103
590.726731	2542.553833
591.078937	2541.238092
591.431090	2542.543751
591.783188	2540.497042
592.135232	2541.732125
592.487222	2542.568957
592.839157	2543.239430
593.191038	2541.167516
593.542866	2540.693648
593.894639	2540.202135
594.246358	2537.936136
594.598022	2540.761703
594.949633	2542.016950
595.301190	2543.088196
595.652692	2540.751621
596.004141	2540.688606
596.355535	2540.693647
596.706876	2539.103163
597.058162	2542.379913
597.409395	2540.870088
597.760573	2541.091899
598.111698	2540.146682
598.462768	2541.071734
598.813785	2539.453524
599.164748	2540.250026
599.515657	2541.986703
599.866511	2539.960160
600.217312	2539.400592
600.568060	2538.034439
600.918753	2542.233720
601.269392	2539.768596
601.619978	2539.745911
601.970510	2541.134748
602.320988	2541.908566
602.671412	2540.166847
603.021783	2540.585263
603.372100	2543.176416
603.722363	2539.282124
604.072572	2540.474357
604.422728	2543.796478
604.772830	2537.114428
605.122878	2535.085364
605.472872	2536.398584
605.822813	2536.461599
606.172701	2538.951929
606.522534	2539.274563
606.872314	2539.438400
607.222041	2539.851775
607.571714	2541.686755
607.921333	2540.925541
608.270899	2539.360262
608.620411	2542.284132
608.969870	2542.395037
609.319276	2542.417722
609.668627	2547.567261
610.017926	2546.496016
610.367171	2546.606921
610.716362	2548.338557
611.065500	2546.183464
611.414585	2546.516180
611.763616	2543.579708
612.112594	2543.564585
612.461518	2541.104502
612.810389	2543.297403
613.159207	2542.049718
613.507971	2541.984183
613.856682	2542.702547
614.205340	2543.113401
614.553945	2544.156920
614.902496	2541.853113
615.250994	2541.979142
615.599439	2543.040305
615.947830	2543.783875
616.296169	2541.439738
616.644454	2541.127187
616.992686	2539.317413
617.340864	2541.296065
617.688990	2543.103319
618.037063	2544.719009
618.385082	2541.739687
618.733048	2540.756662
619.080961	2541.946374
619.428821	2543.478885
619.776628	2539.685417
620.124382	2542.997455
620.472083	2539.546785
620.819731	2541.958977
621.167326	2539.302289
621.514868	2541.442259
621.862357	2541.109543
622.209793	2541.477547
622.557176	2541.313709
622.904506	2539.758513
623.251783	2536.559901
623.599007	2535.493697
623.946179	2536.411187
624.293297	2535.440765
624.640363	2539.345139
624.987376	2540.986034
625.334336	2541.235572
625.681243	2539.695499
626.028097	2540.615510
626.374899	2541.233051
626.721647	2539.234233
627.068343	2540.060983
627.414987	2540.093750
627.761577	2541.101981
628.108115	2542.838658
628.454600	2541.901004
628.801032	2542.364790
629.147412	2539.425797
629.493739	2540.108874
629.840014	2542.150541
630.186236	2538.112577
630.532405	2541.669111
630.878521	2540.355890
631.224585	2542.190870
631.570597	2537.414377
631.916556	2538.397402
632.262462	2539.289686
632.608316	2541.480068
632.954117	2540.920499
633.299866	2541.228010
633.645562	2536.706095
633.991206	2540.290355
634.336797	2535.914634
634.682336	2539.758513
635.027823	2538.780530
635.373257	2537.618544
635.718639	2538.573842
636.063968	2537.190046
636.409245	2539.372865
636.754470	2539.839172
637.099642	2536.055786
637.444762	2544.111550
637.789829	2539.105684
638.134845	2540.824717
638.479808	2536.678368
638.824719	2540.141641
639.169577	2537.968904
639.514383	2538.369676
639.859137	2538.157947
640.203839	2539.357742
640.548489	2540.103832
640.893086	2535.410518
641.237632	2532.423635
641.582125	2538.331867
641.926566	2532.816845
642.270955	2539.811446
642.615292	2538.011754
642.959576	2540.282793
643.303809	2540.600386
643.647990	2536.963194
643.992118	2540.852444
644.336195	2541.044008
