Dividing Wavelength (nm)	Counts (n)	Blue Motor Position (mm): 0.000000	Red Motor Position (mm): 45.700000	
326.493990	2127.185442
326.888308	2127.185442
327.282561	2127.185442
327.676750	2097.099835
328.070874	2096.598241
328.464933	2097.435072
328.858929	2103.920517
329.252859	2115.542897
329.646726	2125.000101
330.040528	2137.300517
330.434265	2154.286685
330.827938	2169.813438
331.221547	2188.662313
331.615091	2209.232741
332.008571	2228.505072
332.401986	2248.052146
332.795338	2269.741711
333.188625	2286.690070
333.581847	2306.753862
333.975006	2323.278764
334.368100	2342.167968
334.761129	2359.010463
335.154095	2375.794985
335.546996	2398.369272
335.939833	2421.762746
336.332606	2438.713626
336.725315	2451.109823
337.117960	2460.045268
337.510540	2465.028449
337.903056	2478.805922
338.295508	2486.292036
338.687896	2495.257728
339.080220	2505.178719
339.472480	2509.942609
339.864676	2515.326561
340.256807	2518.018537
340.648875	2520.392921
341.040879	2523.430216
341.432818	2526.591020
341.824694	2526.933818
342.216506	2527.863911
342.608253	2526.868283
342.999937	2525.895340
343.391557	2527.800897
343.783113	2524.435926
344.174605	2524.466173
344.566033	2524.942562
344.957397	2523.823426
345.348697	2520.163548
345.739934	2518.560462
346.131106	2515.772703
346.522215	2516.140708
346.913260	2514.313289
347.304241	2515.069462
347.695159	2510.623165
348.086012	2510.179543
348.476802	2506.491939
348.867528	2506.260046
349.258191	2503.618482
349.648789	2503.600838
350.039324	2501.498676
350.429796	2503.747031
350.820203	2500.470281
351.210548	2498.960455
351.600828	2496.213027
351.991045	2497.964828
352.381198	2497.536329
352.771288	2497.143119
353.161314	2495.814775
353.551276	2494.289826
353.941175	2497.415342
354.331010	2499.646052
354.720782	2495.154384
355.110490	2497.916937
355.500135	2495.066164
355.889717	2498.615136
356.279235	2497.813593
356.668689	2496.238232
357.058080	2496.749909
357.447408	2495.671103
357.836672	2491.844867
358.225873	2498.610095
358.615010	2490.796307
359.004084	2499.623367
359.393095	2500.598830
359.782043	2502.103615
360.170927	2501.533964
360.559748	2501.975065
360.948505	2505.400529
361.337199	2502.935405
361.725830	2505.960097
362.114398	2504.813235
362.502903	2505.796260
362.891344	2506.658297
363.279722	2505.692916
363.668037	2507.704337
364.056289	2505.607217
364.444478	2508.314316
364.832603	2507.835407
365.220665	2509.725839
365.608665	2509.582167
365.996601	2510.242558
366.384474	2511.006293
366.772284	2511.714575
367.160031	2515.273629
367.547715	2515.127436
367.935336	2518.941069
368.322893	2520.768487
368.710388	2525.502130
369.097820	2532.791639
369.485189	2536.693492
369.872495	2541.442259
370.259738	2547.141283
370.646918	2555.373487
371.034035	2561.221226
371.421090	2570.849830
371.808081	2587.878847
372.195010	2590.157449
372.581875	2604.176898
372.968678	2617.755246
373.355418	2627.005763
373.742096	2645.032929
374.128710	2659.866524
374.515262	2674.455624
374.901751	2691.119158
375.288177	2706.766899
375.674540	2727.289437
376.060841	2747.330544
376.447079	2765.529109
376.833254	2786.013838
377.219367	2796.691002
377.605417	2834.381188
377.991404	2845.771675
378.377329	2864.953266
378.763191	2883.199722
379.148991	2920.922676
379.534727	2944.016202
379.920402	2974.905872
380.306013	2987.987667
380.691563	3036.786036
381.077049	3056.194478
381.462474	3076.598548
381.847835	3112.869650
382.233134	3136.603402
382.618371	3136.875625
383.003545	3208.228116
383.388657	3212.702140
383.773706	3244.050556
384.158693	3262.627207
384.543618	3287.964047
384.928480	3319.365394
385.313280	3367.420193
385.698017	3367.064792
386.082692	3422.585540
386.467305	3428.488731
386.851856	3456.719192
387.236344	3480.881443
387.620770	3511.216586
388.005133	3538.892521
388.389435	3566.316397
388.773674	3579.433480
389.157851	3618.628451
389.541965	3633.512458
389.926018	3599.199844
390.310008	3672.916637
390.693936	3689.809543
391.077802	3732.157756
391.461606	3718.168554
391.845348	3783.711116
392.229027	3782.166002
392.612645	3791.401396
392.996200	3873.559601
393.379694	3912.968821
393.763125	3978.894511
394.146494	3943.084674
394.529801	4004.564066
394.913047	4056.626582
395.296230	4019.899256
395.679351	4075.374633
396.062410	4097.608643
396.445408	4080.186415
396.828343	4115.756796
397.211217	4137.794200
397.594028	4058.401068
397.976778	4122.769041
398.359466	4149.177126
398.742092	4176.530427
399.124656	4102.024693
399.507158	4182.431097
399.889598	4205.484294
400.271977	4268.420579
400.654294	4239.554932
401.036549	4248.543309
401.418742	4216.849575
401.800874	4319.759690
402.182944	4343.929502
402.564952	4405.063574
402.946898	4395.813057
403.328783	4386.607910
403.710606	4301.235970
404.092367	4494.896936
404.474067	4460.279332
404.855705	4467.853666
405.237282	4394.073859
405.618797	4502.594778
406.000250	4541.875449
406.381642	4620.111636
406.762972	4577.276952
407.144240	4593.877471
407.525447	4592.667594
407.906593	4652.090195
408.287677	4695.615517
408.668700	4621.036688
409.049661	4673.948638
409.430560	4715.427252
409.811399	4641.718021
410.192176	4802.782887
410.572891	4744.050924
410.953545	4846.829968
411.334138	4722.081575
411.714669	4793.451711
412.095139	4689.750135
412.475547	4828.775076
412.855894	4813.565915
413.236180	4820.293334
413.616405	4770.075880
413.996568	4860.216752
414.376670	4800.955468
414.756711	4758.312348
415.136691	4789.512049
415.516609	4868.879975
415.896466	4903.182507
416.276262	4937.132157
416.655997	4919.185649
417.035670	5100.959575
417.415283	5192.701013
417.794834	5136.880317
418.174324	5090.252164
418.553753	5002.122713
418.933121	5179.165515
419.312428	5247.939456
419.691674	5186.407133
420.070859	5313.076205
420.449983	5221.569181
420.829045	5339.224670
421.208047	5245.360906
421.586988	5318.122400
421.965867	5329.326365
422.344686	5463.108505
422.723444	5316.970497
423.102141	5136.479545
423.480777	5434.295791
423.859352	5204.270461
424.237866	5462.072548
424.616319	5454.422597
424.994712	5561.683228
425.373044	5442.114620
425.751314	5582.530919
426.129524	5386.031784
426.507673	5584.131486
426.885762	5663.310369
427.263789	5599.209577
427.641756	5480.208099
428.019662	5599.643116
428.397508	5607.545125
428.775292	5553.566970
429.153016	5653.785108
429.530679	5575.564045
429.908282	5662.319782
430.285824	5528.484709
430.663305	5805.745650
431.040726	5542.060536
431.418086	5541.067429
431.795385	5648.242360
432.172624	5662.355070
432.549802	5654.284183
432.926920	5671.345968
433.303977	5675.063819
433.680974	5711.844077
434.057910	5732.071707
434.434786	5738.131174
434.811601	5704.975505
435.188355	5941.221618
435.565050	5815.825437
435.941683	5798.007479
436.318257	6009.330128
436.694770	5998.007696
437.071222	6031.155803
437.447614	5960.902283
437.823946	5876.145363
438.200218	6028.453745
438.576429	5894.931223
438.952580	5991.847406
439.328670	6034.944230
439.704700	5941.347647
440.080670	5929.256440
440.456580	6195.953643
440.832429	6083.651859
441.208218	5929.758035
441.583947	6081.930305
441.959616	6085.867446
442.335224	6014.020921
442.710773	6153.950749
443.086261	6180.689029
443.461689	5978.160673
443.837057	6130.804291
444.212365	6280.670233
444.587612	6171.105796
444.962800	6325.700340
445.337927	6305.893647
445.712995	5919.315284
446.088002	6491.279559
446.462949	6326.743859
446.837837	6253.644607
447.212664	6431.940137
447.587431	6570.385345
447.962139	7107.782427
448.336786	8039.178450
448.711374	7780.179089
449.085901	6852.644590
449.460369	6773.271623
449.834776	6703.865016
450.209124	7099.051149
450.583412	7251.684684
450.957640	7393.227681
451.331808	7162.564646
451.705917	6714.002777
452.079965	6636.852958
452.453954	6847.661409
452.827883	6721.607357
453.201752	6820.051010
453.575562	6618.987109
453.949311	6823.373130
454.323001	6713.826336
454.696632	6786.693695
455.070202	6922.346103
455.443713	7083.068170
455.817164	7177.909918
456.190556	7259.387567
456.563888	7334.049576
456.937160	7379.309056
457.310373	7038.816922
457.683526	7060.778709
458.056619	6946.677233
458.429653	6941.855369
458.802628	6875.566716
459.175542	6979.941286
459.548398	7336.900349
459.921194	7501.471337
460.293930	7504.765731
460.666607	8030.363992
461.039224	8336.972011
461.411782	8465.642421
461.784280	8484.224114
462.156719	8380.701500
462.529099	8256.575689
462.901419	7845.646033
463.273680	7737.384734
463.645882	7748.341682
464.018024	7618.320242
464.390106	7779.332175
464.762130	8171.057555
465.134094	8638.596848
465.505999	9659.692642
465.877845	10873.133661
466.249631	11532.072962
466.621358	11141.625515
466.993026	10524.179950
467.364634	10262.183623
467.736184	9899.429754
468.107674	9563.870390
468.479105	9596.547149
468.850477	9365.231284
469.221790	9137.091346
469.593043	8812.650246
469.964238	8673.486674
470.335373	8682.906070
470.706449	8736.717867
471.077467	8716.850679
471.448425	10021.072797
471.819324	11095.740932
472.190164	11133.635286
472.560945	9881.432835
472.931667	9093.671888
473.302330	8953.686607
473.672934	8599.850540
474.043479	8955.834139
474.413965	8899.874811
474.784393	8784.538252
475.154761	8936.755892
475.525070	9020.250003
475.895321	8850.254733
476.265513	9023.846866
476.635645	9197.537301
477.005719	9199.488228
477.375734	9311.263212
477.745691	9546.047390
478.115588	9675.413480
478.485427	9926.150390
478.855207	10460.084200
479.224928	11272.771132
479.594591	11902.121381
479.964194	11718.086498
480.333739	11658.207673
480.703226	11570.617625
481.072653	11661.262612
481.442022	11902.610373
481.811333	12087.885380
482.180584	11892.790205
482.549777	11605.560382
482.918912	11428.497415
483.287988	11450.675972
483.657005	11460.884308
484.025964	11144.836730
484.394864	11278.039138
484.763706	11250.156516
485.132489	11000.465645
485.501213	10969.949020
485.869879	11045.294106
486.238487	10878.537778
486.607036	10990.932823
486.975527	10769.074163
487.343959	10962.505757
487.712333	11013.439055
488.080648	10939.997005
488.448905	10982.325053
488.817104	10917.392471
489.185244	11181.753099
489.553326	11345.184786
489.921350	11873.202802
490.289315	12938.804423
490.657222	13285.683698
491.025070	13192.583669
491.392861	13063.686406
491.760593	12689.421062
492.128267	12340.638751
492.495883	12011.554749
492.863440	11676.706187
493.230939	11340.214209
493.598380	11276.506627
493.965763	11145.905454
494.333088	11041.888806
494.700354	10966.226128
495.067563	11019.811073
495.434713	10854.534324
495.801805	10985.261525
496.168839	10904.260265
496.535815	10836.461787
496.902733	10831.440798
497.269593	10773.160018
497.636395	10867.359019
498.003139	10855.925682
498.369825	10732.442619
498.736453	10886.354087
499.103023	10810.451954
499.469535	10837.172590
499.835989	10829.260499
500.202385	10786.531679
500.568723	10643.798969
500.935003	10866.678463
501.301226	10672.205871
501.667390	10930.827146
502.033497	11025.943637
502.399546	10885.272759
502.765537	10796.006527
503.131470	10867.492610
503.497345	11043.106245
503.863163	10655.678448
504.228923	10967.325100
504.594625	11026.606548
504.960269	10776.156984
505.325856	10991.081537
505.691385	10791.003182
506.056856	10952.128542
506.422270	10971.758795
506.787625	10863.419357
507.152924	10980.119548
507.518164	10963.178751
507.883347	10878.147088
508.248472	10791.769438
508.613540	11030.952023
508.978550	10914.574466
509.343503	10888.415919
509.708398	11002.464463
510.073236	11112.880855
510.438016	11125.400561
510.802738	11075.808210
511.167403	11120.808070
511.532010	11021.464572
511.896561	11250.335477
512.261053	11326.688793
512.625488	11191.341374
512.989866	11173.001656
513.354186	11168.920842
513.718449	11068.811088
514.082655	11264.448187
514.446803	11157.147227
514.810894	11278.901175
515.174927	11147.158181
515.538904	11165.641572
515.902822	11322.938174
516.266684	11208.619929
516.630488	11152.191773
516.994235	11205.139012
517.357925	11270.333734
517.721558	11361.772703
518.085133	11372.538087
518.448651	11383.510158
518.812112	11268.047571
519.175516	11274.331369
519.538863	11399.846017
519.902152	11317.372741
520.265385	11483.077988
520.628560	11388.001827
520.991678	11361.003927
521.354739	11428.915831
521.717743	11369.460463
522.080690	11344.355517
522.443580	11480.600261
522.806413	11432.343816
523.169189	11462.507560
523.531908	11521.058041
523.894569	11337.244969
524.257174	11342.364261
524.619722	11457.075717
524.982213	11407.987481
525.344647	11460.891870
525.707025	11412.395970
526.069345	11507.610763
526.431608	11415.055179
526.793815	11529.038188
527.155964	11323.248205
527.518057	11375.915660
527.880093	11324.591673
528.242072	11393.615151
528.603995	11304.815226
528.965860	11221.618544
529.327669	11269.191913
529.689421	11223.508977
530.051117	11192.337002
530.412755	11301.730040
530.774337	11184.802997
531.135862	11162.942034
531.497331	11191.122084
531.858743	11043.779239
532.220098	11209.008097
532.581396	11086.777761
532.942638	11065.831767
533.303824	11023.486074
533.664953	11045.208406
534.026025	10950.364138
534.387040	11049.445496
534.747999	11050.688140
535.108902	11109.147881
535.469748	10866.222239
535.830537	10975.335493
536.191270	10944.786101
536.551947	10981.957049
536.912567	10968.787034
537.273131	10899.708103
537.633638	10879.392253
537.994089	10870.529905
538.354483	10811.815586
538.714821	10961.379059
539.075103	10970.932045
539.435328	10932.704976
539.795497	10755.702503
540.155609	10916.991699
540.515665	11005.305153
540.875665	10740.357230
541.235609	10810.237705
541.595496	10805.567076
541.955328	10957.164654
542.315102	10851.202121
542.674821	10798.892588
543.034483	10796.787906
543.394090	10803.976592
543.753640	10724.633871
544.113134	10955.163316
544.472571	10799.547938
544.831953	10945.025556
545.191278	10755.195867
545.550548	10779.002716
545.909761	10922.778944
546.268918	10889.824921
546.628019	10980.784981
546.987064	10842.541419
547.346053	10756.473799
547.704986	10863.174861
548.063863	10850.488798
548.422684	10837.979174
548.781449	10754.454817
549.140158	10855.557678
549.498811	10734.796837
549.857408	10591.582698
550.215949	10815.951853
550.574434	10667.278143
550.932864	10766.404872
551.291237	10828.584984
551.649555	10777.172777
552.007817	10794.857144
552.366022	10749.385937
552.724173	10746.668755
553.082267	10732.979502
553.440305	10866.300377
553.798288	10669.471045
554.156215	10820.428397
554.514086	10799.381580
554.871902	10648.426749
555.229661	10686.184991
555.587365	10659.439149
555.945014	10552.609537
556.302606	10680.546460
556.660143	10575.647611
557.017625	10725.994983
557.375050	10625.275250
557.732421	10764.166600
558.089735	10675.598568
558.446994	10682.787253
558.804197	10705.752230
559.161345	10714.619619
559.518437	10560.761083
559.875474	10649.271142
560.232455	10683.009064
560.589381	10630.855807
560.946251	10628.816660
561.303065	10733.770963
561.659825	10667.013483
562.016528	10596.429767
562.373177	10481.413322
562.729770	10590.846689
563.086307	10502.223205
563.442789	10600.644172
563.799216	10481.551953
564.155587	10523.360763
564.511904	10479.502724
564.868164	10464.689294
565.224370	10488.216359
565.580520	10407.522609
565.936615	10416.843703
566.292654	10288.251430
566.648638	10417.395709
567.004567	10377.121931
567.360441	10356.647285
567.716260	10267.045816
568.072023	10365.139108
568.427732	10312.519544
568.783385	10218.532272
569.138982	10292.803592
569.494525	10312.902672
569.850013	10185.749649
570.205445	10265.949365
570.560823	10162.174693
570.916145	10080.450027
571.271412	10155.653960
571.626625	10095.961658
571.981782	10072.134644
572.336884	10044.864522
572.691931	10051.627230
573.046923	10003.315332
573.401860	9954.380852
573.756743	9893.087983
574.111570	9934.916957
574.466342	9922.510677
574.821059	9945.689903
575.175722	9838.514972
575.530330	9850.719605
575.884882	9840.186114
576.239380	9767.469991
576.593823	9748.711857
576.948211	9758.211912
577.302544	9641.070620
577.656823	9659.526284
578.011047	9665.273199
578.365216	9638.164394
578.719330	9549.770282
579.073389	9564.535822
579.427394	9510.658490
579.781344	9489.939348
580.135239	9439.323643
580.489080	9448.087689
580.842866	9350.354839
581.196597	9354.128143
581.550273	9396.448629
581.903895	9361.916725
582.257463	9426.942569
582.610975	9305.443199
582.964434	9332.748609
583.317837	9254.025951
583.671186	9237.639680
584.024481	9229.813289
584.377721	9148.978387
584.730906	9130.920974
585.084037	9159.884923
585.437113	9098.594575
585.790135	9115.333726
586.143103	9020.441567
586.496016	8993.110951
586.848874	9048.679590
587.201679	9043.643477
587.554428	8923.641331
587.907124	8968.636149
588.259765	8942.492725
588.612352	8937.990975
588.964884	8820.370773
589.317362	8837.508176
589.669786	8833.747475
590.022155	8884.635403
590.374470	8898.133092
590.726731	8827.660282
591.078937	8682.747273
591.431090	8801.768916
591.783188	8677.630502
592.135232	8666.489552
592.487222	8665.408225
592.839157	8718.355464
593.191038	8651.444229
593.542866	8596.135209
593.894639	8488.496492
594.246358	8549.854896
594.598022	8564.194458
594.949633	8460.636556
595.301190	8437.699306
595.652692	8462.267369
596.004141	8575.572343
596.355535	8354.404321
596.706876	8331.479673
597.058162	8264.601206
597.409395	8339.769851
597.760573	8400.961897
598.111698	8313.891088
598.462768	8301.225189
598.813785	8259.935618
599.164748	8230.931339
599.515657	8221.038075
599.866511	8130.599775
600.217312	8257.982171
600.568060	8113.381714
600.918753	8220.425575
601.269392	8190.864249
601.619978	8100.970393
601.970510	8163.805855
602.320988	8159.052047
602.671412	8223.626707
603.021783	8154.086511
603.372100	8128.074157
603.722363	8123.912684
604.072572	8108.156558
604.422728	8118.122919
604.772830	8044.842186
605.122878	8054.760657
605.472872	8047.798823
605.822813	8075.991476
606.172701	8023.112293
606.522534	8097.146678
606.872314	8097.194569
607.222041	8068.207934
607.571714	8126.052654
607.921333	8083.984225
608.270899	8081.914832
608.620411	8179.430912
608.969870	8080.616735
609.319276	8073.453255
609.668627	8091.210719
610.017926	8131.348386
610.367171	8172.864809
610.716362	8146.388669
611.065500	8139.336095
611.414585	8164.380547
611.763616	8157.832088
612.112594	8137.717884
612.461518	8155.155235
612.810389	8211.979122
613.159207	8149.010069
613.507971	8103.266639
613.856682	8214.842497
614.205340	8172.683327
614.553945	8250.246520
614.902496	8150.882857
615.250994	8200.510497
615.599439	8184.461983
615.947830	8194.698046
616.296169	8170.119901
616.644454	8183.345368
616.992686	8185.223198
617.340864	8242.745283
617.688990	8138.365672
618.037063	8239.740756
618.385082	8182.511057
618.733048	8267.877956
619.080961	8209.604738
619.428821	8225.902788
619.776628	8228.781287
620.124382	8182.563989
620.472083	8162.848036
620.819731	8195.207203
621.167326	8083.505316
621.514868	8097.262625
621.862357	7979.460942
622.209793	7997.780495
622.557176	7930.644928
622.904506	7903.813387
623.251783	7838.719488
623.599007	7791.388094
623.946179	7796.157026
624.293297	7750.983246
624.640363	7668.968714
624.987376	7651.057495
625.334336	7601.986903
625.681243	7547.996146
626.028097	7538.312089
626.374899	7515.710076
626.721647	7510.275712
627.068343	7439.898684
627.414987	7409.520691
627.761577	7363.149637
628.108115	7403.004999
628.454600	7297.115563
628.801032	7343.842018
629.147412	7310.474620
629.493739	7294.806714
629.840014	7234.801860
630.186236	7286.990405
630.532405	7171.379103
630.878521	7223.229891
631.224585	7180.150711
631.570597	7105.947447
631.916556	7137.704196
632.262462	7131.276725
632.608316	7093.331960
632.954117	7067.571663
633.299866	7057.091105
633.645562	7048.868983
633.991206	6968.923844
634.336797	6914.575165
634.682336	6874.555965
635.027823	6838.368042
635.373257	6829.185580
635.718639	6756.681185
636.063968	6774.526870
636.409245	6667.223390
636.754470	6662.802298
637.099642	6622.215968
637.444762	6567.368214
637.789829	6578.415903
638.134845	6518.826944
638.479808	6505.752711
638.824719	6507.749008
639.169577	6435.211846
639.514383	6458.733869
639.859137	6386.456326
640.203839	6398.739097
640.548489	6383.557663
