Dividing Wavelength (nm)	Counts (n)	Blue Motor Position (mm): 0.000000	Red Motor Position (mm): 20.500000	
326.493990	2082.392269
326.888308	2082.392269
327.282561	2082.392269
327.676750	2059.152550
328.070874	2060.564073
328.464933	2066.694116
328.858929	2076.816753
329.252859	2090.546335
329.646726	2104.230548
330.040528	2117.710593
330.434265	2139.364869
330.827938	2156.237611
331.221547	2177.039933
331.615091	2198.550536
332.008571	2218.573999
332.401986	2239.588049
332.795338	2260.115627
333.188625	2283.289812
333.581847	2301.803449
333.975006	2317.483958
334.368100	2334.732266
334.761129	2353.881089
335.154095	2367.852647
335.546996	2387.003990
335.939833	2406.866136
336.332606	2419.229566
336.725315	2429.475711
337.117960	2436.805549
337.510540	2446.053546
337.903056	2454.726851
338.295508	2462.154991
338.687896	2467.181022
339.080220	2476.103864
339.472480	2481.933958
339.864676	2484.084010
340.256807	2486.390338
340.648875	2488.709269
341.040879	2490.947541
341.432818	2488.200113
341.824694	2491.300422
342.216506	2492.066677
342.608253	2491.630618
342.999937	2490.755978
343.391557	2488.941162
343.783113	2485.946717
344.174605	2486.770945
344.566033	2485.750112
344.957397	2484.373877
345.348697	2479.688124
345.739934	2481.235758
346.131106	2477.636375
346.522215	2478.881540
346.913260	2478.047229
347.304241	2474.979687
347.695159	2472.723770
348.086012	2469.497432
348.476802	2469.797380
348.867528	2471.135807
349.258191	2469.862915
349.648789	2466.608851
350.039324	2467.054993
350.429796	2465.915692
350.820203	2467.009622
351.210548	2465.197327
351.600828	2464.327728
351.991045	2461.671040
352.381198	2463.095166
352.771288	2465.227574
353.161314	2464.408387
353.551276	2465.109107
353.941175	2466.470219
354.331010	2465.731690
354.720782	2463.271607
355.110490	2464.862091
355.500135	2465.474591
355.889717	2465.320836
356.279235	2465.746813
356.668689	2467.377627
357.058080	2467.569190
357.447408	2463.818572
357.836672	2464.476442
358.225873	2470.551033
358.615010	2463.387553
359.004084	2471.728142
359.393095	2470.293934
359.782043	2470.843420
360.170927	2471.193780
360.559748	2472.005406
360.948505	2472.625468
361.337199	2474.568832
361.725830	2474.732670
362.114398	2475.864409
362.502903	2474.694861
362.891344	2475.531693
363.279722	2478.737867
363.668037	2478.926910
364.056289	2479.773824
364.444478	2478.495891
364.832603	2480.557723
365.220665	2482.886736
365.608665	2482.485965
365.996601	2483.027889
366.384474	2484.701552
366.772284	2484.242807
367.160031	2482.806078
367.547715	2486.884371
367.935336	2484.119298
368.322893	2487.874958
368.710388	2488.520226
369.097820	2490.514002
369.485189	2489.893940
369.872495	2491.733961
370.259738	2490.400576
370.646918	2494.602378
371.034035	2495.280413
371.421090	2500.702174
371.808081	2500.084633
372.195010	2506.176867
372.581875	2510.250119
372.968678	2513.615090
373.355418	2524.123375
373.742096	2530.313912
374.128710	2538.939326
374.515262	2552.855431
374.901751	2561.501010
375.288177	2579.868454
375.674540	2595.901844
376.060841	2613.893722
376.447079	2635.235447
376.833254	2661.086484
377.219367	2682.138342
377.605417	2712.844010
377.991404	2736.779409
378.377329	2771.906169
378.763191	2806.513690
379.148991	2849.239989
379.534727	2894.769170
379.920402	2938.491098
380.306013	2981.083806
380.691563	3044.093188
381.077049	3093.483893
381.462474	3150.156545
381.847835	3218.111298
382.233134	3282.118829
382.618371	3338.688137
383.003545	3421.191661
383.388657	3493.910305
383.773706	3585.228286
384.158693	3653.883760
384.543618	3741.322574
384.928480	3813.930313
385.313280	3914.564346
385.698017	4008.909541
386.082692	4124.445225
386.467305	4187.404195
386.851856	4301.571207
387.236344	4448.430100
387.620770	4509.682640
388.005133	4623.312768
388.389435	4760.664046
388.773674	4841.567004
389.157851	4970.557528
389.541965	5094.229634
389.926018	5119.223675
390.310008	5286.433707
390.693936	5403.259927
391.077802	5515.533985
391.461606	5644.174149
391.845348	5751.545684
392.229027	5874.025558
392.612645	6083.530871
392.996200	6201.503953
393.379694	6361.633685
393.763125	6576.202836
394.146494	6670.099368
394.529801	6799.946888
394.913047	7027.996085
395.296230	7028.001126
395.679351	7081.525577
396.062410	7330.162847
396.445408	7235.205152
396.828343	7382.169910
397.211217	7519.233842
397.594028	7405.046667
397.976778	7604.522604
398.359466	7770.348839
398.742092	7752.213288
399.124656	7889.267138
399.507158	8075.041218
399.889598	8100.186494
400.271977	8304.834655
400.654294	8340.306734
401.036549	8536.296713
401.418742	8566.059685
401.800874	8852.797996
402.182944	8936.549205
402.564952	9293.846025
402.946898	9129.252352
403.328783	9185.496505
403.710606	9379.328871
404.092367	9632.414958
404.474067	9980.103339
404.855705	9789.973701
405.237282	9742.478470
405.618797	10157.055401
406.000250	10398.060363
406.381642	10759.690055
406.762972	10706.216016
407.144240	10526.516525
407.525447	10769.220357
407.906593	10713.994516
408.287677	10969.694442
408.668700	11118.547112
409.049661	11104.013466
409.430560	11262.739236
409.811399	11247.673748
410.192176	11401.010524
410.572891	11477.381484
410.953545	11946.869183
411.334138	11440.976792
411.714669	12014.284533
412.095139	11371.224867
412.475547	11836.402379
412.855894	11710.393697
413.236180	12026.920186
413.616405	11726.031357
413.996568	11992.741162
414.376670	11973.640231
414.756711	11867.241638
415.136691	12130.727626
415.516609	12297.398254
415.896466	12379.150646
416.276262	12665.959532
416.655997	13119.794448
417.035670	13166.551150
417.415283	13768.595990
417.794834	13841.785982
418.174324	13597.128703
418.553753	13507.224766
418.933121	13987.553466
419.312428	13808.741218
419.691674	13717.871900
420.070859	14172.014326
420.449983	13826.468436
420.829045	14364.220919
421.208047	14114.373773
421.586988	14546.292273
421.965867	14772.027580
422.344686	14767.220840
422.723444	15314.727957
423.102141	14018.538918
423.480777	15164.894782
423.859352	14657.507688
424.237866	15708.048862
424.616319	15410.109108
424.994712	16000.524005
425.373044	15773.132679
425.751314	16401.363792
426.129524	15524.361819
426.507673	16510.749268
426.885762	16204.100921
427.263789	16325.854869
427.641756	16440.402487
428.019662	16431.411589
428.397508	16416.083961
428.775292	16619.532327
429.153016	16527.420364
429.530679	16522.028850
429.908282	16464.612628
430.285824	16139.201106
430.663305	16674.274217
431.040726	16232.437247
431.418086	15992.049826
431.795385	16438.998526
432.172624	16720.952781
432.549802	16215.272118
432.926920	16277.222858
433.303977	16062.802420
433.680974	16144.660676
434.057910	16270.639111
434.434786	16167.539953
434.811601	15965.263655
435.188355	16672.782035
435.565050	16247.149854
435.941683	16064.929787
436.318257	16600.877537
436.694770	16291.872451
437.071222	16573.123465
437.447614	15705.155240
437.823946	15544.387802
438.200218	15496.612787
438.576429	15151.122350
438.952580	15195.436612
439.328670	14979.718078
439.704700	15090.941055
440.080670	14609.682262
440.456580	14823.107072
440.832429	14734.279420
441.208218	13900.507862
441.583947	13983.361746
441.959616	13867.427811
442.335224	13817.359071
442.710773	13698.526472
443.086261	13818.309328
443.461689	13225.159605
443.837057	13099.201335
444.212365	13261.251746
444.587612	13039.864434
444.962800	12589.170156
445.337927	12605.969802
445.712995	11737.772204
446.088002	12474.388124
446.462949	12352.558559
446.837837	12217.135523
447.212664	11996.048159
447.587431	13119.844860
447.962139	14206.969687
448.336786	14975.022243
448.711374	14002.830682
449.085901	12160.528407
449.460369	11873.938810
449.834776	11611.687905
450.209124	12319.289465
450.583412	11907.936352
450.957640	11839.205260
451.331808	11113.347162
451.705917	10396.800075
452.079965	10175.379995
452.453954	10069.351927
452.827883	9819.061159
453.201752	9537.033807
453.575562	9382.759376
453.949311	9484.968770
454.323001	9292.202609
454.696632	9022.710086
455.070202	9226.057629
455.443713	9065.648114
455.817164	8987.553079
456.190556	8903.111232
456.563888	8564.849808
456.937160	8449.288918
457.310373	7888.579020
457.683526	7768.798684
458.056619	7573.867347
458.429653	7382.573203
458.802628	7314.507543
459.175542	7161.352248
459.548398	7212.220011
459.921194	7313.509395
460.293930	7278.939682
460.666607	7431.853002
461.039224	7527.826489
461.411782	7372.989969
461.784280	6997.471899
462.156719	6718.829682
462.529099	6460.478109
462.901419	6118.549246
463.273680	5831.079969
463.645882	5696.130801
464.018024	5550.365837
464.390106	5501.234752
464.762130	5660.000851
465.134094	5965.852696
465.505999	6357.061358
465.877845	6613.784638
466.249631	6500.114181
466.621358	6125.561491
466.993026	5760.836531
467.364634	5436.987767
467.736184	5160.641795
468.107674	4953.503304
468.479105	4788.211431
468.850477	4632.613697
469.221790	4455.419660
469.593043	4269.890075
469.964238	4140.385353
470.335373	4060.162952
470.706449	4059.220256
471.077467	4098.455556
471.448425	4216.277404
471.819324	4262.721554
472.190164	4119.318372
472.560945	3922.877209
472.931667	3754.696755
473.302330	3657.064728
473.672934	3581.099581
474.043479	3551.071948
474.413965	3488.498626
474.784393	3437.698919
475.154761	3424.496137
475.525070	3392.784759
475.895321	3351.669108
476.265513	3335.018177
476.635645	3332.732013
477.005719	3302.417035
477.375734	3291.124850
477.745691	3283.278294
478.115588	3287.028913
478.485427	3306.865853
478.855207	3352.513501
479.224928	3382.430229
479.594591	3394.536560
479.964194	3354.051053
480.333739	3341.133096
480.703226	3326.975016
481.072653	3325.757577
481.442022	3324.479645
481.811333	3313.048828
482.180584	3284.646968
482.549777	3265.321704
482.918912	3245.666245
483.287988	3232.052609
483.657005	3212.382027
484.025964	3194.712783
484.394864	3189.469983
484.763706	3178.117304
485.132489	3156.367246
485.501213	3151.356339
485.869879	3146.824342
486.238487	3134.803711
486.607036	3135.045686
486.975527	3122.878861
487.343959	3121.968933
487.712333	3117.943572
488.080648	3110.684310
488.448905	3113.890484
488.817104	3105.925461
489.185244	3116.302676
489.553326	3135.741365
489.921350	3167.233453
490.289315	3203.335677
490.657222	3210.025288
491.025070	3209.125442
491.392861	3188.494520
491.760593	3167.016684
492.128267	3138.871922
492.495883	3116.632872
492.863440	3093.836774
493.230939	3072.046386
493.598380	3054.281360
493.965763	3044.052859
494.333088	3029.957793
494.700354	3018.055629
495.067563	3012.885925
495.434713	3004.426869
495.801805	2999.872187
496.168839	2994.279027
496.535815	2988.020434
496.902733	2982.749908
497.269593	2974.857981
497.636395	2969.610140
498.003139	2968.511169
498.369825	2956.886268
498.736453	2957.365178
499.103023	2947.784465
499.469535	2942.702982
499.835989	2943.774227
500.202385	2933.366765
500.568723	2929.419541
500.935003	2930.127823
501.301226	2922.190527
501.667390	2925.842843
502.033497	2925.943666
502.399546	2915.944537
502.765537	2907.001530
503.131470	2907.573701
503.497345	2908.642426
503.863163	2892.508213
504.228923	2893.264386
504.594625	2898.383678
504.960269	2885.821122
505.325856	2889.980074
505.691385	2881.775596
506.056856	2879.580174
506.422270	2883.802140
506.787625	2877.495657
507.152924	2877.664535
507.518164	2875.617827
507.883347	2867.831765
508.248472	2866.994933
508.613540	2874.476005
508.978550	2871.305120
509.343503	2866.011908
509.708398	2870.823689
510.073236	2874.057590
510.438016	2870.886704
510.802738	2866.291692
511.167403	2870.115407
511.532010	2871.100953
511.896561	2873.563557
512.261053	2880.507746
512.625488	2870.755634
512.989866	2870.385109
513.354186	2864.456712
513.718449	2860.837164
514.082655	2871.037938
514.446803	2868.353524
514.810894	2872.514997
515.174927	2870.145654
515.538904	2867.748586
515.902822	2872.444420
516.266684	2868.489635
516.630488	2868.766899
516.994235	2868.109028
517.357925	2870.816128
517.721558	2872.946015
518.085133	2871.768906
518.448651	2872.968700
518.812112	2869.903679
519.175516	2869.182794
519.538863	2871.842003
519.902152	2873.223279
520.265385	2873.586242
520.628560	2873.167826
520.991678	2870.097763
521.354739	2872.822507
521.717743	2873.626571
522.080690	2870.264121
522.443580	2870.720346
522.806413	2872.225130
523.169189	2869.419728
523.531908	2871.446272
523.894569	2868.114069
524.257174	2869.210520
524.619722	2871.935264
524.982213	2871.511807
525.344647	2866.599203
525.707025	2866.717670
526.069345	2868.769419
526.431608	2867.126003
526.793815	2870.269162
527.155964	2866.027032
527.518057	2864.325642
527.880093	2860.328007
528.242072	2865.031404
528.603995	2859.962523
528.965860	2858.727441
529.327669	2857.353726
529.689421	2858.314066
530.051117	2857.452029
530.412755	2855.712831
530.774337	2855.254086
531.135862	2852.957840
531.497331	2850.051615
531.858743	2845.648167
532.220098	2850.936337
532.581396	2845.882581
532.942638	2844.526510
533.303824	2844.420646
533.664953	2843.906448
534.026025	2840.428052
534.387040	2838.383864
534.747999	2841.514421
535.108902	2843.034329
535.469748	2837.108452
535.830537	2837.478977
536.191270	2837.496621
536.551947	2832.470591
536.912567	2836.110304
537.273131	2830.038234
537.633638	2825.763336
537.994089	2828.782987
538.354483	2824.586226
538.714821	2827.205106
539.075103	2827.061433
539.435328	2826.201916
539.795497	2824.329127
540.155609	2822.879796
540.515665	2827.658810
540.875665	2819.968529
541.235609	2820.134887
541.595496	2819.406441
541.955328	2822.174034
542.315102	2820.497851
542.674821	2817.165648
543.034483	2816.709423
543.394090	2811.648105
543.753640	2812.749597
544.113134	2816.414516
544.472571	2810.413022
544.831953	2814.221614
545.191278	2811.756490
545.550548	2808.222641
545.909761	2810.718012
546.268918	2809.704740
546.628019	2810.493681
546.987064	2807.163999
547.346053	2801.608647
547.704986	2806.196097
548.063863	2801.795170
548.422684	2803.002526
548.781449	2801.152423
549.140158	2798.442802
549.498811	2802.599234
549.857408	2796.688481
550.215949	2799.110755
550.574434	2796.688481
550.932864	2794.034313
551.291237	2796.592699
551.649555	2797.169911
552.007817	2799.340128
552.366022	2793.268058
552.724173	2795.566824
553.082267	2796.680919
553.440305	2796.688481
553.798288	2793.016000
554.156215	2792.814354
554.514086	2792.343006
554.871902	2791.987605
555.229661	2788.725978
555.587365	2789.106586
555.945014	2788.131122
556.302606	2785.088786
556.660143	2791.077677
557.017625	2789.683798
557.375050	2787.122892
557.732421	2787.246400
558.089735	2784.670370
558.446994	2782.729526
558.804197	2785.078704
559.161345	2787.407717
559.518437	2781.232303
559.875474	2780.188784
560.232455	2783.329423
560.589381	2780.937396
560.946251	2780.839093
561.303065	2782.603497
561.659825	2781.738939
562.016528	2778.472272
562.373177	2778.225255
562.729770	2779.052004
563.086307	2776.455810
563.442789	2777.010337
563.799216	2778.961263
564.155587	2773.801642
564.511904	2774.424225
564.868164	2772.821138
565.224370	2772.576642
565.580520	2770.592948
565.936615	2770.242588
566.292654	2770.797115
566.648638	2769.942639
567.004567	2768.546240
567.360441	2769.347783
567.716260	2768.047165
568.072023	2770.552619
568.427732	2765.670261
568.783385	2762.577513
569.138982	2760.303953
569.494525	2761.922163
569.850013	2761.460898
570.205445	2764.772936
570.560823	2762.002822
570.916145	2758.766401
571.271412	2761.307143
571.626625	2759.169693
571.981782	2756.228180
572.336884	2758.383273
572.691931	2755.257758
573.046923	2752.757346
573.401860	2749.223497
573.756743	2750.587129
574.111570	2750.876995
574.466342	2749.364649
574.821059	2747.905235
575.175722	2747.678383
575.530330	2744.358783
575.884882	2744.358783
576.239380	2741.467682
576.593823	2741.500449
576.948211	2740.875346
577.302544	2736.557598
577.656823	2736.991137
578.011047	2738.150602
578.365216	2736.958370
578.719330	2733.240519
579.073389	2733.462329
579.427394	2731.765981
579.781344	2729.827657
580.135239	2727.415465
580.489080	2729.260528
580.842866	2727.836402
581.196597	2729.719273
581.550273	2728.970661
581.903895	2726.316494
582.257463	2726.397152
582.610975	2720.861965
582.964434	2722.739795
583.317837	2723.432954
583.671186	2719.478169
584.024481	2717.781820
584.377721	2716.037581
584.730906	2718.633775
585.084037	2720.559496
585.437113	2716.463559
585.790135	2716.161089
586.143103	2711.719833
586.496016	2711.868547
586.848874	2710.784699
587.201679	2710.552806
587.554428	2706.862681
587.907124	2706.088864
588.259765	2703.923688
588.612352	2708.012064
588.964884	2703.681713
589.317362	2707.288659
589.669786	2706.739173
590.022155	2703.505273
590.374470	2704.339584
590.726731	2703.895962
591.078937	2697.728110
591.431090	2700.558718
591.783188	2697.428162
592.135232	2695.711649
592.487222	2693.627132
592.839157	2695.726772
593.191038	2692.215609
593.542866	2690.698221
593.894639	2689.926925
594.246358	2691.509847
594.598022	2689.755526
594.949633	2688.651513
595.301190	2687.620597
595.652692	2683.746470
596.004141	2689.274095
596.355535	2682.891995
596.706876	2680.595749
597.058162	2680.999041
597.409395	2681.094823
597.760573	2683.073476
598.111698	2681.107426
598.462768	2678.370080
598.813785	2678.707837
599.164748	2675.037877
599.515657	2677.019050
599.866511	2674.397650
600.217312	2676.731705
600.568060	2671.778771
600.918753	2674.551406
601.269392	2674.095181
601.619978	2672.993689
601.970510	2672.255160
602.320988	2673.787671
602.671412	2677.830676
603.021783	2669.006136
603.372100	2669.427073
603.722363	2670.770540
604.072572	2667.314829
604.422728	2669.593431
604.772830	2666.238543
605.122878	2665.406752
605.472872	2666.052020
605.822813	2664.464057
606.172701	2664.554797
606.522534	2665.651248
606.872314	2665.651248
607.222041	2668.428924
607.571714	2669.507731
607.921333	2664.814417
608.270899	2662.760147
608.620411	2666.288954
608.969870	2664.728717
609.319276	2663.811227
609.668627	2663.133192
610.017926	2666.488080
610.367171	2666.213337
610.716362	2662.417348
611.065500	2665.021104
611.414585	2663.168480
611.763616	2666.576300
612.112594	2665.540343
612.461518	2662.898778
612.810389	2664.806855
613.159207	2663.138233
613.507971	2663.942297
613.856682	2660.957934
614.205340	2665.104283
614.553945	2666.228461
614.902496	2659.826195
615.250994	2662.182935
615.599439	2662.152688
615.947830	2664.050682
616.296169	2661.938439
616.644454	2661.043634
616.992686	2661.439364
617.340864	2665.878100
617.688990	2663.528923
618.037063	2661.721669
618.385082	2664.522030
618.733048	2665.686537
619.080961	2663.831392
619.428821	2664.350631
619.776628	2662.092194
620.124382	2664.161587
620.472083	2660.645383
620.819731	2661.756957
621.167326	2659.133037
621.514868	2657.517347
621.862357	2658.714621
622.209793	2656.211688
622.557176	2656.221770
622.904506	2651.956954
623.251783	2649.829587
623.599007	2646.847745
623.946179	2647.641726
624.293297	2645.915131
624.640363	2647.089720
624.987376	2645.942857
625.334336	2644.332209
625.681243	2643.419760
626.028097	2646.051242
626.374899	2644.473361
626.721647	2643.684421
627.068343	2639.245685
627.414987	2640.682413
627.761577	2638.098822
628.108115	2640.455562
628.454600	2638.834831
628.801032	2637.030097
629.147412	2636.173101
629.493739	2636.541106
629.840014	2636.399953
630.186236	2633.866773
630.532405	2635.306023
630.878521	2635.167391
631.224585	2632.871146
631.570597	2634.350724
631.916556	2634.741414
632.262462	2633.972638
632.608316	2630.872328
632.954117	2630.726135
633.299866	2631.477267
633.645562	2631.288223
633.991206	2627.388891
634.336797	2628.288737
634.682336	2625.972327
635.027823	2625.367388
635.373257	2625.150618
635.718639	2621.309259
636.063968	2622.708179
636.409245	2618.919752
636.754470	2620.172479
637.099642	2620.996708
637.444762	2620.230452
637.789829	2616.058897
638.134845	2616.943620
638.479808	2617.092334
638.824719	2615.922786
639.169577	2615.343054
639.514383	2613.008999
639.859137	2614.682662
640.203839	2613.838269
640.548489	2610.211159
640.893086	2610.203597
641.237632	2608.547578
641.582125	2608.252671
641.926566	2607.367948
642.270955	2612.555296
642.615292	2609.886005
