Dividing Wavelength (nm)	Counts (n)	Blue Motor Position (mm): 0.000000	Red Motor Position (mm): 46.600000	
326.493990	2128.191152
326.888308	2128.191152
327.282561	2128.191152
327.676750	2096.976327
328.070874	2094.569176
328.464933	2095.481625
328.858929	2104.101998
329.252859	2113.627258
329.646726	2124.357354
330.040528	2137.441669
330.434265	2155.927580
330.827938	2171.792091
331.221547	2190.978723
331.615091	2209.041177
332.008571	2230.975238
332.401986	2252.518608
332.795338	2269.540064
333.188625	2288.386418
333.581847	2304.079530
333.975006	2323.311532
334.368100	2344.507063
334.761129	2361.583972
335.154095	2378.393699
335.546996	2398.671741
335.939833	2421.830802
336.332606	2439.631116
336.725315	2450.648558
337.117960	2461.262707
337.510540	2467.914509
337.903056	2480.446818
338.295508	2486.801192
338.687896	2495.227481
339.080220	2506.617968
339.472480	2511.349091
339.864676	2515.818074
340.256807	2522.326203
340.648875	2522.971471
341.040879	2526.028931
341.432818	2528.602440
341.824694	2526.280989
342.216506	2530.245856
342.608253	2529.073788
342.999937	2529.290558
343.391557	2525.426513
343.783113	2527.858870
344.174605	2529.245187
344.566033	2524.509023
344.957397	2524.945083
345.348697	2523.236132
345.739934	2521.973323
346.131106	2517.721109
346.522215	2515.571057
346.913260	2514.870337
347.304241	2514.638444
347.695159	2510.668535
348.086012	2509.539317
348.476802	2508.011847
348.867528	2505.518997
349.258191	2507.527896
349.648789	2505.561846
350.039324	2503.164778
350.429796	2503.368944
350.820203	2501.458347
351.210548	2501.851557
351.600828	2497.886690
351.991045	2499.066320
352.381198	2496.339055
352.771288	2498.244612
353.161314	2494.604898
353.551276	2496.767553
353.941175	2499.535147
354.331010	2496.908706
354.720782	2495.824858
355.110490	2498.968017
355.500135	2497.745537
355.889717	2496.109683
356.279235	2497.208654
356.668689	2497.269148
357.058080	2499.956083
357.447408	2496.518016
357.836672	2496.908706
358.225873	2498.668068
358.615010	2494.892244
359.004084	2499.343583
359.393095	2501.501197
359.782043	2503.036228
360.170927	2504.099912
360.559748	2502.839623
360.948505	2505.375324
361.337199	2505.574449
361.725830	2506.713750
362.114398	2508.488236
362.502903	2509.597290
362.891344	2506.255005
363.279722	2508.412619
363.668037	2508.243740
364.056289	2508.624347
364.444478	2508.788185
364.832603	2509.657784
365.220665	2511.122239
365.608665	2509.178874
365.996601	2515.147600
366.384474	2513.587363
366.772284	2513.642816
367.160031	2517.771521
367.547715	2517.345543
367.935336	2517.320338
368.322893	2525.822244
368.710388	2525.171935
369.097820	2536.388502
369.485189	2536.693492
369.872495	2540.955787
370.259738	2550.816284
370.646918	2555.101265
371.034035	2562.811710
371.421090	2575.444842
371.808081	2584.387848
372.195010	2591.442943
372.581875	2608.378700
372.968678	2618.997890
373.355418	2628.082049
373.742096	2647.440080
374.128710	2661.812410
374.515262	2677.714730
374.901751	2691.104034
375.288177	2705.735983
375.674540	2728.219529
376.060841	2745.863568
376.447079	2764.596496
376.833254	2788.564662
377.219367	2799.657721
377.605417	2835.258349
377.991404	2845.123887
378.377329	2867.095756
378.763191	2882.683004
379.148991	2923.589447
379.534727	2947.550051
379.920402	2976.178764
380.306013	2985.540186
380.691563	3039.914072
381.077049	3056.789334
381.462474	3078.322623
381.847835	3117.348715
382.233134	3139.895276
382.618371	3138.193887
383.003545	3204.371634
383.388657	3212.407233
383.773706	3245.257912
384.158693	3261.941611
384.543618	3287.888429
384.928480	3323.466373
385.313280	3371.450596
385.698017	3366.008670
386.082692	3419.414654
386.467305	3424.594439
386.851856	3458.970068
387.236344	3483.102071
387.620770	3513.099457
388.005133	3540.203221
388.389435	3567.284299
388.773674	3577.933737
389.157851	3619.493009
389.541965	3635.410452
389.926018	3601.415431
390.310008	3672.301616
390.693936	3689.960778
391.077802	3727.875296
391.461606	3723.081159
391.845348	3780.865385
392.229027	3781.072072
392.612645	3795.363743
392.996200	3873.113459
393.379694	3914.783637
393.763125	3976.179849
394.146494	3947.306641
394.529801	4004.496010
394.913047	4056.102302
395.296230	4022.525697
395.679351	4076.944953
396.062410	4097.054116
396.445408	4081.827310
396.828343	4114.942650
397.211217	4138.323522
397.594028	4057.380235
397.976778	4124.253661
398.359466	4151.526303
398.742092	4177.510931
399.124656	4102.974951
399.507158	4182.310109
399.889598	4205.990930
400.271977	4270.202627
400.654294	4238.851691
401.036549	4249.110439
401.418742	4219.970049
401.800874	4321.211542
402.182944	4344.456302
402.564952	4400.874376
402.946898	4394.701483
403.328783	4386.479361
403.710606	4301.006597
404.092367	4492.416688
404.474067	4459.422336
404.855705	4470.815344
405.237282	4394.431781
405.618797	4506.189121
406.000250	4540.106004
406.381642	4623.216987
406.762972	4582.040842
407.144240	4591.936627
407.525447	4590.988890
407.906593	4653.476513
408.287677	4695.217266
408.668700	4625.230927
409.049661	4672.942928
409.430560	4714.358527
409.811399	4640.913957
410.192176	4802.684584
410.572891	4740.880038
410.953545	4847.732335
411.334138	4727.578953
411.714669	4793.139159
412.095139	4689.460269
412.475547	4833.773380
412.855894	4811.889731
413.236180	4818.191173
413.616405	4775.101911
413.996568	4861.335888
414.376670	4802.193072
414.756711	4759.391155
415.136691	4793.605466
415.516609	4867.932238
415.896466	4903.202671
416.276262	4938.831026
416.655997	4918.454682
417.035670	5100.253813
417.415283	5193.787382
417.794834	5135.599863
418.174324	5089.513635
418.553753	4997.162217
418.933121	5185.114077
419.312428	5252.181587
419.691674	5192.955591
420.070859	5315.087626
420.449983	5224.702258
420.829045	5341.145350
421.208047	5251.211165
421.586988	5320.625333
421.965867	5331.476417
422.344686	5462.924503
422.723444	5321.101722
423.102141	5139.937776
423.480777	5434.245379
423.859352	5202.503537
424.237866	5466.740657
424.616319	5455.698009
424.994712	5560.911931
425.373044	5443.919353
425.751314	5584.650725
426.129524	5386.772833
426.507673	5584.617957
426.885762	5666.594680
427.263789	5594.223876
427.641756	5479.325897
428.019662	5602.662767
428.397508	5605.306852
428.775292	5553.879522
429.153016	5651.874511
429.530679	5580.758954
429.908282	5663.257437
430.285824	5532.212642
430.663305	5810.842257
431.040726	5544.238315
431.418086	5547.184869
431.795385	5651.088091
432.172624	5663.015461
432.549802	5657.097147
432.926920	5670.483931
433.303977	5677.355023
433.680974	5717.681733
434.057910	5731.192026
434.434786	5739.668726
434.811601	5710.422472
435.188355	5943.117092
435.565050	5816.264018
435.941683	5800.661646
436.318257	6013.128637
436.694770	5997.856461
437.071222	6035.985228
437.447614	5963.821111
437.823946	5871.096648
438.200218	6030.197984
438.576429	5891.727570
438.952580	5991.396223
439.328670	6032.060690
439.704700	5945.874603
440.080670	5932.344147
440.456580	6202.678542
440.832429	6088.322488
441.208218	5927.739053
441.583947	6087.982210
441.959616	6090.928764
442.335224	6020.481160
442.710773	6157.784547
443.086261	6183.045768
443.461689	5977.311239
443.837057	6127.653570
444.212365	6280.660151
444.587612	6169.046484
444.962800	6327.031205
445.337927	6308.295756
445.712995	5919.670686
446.088002	6499.191650
446.462949	6325.574311
446.837837	6255.124186
447.212664	6426.278921
447.587431	6567.340488
447.962139	7109.982891
448.336786	8042.717340
448.711374	7781.172196
449.085901	6858.081474
449.460369	6768.749707
449.834776	6709.170831
450.209124	7100.843279
450.583412	7248.584375
450.957640	7399.428301
451.331808	7162.335273
451.705917	6711.759463
452.079965	6639.875130
452.453954	6852.967224
452.827883	6725.015177
453.201752	6820.892882
453.575562	6617.482325
453.949311	6825.772719
454.323001	6711.010852
454.696632	6783.222860
455.070202	6927.735097
455.443713	7081.391987
455.817164	7184.654982
456.190556	7262.387054
456.563888	7336.136614
456.937160	7378.295784
457.310373	7037.652415
457.683526	7057.335601
458.056619	6956.157122
458.429653	6940.267405
458.802628	6875.314659
459.175542	6979.106975
459.548398	7341.482758
459.921194	7500.296748
460.293930	7502.358580
460.666607	8027.641769
461.039224	8337.496291
461.411782	8466.633008
461.784280	8484.042633
462.156719	8375.004996
462.529099	8254.103003
462.901419	7845.388934
463.273680	7734.602017
463.645882	7748.538287
464.018024	7615.716486
464.390106	7781.504912
464.762130	8170.813059
465.134094	8634.150550
465.505999	9653.406323
465.877845	10879.263704
466.249631	11527.427539
466.621358	11147.599282
466.993026	10521.125011
467.364634	10262.440722
467.736184	9897.166276
468.107674	9565.019773
468.479105	9593.467004
468.850477	9364.021407
469.221790	9136.970358
469.593043	8811.314341
469.964238	8670.260335
470.335373	8681.902880
470.706449	8742.308506
471.077467	8718.216832
471.448425	10029.436071
471.819324	11102.362488
472.190164	11132.836263
472.560945	9880.490139
472.931667	9089.273481
473.302330	8959.189027
473.672934	8596.614119
474.043479	8958.553842
474.413965	8899.408504
474.784393	8781.407695
475.154761	8936.377806
475.525070	9021.986680
475.895321	8851.812450
476.265513	9030.128144
476.635645	9197.668371
477.005719	9202.255821
477.375734	9307.623498
477.745691	9545.397081
478.115588	9676.119242
478.485427	9927.264485
478.855207	10456.464651
479.224928	11276.713314
479.594591	11904.026937
479.964194	11716.259080
480.333739	11666.830566
480.703226	11569.624517
481.072653	11660.385451
481.442022	11902.217163
481.811333	12090.859660
482.180584	11895.860268
482.549777	11606.245979
482.918912	11427.216962
483.287988	11454.928185
483.657005	11465.617952
484.025964	11145.335804
484.394864	11276.209199
484.763706	11247.880435
485.132489	11003.883548
485.501213	10971.834412
485.869879	11040.878055
486.238487	10887.127904
486.607036	10996.039512
486.975527	10777.366861
487.343959	10965.691766
487.712333	11016.267142
488.080648	10944.662593
488.448905	10990.539613
488.817104	10918.798953
489.185244	11188.218379
489.553326	11347.642349
489.921350	11883.643032
490.289315	12943.482613
490.657222	13283.395014
491.025070	13195.028628
491.392861	13078.903129
491.760593	12690.983820
492.128267	12342.826612
492.495883	12016.285872
492.863440	11676.244921
493.230939	11351.405570
493.598380	11278.820517
493.965763	11147.072481
494.333088	11048.119673
494.700354	10963.745881
495.067563	11026.127639
495.434713	10861.092865
495.801805	10982.060392
496.168839	10908.391491
496.535815	10834.871303
496.902733	10842.213744
497.269593	10773.709504
497.636395	10874.880421
498.003139	10858.557164
498.369825	10733.619728
498.736453	10886.401978
499.103023	10813.854733
499.469535	10842.458240
499.835989	10831.216467
500.202385	10793.911928
500.568723	10645.724690
500.935003	10872.932015
501.301226	10677.609988
501.667390	10933.027610
502.033497	11028.045798
502.399546	10888.085723
502.765537	10794.630293
503.131470	10873.468897
503.497345	11041.881245
503.863163	10650.365072
504.228923	10959.891918
504.594625	11026.820798
504.960269	10781.062027
505.325856	10998.676036
505.691385	10792.659201
506.056856	10952.683068
506.422270	10967.980450
506.787625	10853.904179
507.152924	10984.596093
507.518164	10956.438728
507.883347	10882.333767
508.248472	10802.421396
508.613540	11028.585201
508.978550	10913.457850
509.343503	10885.108922
509.708398	11011.006698
510.073236	11118.670621
510.438016	11123.021136
510.802738	11079.521020
511.167403	11129.491457
511.532010	11025.431960
511.896561	11255.180026
512.261053	11323.643936
512.625488	11193.496467
512.989866	11171.428816
513.354186	11169.898826
513.718449	11067.923845
514.082655	11263.697055
514.446803	11157.958853
514.810894	11282.364448
515.174927	11149.588017
515.538904	11175.262614
515.902822	11326.492188
516.266684	11211.503469
516.630488	11151.443162
516.994235	11210.351565
517.357925	11273.676019
517.721558	11359.383196
518.085133	11376.636545
518.448651	11388.919317
518.812112	11266.701583
519.175516	11283.980137
519.538863	11402.653940
519.902152	11325.909935
520.265385	11481.396763
520.628560	11395.041798
520.991678	11368.933662
521.354739	11432.358939
521.717743	11366.322344
522.080690	11340.544404
522.443580	11477.308387
522.806413	11438.312542
523.169189	11465.784310
523.531908	11523.540809
523.894569	11337.290339
524.257174	11344.511792
524.619722	11470.086935
524.982213	11411.899416
525.344647	11463.982097
525.707025	11410.850856
526.069345	11513.035045
526.431608	11424.119173
526.793815	11531.785617
527.155964	11319.512710
527.518057	11377.382636
527.880093	11330.391520
528.242072	11400.095555
528.603995	11302.599639
528.965860	11217.991434
529.327669	11274.215422
529.689421	11226.952085
530.051117	11196.359842
530.412755	11303.524691
530.774337	11185.475991
531.135862	11169.540904
531.497331	11193.998062
531.858743	11047.625639
532.220098	11207.616739
532.581396	11083.155692
532.942638	11070.807385
533.303824	11024.912721
533.664953	11035.264730
534.026025	10953.267842
534.387040	11055.142000
534.747999	11054.063193
535.108902	11110.725762
535.469748	10871.989319
535.830537	10979.310443
536.191270	10954.588625
536.551947	10976.520164
536.912567	10976.792387
537.273131	10899.738350
537.633638	10880.579445
537.994089	10870.441685
538.354483	10814.968828
538.714821	10958.583739
539.075103	10974.319701
539.435328	10928.755232
539.795497	10762.666857
540.155609	10921.911865
540.515665	11012.045176
540.875665	10741.274720
541.235609	10817.305403
541.595496	10809.479011
541.955328	10971.305091
542.315102	10849.987203
542.674821	10803.545573
543.034483	10797.579368
543.394090	10804.268979
543.753640	10733.138298
544.113134	10957.570467
544.472571	10806.391304
544.831953	10952.983017
545.191278	10758.112174
545.550548	10784.003540
545.909761	10923.346074
546.268918	10894.445139
546.628019	10981.919240
546.987064	10838.253917
547.346053	10766.036868
547.704986	10869.783814
548.063863	10852.369148
548.422684	10835.128402
548.781449	10757.880281
549.140158	10859.177226
549.498811	10733.682743
549.857408	10595.867679
550.215949	10825.640950
550.574434	10676.412714
550.932864	10775.862077
551.291237	10830.903915
551.649555	10779.088415
552.007817	10791.139293
552.366022	10756.309962
552.724173	10743.933929
553.082267	10732.525798
553.440305	10869.776252
553.798288	10670.040696
554.156215	10823.322020
554.514086	10801.332507
554.871902	10653.805660
555.229661	10694.767555
555.587365	10667.802423
555.945014	10558.631196
556.302606	10686.134579
556.660143	10572.650645
557.017625	10739.091901
557.375050	10636.136416
557.732421	10764.753894
558.089735	10679.238281
558.446994	10680.186018
558.804197	10715.365710
559.161345	10713.026615
559.518437	10564.148739
559.875474	10655.323047
560.232455	10682.915803
560.589381	10640.572631
560.946251	10626.147369
561.303065	10737.385470
561.659825	10672.057157
562.016528	10605.176169
562.373177	10484.077572
562.729770	10602.824471
563.086307	10511.834165
563.442789	10604.223391
563.799216	10483.717129
564.155587	10532.691939
564.511904	10487.263581
564.868164	10470.297577
565.224370	10490.131997
565.580520	10413.824052
565.936615	10421.930227
566.292654	10286.539958
566.648638	10418.013250
567.004567	10370.775118
567.360441	10357.171565
567.716260	10276.581159
568.072023	10363.483089
568.427732	10317.911058
568.783385	10221.743487
569.138982	10295.755187
569.494525	10306.394542
569.850013	10186.856182
570.205445	10270.559500
570.560823	10167.782976
570.916145	10079.741745
571.271412	10156.488271
571.626625	10099.014076
571.981782	10077.949615
572.336884	10052.504391
572.691931	10056.985977
573.046923	10002.246608
573.401860	9955.356315
573.756743	9896.367253
574.111570	9942.516496
574.466342	9922.281305
574.821059	9954.098547
575.175722	9846.709367
575.530330	9853.547693
575.884882	9846.081744
576.239380	9766.328169
576.593823	9749.334440
576.948211	9763.943703
577.302544	9646.154623
577.656823	9657.134256
578.011047	9656.632662
578.365216	9632.798086
578.719330	9562.378208
579.073389	9572.420187
579.427394	9517.988328
579.781344	9490.085541
580.135239	9443.568294
580.489080	9447.828069
580.842866	9347.967853
581.196597	9354.486065
581.550273	9399.218743
581.903895	9362.776242
582.257463	9426.367877
582.610975	9310.491915
582.964434	9337.099125
583.317837	9260.844111
583.671186	9239.704033
584.024481	9236.477694
584.377721	9154.637082
584.730906	9133.590265
585.084037	9161.578751
585.437113	9098.473587
585.790135	9117.743398
586.143103	9020.723871
586.496016	8991.550714
586.848874	9054.139160
587.201679	9033.634266
587.554428	8926.590406
587.907124	8972.774937
588.259765	8944.506666
588.612352	8944.531872
588.964884	8815.450607
589.317362	8840.452210
589.669786	8838.087909
590.022155	8884.222028
590.374470	8902.029904
590.726731	8842.201490
591.078937	8689.313376
591.431090	8805.822003
591.783188	8670.945932
592.135232	8670.829986
592.487222	8670.177156
592.839157	8722.393428
593.191038	8656.185434
593.542866	8594.716124
593.894639	8492.322728
594.246358	8549.000421
594.598022	8569.124707
594.949633	8459.187224
595.301190	8436.779295
595.652692	8467.384140
596.004141	8580.860513
596.355535	8345.852003
596.706876	8328.369282
597.058162	8265.309488
597.409395	8345.000048
597.760573	8403.008605
598.111698	8311.370511
598.462768	8303.415570
598.813785	8263.860156
599.164748	8229.348417
599.515657	8222.341213
599.866511	8136.248388
600.217312	8259.146677
600.568060	8120.580482
600.918753	8225.842295
601.269392	8193.503293
601.619978	8102.639015
601.970510	8167.606885
602.320988	8161.398704
602.671412	8221.073363
603.021783	8155.271182
603.372100	8133.463150
603.722363	8134.007595
604.072572	8110.253678
604.422728	8122.791028
604.772830	8049.880820
605.122878	8057.311480
605.472872	8051.746047
605.822813	8084.780728
606.172701	8025.325359
606.522534	8102.089529
606.872314	8103.465764
607.222041	8073.566681
607.571714	8124.358827
607.921333	8081.635048
608.270899	8090.169721
608.620411	8175.110643
608.969870	8085.957837
609.319276	8079.290911
609.668627	8095.261287
610.017926	8131.580279
610.367171	8175.826487
610.716362	8152.695152
611.065500	8143.734501
611.414585	8166.709560
611.763616	8158.946183
612.112594	8136.664283
612.461518	8153.456367
612.810389	8214.247641
613.159207	8157.827047
613.507971	8101.300589
613.856682	8219.808033
614.205340	8175.826487
614.553945	8256.711800
614.902496	8149.975450
615.250994	8208.084830
615.599439	8187.582458
615.947830	8199.161988
616.296169	8172.958070
616.644454	8182.153135
616.992686	8180.345881
617.340864	8242.662104
617.688990	8146.096282
618.037063	8241.694203
618.385082	8186.470883
618.733048	8272.891383
619.080961	8209.622382
619.428821	8229.895382
619.776628	8232.892348
620.124382	8183.395779
620.472083	8168.090836
620.819731	8196.301133
621.167326	8090.169721
621.514868	8098.780012
621.862357	7985.482600
622.209793	8006.347936
622.557176	7937.984848
622.904506	7902.825321
623.251783	7844.700817
623.599007	7793.064278
623.946179	7803.635578
624.293297	7758.073629
624.640363	7676.031371
624.987376	7656.771643
625.334336	7601.260977
625.681243	7553.395221
626.028097	7541.477934
626.374899	7518.114706
626.721647	7511.299066
627.068343	7442.371370
627.414987	7416.084273
627.761577	7365.294648
628.108115	7408.661174
628.454600	7303.182591
628.801032	7352.185127
629.147412	7310.378838
629.493739	7300.828372
629.840014	7236.795636
630.186236	7294.027856
630.532405	7176.362284
630.878521	7228.699543
631.224585	7185.093562
631.570597	7108.682273
631.916556	7139.377859
632.262462	7137.600852
632.608316	7099.063752
632.954117	7073.366470
633.299866	7063.321971
633.645562	7057.416259
633.991206	6972.230841
634.336797	6913.445946
634.682336	6877.583178
635.027823	6842.143866
635.373257	6833.619275
635.718639	6763.388440
636.063968	6778.537108
636.409245	6671.218504
636.754470	6665.630385
637.099642	6630.417925
637.444762	6570.904584
637.789829	6581.354896
638.134845	6529.211721
638.479808	6507.005438
638.824719	6512.122209
639.169577	6442.813906
639.514383	6467.757535
639.859137	6392.626698
640.203839	6400.132977
640.548489	6381.644545
