Dividing Wavelength (nm)	Counts (n)	Blue Motor Position (mm): 0.000000	Red Motor Position (mm): 1.000000	
326.493990	2089.026428
326.888308	2089.026428
327.282561	2089.026428
327.676750	2066.678993
328.070874	2066.694116
328.464933	2071.720146
328.858929	2083.491241
329.252859	2095.826944
329.646726	2111.217587
330.040528	2125.945318
330.434265	2143.833852
330.827938	2163.242294
331.221547	2183.848011
331.615091	2206.298789
332.008571	2225.734958
332.401986	2248.243710
332.795338	2266.006216
333.188625	2286.901798
333.581847	2304.563481
333.975006	2323.858497
334.368100	2341.250478
334.761129	2357.946779
335.154095	2374.736342
335.546996	2388.488610
335.939833	2404.726167
336.332606	2416.824936
336.725315	2427.439085
337.117960	2436.671958
337.510540	2444.213525
337.903056	2455.490586
338.295508	2460.078036
338.687896	2465.671196
339.080220	2471.975159
339.472480	2478.649647
339.864676	2480.373721
340.256807	2484.502426
340.648875	2486.738178
341.040879	2486.186172
341.432818	2492.215392
341.824694	2488.134577
342.216506	2487.587612
342.608253	2488.545432
342.999937	2487.995946
343.391557	2486.289515
343.783113	2485.079638
344.174605	2482.367497
344.566033	2481.540748
344.957397	2480.041005
345.348697	2480.895481
345.739934	2477.273412
346.131106	2476.416415
346.522215	2474.967084
346.913260	2472.554892
347.304241	2471.337453
347.695159	2467.614561
348.086012	2470.356948
348.476802	2463.211113
348.867528	2466.697071
349.258191	2462.338993
349.648789	2462.976699
350.039324	2459.059723
350.429796	2461.998715
350.820203	2456.655092
351.210548	2459.573920
351.600828	2459.647017
351.991045	2457.701132
352.381198	2458.220371
352.771288	2456.304732
353.161314	2457.859928
353.551276	2458.366564
353.941175	2456.226594
354.331010	2460.151133
354.720782	2457.638117
355.110490	2458.822788
355.500135	2457.622994
355.889717	2457.307922
356.279235	2460.448561
356.668689	2461.257666
357.058080	2457.854887
357.447408	2458.117027
357.836672	2456.234156
358.225873	2459.591564
358.615010	2456.841615
359.004084	2461.754219
359.393095	2460.914867
359.782043	2463.652214
360.170927	2460.982923
360.559748	2464.985599
360.948505	2463.997533
361.337199	2466.273614
361.725830	2463.463171
362.114398	2466.329067
362.502903	2466.487863
362.891344	2467.642287
363.279722	2467.808645
363.668037	2469.036166
364.056289	2469.769654
364.444478	2467.450723
364.832603	2468.126238
365.220665	2471.692854
365.608665	2468.428707
365.996601	2467.107925
366.384474	2467.299489
366.772284	2471.498770
367.160031	2469.852833
367.547715	2470.558595
367.935336	2467.531382
368.322893	2471.355097
368.710388	2472.312916
369.097820	2472.552371
369.485189	2471.428194
369.872495	2473.726960
370.259738	2474.788123
370.646918	2471.922227
371.034035	2472.199490
371.421090	2472.696044
371.808081	2473.106898
372.195010	2473.570684
372.581875	2471.178657
372.968678	2473.522793
373.355418	2475.244347
373.742096	2474.150417
374.128710	2474.581435
374.515262	2470.563636
374.901751	2474.049594
375.288177	2472.696044
375.674540	2474.896507
376.060841	2477.457414
376.447079	2472.766620
376.833254	2477.585963
377.219367	2469.983903
377.605417	2475.342650
377.991404	2472.970787
378.377329	2472.315437
378.763191	2470.919037
379.148991	2477.974132
379.534727	2476.633185
379.920402	2478.568988
380.306013	2477.490181
380.691563	2476.431539
381.077049	2477.560757
381.462474	2479.206694
381.847835	2479.516725
382.233134	2478.727784
382.618371	2479.244503
383.003545	2479.191571
383.388657	2480.046046
383.773706	2481.881026
384.158693	2479.453711
384.543618	2481.049236
384.928480	2480.555203
385.313280	2479.403299
385.698017	2479.287352
386.082692	2483.912611
386.467305	2482.856489
386.851856	2479.594863
387.236344	2479.811632
387.620770	2484.152066
388.005133	2480.678711
388.389435	2482.841366
388.773674	2482.662405
389.157851	2481.855820
389.541965	2481.588639
389.926018	2482.392703
390.310008	2485.450163
390.693936	2483.693321
391.077802	2485.210708
391.461606	2484.187354
391.845348	2483.400934
392.229027	2483.337920
392.612645	2484.472179
392.996200	2481.951602
393.379694	2485.061994
393.763125	2486.221460
394.146494	2486.954948
394.529801	2486.806233
394.913047	2485.697180
395.296230	2486.554176
395.679351	2485.568630
396.062410	2485.460245
396.445408	2486.166007
396.828343	2485.162817
397.211217	2480.381283
397.594028	2483.290029
397.976778	2484.026037
398.359466	2485.251037
398.742092	2480.575367
399.124656	2489.944352
399.507158	2486.755822
399.889598	2488.810092
400.271977	2486.070225
400.654294	2489.253714
401.036549	2489.979640
401.418742	2489.470483
401.800874	2490.314877
402.182944	2489.972078
402.564952	2487.781697
402.946898	2489.004177
403.328783	2487.834629
403.710606	2490.060298
404.092367	2487.988384
404.474067	2490.536687
404.855705	2489.079794
405.237282	2489.641883
405.618797	2492.248159
406.000250	2490.927377
406.381642	2489.062150
406.762972	2492.447285
407.144240	2490.095586
407.525447	2490.314877
407.906593	2490.206492
408.287677	2492.147336
408.668700	2492.112048
409.049661	2494.380567
409.430560	2491.691112
409.811399	2494.667913
410.192176	2492.560711
410.572891	2490.655154
410.953545	2490.829074
411.334138	2494.040289
411.714669	2492.144815
412.095139	2494.746051
412.475547	2494.955259
412.855894	2492.361585
413.236180	2494.849394
413.616405	2492.860659
413.996568	2492.974085
414.376670	2496.200424
414.756711	2493.894096
415.136691	2493.377377
415.516609	2493.561380
415.896466	2495.429127
416.276262	2495.600526
416.655997	2494.383088
417.035670	2492.112048
417.415283	2492.921153
417.794834	2487.776656
418.174324	2496.061792
418.553753	2496.460043
418.933121	2494.219250
419.312428	2498.065651
419.691674	2497.279231
420.070859	2497.294354
420.449983	2494.020125
420.829045	2498.297544
421.208047	2498.078253
421.586988	2496.891062
421.965867	2497.657317
422.344686	2496.059271
422.723444	2497.271669
423.102141	2496.328973
423.480777	2494.035248
423.859352	2497.163284
424.237866	2498.388284
424.616319	2498.032883
424.994712	2497.634632
425.373044	2499.136896
425.751314	2497.097749
426.129524	2496.633963
426.507673	2498.282420
426.885762	2494.519199
427.263789	2497.891731
427.641756	2495.459374
428.019662	2497.758140
428.397508	2498.778974
428.775292	2497.107831
429.153016	2498.516834
429.530679	2499.870384
429.908282	2499.663696
430.285824	2499.520023
430.663305	2500.434993
431.040726	2500.041783
431.418086	2499.512462
431.795385	2500.682009
432.172624	2501.009684
432.549802	2498.957935
432.926920	2503.295848
433.303977	2501.130672
433.680974	2500.298882
434.057910	2501.095384
434.434786	2501.297030
434.811601	2500.802997
435.188355	2502.789212
435.565050	2501.554129
435.941683	2499.998933
436.318257	2497.838799
436.694770	2495.608088
437.071222	2500.810559
437.447614	2499.325939
437.823946	2499.895589
438.200218	2500.719818
438.576429	2504.162926
438.952580	2499.918275
439.328670	2503.467247
439.704700	2501.014726
440.080670	2503.462206
440.456580	2501.939777
440.832429	2501.309633
441.208218	2499.673779
441.583947	2504.067144
441.959616	2502.423728
442.335224	2503.631084
442.710773	2501.591938
443.086261	2502.958090
443.461689	2500.876094
443.837057	2502.620333
444.212365	2505.370283
444.587612	2504.934223
444.962800	2502.985817
445.337927	2504.853564
445.712995	2500.316526
446.088002	2503.913389
446.462949	2502.060765
446.837837	2503.792401
447.212664	2504.719974
447.587431	2501.748213
447.962139	2502.527072
448.336786	2505.740807
448.711374	2504.299037
449.085901	2506.207114
449.460369	2505.632422
449.834776	2502.539675
450.209124	2505.277021
450.583412	2504.389778
450.957640	2504.525889
451.331808	2504.213338
451.705917	2503.111846
452.079965	2505.685355
452.453954	2505.415653
452.827883	2504.137720
453.201752	2505.042608
453.575562	2506.529748
453.949311	2504.167967
454.323001	2505.639984
454.696632	2506.698627
455.070202	2504.951867
455.443713	2507.268277
455.817164	2500.946670
456.190556	2500.750065
456.563888	2501.216372
456.937160	2501.717967
457.310373	2504.218379
457.683526	2507.568226
458.056619	2503.976403
458.429653	2504.432628
458.802628	2508.420181
459.175542	2505.251815
459.548398	2506.038235
459.921194	2505.365241
460.293930	2506.028153
460.666607	2505.158554
461.039224	2507.497649
461.411782	2506.489419
461.784280	2507.711898
462.156719	2510.257681
462.529099	2508.747856
462.901419	2506.534789
463.273680	2507.079234
463.645882	2508.200890
464.018024	2508.004285
464.390106	2507.386744
464.762130	2507.311127
465.134094	2507.217865
465.505999	2507.848010
465.877845	2509.032681
466.249631	2507.560664
466.621358	2507.215345
466.993026	2510.030829
467.364634	2510.716426
467.736184	2508.677279
468.107674	2507.232989
468.479105	2505.372803
468.850477	2508.178205
469.221790	2507.419512
469.593043	2507.149810
469.964238	2507.190139
470.335373	2508.803308
470.706449	2508.624347
471.077467	2508.904131
471.448425	2509.297341
471.819324	2510.144255
472.190164	2507.931189
472.560945	2510.056035
472.931667	2508.863802
473.302330	2507.757269
473.672934	2507.946312
474.043479	2507.981600
474.413965	2509.062928
474.784393	2502.143944
475.154761	2508.140397
475.525070	2505.745848
475.895321	2505.851713
476.265513	2505.040087
476.635645	2506.239882
477.005719	2508.871364
477.375734	2509.254492
477.745691	2510.114008
478.115588	2511.603669
478.485427	2509.030160
478.855207	2510.920593
479.224928	2505.831548
479.594591	2512.374966
479.964194	2510.547548
480.333739	2507.535458
480.703226	2511.298679
481.072653	2510.353463
481.442022	2509.604852
481.811333	2511.661642
482.180584	2510.524862
482.549777	2510.761797
482.918912	2510.630727
483.287988	2511.147445
483.657005	2508.599142
484.025964	2510.245078
484.394864	2508.715088
484.763706	2512.304390
485.132489	2511.739780
485.501213	2512.395130
485.869879	2511.303721
486.238487	2510.918072
486.607036	2509.156189
486.975527	2510.610562
487.343959	2508.740294
487.712333	2510.023267
488.080648	2512.274143
488.448905	2511.744822
488.817104	2512.059894
489.185244	2511.243227
489.553326	2513.264729
489.921350	2512.672394
490.289315	2511.820439
490.657222	2511.091992
491.025070	2511.883453
491.392861	2510.557630
491.760593	2513.584843
492.128267	2513.073166
492.495883	2512.977384
492.863440	2511.649040
493.230939	2509.907321
493.598380	2508.962105
493.965763	2507.220386
494.333088	2511.291118
494.700354	2508.561333
495.067563	2511.036539
495.434713	2510.171982
495.801805	2511.034019
496.168839	2511.296159
496.535815	2510.081241
496.902733	2511.835562
497.269593	2514.025944
497.636395	2512.120387
498.003139	2512.952178
498.369825	2510.794564
498.736453	2513.151303
499.103023	2513.209277
499.469535	2513.053001
499.835989	2515.019051
500.202385	2511.109636
500.568723	2511.820439
500.935003	2513.675583
501.301226	2514.134328
501.667390	2512.196005
502.033497	2514.071314
502.399546	2513.824297
502.765537	2512.407733
503.131470	2510.882784
503.497345	2510.156858
503.863163	2513.925121
504.228923	2510.764317
504.594625	2510.973525
504.960269	2512.405213
505.325856	2512.125429
505.691385	2512.785820
506.056856	2514.938392
506.422270	2512.304390
506.787625	2512.120388
507.152924	2513.791530
507.518164	2516.513753
507.883347	2514.333454
508.248472	2515.371932
508.613540	2511.928824
508.978550	2512.770696
509.343503	2512.697600
509.708398	2512.619462
510.073236	2514.837569
510.438016	2512.851355
510.802738	2513.231962
511.167403	2513.078207
511.532010	2511.076869
511.896561	2511.245747
512.261053	2513.345388
512.625488	2508.498318
512.989866	2509.151148
513.354186	2508.654594
513.718449	2510.335819
514.082655	2513.471417
514.446803	2512.180881
514.810894	2515.596263
515.174927	2517.373270
515.538904	2514.028464
515.902822	2512.954698
516.266684	2511.928824
516.630488	2512.498474
516.994235	2513.912518
517.357925	2512.503515
517.721558	2513.242044
518.085133	2513.700789
518.448651	2515.235821
518.812112	2511.767507
519.175516	2510.308093
519.538863	2512.758093
519.902152	2514.759432
520.265385	2512.032167
520.628560	2513.763804
520.991678	2511.863289
521.354739	2513.360511
521.717743	2515.301356
522.080690	2516.438136
522.443580	2513.814215
522.806413	2516.627179
523.169189	2512.329595
523.531908	2513.688186
523.894569	2512.692558
524.257174	2514.104082
524.619722	2514.338495
524.982213	2514.991325
525.344647	2515.066942
525.707025	2512.165758
526.069345	2512.637106
526.431608	2514.673732
526.793815	2514.202384
527.155964	2514.320851
527.518057	2515.825636
527.880093	2513.410923
528.242072	2512.899246
528.603995	2517.262364
528.965860	2516.123064
529.327669	2515.492919
529.689421	2512.697600
530.051117	2515.492919
530.412755	2514.013341
530.774337	2512.148114
531.135862	2513.967970
531.497331	2513.231962
531.858743	2509.630058
532.220098	2514.860255
532.581396	2508.347084
532.942638	2512.415295
533.303824	2512.319513
533.664953	2512.420336
534.026025	2516.564165
534.387040	2512.753052
534.747999	2513.710872
535.108902	2513.922600
535.469748	2511.102074
535.830537	2515.878568
536.191270	2514.668691
536.551947	2515.959226
536.912567	2515.616428
537.273131	2514.640964
537.633638	2512.584174
537.994089	2515.394617
538.354483	2514.787158
538.714821	2516.629700
539.075103	2514.882940
539.435328	2513.509225
539.795497	2512.916890
540.155609	2515.172806
540.515665	2513.988135
540.875665	2514.555265
541.235609	2514.315810
541.595496	2512.843793
541.955328	2512.924452
542.315102	2514.572909
542.674821	2513.020233
543.034483	2516.095337
543.394090	2516.349916
543.753640	2516.730523
544.113134	2516.609535
544.472571	2514.646006
544.831953	2514.023423
545.191278	2515.104751
545.550548	2514.141890
545.909761	2516.377642
546.268918	2516.362518
546.628019	2517.322858
546.987064	2516.329751
547.346053	2515.538290
547.704986	2514.862775
548.063863	2515.563496
548.422684	2515.631551
548.781449	2515.097189
549.140158	2512.349760
549.498811	2517.068280
549.857408	2515.659277
550.215949	2512.884122
550.574434	2510.907990
550.932864	2513.105933
551.291237	2511.928824
551.649555	2513.751201
552.007817	2516.377642
552.366022	2515.182888
552.724173	2515.863444
553.082267	2514.323372
553.440305	2517.774042
553.798288	2514.658608
554.156215	2514.661129
554.514086	2517.249762
554.871902	2513.224400
555.229661	2518.356295
555.587365	2515.908815
555.945014	2515.480317
556.302606	2515.059380
556.660143	2514.792199
557.017625	2513.673063
557.375050	2515.813033
557.732421	2512.579133
558.089735	2514.557785
558.446994	2515.863444
558.804197	2517.358146
559.161345	2514.686335
559.518437	2517.164062
559.875474	2516.286901
560.232455	2516.808661
560.589381	2515.591222
560.946251	2518.326048
561.303065	2514.028464
561.659825	2515.364370
562.016528	2515.631551
562.373177	2513.504184
562.729770	2515.518125
563.086307	2515.661798
563.442789	2514.572909
563.799216	2514.887981
564.155587	2518.973836
564.511904	2515.109792
564.868164	2518.154649
565.224370	2517.262364
565.580520	2516.483506
565.936615	2515.921418
566.292654	2514.673732
566.648638	2515.792868
567.004567	2515.513084
567.360441	2514.305728
567.716260	2516.682632
568.072023	2515.782786
568.427732	2511.613752
568.783385	2513.794051
569.138982	2511.661643
569.494525	2515.369411
569.850013	2507.119563
570.205445	2516.594412
570.560823	2516.526356
570.916145	2515.646675
571.271412	2514.804802
571.626625	2513.655419
571.981782	2513.993176
572.336884	2516.178516
572.691931	2514.225069
573.046923	2515.729854
573.401860	2515.397138
573.756743	2516.206243
574.111570	2514.550224
574.466342	2514.915707
574.821059	2516.533918
575.175722	2514.537621
575.530330	2516.460821
575.884882	2515.129956
576.239380	2515.802950
576.593823	2518.338651
576.948211	2514.182219
577.302544	2514.532580
577.656823	2516.085255
578.011047	2517.216994
578.365216	2514.908146
578.719330	2516.652385
579.073389	2516.009638
579.427394	2516.304545
579.781344	2515.535769
580.135239	2513.184071
580.489080	2515.893691
580.842866	2514.741788
581.196597	2518.852848
581.550273	2513.272291
581.903895	2515.445028
582.257463	2516.233969
582.610975	2516.231448
582.964434	2514.711541
583.317837	2517.060718
583.671186	2517.196829
584.024481	2517.562313
584.377721	2515.981911
584.730906	2514.003258
585.084037	2518.137005
585.437113	2514.870337
585.790135	2517.088445
586.143103	2512.684997
586.496016	2515.603825
586.848874	2508.344563
587.201679	2515.424864
587.554428	2513.163906
587.907124	2513.466376
588.259765	2512.503515
588.612352	2517.756397
588.964884	2511.701972
589.317362	2515.258506
589.669786	2515.003928
590.022155	2517.484175
590.374470	2516.473424
590.726731	2516.889319
591.078937	2514.749349
591.431090	2518.870493
591.783188	2513.904956
592.135232	2517.496778
592.487222	2515.780265
592.839157	2515.596263
593.191038	2516.082734
593.542866	2516.125584
593.894639	2514.414113
594.246358	2517.842097
594.598022	2515.553413
594.949633	2516.486027
595.301190	2516.680111
595.652692	2514.532580
596.004141	2515.724812
596.355535	2517.400996
596.706876	2513.620131
597.058162	2516.601973
597.409395	2514.930831
597.760573	2514.134328
598.111698	2514.386386
598.462768	2514.693897
598.813785	2516.722961
599.164748	2515.649195
599.515657	2515.319000
599.866511	2515.218177
600.217312	2517.683301
600.568060	2517.721109
600.918753	2518.184896
601.269392	2514.766993
601.619978	2515.044257
601.970510	2517.794206
602.320988	2515.442508
602.671412	2516.029802
603.021783	2515.074504
603.372100	2516.097858
603.722363	2513.514267
604.072572	2516.801099
604.422728	2516.307066
604.772830	2512.924452
605.122878	2509.410767
605.472872	2512.667353
605.822813	2511.051663
606.172701	2514.577950
606.522534	2512.261540
606.872314	2516.975019
607.222041	2513.100892
607.571714	2515.497961
607.921333	2515.286232
608.270899	2515.618948
608.620411	2516.279339
608.969870	2514.242713
609.319276	2514.144411
609.668627	2514.887981
610.017926	2520.198837
610.367171	2516.284381
610.716362	2516.662467
611.065500	2515.460152
611.414585	2514.668691
611.763616	2516.274298
612.112594	2515.629031
612.461518	2518.061387
612.810389	2513.206756
613.159207	2514.855213
613.507971	2516.375121
613.856682	2515.883609
614.205340	2514.656088
614.553945	2517.456449
614.902496	2515.717251
615.250994	2516.140708
615.599439	2516.831346
615.947830	2516.778414
616.296169	2514.577950
616.644454	2516.377642
616.992686	2515.855883
617.340864	2514.003258
617.688990	2514.847652
618.037063	2517.242200
618.385082	2515.293794
618.733048	2515.172806
619.080961	2514.777076
619.428821	2515.631551
619.776628	2516.672549
620.124382	2517.496778
620.472083	2518.598270
620.819731	2516.995183
621.167326	2513.748680
621.514868	2513.403361
621.862357	2513.037878
622.209793	2516.097858
622.557176	2517.874865
622.904506	2511.959071
623.251783	2512.742970
623.599007	2514.121726
623.946179	2511.875892
624.293297	2513.342867
624.640363	2516.498630
624.987376	2515.591222
625.334336	2515.588701
625.681243	2517.451408
626.028097	2513.514267
626.374899	2517.196829
626.721647	2514.462003
627.068343	2512.435460
627.414987	2517.151459
627.761577	2514.247754
628.108115	2514.772034
628.454600	2513.957888
628.801032	2514.918228
629.147412	2516.062570
629.493739	2515.011489
629.840014	2514.169617
630.186236	2515.833197
630.532405	2517.027951
630.878521	2516.128105
631.224585	2516.082734
631.570597	2514.580471
631.916556	2513.312620
632.262462	2517.590039
632.608316	2516.770852
632.954117	2514.817405
633.299866	2514.487209
633.645562	2514.426715
633.991206	2516.044926
634.336797	2514.497292
634.682336	2515.868485
635.027823	2516.871675
635.373257	2515.291273
635.718639	2517.312776
636.063968	2514.212466
636.409245	2516.120543
636.754470	2518.686490
637.099642	2516.049967
637.444762	2512.604338
637.789829	2515.054339
638.134845	2514.789678
638.479808	2515.689524
638.824719	2514.172137
639.169577	2514.464524
639.514383	2514.141890
639.859137	2515.313958
640.203839	2516.954854
640.548489	2515.956706
640.893086	2512.705161
641.237632	2512.405213
641.582125	2513.531911
641.926566	2513.272291
642.270955	2515.339164
642.615292	2513.811695
642.959576	2514.479648
643.303809	2515.044257
643.647990	2515.074504
643.992118	2517.262364
644.336195	2517.766480
