Dividing Wavelength (nm)	Counts (n)	Blue Motor Position (mm): 0.000000	Red Motor Position (mm): 10.700000	
326.493990	2130.757099
326.888308	2130.757099
327.282561	2130.757099
327.676750	2096.275607
328.070874	2094.359968
328.464933	2097.440113
328.858929	2102.229209
329.252859	2113.201281
329.646726	2125.720986
330.040528	2136.599796
330.434265	2154.790800
330.827938	2171.265291
331.221547	2190.935873
331.615091	2207.818697
332.008571	2229.263766
332.401986	2250.081211
332.795338	2268.667945
333.188625	2284.968516
333.581847	2303.535085
333.975006	2320.261634
334.368100	2340.771568
334.761129	2359.509537
335.154095	2373.871784
335.546996	2393.002963
335.939833	2407.944943
336.332606	2423.217119
336.725315	2435.225147
337.117960	2443.999276
337.510540	2455.288940
337.903056	2464.975517
338.295508	2470.518265
338.687896	2481.089565
339.080220	2488.968888
339.472480	2494.390649
339.864676	2499.709067
340.256807	2503.638646
340.648875	2506.249964
341.040879	2508.178205
341.432818	2509.816580
341.824694	2512.228772
342.216506	2512.044770
342.608253	2512.075017
342.999937	2514.025944
343.391557	2512.569050
343.783113	2511.182733
344.174605	2509.723319
344.566033	2509.743483
344.957397	2507.664008
345.348697	2505.839110
345.739934	2504.510766
346.131106	2500.548419
346.522215	2498.655466
346.913260	2498.625219
347.304241	2498.854591
347.695159	2495.827378
348.086012	2491.910402
348.476802	2493.800834
348.867528	2490.456029
349.258191	2486.355050
349.648789	2486.856645
350.039324	2489.626759
350.429796	2487.310349
350.820203	2484.769607
351.210548	2485.364463
351.600828	2484.227683
351.991045	2484.008393
352.381198	2479.753659
352.771288	2483.315234
353.161314	2480.507312
353.551276	2482.768269
353.941175	2479.393217
354.331010	2480.787096
354.720782	2481.792806
355.110490	2480.318268
355.500135	2477.759883
355.889717	2478.276601
356.279235	2481.311376
356.668689	2482.027220
357.058080	2481.959164
357.447408	2479.211735
357.836672	2476.986066
358.225873	2481.036633
358.615010	2478.415233
359.004084	2482.876654
359.393095	2484.003352
359.782043	2485.603918
360.170927	2483.320276
360.559748	2485.787920
360.948505	2486.478558
361.337199	2484.910760
361.725830	2485.271202
362.114398	2489.473004
362.502903	2487.179279
362.891344	2490.332521
363.279722	2488.835298
363.668037	2491.900319
364.056289	2488.351347
364.444478	2493.039620
364.832603	2489.649444
365.220665	2493.024497
365.608665	2491.023159
365.996601	2493.261431
366.384474	2495.169508
366.772284	2496.943994
367.160031	2497.392657
367.547715	2498.136227
367.935336	2501.659993
368.322893	2504.319202
368.710388	2504.641836
369.097820	2514.446880
369.485189	2515.533249
369.872495	2520.216481
370.259738	2528.836854
370.646918	2535.034952
371.034035	2543.282280
371.421090	2551.040616
371.808081	2562.693243
372.195010	2573.042732
372.581875	2587.699887
372.968678	2600.333018
373.355418	2607.352825
373.742096	2627.807307
374.128710	2640.576549
374.515262	2656.982984
374.901751	2669.293482
375.288177	2681.457786
375.674540	2707.157589
376.060841	2720.950186
376.447079	2743.721077
376.833254	2765.299737
377.219367	2773.065634
377.605417	2813.702375
377.991404	2820.618838
378.377329	2844.650019
378.763191	2861.583254
379.148991	2898.061044
379.534727	2923.775969
379.920402	2950.317644
380.306013	2961.680405
380.691563	3008.699247
381.077049	3026.975950
381.462474	3043.720143
381.847835	3078.879670
382.233134	3097.592433
382.618371	3092.863831
383.003545	3149.415495
383.388657	3151.399189
383.773706	3174.472550
384.158693	3181.789785
384.543618	3192.668595
384.928480	3215.172306
385.313280	3247.251688
385.698017	3233.658217
386.082692	3264.852877
386.467305	3255.463728
386.851856	3269.304216
387.236344	3269.621808
387.620770	3272.938888
388.005133	3276.845782
388.389435	3280.152779
388.773674	3266.884462
389.157851	3275.404012
389.541965	3267.194493
389.926018	3219.946278
390.310008	3241.459402
390.693936	3227.891137
391.077802	3230.827609
391.461606	3195.289995
391.845348	3205.319371
392.229027	3178.586132
392.612645	3150.862306
392.996200	3164.768329
393.379694	3158.965961
393.763125	3157.473779
394.146494	3109.348404
394.529801	3104.614761
394.913047	3090.756629
395.296230	3046.490257
395.679351	3032.506096
396.062410	3010.206552
396.445408	2972.218937
396.828343	2955.452060
397.211217	2927.498862
397.594028	2878.231665
397.976778	2867.798997
398.359466	2846.109433
398.742092	2824.314004
399.124656	2789.499796
399.507158	2779.926644
399.889598	2761.612132
400.271977	2748.479927
400.654294	2728.872359
401.036549	2707.220603
401.418742	2686.309897
401.800874	2680.532735
402.182944	2666.228461
402.564952	2653.318066
402.946898	2636.939357
403.328783	2626.292440
403.710606	2610.813577
404.092367	2608.136724
404.474067	2594.553335
404.855705	2584.155955
405.237282	2575.923751
405.618797	2571.490056
406.000250	2566.521999
406.381642	2561.125444
406.762972	2553.299053
407.144240	2548.104144
407.525447	2545.298742
407.906593	2542.775644
408.287677	2538.447813
408.668700	2533.835158
409.049661	2534.099818
409.430560	2530.076977
409.811399	2531.211237
410.192176	2529.867770
410.572891	2529.643438
410.953545	2525.368540
411.334138	2525.388704
411.714669	2527.695032
412.095139	2524.627490
412.475547	2523.694877
412.855894	2525.063550
413.236180	2525.124044
413.616405	2523.636903
413.996568	2522.447191
414.376670	2525.451719
414.756711	2523.110103
415.136691	2523.573889
415.516609	2521.456604
415.896466	2522.681605
416.276262	2524.481297
416.655997	2521.144053
417.035670	2521.081038
417.415283	2522.190092
417.794834	2519.112468
418.174324	2520.796213
418.553753	2522.822757
418.933121	2522.663961
419.312428	2523.299146
419.691674	2522.747140
420.070859	2524.612367
420.449983	2523.198323
420.829045	2521.761594
421.208047	2526.359127
421.586988	2518.220184
421.965867	2524.829136
422.344686	2521.721265
422.723444	2523.999867
423.102141	2525.050947
423.480777	2522.883251
423.859352	2524.793848
424.237866	2524.120854
424.616319	2522.502644
424.994712	2523.037006
425.373044	2522.616070
425.751314	2526.679240
426.129524	2524.095648
426.507673	2525.050947
426.885762	2526.759898
427.263789	2524.793848
427.641756	2526.825433
428.019662	2525.396266
428.397508	2528.514220
428.775292	2525.406348
429.153016	2525.010618
429.530679	2528.715866
429.908282	2525.464322
430.285824	2526.220495
430.663305	2525.381143
431.040726	2527.989940
431.418086	2526.202851
431.795385	2526.890968
432.172624	2528.186545
432.549802	2525.192099
432.926920	2527.062368
433.303977	2527.042203
433.680974	2527.037162
434.057910	2528.514220
434.434786	2528.557070
434.811601	2528.864580
435.188355	2528.799045
435.565050	2529.088911
435.941683	2531.864067
436.318257	2525.212264
436.694770	2524.599764
437.071222	2527.284178
437.447614	2524.708149
437.823946	2525.113962
438.200218	2528.085722
438.576429	2530.155115
438.952580	2530.147554
439.328670	2531.632173
439.704700	2530.228212
440.080670	2531.004550
440.456580	2530.240815
440.832429	2530.601257
441.208218	2527.836185
441.583947	2529.429189
441.959616	2528.617563
442.335224	2529.096473
442.710773	2531.448171
443.086261	2527.626977
443.461689	2529.880373
443.837057	2530.097142
444.212365	2530.931453
444.587612	2529.935825
444.962800	2529.703932
445.337927	2530.843233
445.712995	2530.477749
446.088002	2531.491021
446.462949	2530.991947
446.837837	2530.107224
447.212664	2529.472039
447.587431	2533.998995
447.962139	2533.757020
448.336786	2535.826413
448.711374	2534.077133
449.085901	2535.105528
449.460369	2532.491690
449.834776	2533.769623
450.209124	2533.837678
450.583412	2532.574869
450.957640	2533.152081
451.331808	2533.404139
451.705917	2535.425642
452.079965	2533.557894
452.453954	2533.061341
452.827883	2535.992772
453.201752	2534.818183
453.575562	2531.871628
453.949311	2533.540250
454.323001	2533.520086
454.696632	2532.879859
455.070202	2535.783564
455.443713	2534.119983
455.817164	2533.409180
456.190556	2529.293078
456.563888	2532.663089
456.937160	2528.796524
457.310373	2536.509490
457.683526	2534.946732
458.056619	2536.159130
458.429653	2536.378420
458.802628	2535.712987
459.175542	2534.190559
459.548398	2536.385982
459.921194	2536.519572
460.293930	2535.052596
460.666607	2539.183822
461.039224	2538.490663
461.411782	2538.851106
461.784280	2538.820859
462.156719	2539.095602
462.529099	2539.357742
462.901419	2536.859850
463.273680	2539.743390
463.645882	2533.255425
464.018024	2538.382278
464.390106	2539.060314
464.762130	2537.842875
465.134094	2537.016126
465.505999	2539.438400
465.877845	2545.192877
466.249631	2546.556509
466.621358	2543.090716
466.993026	2544.179605
467.364634	2547.655481
467.736184	2540.612989
468.107674	2541.719522
468.479105	2540.111394
468.850477	2540.817156
469.221790	2539.647608
469.593043	2541.293545
469.964238	2541.356559
470.335373	2534.787936
470.706449	2539.226672
471.077467	2541.986703
471.448425	2541.490150
471.819324	2544.711447
472.190164	2546.564071
472.560945	2543.078113
472.931667	2539.763555
473.302330	2539.803884
473.672934	2538.709953
474.043479	2542.153062
474.413965	2539.614841
474.784393	2536.383461
475.154761	2539.138452
475.525070	2540.534851
475.895321	2537.532844
476.265513	2535.806249
476.635645	2538.107536
477.005719	2539.251878
477.375734	2539.945036
477.745691	2539.297248
478.115588	2540.993596
478.485427	2541.270860
478.855207	2544.512322
479.224928	2544.371169
479.594591	2544.479554
479.964194	2547.042981
480.333739	2547.259750
480.703226	2543.972918
481.072653	2544.414019
481.442022	2545.238248
481.811333	2547.045501
482.180584	2543.635161
482.549777	2547.136242
482.918912	2545.165151
483.287988	2543.902342
483.657005	2545.775131
484.025964	2544.043494
484.394864	2545.223124
484.763706	2543.839327
485.132489	2542.269008
485.501213	2544.845038
485.869879	2541.981662
486.238487	2543.108360
486.607036	2544.194729
486.975527	2542.740356
487.343959	2543.478885
487.712333	2544.227496
488.080648	2541.895963
488.448905	2546.377548
488.817104	2544.469472
489.185244	2544.837476
489.553326	2543.423432
489.921350	2547.857127
490.289315	2545.991900
490.657222	2548.068856
491.025070	2549.810574
491.392861	2549.714792
491.760593	2545.208001
492.128267	2550.286963
492.495883	2547.708413
492.863440	2544.940820
493.230939	2543.599873
493.598380	2546.080120
493.965763	2539.957639
494.333088	2542.095088
494.700354	2539.617361
495.067563	2545.623896
495.434713	2538.253729
495.801805	2545.321427
496.168839	2544.509801
496.535815	2545.339071
496.902733	2542.964687
497.269593	2546.042312
497.636395	2541.810263
498.003139	2544.885367
498.369825	2546.191026
498.736453	2543.199101
499.103023	2546.591797
499.469535	2543.259595
499.835989	2545.311344
500.202385	2547.705892
500.568723	2544.209852
500.935003	2543.504091
501.301226	2544.469472
501.667390	2545.263453
502.033497	2543.788916
502.399546	2549.203115
502.765537	2543.604914
503.131470	2546.932075
503.497345	2544.245140
503.863163	2548.915769
504.228923	2547.284956
504.594625	2548.699000
504.960269	2546.354863
505.325856	2545.848227
505.691385	2546.493495
506.056856	2545.666746
506.422270	2544.736653
506.787625	2545.649102
507.152924	2544.701365
507.518164	2545.790254
507.883347	2546.407795
508.248472	2546.281767
508.613540	2546.808567
508.978550	2543.985521
509.343503	2545.686910
509.708398	2547.718495
510.073236	2546.007024
510.438016	2548.963660
510.802738	2547.118598
511.167403	2546.294369
511.532010	2545.976777
511.896561	2546.601880
512.261053	2546.009544
512.625488	2546.349822
512.989866	2545.581046
513.354186	2545.863351
513.718449	2540.986034
514.082655	2545.276056
514.446803	2546.919472
514.810894	2546.889226
515.174927	2548.744370
515.538904	2548.812426
515.902822	2548.144473
516.266684	2545.810419
516.630488	2547.758825
516.994235	2544.958464
517.357925	2546.211190
517.721558	2548.411654
518.085133	2548.908208
518.448651	2547.773948
518.812112	2548.313352
519.175516	2547.526932
519.538863	2544.696324
519.902152	2550.735626
520.265385	2548.058773
520.628560	2546.261602
520.991678	2544.575336
521.354739	2546.942158
521.717743	2547.012734
522.080690	2549.298897
522.443580	2548.890564
522.806413	2548.983825
523.169189	2547.511808
523.531908	2549.435008
523.894569	2548.076417
524.257174	2547.708413
524.619722	2547.678166
524.982213	2547.859648
525.344647	2550.150852
525.707025	2550.468445
526.069345	2547.665563
526.431608	2546.438042
526.793815	2548.935934
527.155964	2550.183620
527.518057	2549.440049
527.880093	2548.633465
528.242072	2549.389638
528.603995	2551.017931
528.965860	2548.716644
529.327669	2548.769576
529.689421	2547.214380
530.051117	2552.154711
530.412755	2545.845707
530.774337	2547.844524
531.135862	2547.267312
531.497331	2546.140614
531.858743	2545.742363
532.220098	2546.301931
532.581396	2544.333361
532.942638	2544.608103
533.303824	2543.073072
533.664953	2548.552806
534.026025	2549.203115
534.387040	2549.561037
534.747999	2551.096068
535.108902	2551.169165
535.469748	2546.788402
535.830537	2549.220759
536.191270	2547.514329
536.551947	2550.642365
536.912567	2548.850234
537.273131	2546.150697
537.633638	2546.934596
537.994089	2546.816129
538.354483	2546.906870
538.714821	2548.499874
539.075103	2546.601880
539.435328	2550.705379
539.795497	2549.397200
540.155609	2550.367622
540.515665	2549.949206
540.875665	2549.281253
541.235609	2550.972560
541.595496	2550.007179
541.955328	2548.583053
542.315102	2549.256047
542.674821	2550.937272
543.034483	2550.833928
543.394090	2548.293187
543.753640	2549.422405
544.113134	2547.773948
544.472571	2550.750749
544.831953	2548.497354
545.191278	2549.908877
545.550548	2548.547765
545.909761	2548.678835
546.268918	2546.881664
546.628019	2552.716799
546.987064	2549.041798
547.346053	2548.961140
547.704986	2551.055739
548.063863	2550.677653
548.422684	2547.138763
548.781449	2548.419216
549.140158	2549.881150
549.498811	2548.638506
549.857408	2548.925852
550.215949	2548.542724
550.574434	2544.187167
550.932864	2548.441901
551.291237	2545.520552
551.649555	2546.284287
552.007817	2547.557178
552.366022	2551.416182
552.724173	2549.979453
553.082267	2549.424926
553.440305	2548.635985
553.798288	2547.804195
554.156215	2547.297559
554.514086	2550.667570
554.871902	2548.444422
555.229661	2549.611449
555.587365	2549.273691
555.945014	2549.555996
556.302606	2548.114226
556.660143	2547.184133
557.017625	2548.600697
557.375050	2550.559186
557.732421	2548.270502
558.089735	2549.954247
558.446994	2547.955430
558.804197	2547.184133
559.161345	2549.737477
559.518437	2547.960471
559.875474	2549.193033
560.232455	2549.127498
560.589381	2549.210677
560.946251	2551.239741
561.303065	2549.394679
561.659825	2548.870399
562.016528	2547.400903
562.373177	2547.325285
562.729770	2550.849052
563.086307	2550.889381
563.442789	2550.105482
563.799216	2547.418547
564.155587	2549.704710
564.511904	2550.453321
564.868164	2550.352498
565.224370	2552.099258
565.580520	2548.537683
565.936615	2550.024823
566.292654	2546.017106
566.648638	2547.398382
567.004567	2548.701520
567.360441	2548.111705
567.716260	2547.302600
568.072023	2547.244627
568.427732	2545.167672
568.783385	2546.770758
569.138982	2545.046684
569.494525	2549.596325
569.850013	2544.882846
570.205445	2550.050029
570.560823	2547.857127
570.916145	2549.886192
571.271412	2548.547765
571.626625	2548.618341
571.981782	2549.059442
572.336884	2549.316541
572.691931	2549.729916
573.046923	2551.091027
573.401860	2547.269833
573.756743	2547.234545
574.111570	2546.581715
574.466342	2547.728578
574.821059	2548.300749
575.175722	2547.524411
575.530330	2547.612631
575.884882	2548.162117
576.239380	2548.394010
576.593823	2548.305790
576.948211	2548.298228
577.302544	2549.550955
577.656823	2548.724206
578.011047	2549.792930
578.365216	2549.714792
578.719330	2550.412992
579.073389	2547.899977
579.427394	2548.111705
579.781344	2548.333516
580.135239	2547.700851
580.489080	2548.174720
580.842866	2546.327137
581.196597	2547.990718
581.550273	2549.326623
581.903895	2546.995090
582.257463	2548.943496
582.610975	2548.290666
582.964434	2546.669935
583.317837	2549.679504
583.671186	2551.305276
584.024481	2547.655481
584.377721	2549.792930
584.730906	2547.405944
585.084037	2551.012889
585.437113	2546.296890
585.790135	2549.021634
586.143103	2546.501057
586.496016	2553.147818
586.848874	2545.437373
587.201679	2547.537014
587.554428	2548.144473
587.907124	2545.507949
588.259765	2543.763710
588.612352	2547.708413
588.964884	2547.917621
589.317362	2546.289328
589.669786	2547.131201
590.022155	2548.182282
590.374470	2550.009700
590.726731	2549.707231
591.078937	2546.780841
591.431090	2550.496171
591.783188	2547.660522
592.135232	2548.144473
592.487222	2547.519370
592.839157	2547.990718
593.191038	2547.529452
593.542866	2546.798485
593.894639	2549.997097
594.246358	2549.901315
594.598022	2548.550286
594.949633	2547.322765
595.301190	2548.094061
595.652692	2546.518701
596.004141	2546.990049
596.355535	2547.363094
596.706876	2545.460058
597.058162	2546.513660
597.409395	2545.785213
597.760573	2546.904349
598.111698	2545.722198
598.462768	2548.565409
598.813785	2544.265305
599.164748	2549.440049
599.515657	2547.239586
599.866511	2545.150027
600.217312	2545.815460
600.568060	2548.396531
600.918753	2549.654298
601.269392	2546.367466
601.619978	2546.261602
601.970510	2547.020296
602.320988	2546.385110
602.671412	2547.655481
603.021783	2545.603731
603.372100	2543.378062
603.722363	2545.187836
604.072572	2550.420554
604.422728	2548.746891
604.772830	2542.967208
605.122878	2543.201622
605.472872	2545.129863
605.822813	2539.813966
606.172701	2545.397044
606.522534	2544.887888
606.872314	2546.848896
607.222041	2546.075079
607.571714	2546.853938
607.921333	2546.100285
608.270899	2546.894267
608.620411	2546.208670
608.969870	2547.751263
609.319276	2549.021634
609.668627	2553.397355
610.017926	2553.956923
610.367171	2555.554969
610.716362	2556.323745
611.065500	2551.370811
611.414585	2551.849721
611.763616	2550.186140
612.112594	2547.340409
612.461518	2547.549617
612.810389	2550.415513
613.159207	2547.000131
613.507971	2549.561037
613.856682	2549.167827
614.205340	2546.987528
614.553945	2546.077600
614.902496	2547.065666
615.250994	2547.789072
615.599439	2548.154555
615.947830	2547.786551
616.296169	2545.959133
616.644454	2549.026675
616.992686	2544.915614
617.340864	2546.145655
617.688990	2547.078269
618.037063	2548.943496
618.385082	2547.302600
618.733048	2548.177240
619.080961	2546.896787
619.428821	2544.741694
619.776628	2549.117416
620.124382	2548.141952
620.472083	2547.105995
620.819731	2546.566592
621.167326	2547.058104
621.514868	2546.637168
621.862357	2544.666077
622.209793	2547.647919
622.557176	2549.240924
622.904506	2545.545758
623.251783	2540.847403
623.599007	2543.766231
623.946179	2539.047711
624.293297	2543.468803
624.640363	2546.304452
624.987376	2544.351005
625.334336	2544.938299
625.681243	2547.436191
626.028097	2546.117929
626.374899	2544.698844
626.721647	2547.743701
627.068343	2545.208001
627.414987	2544.136756
627.761577	2545.263453
628.108115	2544.487116
628.454600	2545.979297
628.801032	2545.369318
629.147412	2548.373845
629.493739	2545.182795
629.840014	2546.306972
630.186236	2546.188505
630.532405	2545.331509
630.878521	2546.992569
631.224585	2547.395862
631.570597	2544.048535
631.916556	2544.945861
632.262462	2545.008875
632.608316	2546.059956
632.954117	2544.630789
633.299866	2543.567105
633.645562	2543.788916
633.991206	2546.440563
634.336797	2543.463762
634.682336	2545.754966
635.027823	2543.224307
635.373257	2542.213555
635.718639	2543.675490
636.063968	2542.841179
636.409245	2543.231868
636.754470	2540.988555
637.099642	2542.208514
637.444762	2543.483926
637.789829	2543.642722
638.134845	2544.645912
638.479808	2544.028371
638.824719	2540.698689
639.169577	2542.377393
639.514383	2543.453679
639.859137	2542.831097
640.203839	2543.236910
640.548489	2542.997455
640.893086	2541.674152
641.237632	2539.146013
641.582125	2541.578370
641.926566	2535.823893
642.270955	2541.825387
642.615292	2540.227341
642.959576	2542.127856
643.303809	2540.411343
643.647990	2542.672300
643.992118	2543.065510
644.336195	2540.988555
