Dividing Wavelength (nm)	Counts (n)	Blue Motor Position (mm): 0.000000	Red Motor Position (mm): 39.200000	
326.493990	2129.035545
326.888308	2129.035545
327.282561	2129.035545
327.676750	2096.192428
328.070874	2093.162694
328.464933	2100.424476
328.858929	2102.176277
329.252859	2115.174893
329.646726	2125.433641
330.040528	2136.783798
330.434265	2155.216778
330.827938	2172.374345
331.221547	2191.941583
331.615091	2210.364480
332.008571	2226.740668
332.401986	2247.064080
332.795338	2266.449837
333.188625	2288.104113
333.581847	2303.698923
333.975006	2324.556697
334.368100	2343.791219
334.761129	2361.031966
335.154095	2375.285828
335.546996	2397.005639
335.939833	2417.324010
336.332606	2432.175249
336.725315	2444.805860
337.117960	2454.971347
337.510540	2461.262707
337.903056	2475.415746
338.295508	2478.085037
338.687896	2491.313025
339.080220	2497.059940
339.472480	2508.284069
339.864676	2509.408247
340.256807	2513.920079
340.648875	2518.527694
341.040879	2519.384690
341.432818	2519.293949
341.824694	2523.896523
342.216506	2522.303518
342.608253	2522.636234
342.999937	2521.602798
343.391557	2524.539270
343.783113	2521.640607
344.174605	2519.392252
344.566033	2516.354957
344.957397	2516.760770
345.348697	2518.474762
345.739934	2512.581653
346.131106	2511.548217
346.522215	2511.770027
346.913260	2507.202742
347.304241	2506.789367
347.695159	2506.065962
348.086012	2503.263080
348.476802	2500.838285
348.867528	2503.041269
349.258191	2498.521875
349.648789	2496.525578
350.039324	2494.695639
350.429796	2494.620022
350.820203	2495.456853
351.210548	2493.455515
351.600828	2495.088849
351.991045	2493.735299
352.381198	2492.656492
352.771288	2491.260093
353.161314	2490.771101
353.551276	2489.775473
353.941175	2493.445433
354.331010	2490.221615
354.720782	2493.294198
355.110490	2491.217243
355.500135	2490.042654
355.889717	2492.008704
356.279235	2492.938797
356.668689	2494.869559
357.058080	2495.318222
357.447408	2492.200268
357.836672	2490.050216
358.225873	2494.526761
358.615010	2489.798158
359.004084	2495.764364
359.393095	2492.427120
359.782043	2492.900988
360.170927	2495.219919
360.559748	2496.160094
360.948505	2501.055055
361.337199	2498.373161
361.725830	2499.767040
362.114398	2498.378202
362.502903	2501.372647
362.891344	2501.218892
363.279722	2502.025477
363.668037	2501.823831
364.056289	2501.962463
364.444478	2501.344921
364.832603	2502.103615
365.220665	2503.076557
365.608665	2502.809376
365.996601	2505.642505
366.384474	2506.149141
366.772284	2508.513442
367.160031	2512.019564
367.547715	2511.273474
367.935336	2514.570388
368.322893	2516.334792
368.710388	2521.222191
369.097820	2530.142512
369.485189	2531.060002
369.872495	2536.716177
370.259738	2542.619368
370.646918	2550.349978
371.034035	2557.185782
371.421090	2568.669531
371.808081	2577.483988
372.195010	2582.686459
372.581875	2600.290168
372.968678	2611.393310
373.355418	2623.852521
373.742096	2643.460089
374.128710	2656.453663
374.515262	2672.542506
374.901751	2688.137315
375.288177	2701.168698
375.674540	2720.297356
376.060841	2740.610686
376.447079	2760.235897
376.833254	2781.350770
377.219367	2795.281999
377.605417	2831.575786
377.991404	2839.374451
378.377329	2861.734489
378.763191	2878.438352
379.148991	2917.797161
379.534727	2940.179884
379.920402	2969.232054
380.306013	2983.740494
380.691563	3032.296888
381.077049	3055.823953
381.462474	3075.534865
381.847835	3111.465689
382.233134	3134.405459
382.618371	3134.506282
383.003545	3199.713607
383.388657	3206.584700
383.773706	3242.767582
384.158693	3258.198554
384.543618	3284.321813
384.928480	3319.705672
385.313280	3365.413814
385.698017	3360.478524
386.082692	3417.592277
386.467305	3422.333482
386.851856	3455.463945
387.236344	3476.883808
387.620770	3509.265659
388.005133	3534.655431
388.389435	3560.161149
388.773674	3574.359558
389.157851	3615.364304
389.541965	3629.902992
389.926018	3597.836212
390.310008	3665.007066
390.693936	3683.581198
391.077802	3726.325141
391.461606	3713.351732
391.845348	3777.830610
392.229027	3775.423459
392.612645	3789.815953
392.996200	3871.280999
393.379694	3906.853902
393.763125	3973.573573
394.146494	3942.414201
394.529801	4004.024662
394.913047	4050.375552
395.296230	4018.268443
395.679351	4070.119231
396.062410	4092.895164
396.445408	4075.596444
396.828343	4109.193214
397.211217	4132.125423
397.594028	4049.810942
397.976778	4118.196715
398.359466	4146.626302
398.742092	4175.358358
399.124656	4096.996142
399.507158	4179.232485
399.889598	4203.374571
400.271977	4263.676853
400.654294	4236.920929
401.036549	4242.745982
401.418742	4213.293041
401.800874	4316.309020
402.182944	4336.579499
402.564952	4400.733223
402.946898	4388.931882
403.328783	4385.642529
403.710606	4298.284374
404.092367	4490.523735
404.474067	4452.299186
404.855705	4465.378460
405.237282	4392.735433
405.618797	4502.582175
406.000250	4535.878996
406.381642	4616.557622
406.762972	4578.731324
407.144240	4588.687603
407.525447	4591.319086
407.906593	4645.866891
408.287677	4691.985887
408.668700	4621.780258
409.049661	4669.855221
409.430560	4714.330801
409.811399	4639.462105
410.192176	4798.926404
410.572891	4741.056478
410.953545	4844.705122
411.334138	4723.233479
411.714669	4787.692192
412.095139	4686.748128
412.475547	4827.355991
412.855894	4811.708249
413.236180	4817.477850
413.616405	4775.222898
413.996568	4860.068038
414.376670	4798.351712
414.756711	4755.643057
415.136691	4790.676556
415.516609	4864.655488
415.896466	4901.637393
416.276262	4938.372281
416.655997	4919.596503
417.035670	5103.011324
417.415283	5191.962484
417.794834	5134.926869
418.174324	5087.635805
418.553753	4996.360674
418.933121	5180.256925
419.312428	5242.878138
419.691674	5187.664900
420.070859	5310.134692
420.449983	5226.993462
420.829045	5338.362633
421.208047	5249.333335
421.586988	5321.298327
421.965867	5332.676211
422.344686	5465.356860
422.723444	5319.339839
423.102141	5137.092045
423.480777	5436.576913
423.859352	5203.688208
424.237866	5460.857630
424.616319	5454.649449
424.994712	5562.446962
425.373044	5437.020534
425.751314	5581.792390
426.129524	5388.774171
426.507673	5582.306588
426.885762	5665.465462
427.263789	5595.978197
427.641756	5479.139375
428.019662	5602.141008
428.397508	5602.277119
428.775292	5553.526641
429.153016	5654.730325
429.530679	5575.274178
429.908282	5663.660729
430.285824	5535.025606
430.663305	5808.997194
431.040726	5544.510537
431.418086	5545.765784
431.795385	5649.510210
432.172624	5663.794319
432.549802	5654.397609
432.926920	5668.439743
433.303977	5674.433675
433.680974	5715.561928
434.057910	5729.916614
434.434786	5734.746039
434.811601	5702.754877
435.188355	5943.031393
435.565050	5820.301982
435.941683	5799.817253
436.318257	6011.049161
436.694770	5997.538869
437.071222	6030.565988
437.447614	5960.821625
437.823946	5875.462287
438.200218	6027.148086
438.576429	5894.210338
438.952580	5996.830587
439.328670	6036.396082
439.704700	5947.011384
440.080670	5932.046718
440.456580	6200.034457
440.832429	6086.497590
441.208218	5932.016472
441.583947	6086.555563
441.959616	6092.355411
442.335224	6018.421848
442.710773	6154.119628
443.086261	6180.966293
443.461689	5974.614222
443.837057	6126.985617
444.212365	6279.291478
444.587612	6171.483882
444.962800	6326.285114
445.337927	6310.672660
445.712995	5919.259832
446.088002	6495.249467
446.462949	6321.198590
446.837837	6256.145020
447.212664	6427.403098
447.587431	6574.372897
447.962139	7114.867769
448.336786	8045.016106
448.711374	7786.568751
449.085901	6860.710436
449.460369	6776.157683
449.834776	6709.712755
450.209124	7102.204390
450.583412	7255.309274
450.957640	7400.940647
451.331808	7163.174626
451.705917	6715.139557
452.079965	6642.897302
452.453954	6852.412697
452.827883	6723.187759
453.201752	6820.169477
453.575562	6624.071113
453.949311	6825.848337
454.323001	6712.321552
454.696632	6788.014477
455.070202	6926.973883
455.443713	7080.545073
455.817164	7183.742533
456.190556	7263.160871
456.563888	7341.757501
456.937160	7381.217132
457.310373	7039.217694
457.683526	7066.820532
458.056619	6953.429858
458.429653	6944.136491
458.802628	6874.934052
459.175542	6984.528736
459.548398	7344.812440
459.921194	7499.885894
460.293930	7504.160792
460.666607	8033.905403
461.039224	8348.964916
461.411782	8469.294737
461.784280	8490.525557
462.156719	8380.698979
462.529099	8261.606761
462.901419	7848.043102
463.273680	7743.575271
463.645882	7753.236642
464.018024	7626.174359
464.390106	7785.943648
464.762130	8176.116353
465.134094	8641.220769
465.505999	9660.095934
465.877845	10884.171267
466.249631	11534.986749
466.621358	11160.050932
466.993026	10523.731288
467.364634	10269.672257
467.736184	9906.073995
468.107674	9573.277183
468.479105	9608.025856
468.850477	9373.529023
469.221790	9142.538313
469.593043	8806.865522
469.964238	8673.751334
470.335373	8683.790792
470.706449	8742.341274
471.077467	8730.182011
471.448425	10032.458243
471.819324	11108.162335
472.190164	11136.294494
472.560945	9885.579184
472.931667	9098.922250
473.302330	8964.618350
473.672934	8605.736087
474.043479	8966.476015
474.413965	8906.874453
474.784393	8780.752345
475.154761	8938.487529
475.525070	9027.239563
475.895321	8858.829736
476.265513	9034.836582
476.635645	9205.000730
477.005719	9198.106952
477.375734	9319.019027
477.745691	9553.954440
478.115588	9688.689359
478.485427	9929.175083
478.855207	10463.280291
479.224928	11280.640373
479.594591	11911.770149
479.964194	11729.608055
480.333739	11663.218580
480.703226	11577.080384
481.072653	11668.922645
481.442022	11902.978377
481.811333	12098.325609
482.180584	11907.044068
482.549777	11611.554314
482.918912	11439.262799
483.287988	11459.697117
483.657005	11473.824950
484.025964	11155.493729
484.394864	11289.061621
484.763706	11253.846640
485.132489	11012.519044
485.501213	10968.842487
485.869879	11051.212420
486.238487	10889.640919
486.607036	11005.363126
486.975527	10779.582448
487.343959	10968.033382
487.712333	11021.525065
488.080648	10951.710126
488.448905	10994.338123
488.817104	10927.126939
489.185244	11194.179543
489.553326	11350.891373
489.921350	11884.978937
490.289315	12951.256072
490.657222	13296.330615
491.025070	13207.886091
491.392861	13083.306577
491.760593	12699.200901
492.128267	12348.581089
492.495883	12020.149916
492.863440	11689.858557
493.230939	11348.491783
493.598380	11290.531117
493.965763	11148.330249
494.333088	11048.883407
494.700354	10966.735285
495.067563	11029.159893
495.434713	10858.491629
495.801805	10989.317133
496.168839	10915.980948
496.535815	10847.978303
496.902733	10840.434216
497.269593	10781.288879
497.636395	10878.394105
498.003139	10869.617456
498.369825	10735.689122
498.736453	10891.622093
499.103023	10821.010651
499.469535	10842.334731
499.835989	10832.476755
500.202385	10794.819336
500.568723	10645.119752
500.935003	10867.298525
501.301226	10676.962200
501.667390	10933.317476
502.033497	11031.942610
502.399546	10894.182999
502.765537	10800.599019
503.131470	10874.426717
503.497345	11046.350228
503.863163	10656.013685
504.228923	10975.842129
504.594625	11034.942096
504.960269	10779.542119
505.325856	11005.799186
505.691385	10792.518049
506.056856	10949.063520
506.422270	10979.121400
506.787625	10862.113698
507.152924	10979.920423
507.518164	10962.588936
507.883347	10882.800073
508.248472	10795.472165
508.613540	11037.036696
508.978550	10917.372306
509.343503	10895.405478
509.708398	11010.333704
510.073236	11125.750921
510.438016	11127.003648
510.802738	11074.084135
511.167403	11128.261416
511.532010	11021.812411
511.896561	11261.005079
512.261053	11325.816673
512.625488	11193.110819
512.989866	11176.651452
513.354186	11164.096458
513.718449	11072.072715
514.082655	11266.376428
514.446803	11158.669656
514.810894	11278.374374
515.174927	11146.580969
515.538904	11166.319607
515.902822	11319.893317
516.266684	11207.919208
516.630488	11149.615743
516.994235	11200.969978
517.357925	11264.092786
517.721558	11358.737928
518.085133	11370.133457
518.448651	11382.504448
518.812112	11267.291398
519.175516	11286.195725
519.538863	11398.812581
519.902152	11315.918368
520.265385	11475.972482
520.628560	11386.665921
520.991678	11365.593898
521.354739	11431.486820
521.717743	11363.859741
522.080690	11336.408138
522.443580	11474.500465
522.806413	11421.336456
523.169189	11456.352311
523.531908	11515.701815
523.894569	11333.401089
524.257174	11337.713796
524.619722	11457.259719
524.982213	11400.289639
525.344647	11454.625716
525.707025	11406.074363
526.069345	11501.097593
526.431608	11419.186404
526.793815	11521.652897
527.155964	11313.107924
527.518057	11369.571368
527.880093	11318.640591
528.242072	11386.048379
528.603995	11296.159565
528.965860	11211.082532
529.327669	11260.805953
529.689421	11211.531195
530.051117	11183.651094
530.412755	11282.452668
530.774337	11178.534322
531.135862	11157.086733
531.497331	11179.721514
531.858743	11035.042919
532.220098	11202.371418
532.581396	11067.122302
532.942638	11051.446834
533.303824	11013.244970
533.664953	11021.794767
534.026025	10936.828640
534.387040	11036.159535
534.747999	11041.074660
535.108902	11098.609349
535.469748	10854.098264
535.830537	10958.031733
536.191270	10945.267531
536.551947	10962.435181
536.912567	10956.816815
537.273131	10888.292410
537.633638	10861.314676
537.994089	10849.115083
538.354483	10797.652464
538.714821	10943.666965
539.075103	10958.004006
539.435328	10913.369630
539.795497	10739.527960
540.155609	10898.465459
540.515665	10986.453758
540.875665	10725.377442
541.235609	10795.704058
541.595496	10786.645105
541.955328	10943.460278
542.315102	10823.107771
542.674821	10771.531726
543.034483	10776.766964
543.394090	10780.724270
543.753640	10707.612415
544.113134	10937.826788
544.472571	10779.259814
544.831953	10927.154665
545.191278	10729.526311
545.550548	10758.628892
545.909761	10893.492361
546.268918	10860.399706
546.628019	10950.782553
546.987064	10809.947838
547.346053	10727.996321
547.704986	10830.477938
548.063863	10819.336988
548.422684	10804.198403
548.781449	10722.181350
549.140158	10828.985756
549.498811	10691.941989
549.857408	10553.133817
550.215949	10776.761923
550.574434	10630.830601
550.932864	10727.351053
551.291237	10793.037288
551.649555	10732.271219
552.007817	10739.739689
552.366022	10703.057733
552.724173	10701.119409
553.082267	10678.161995
553.440305	10813.927829
553.798288	10617.126224
554.156215	10765.126940
554.514086	10736.664585
554.871902	10589.475496
555.229661	10620.196287
555.587365	10595.686197
555.945014	10491.646864
556.302606	10617.017840
556.660143	10501.683801
557.017625	10655.370938
557.375050	10550.197345
557.732421	10679.767602
558.089735	10595.504716
558.446994	10593.810888
558.804197	10627.296752
559.161345	10620.725608
559.518437	10469.662392
559.875474	10552.624661
560.232455	10574.984699
560.589381	10527.192040
560.946251	10518.715340
561.303065	10627.609304
561.659825	10548.616944
562.016528	10476.178083
562.373177	10361.333037
562.729770	10468.162649
563.086307	10374.571107
563.442789	10463.683584
563.799216	10335.590385
564.155587	10381.134689
564.511904	10337.440488
564.868164	10305.441764
565.224370	10325.422378
565.580520	10245.973793
565.936615	10248.506973
566.292654	10106.704356
566.648638	10234.366536
567.004567	10180.711015
567.360441	10157.904835
567.716260	10063.778931
568.072023	10154.509618
568.427732	10094.587943
568.783385	10003.355661
569.138982	10055.100585
569.494525	10067.975692
569.850013	9938.876783
570.205445	10017.203711
570.560823	9908.738245
570.916145	9814.256939
571.271412	9865.482624
571.626625	9809.934150
571.981782	9775.235888
572.336884	9748.106919
572.691931	9749.160520
573.046923	9682.017392
573.401860	9627.525039
573.756743	9552.966374
574.111570	9587.485675
574.466342	9560.046674
574.821059	9579.152647
575.175722	9463.932035
575.530330	9457.013052
575.884882	9449.776475
576.239380	9359.648206
576.593823	9332.178959
576.948211	9335.049896
577.302544	9207.934681
577.656823	9208.446358
578.011047	9204.821769
578.365216	9156.104058
578.719330	9068.861849
579.073389	9062.328514
579.427394	9010.298765
579.781344	8973.064803
580.135239	8916.387110
580.489080	8903.159123
580.842866	8798.368657
581.196597	8785.639744
581.550273	8809.701171
581.903895	8765.079398
582.257463	8812.504053
582.610975	8678.389196
582.964434	8694.195734
583.317837	8600.140406
583.671186	8577.573681
584.024481	8555.430412
584.377721	8463.119324
584.730906	8424.746061
585.084037	8428.799148
585.437113	8365.973769
585.790135	8362.139971
586.143103	8250.163341
586.496016	8215.901139
586.848874	8237.925940
587.201679	8216.284267
587.554428	8098.603572
587.907124	8114.049667
588.259765	8076.513235
588.612352	8049.870737
588.964884	7932.774816
589.317362	7914.329234
589.669786	7894.283086
590.022155	7926.433044
590.374470	7912.297649
590.726731	7853.482507
591.078937	7703.835855
591.431090	7771.223479
591.783188	7648.753688
592.135232	7626.859956
592.487222	7609.541072
592.839157	7630.408929
593.191038	7556.419914
593.542866	7488.220664
593.894639	7385.187041
594.246358	7409.203098
594.598022	7401.618682
594.949633	7298.821993
595.301190	7250.797441
595.652692	7257.945797
596.004141	7328.254770
596.355535	7133.031046
596.706876	7090.256856
597.058162	7014.957141
597.409395	7058.469860
597.760573	7085.245949
598.111698	6997.781930
598.462768	6963.161806
598.813785	6919.210506
599.164748	6865.575149
599.515657	6840.974319
599.866511	6745.303301
600.217312	6829.283883
600.568060	6700.041301
600.918753	6753.401915
601.269392	6712.442540
601.619978	6622.488190
601.970510	6648.944166
602.320988	6626.238809
602.671412	6640.858155
603.021783	6579.353557
603.372100	6537.388472
603.722363	6509.694894
604.072572	6476.587116
604.422728	6464.170754
604.772830	6388.210648
605.122878	6370.664912
605.472872	6349.444175
605.822813	6344.397980
606.172701	6289.746831
606.522534	6317.700029
606.872314	6299.932482
607.222041	6251.464308
607.571714	6266.953254
607.921333	6212.818823
608.270899	6192.782757
608.620411	6232.759107
608.969870	6140.889119
609.319276	6117.984637
609.668627	6103.203974
610.017926	6107.282267
610.367171	6106.929387
610.716362	6072.596608
611.065500	6043.405807
611.414585	6032.726123
611.763616	6007.969016
612.112594	5966.679445
612.461518	5952.203772
612.810389	5964.423529
613.159207	5905.757101
613.507971	5849.502865
613.856682	5894.215379
614.205340	5844.663358
614.553945	5867.956009
614.902496	5783.771260
615.250994	5790.448269
615.599439	5753.567187
615.947830	5737.012038
616.296169	5699.437798
616.644454	5684.861301
616.992686	5657.250902
617.340864	5666.445966
617.688990	5590.707671
618.037063	5620.437876
618.385082	5565.627931
618.733048	5583.163584
619.080961	5533.001583
619.428821	5524.671076
619.776628	5495.855841
620.124382	5447.334735
620.472083	5412.802831
620.819731	5408.895937
621.167326	5328.487013
621.514868	5311.919260
621.862357	5237.305142
622.209793	5226.796857
622.557176	5170.572868
622.904506	5129.421929
623.251783	5084.664045
623.599007	5035.379204
623.946179	5016.041338
624.293297	4974.056088
624.640363	4923.750414
624.987376	4886.418149
625.334336	4848.692675
625.681243	4803.965037
626.028097	4772.288947
626.374899	4753.125001
626.721647	4718.809866
627.068343	4676.378474
627.414987	4643.668948
627.761577	4604.824337
628.108115	4605.683853
628.454600	4538.389491
628.801032	4534.893451
629.147412	4515.855533
629.493739	4480.501921
629.840014	4441.347279
630.186236	4448.004123
630.532405	4383.794946
630.878521	4387.888363
631.224585	4353.989124
631.570597	4303.048265
631.916556	4298.985095
632.262462	4287.014875
632.608316	4249.269235
632.954117	4225.565730
633.299866	4204.592009
633.645562	4179.749203
633.991206	4142.101866
634.336797	4104.946042
634.682336	4071.087132
635.027823	4039.237122
635.373257	4022.417312
635.718639	3979.605313
636.063968	3970.105259
636.409245	3923.429215
636.754470	3903.562028
637.099642	3883.069738
637.444762	3844.477184
637.789829	3834.349506
638.134845	3804.455464
638.479808	3784.477371
638.824719	3773.694343
639.169577	3736.944332
639.514383	3729.054926
639.859137	3696.978064
640.203839	3692.221735
640.548489	3666.133764
