Dividing Wavelength (nm)	Counts (n)	Blue Motor Position (mm): 14.800000	Red Motor Position (mm): 0.000000	
326.493990	2169.979797
326.888308	2169.979797
327.282561	2169.979797
327.676750	2132.702984
328.070874	2129.300206
328.464933	2129.010339
328.858929	2134.185084
329.252859	2137.318161
329.646726	2144.879892
330.040528	2159.368168
330.434265	2170.806546
330.827938	2189.768846
331.221547	2205.527493
331.615091	2222.743033
332.008571	2243.016033
332.401986	2259.349372
332.795338	2276.723709
333.188625	2298.377985
333.581847	2315.071766
333.975006	2333.552636
334.368100	2351.524349
334.761129	2369.538913
335.154095	2386.822509
335.546996	2407.992834
335.939833	2435.565425
336.332606	2447.139914
336.725315	2464.350414
337.117960	2475.130921
337.510540	2487.517036
337.903056	2498.705877
338.295508	2508.568895
338.687896	2516.788496
339.080220	2524.408200
339.472480	2529.845084
339.864676	2537.810108
340.256807	2543.834286
340.648875	2543.254554
341.040879	2549.435008
341.432818	2551.418702
341.824694	2553.460370
342.216506	2553.755277
342.608253	2557.024465
342.999937	2556.417006
343.391557	2554.133364
343.783113	2556.817778
344.174605	2554.869372
344.566033	2554.420709
344.957397	2551.978270
345.348697	2551.481717
345.739934	2549.616490
346.131106	2547.252189
346.522215	2545.560882
346.913260	2542.884029
347.304241	2539.962680
347.695159	2538.969573
348.086012	2537.961342
348.476802	2534.727442
348.867528	2532.305167
349.258191	2527.750485
349.648789	2529.056144
350.039324	2525.958355
350.429796	2529.855167
350.820203	2527.130423
351.210548	2526.520443
351.600828	2521.895185
351.991045	2524.413241
352.381198	2523.687315
352.771288	2523.707480
353.161314	2519.679598
353.551276	2520.773528
353.941175	2522.275792
354.331010	2519.140194
354.720782	2520.740761
355.110490	2520.609691
355.500135	2521.456604
355.889717	2517.511902
356.279235	2520.206398
356.668689	2522.797551
357.058080	2521.461646
357.447408	2521.035668
357.836672	2519.707324
358.225873	2521.388549
358.615010	2524.509023
359.004084	2523.891482
359.393095	2522.124557
359.782043	2525.071112
360.170927	2522.164887
360.559748	2525.648324
360.948505	2525.935670
361.337199	2526.220495
361.725830	2523.888961
362.114398	2528.284847
362.502903	2526.601102
362.891344	2523.964578
363.279722	2529.890455
363.668037	2530.278624
364.056289	2529.517409
364.444478	2533.328522
364.832603	2528.909950
365.220665	2531.470857
365.608665	2531.937163
365.996601	2530.490352
366.384474	2531.223840
366.772284	2533.131917
367.160031	2530.674354
367.547715	2533.613347
367.935336	2532.156453
368.322893	2532.032945
368.710388	2529.633356
369.097820	2531.329704
369.485189	2531.448171
369.872495	2534.820703
370.259738	2531.647297
370.646918	2537.404295
371.034035	2534.508152
371.421090	2532.716022
371.808081	2534.498069
372.195010	2534.447658
372.581875	2536.973276
372.968678	2537.832793
373.355418	2535.571835
373.742096	2535.783564
374.128710	2536.189377
374.515262	2539.907228
374.901751	2536.406146
375.288177	2535.105528
375.674540	2534.039324
376.060841	2541.623740
376.447079	2538.213400
376.833254	2540.224820
377.219367	2540.018133
377.605417	2538.498225
377.991404	2539.692978
378.377329	2539.985365
378.763191	2540.968390
379.148991	2542.700027
379.534727	2540.766744
379.920402	2538.276414
380.306013	2540.492001
380.691563	2541.321271
381.077049	2542.064841
381.462474	2542.029553
381.847835	2540.570139
382.233134	2543.080634
382.618371	2541.754810
383.003545	2542.001827
383.388657	2540.451672
383.773706	2543.640202
384.158693	2542.889070
384.543618	2545.344112
384.928480	2542.634492
385.313280	2541.437218
385.698017	2543.884698
386.082692	2546.309493
386.467305	2543.103319
386.851856	2545.422250
387.236344	2545.515511
387.620770	2542.251364
388.005133	2541.351518
388.389435	2540.691127
388.773674	2541.966539
389.157851	2545.878474
389.541965	2544.802188
389.926018	2544.976108
390.310008	2546.327137
390.693936	2547.726057
391.077802	2548.497354
391.461606	2547.456355
391.845348	2550.594474
392.229027	2546.115408
392.612645	2547.521890
392.996200	2549.293856
393.379694	2548.940975
393.763125	2549.961809
394.146494	2550.942313
394.529801	2548.167158
394.913047	2547.907539
395.296230	2549.644216
395.679351	2549.187992
396.062410	2546.921993
396.445408	2552.515153
396.828343	2550.803682
397.211217	2549.132539
397.594028	2551.111192
397.976778	2548.386448
398.359466	2549.079607
398.742092	2550.133208
399.124656	2550.425595
399.507158	2549.258568
399.889598	2552.326110
400.271977	2552.341233
400.654294	2553.089845
401.036549	2552.684032
401.418742	2553.541028
401.800874	2550.710420
402.182944	2553.626728
402.564952	2550.506253
402.946898	2551.421223
403.328783	2551.839639
403.710606	2552.893240
404.092367	2554.077911
404.474067	2552.636141
404.855705	2552.656306
405.237282	2554.329969
405.618797	2554.526574
406.000250	2553.084804
406.381642	2554.198899
406.762972	2550.412992
407.144240	2551.791748
407.525447	2552.943651
407.906593	2552.560524
408.287677	2554.730740
408.668700	2555.738971
409.049661	2556.727037
409.430560	2555.471790
409.811399	2554.685370
410.192176	2556.086811
410.572891	2556.580844
410.953545	2557.820968
411.334138	2555.940617
411.714669	2556.280895
412.095139	2559.295505
412.475547	2557.629404
412.855894	2557.165618
413.236180	2559.635783
413.616405	2557.694939
413.996568	2556.948848
414.376670	2556.943807
414.756711	2557.352140
415.136691	2562.373130
415.516609	2559.063612
415.896466	2556.217881
416.276262	2557.952038
416.655997	2558.415824
417.035670	2557.667213
417.415283	2561.518654
417.794834	2555.769218
418.174324	2559.141750
418.553753	2560.966648
418.933121	2561.385063
419.312428	2559.227450
419.691674	2560.018911
420.070859	2559.829867
420.449983	2560.863304
420.829045	2560.704508
421.208047	2559.890361
421.586988	2558.751061
421.965867	2559.857594
422.344686	2559.973540
422.723444	2562.680640
423.102141	2561.879097
423.480777	2562.040413
423.859352	2560.641493
424.237866	2562.146278
424.616319	2559.096380
424.994712	2560.530588
425.373044	2561.886658
425.751314	2561.901782
426.129524	2557.236194
426.507673	2560.006308
426.885762	2555.222253
427.263789	2562.166442
427.641756	2560.528067
428.019662	2565.296999
428.397508	2562.451267
428.775292	2562.884807
429.153016	2561.354817
429.530679	2563.048644
429.908282	2562.468912
430.285824	2564.566032
430.663305	2562.763819
431.040726	2565.012174
431.418086	2562.872204
431.795385	2565.690209
432.172624	2563.928326
432.549802	2565.927143
432.926920	2562.035372
433.303977	2565.019735
433.680974	2563.938408
434.057910	2564.709704
434.434786	2564.099725
434.811601	2564.092163
435.188355	2564.031669
435.565050	2568.271280
435.941683	2565.349931
436.318257	2564.830692
436.694770	2567.794891
437.071222	2564.805486
437.447614	2564.611402
437.823946	2563.908161
438.200218	2565.566701
438.576429	2566.859757
438.952580	2567.245405
439.328670	2567.643656
439.704700	2565.730538
440.080670	2566.206927
440.456580	2563.819941
440.832429	2568.568708
441.208218	2565.544015
441.583947	2565.591906
441.959616	2565.975034
442.335224	2567.265569
442.710773	2568.404870
443.086261	2566.857236
443.461689	2566.645507
443.837057	2567.200034
444.212365	2567.961249
444.587612	2566.771536
444.962800	2564.014025
445.337927	2566.642987
445.712995	2565.203737
446.088002	2567.469736
446.462949	2567.978893
446.837837	2569.672720
447.212664	2567.893193
447.587431	2567.177349
447.962139	2569.234140
448.336786	2572.072310
448.711374	2569.952504
449.085901	2572.626837
449.460369	2567.457133
449.834776	2570.980900
450.209124	2569.524006
450.583412	2571.142217
450.957640	2571.890828
451.331808	2570.978379
451.705917	2569.380333
452.079965	2570.302865
452.453954	2568.881259
452.827883	2568.402350
453.201752	2570.171795
453.575562	2569.650035
453.949311	2570.867474
454.323001	2569.624829
454.696632	2569.708008
455.070202	2569.337484
455.443713	2569.869325
455.817164	2571.724470
456.190556	2570.605334
456.563888	2573.514080
456.937160	2572.155489
457.310373	2573.287228
457.683526	2570.133986
458.056619	2570.146589
458.429653	2570.764130
458.802628	2570.030642
459.175542	2572.780592
459.548398	2572.715057
459.921194	2574.580284
460.293930	2573.438462
460.666607	2575.354101
461.039224	2574.860068
461.411782	2574.219841
461.784280	2575.709502
462.156719	2575.187743
462.529099	2574.786971
462.901419	2574.297979
463.273680	2573.652711
463.645882	2570.688513
464.018024	2573.680438
464.390106	2569.196331
464.762130	2576.468196
465.134094	2576.571539
465.505999	2575.989286
465.877845	2579.208063
466.249631	2579.258474
466.621358	2577.005079
466.993026	2579.944071
467.364634	2580.231417
467.736184	2580.838876
468.107674	2579.127404
468.479105	2580.669997
468.850477	2581.310224
469.221790	2579.147569
469.593043	2579.276118
469.964238	2578.759400
470.335373	2578.867785
470.706449	2578.557754
471.077467	2579.497929
471.448425	2579.056828
471.819324	2582.169741
472.190164	2581.678228
472.560945	2583.132601
472.931667	2581.456418
473.302330	2579.777713
473.672934	2579.046746
474.043479	2582.217632
474.413965	2577.017682
474.784393	2580.120512
475.154761	2583.359453
475.525070	2581.111098
475.895321	2579.596232
476.265513	2582.900708
476.635645	2581.564802
477.005719	2582.399113
477.375734	2582.084041
477.745691	2585.907756
478.115588	2584.085379
478.485427	2583.639237
478.855207	2582.827611
479.224928	2587.208374
479.594591	2584.954978
479.964194	2587.329362
480.333739	2586.845411
480.703226	2589.981009
481.072653	2589.441605
481.442022	2585.814495
481.811333	2586.190061
482.180584	2585.496902
482.549777	2583.135122
482.918912	2581.474062
483.287988	2588.221646
483.657005	2588.335072
484.025964	2587.528487
484.394864	2589.106368
484.763706	2588.385483
485.132489	2585.950606
485.501213	2587.689804
485.869879	2587.979671
486.238487	2586.321131
486.607036	2587.364650
486.975527	2590.749785
487.343959	2588.766091
487.712333	2585.305338
488.080648	2587.629310
488.448905	2590.376739
488.817104	2588.733323
489.185244	2587.916656
489.553326	2590.031420
489.921350	2590.951431
490.289315	2590.817840
490.657222	2593.756833
491.025070	2595.652307
491.392861	2595.274220
491.760593	2595.450661
492.128267	2593.093921
492.495883	2590.525453
492.863440	2591.011925
493.230939	2592.962851
493.598380	2591.752974
493.965763	2591.634507
494.333088	2591.503437
494.700354	2592.904878
495.067563	2588.761049
495.434713	2590.442274
495.801805	2590.480083
496.168839	2592.786411
496.535815	2591.488314
496.902733	2590.991760
497.269593	2592.791452
497.636395	2594.024014
498.003139	2592.443612
498.369825	2592.158787
498.736453	2591.606781
499.103023	2592.698191
499.469535	2593.391349
499.835989	2592.504106
500.202385	2587.072263
500.568723	2588.657706
500.935003	2593.963520
501.301226	2589.091245
501.667390	2593.933273
502.033497	2599.473501
502.399546	2596.660537
502.765537	2596.161463
503.131470	2594.626432
503.497345	2597.013418
503.863163	2596.244642
504.228923	2596.539550
504.594625	2599.710436
504.960269	2595.818665
505.325856	2598.598861
505.691385	2596.264807
506.056856	2598.220775
506.422270	2602.513317
506.787625	2602.346959
507.152924	2602.044490
507.518164	2600.007864
507.883347	2601.618512
508.248472	2602.500714
508.613540	2607.935078
508.978550	2605.936261
509.343503	2602.861157
509.708398	2602.306630
510.073236	2607.541868
510.438016	2608.124121
510.802738	2608.096395
511.167403	2607.176384
511.532010	2610.001951
511.896561	2611.920110
512.261053	2610.276694
512.625488	2611.635285
512.989866	2612.756942
513.354186	2616.532766
513.718449	2611.955398
514.082655	2617.218363
514.446803	2616.336161
514.810894	2617.535956
515.174927	2620.384207
515.538904	2618.637448
515.902822	2621.941924
516.266684	2621.710031
516.630488	2621.679784
516.994235	2622.738426
517.357925	2625.173304
517.721558	2626.045423
518.085133	2626.514251
518.448651	2623.113992
518.812112	2624.003756
519.175516	2626.070629
519.538863	2626.509209
519.902152	2630.310239
520.265385	2633.120683
520.628560	2632.127575
520.991678	2635.001033
521.354739	2633.448358
521.717743	2637.085550
522.080690	2639.038997
522.443580	2642.809780
522.806413	2641.766262
523.169189	2640.415232
523.531908	2646.895636
523.894569	2643.001344
524.257174	2646.762045
524.619722	2649.184319
524.982213	2651.485606
525.344647	2652.115750
525.707025	2652.957623
526.069345	2654.974085
526.431608	2655.732778
526.793815	2658.023983
527.155964	2657.161945
527.518057	2660.557162
527.880093	2661.643531
528.242072	2664.948007
528.603995	2664.206958
528.965860	2665.386588
529.327669	2668.191990
529.689421	2670.392454
530.051117	2671.483863
530.412755	2674.664832
530.774337	2675.620130
531.135862	2676.923268
531.497331	2681.997190
531.858743	2682.276974
532.220098	2688.291070
532.581396	2688.981708
532.942638	2690.005063
533.303824	2696.029242
533.664953	2697.685261
534.026025	2699.472350
534.387040	2702.313040
534.747999	2702.809593
535.108902	2709.463917
535.469748	2708.490974
535.830537	2715.472972
536.191270	2722.013869
536.551947	2719.153014
536.912567	2722.593602
537.273131	2729.550394
537.633638	2727.279354
537.994089	2737.878380
538.354483	2740.144379
538.714821	2749.364649
539.075103	2755.610639
539.435328	2759.499889
539.795497	2761.607091
540.155609	2767.885848
540.515665	2772.107815
540.875665	2774.666200
541.235609	2780.433280
541.595496	2790.860907
541.955328	2794.377112
542.315102	2807.779019
542.674821	2810.324802
543.034483	2813.916624
543.394090	2822.141267
543.753640	2827.310970
544.113134	2842.588187
544.472571	2848.695545
544.831953	2859.783562
545.191278	2860.280116
545.550548	2868.512320
545.909761	2878.498846
546.268918	2892.314128
546.628019	2903.835685
546.987064	2913.532345
547.346053	2922.067018
547.704986	2933.298709
548.063863	2946.861933
548.422684	2951.061215
548.781449	2963.565797
549.140158	2985.472131
549.498811	2995.040241
549.857408	2997.848163
550.215949	3020.803058
550.574434	3027.399407
550.932864	3053.477296
551.291237	3063.357958
551.649555	3084.412337
552.007817	3098.351127
552.366022	3113.192284
552.724173	3129.949079
553.082267	3148.077069
553.440305	3180.257274
553.798288	3183.476051
554.156215	3216.571226
554.514086	3236.698033
554.871902	3235.853639
555.229661	3266.975203
555.587365	3293.786579
555.945014	3313.346256
556.302606	3354.930734
556.660143	3369.532437
557.017625	3415.195208
557.375050	3425.398503
557.732421	3455.128708
558.089735	3486.227586
558.446994	3512.353366
558.804197	3548.417781
559.161345	3583.184098
559.518437	3582.553954
559.875474	3636.343066
560.232455	3661.705111
560.589381	3699.420503
560.946251	3726.395717
561.303065	3779.037966
561.659825	3824.879699
562.016528	3838.505938
562.373177	3858.231973
562.729770	3903.073036
563.086307	3956.733598
563.442789	3997.657685
563.799216	4034.924415
564.155587	4064.009352
564.511904	4118.801653
564.868164	4140.513903
565.224370	4201.869786
565.580520	4222.336871
565.936615	4286.677118
566.292654	4298.022234
566.648638	4383.880646
567.004567	4407.616919
567.360441	4455.066779
567.716260	4478.109894
568.072023	4573.954831
568.427732	4606.976909
568.783385	4627.499447
569.138982	4702.322773
569.494525	4772.762815
569.850013	4813.328980
570.205445	4863.415364
570.560823	4884.676431
570.916145	4942.067447
571.271412	4986.359024
571.626625	5056.267225
571.981782	5100.488227
572.336884	5128.814470
572.691931	5209.969486
573.046923	5210.052665
573.401860	5285.569149
573.756743	5360.989852
574.111570	5394.697527
574.466342	5438.603457
574.821059	5515.428121
575.175722	5527.047980
575.530330	5614.771619
575.884882	5665.173075
576.239380	5733.561368
576.593823	5773.305825
576.948211	5815.091949
577.302544	5850.493452
577.656823	5899.866513
578.011047	5994.846893
578.365216	6038.127719
578.719330	6093.255257
579.073389	6125.702643
579.427394	6245.954327
579.781344	6238.843780
580.135239	6317.218599
580.489080	6363.072934
580.842866	6366.442945
581.196597	6520.031780
581.550273	6535.077103
581.903895	6642.065511
582.257463	6751.103148
582.610975	6746.397231
582.964434	6872.826849
583.317837	6891.902575
583.671186	6982.267779
584.024481	7062.785088
584.377721	7056.012298
584.730906	7156.532905
585.084037	7240.127839
585.437113	7284.056454
585.790135	7402.553816
586.143103	7355.701332
586.496016	7406.095227
586.848874	7591.632373
587.201679	7625.531612
587.554428	7605.538396
587.907124	7776.541896
588.259765	7785.187475
588.612352	7915.284533
588.964884	7865.155299
589.317362	7976.053122
589.669786	8062.869352
590.022155	8148.132908
590.374470	8295.294271
590.726731	8312.376221
591.078937	8308.330695
591.431090	8403.215293
591.783188	8388.648879
592.135232	8439.728370
592.487222	8580.066531
592.839157	8642.357549
593.191038	8705.177887
593.542866	8717.523673
593.894639	8719.275474
594.246358	8863.989357
594.598022	8888.128922
594.949633	8895.481445
595.301190	8931.497969
595.652692	9072.725894
596.004141	9231.650789
596.355535	9051.742091
596.706876	9125.103482
597.058162	9168.777519
597.409395	9297.833578
597.760573	9436.487994
598.111698	9418.070138
598.462768	9463.969844
598.813785	9507.550619
599.164748	9510.383747
599.515657	9591.057332
599.866511	9583.026774
600.217312	9791.551582
600.568060	9662.760184
600.918753	9874.528975
601.269392	9930.926883
601.619978	9873.906392
601.970510	10074.660262
602.320988	10090.209701
602.671412	10256.890412
603.021783	10291.467686
603.372100	10234.666485
603.722363	10376.842147
604.072572	10430.411968
604.422728	10530.677998
604.772830	10530.320076
605.122878	10525.861175
605.472872	10623.377255
605.822813	10697.290653
606.172701	10744.644732
606.522534	10912.437017
606.872314	10990.859727
607.222041	10950.172574
607.571714	11137.910184
607.921333	11140.655092
608.270899	11245.793397
608.620411	11435.229876
608.969870	11331.210708
609.319276	11418.589027
609.668627	11526.721778
610.017926	11660.902169
610.367171	11782.242743
610.716362	11901.294632
611.065500	11831.489774
611.414585	11975.596198
611.763616	12044.959955
612.112594	12086.196593
612.461518	12104.047319
612.810389	12295.026391
613.159207	12243.372208
613.507971	12266.758121
613.856682	12547.389073
614.205340	12556.682440
614.553945	12737.627096
614.902496	12585.689240
615.250994	12862.325077
615.599439	12875.059032
615.947830	12905.260585
616.296169	12981.235814
616.644454	13055.857494
616.992686	13058.050396
617.340864	13282.739664
617.688990	13199.308568
618.037063	13373.213252
618.385082	13336.644722
618.733048	13563.370617
619.080961	13521.503834
619.428821	13634.145896
619.776628	13634.826452
620.124382	13622.037044
620.472083	13717.307290
620.819731	13806.669304
621.167326	13636.157316
621.514868	13726.232653
621.862357	13625.535605
622.209793	13694.838868
622.557176	13647.590653
622.904506	13549.570458
623.251783	13548.292525
623.599007	13476.151093
623.946179	13479.077483
624.293297	13500.983817
624.640363	13379.244993
624.987376	13416.816712
625.334336	13322.584944
625.681243	13260.543464
626.028097	13310.995332
626.374899	13346.001104
626.721647	13253.405190
627.068343	13167.108198
627.414987	13169.845544
627.761577	13206.918190
628.108115	13296.827169
628.454600	13087.163060
628.801032	13194.322867
629.147412	13184.721989
629.493739	13247.824633
629.840014	13152.040189
630.186236	13251.746650
630.532405	13111.385804
630.878521	13296.018063
631.224585	13242.627203
631.570597	13156.098318
631.916556	13190.499152
632.262462	13205.993138
632.608316	13191.804811
632.954117	13164.673321
633.299866	13211.349364
633.645562	13187.373636
633.991206	13006.454187
634.336797	12920.830188
634.682336	12955.520889
635.027823	12887.298954
635.373257	12848.265299
635.718639	12763.641970
636.063968	12758.910847
636.409245	12598.082916
636.754470	12644.373312
637.099642	12544.034185
637.444762	12371.089841
637.789829	12457.853140
638.134845	12339.292763
638.479808	12382.437478
638.824719	12375.422713
639.169577	12267.973039
639.514383	12341.044564
639.859137	12196.265146
640.203839	12301.327833
640.548489	12182.316273
640.893086	12199.831762
641.237632	12097.942482
641.582125	12268.139397
641.926566	12148.628763
642.270955	12175.425016
642.615292	12161.342553
