Dividing Wavelength (nm)	Counts (n)	Blue Motor Position (mm): 0.000000	Red Motor Position (mm): 19.000000	
326.493990	2144.983235
326.888308	2144.983235
327.282561	2144.983235
327.676750	2121.675460
328.070874	2123.570934
328.464933	2124.521192
328.858929	2135.551236
329.252859	2148.126395
329.646726	2162.629794
330.040528	2176.818122
330.434265	2195.082222
330.827938	2214.654502
331.221547	2232.089333
331.615091	2253.355440
332.008571	2273.497370
332.401986	2290.284413
332.795338	2314.340799
333.188625	2334.702019
333.581847	2352.477128
333.975006	2373.728112
334.368100	2391.745195
334.761129	2408.683472
335.154095	2424.172417
335.546996	2438.101126
335.939833	2454.227777
336.332606	2465.898048
336.725315	2478.768114
337.117960	2488.273209
337.510540	2493.705052
337.903056	2503.613440
338.295508	2512.619462
338.687896	2519.382170
339.080220	2526.008766
339.472480	2533.094108
339.864676	2534.520755
340.256807	2537.457227
340.648875	2542.886549
341.040879	2545.581046
341.432818	2543.884698
341.824694	2547.652960
342.216506	2544.275387
342.608253	2545.956612
342.999937	2542.780685
343.391557	2543.400747
343.783113	2542.170706
344.174605	2541.837989
344.566033	2537.941178
344.957397	2537.222813
345.348697	2535.362627
345.739934	2534.351876
346.131106	2533.981351
346.522215	2530.913809
346.913260	2525.933149
347.304241	2526.507841
347.695159	2523.957017
348.086012	2523.306708
348.476802	2521.368384
348.867528	2520.849145
349.258191	2521.446522
349.648789	2519.281347
350.039324	2519.185565
350.429796	2521.063394
350.820203	2513.978053
351.210548	2515.087107
351.600828	2514.177178
351.991045	2515.014010
352.381198	2512.727847
352.771288	2512.611900
353.161314	2512.516118
353.551276	2513.128618
353.941175	2510.804646
354.331010	2511.018895
354.720782	2512.843793
355.110490	2516.022241
355.500135	2512.989987
355.889717	2513.143742
356.279235	2513.448732
356.668689	2516.352436
357.058080	2517.776562
357.447408	2512.569050
357.836672	2514.729185
358.225873	2510.978566
358.615010	2513.912518
359.004084	2518.792355
359.393095	2517.229597
359.782043	2519.482993
360.170927	2516.004597
360.559748	2517.882426
360.948505	2521.247397
361.337199	2521.396111
361.725830	2522.127078
362.114398	2522.474918
362.502903	2521.386028
362.891344	2523.752850
363.279722	2521.360823
363.668037	2526.656555
364.056289	2523.243693
364.444478	2523.916688
364.832603	2523.800741
365.220665	2524.070443
365.608665	2526.470032
365.996601	2522.505164
366.384474	2526.500279
366.772284	2528.196627
367.160031	2528.584796
367.547715	2527.574045
367.935336	2525.093797
368.322893	2522.462315
368.710388	2526.036493
369.097820	2528.962883
369.485189	2527.800897
369.872495	2527.516071
370.259738	2529.409025
370.646918	2529.719056
371.034035	2531.097811
371.421090	2530.318953
371.808081	2533.310878
372.195010	2534.513193
372.581875	2529.928263
372.968678	2533.714170
373.355418	2536.393543
373.742096	2534.036804
374.128710	2536.564943
374.515262	2536.123842
374.901751	2534.419932
375.288177	2538.641898
375.674540	2541.235572
376.060841	2540.217258
376.447079	2543.753628
376.833254	2545.845707
377.219367	2542.616848
377.605417	2546.647250
377.991404	2545.540717
378.377329	2550.271840
378.763191	2551.643034
379.148991	2560.349106
379.534727	2564.371947
379.920402	2566.549726
380.306013	2572.644481
380.691563	2576.017012
381.077049	2579.107240
381.462474	2582.552868
381.847835	2587.392376
382.233134	2594.354210
382.618371	2599.473501
383.003545	2607.015067
383.388657	2611.262240
383.773706	2618.551748
384.158693	2622.196502
384.543618	2632.727473
384.928480	2637.960190
385.313280	2645.458907
385.698017	2653.129022
386.082692	2660.030362
386.467305	2665.265600
386.851856	2674.506035
387.236344	2687.272757
387.620770	2691.671164
388.005133	2703.722042
388.389435	2716.879454
388.773674	2719.117726
389.157851	2725.303222
389.541965	2740.764441
389.926018	2739.925089
390.310008	2755.845052
390.693936	2762.146495
391.077802	2772.042280
391.461606	2782.270781
391.845348	2791.170938
392.229027	2801.533030
392.612645	2813.374700
392.996200	2822.854590
393.379694	2836.445541
393.763125	2849.761749
394.146494	2860.688450
394.529801	2872.671272
394.913047	2891.333624
395.296230	2891.593243
395.679351	2895.719428
396.062410	2912.183836
396.445408	2910.069072
396.828343	2922.185485
397.211217	2929.331321
397.594028	2925.356371
397.976778	2937.349276
398.359466	2952.697069
398.742092	2949.495936
399.124656	2968.622074
399.507158	2979.896615
399.889598	2984.705875
400.271977	2997.422186
400.654294	3005.339318
401.036549	3016.046729
401.418742	3025.287164
401.800874	3046.901111
402.182944	3050.311452
402.564952	3080.427305
402.946898	3070.718042
403.328783	3080.823035
403.710606	3094.141764
404.092367	3117.782255
404.474067	3146.214362
404.855705	3134.856643
405.237282	3136.802528
405.618797	3165.761436
406.000250	3188.587781
406.381642	3219.275805
406.762972	3223.263358
407.144240	3210.340360
407.525447	3235.183166
407.906593	3235.657034
408.287677	3254.843666
408.668700	3276.175308
409.049661	3271.779422
409.430560	3288.737864
409.811399	3292.813637
410.192176	3314.082265
410.572891	3318.490754
410.953545	3360.039944
411.334138	3328.192454
411.714669	3379.506359
412.095139	3322.853873
412.475547	3374.790360
412.855894	3367.145450
413.236180	3395.552352
413.616405	3375.344887
413.996568	3397.175604
414.376670	3400.588465
414.756711	3400.354051
415.136691	3417.320054
415.516609	3443.803756
415.896466	3449.139818
416.276262	3473.770895
416.655997	3502.134947
417.035670	3506.961852
417.415283	3572.506934
417.794834	3594.410748
418.174324	3574.820824
418.553753	3573.046338
418.933121	3612.500928
419.312428	3600.485338
419.691674	3592.563165
420.070859	3630.828043
420.449983	3605.042541
420.829045	3651.068276
421.208047	3631.223774
421.586988	3671.144671
421.965867	3696.209288
422.344686	3697.267930
422.723444	3726.733475
423.102141	3631.233856
423.480777	3720.800037
423.859352	3685.096064
424.237866	3765.023559
424.616319	3741.347780
424.994712	3791.240079
425.373044	3770.092439
425.751314	3821.335768
426.129524	3748.090323
426.507673	3829.946058
426.885762	3797.894402
427.263789	3802.938077
427.641756	3791.456849
428.019662	3808.024601
428.397508	3796.329124
428.775292	3816.526507
429.153016	3803.532933
429.530679	3801.889517
429.908282	3790.471303
430.285824	3758.162548
430.663305	3797.319711
431.040726	3749.494284
431.418086	3726.415882
431.795385	3764.325359
432.172624	3772.736524
432.549802	3728.591140
432.926920	3720.316086
433.303977	3698.434957
433.680974	3704.454095
434.057910	3700.010318
434.434786	3680.453162
434.811601	3658.793844
435.188355	3701.487376
435.565050	3663.043537
435.941683	3637.918426
436.318257	3665.193589
436.694770	3643.982934
437.071222	3650.521311
437.447614	3589.049481
437.823946	3567.332190
438.200218	3554.555386
438.576429	3519.022813
438.952580	3507.970083
439.328670	3483.011330
439.704700	3480.198366
440.080670	3438.182870
440.456580	3436.683126
440.832429	3429.005449
441.208218	3361.698483
441.583947	3358.089017
441.959616	3337.531192
442.335224	3322.972340
442.710773	3305.076243
443.086261	3302.739669
443.461689	3258.017072
443.837057	3237.915471
444.212365	3236.652662
444.587612	3212.054352
444.962800	3179.491019
445.337927	3165.743792
445.712995	3111.841255
446.088002	3140.517858
446.462949	3121.374077
446.837837	3106.686675
447.212664	3076.618713
447.587431	3104.670213
447.962139	3141.745379
448.336786	3186.848583
448.711374	3164.246570
449.085901	3070.561767
449.460369	3028.286650
449.834776	2993.817761
450.209124	3009.838548
450.583412	2991.617297
450.957640	2985.260402
451.331808	2945.841100
451.705917	2902.933319
452.079965	2885.256513
452.453954	2871.489122
452.827883	2850.633868
453.201752	2834.824810
453.575562	2820.187820
453.949311	2815.605411
454.323001	2806.022177
454.696632	2790.805454
455.070202	2788.602470
455.443713	2776.554112
455.817164	2766.491969
456.190556	2757.811102
456.563888	2744.429360
456.937160	2737.225551
457.310373	2721.479507
457.683526	2711.276211
458.056619	2701.088039
458.429653	2691.731658
458.802628	2685.664629
459.175542	2676.058711
459.548398	2676.635923
459.921194	2675.748680
460.293930	2672.590397
460.666607	2671.519152
461.039224	2671.234326
461.411782	2668.297854
461.784280	2662.553459
462.156719	2656.559527
462.529099	2648.745739
462.901419	2639.979172
463.273680	2630.748820
463.645882	2629.775877
464.018024	2624.338993
464.390106	2622.156173
464.762130	2622.541821
465.134094	2624.699435
465.505999	2632.793008
465.877845	2640.448000
466.249631	2641.148720
466.621358	2635.283338
466.993026	2631.983902
467.364634	2628.966772
467.736184	2623.529887
468.107674	2616.560492
468.479105	2612.169647
468.850477	2609.573453
469.221790	2608.633278
469.593043	2605.401898
469.964238	2602.104984
470.335373	2602.218410
470.706449	2603.607247
471.077467	2605.480036
471.448425	2608.358535
471.819324	2610.889194
472.190164	2613.513115
472.560945	2607.252002
472.931667	2603.110694
473.302330	2601.434510
473.672934	2599.576845
474.043479	2599.954932
474.413965	2599.395363
474.784393	2592.922522
475.154761	2594.162646
475.525070	2598.298912
475.895321	2593.025866
476.265513	2593.136771
476.635645	2600.383430
477.005719	2599.221444
477.375734	2598.903851
477.745691	2598.470312
478.115588	2603.072885
478.485427	2598.712287
478.855207	2606.861312
479.224928	2605.245623
479.594591	2607.451127
479.964194	2608.567743
480.333739	2609.218052
480.703226	2609.772579
481.072653	2606.715119
481.442022	2608.398864
481.811333	2611.163937
482.180584	2608.504728
482.549777	2609.868361
482.918912	2606.170674
483.287988	2609.291148
483.657005	2607.811570
484.025964	2608.350973
484.394864	2605.855602
484.763706	2607.413319
485.132489	2605.162443
485.501213	2606.180757
485.869879	2605.840479
486.238487	2603.403081
486.607036	2605.570777
486.975527	2604.000457
487.343959	2603.917278
487.712333	2604.171857
488.080648	2605.628750
488.448905	2604.507093
488.817104	2602.246136
489.185244	2603.143461
489.553326	2610.705192
489.921350	2608.953391
490.289315	2611.035388
490.657222	2612.701489
491.025070	2616.603342
491.392861	2611.393310
491.760593	2611.307610
492.128267	2608.371138
492.495883	2607.947681
492.863440	2607.405757
493.230939	2603.738317
493.598380	2602.069696
493.965763	2601.431990
494.333088	2599.723038
494.700354	2601.759665
495.067563	2597.923347
495.434713	2596.859663
495.801805	2601.026177
496.168839	2601.053903
496.535815	2601.386619
496.902733	2597.777153
497.269593	2600.131372
497.636395	2599.811259
498.003139	2598.213213
498.369825	2599.730600
498.736453	2599.208841
499.103023	2599.513831
499.469535	2596.728593
499.835989	2599.221444
500.202385	2599.828903
500.568723	2598.016608
500.935003	2601.200097
501.301226	2597.071392
501.667390	2598.472832
502.033497	2598.341762
502.399546	2598.661876
502.765537	2597.608274
503.131470	2598.397215
503.497345	2599.007195
503.863163	2599.957452
504.228923	2599.501228
504.594625	2598.392174
504.960269	2599.120621
505.325856	2600.746393
505.691385	2597.915785
506.056856	2600.527102
506.422270	2600.143975
506.787625	2597.940991
507.152924	2598.109869
507.518164	2597.336052
507.883347	2597.451999
508.248472	2599.312184
508.613540	2596.786566
508.978550	2596.862184
509.343503	2598.770260
509.708398	2601.374016
510.073236	2599.481063
510.438016	2599.957452
510.802738	2598.359406
511.167403	2595.942173
511.532010	2597.825044
511.896561	2598.402256
512.261053	2602.273862
512.625488	2597.595672
512.989866	2595.327152
513.354186	2595.916967
513.718449	2595.778336
514.082655	2596.184148
514.446803	2598.581217
514.810894	2598.230857
515.174927	2601.000971
515.538904	2599.007195
515.902822	2599.047524
516.266684	2598.369489
516.630488	2596.355548
516.994235	2597.202462
517.357925	2599.745724
517.721558	2598.765219
518.085133	2598.813110
518.448651	2602.780498
518.812112	2599.042483
519.175516	2602.717484
519.538863	2600.615323
519.902152	2599.266814
520.265385	2601.482401
520.628560	2602.079778
520.991678	2597.212544
521.354739	2599.304623
521.717743	2599.523913
522.080690	2598.029211
522.443580	2600.638008
522.806413	2598.530806
523.169189	2598.868563
523.531908	2599.433172
523.894569	2598.281268
524.257174	2597.217585
524.619722	2600.484253
524.982213	2601.386619
525.344647	2599.037442
525.707025	2599.889397
526.069345	2597.043665
526.431608	2600.539705
526.793815	2598.714808
527.155964	2599.786053
527.518057	2597.028542
527.880093	2598.213213
528.242072	2598.820672
528.603995	2598.737493
528.965860	2597.774632
529.327669	2598.009046
529.689421	2598.084663
530.051117	2597.177256
530.412755	2597.376381
530.774337	2597.071392
531.135862	2596.388315
531.497331	2597.162132
531.858743	2594.795311
532.220098	2592.330186
532.581396	2596.070722
532.942638	2594.697008
533.303824	2597.706577
533.664953	2595.624580
534.026025	2598.203131
534.387040	2596.829416
534.747999	2596.617688
535.108902	2597.126844
535.469748	2596.615167
535.830537	2601.011053
536.191270	2597.482246
536.551947	2597.570466
536.912567	2598.810590
537.273131	2596.940322
537.633638	2597.588110
537.994089	2597.825044
538.354483	2597.900661
538.714821	2599.128182
539.075103	2597.971237
539.435328	2599.755806
539.795497	2597.341093
540.155609	2597.736824
540.515665	2597.557863
540.875665	2598.001484
541.235609	2596.847060
541.595496	2597.169694
541.955328	2596.937801
542.315102	2596.244642
542.674821	2596.194231
543.034483	2597.411669
543.394090	2595.662389
543.753640	2596.650455
544.113134	2599.387802
544.472571	2594.049220
544.831953	2598.722369
545.191278	2594.669282
545.550548	2593.161977
545.909761	2599.216402
546.268918	2597.300764
546.628019	2597.956114
546.987064	2595.901844
547.346053	2596.970568
547.704986	2595.445619
548.063863	2598.616505
548.422684	2596.259766
548.781449	2596.940322
549.140158	2595.259097
549.498811	2597.273038
549.857408	2595.579210
550.215949	2591.639548
550.574434	2594.235742
550.932864	2592.826740
551.291237	2594.780187
551.649555	2594.351689
552.007817	2593.986205
552.366022	2597.605754
552.724173	2596.567276
553.082267	2596.703387
553.440305	2593.940835
553.798288	2596.189190
554.156215	2598.881166
554.514086	2596.663058
554.871902	2596.106011
555.229661	2599.266814
555.587365	2597.540219
555.945014	2597.532657
556.302606	2594.868407
556.660143	2594.765064
557.017625	2597.857812
557.375050	2593.713983
557.732421	2595.362440
558.089735	2594.303798
558.446994	2593.499734
558.804197	2598.704725
559.161345	2594.807913
559.518437	2597.343614
559.875474	2599.637339
560.232455	2596.922677
560.589381	2596.650455
560.946251	2601.300920
561.303065	2594.616350
561.659825	2594.969230
562.016528	2597.449478
562.373177	2595.186000
562.729770	2594.628952
563.086307	2596.600044
563.442789	2595.417893
563.799216	2599.460898
564.155587	2596.000146
564.511904	2595.919488
564.868164	2595.128027
565.224370	2599.274376
565.580520	2594.830599
565.936615	2599.617174
566.292654	2597.522575
566.648638	2596.037955
567.004567	2596.426124
567.360441	2595.440578
567.716260	2595.579210
568.072023	2597.986361
568.427732	2592.536874
568.783385	2593.340938
569.138982	2593.434199
569.494525	2594.230701
569.850013	2591.536205
570.205445	2595.120465
570.560823	2594.926381
570.916145	2597.930908
571.271412	2593.310691
571.626625	2596.297574
571.981782	2597.756988
572.336884	2595.601895
572.691931	2595.904364
573.046923	2596.791608
573.401860	2597.661207
573.756743	2596.060640
574.111570	2596.141299
574.466342	2595.092739
574.821059	2595.256576
575.175722	2595.261617
575.530330	2595.382605
575.884882	2598.041814
576.239380	2592.428489
576.593823	2594.364292
576.948211	2594.641555
577.302544	2592.786411
577.656823	2595.458222
578.011047	2597.961155
578.365216	2593.260279
578.719330	2594.598706
579.073389	2594.359251
579.427394	2591.173242
579.781344	2594.301277
580.135239	2594.155084
580.489080	2595.412852
580.842866	2594.518047
581.196597	2595.793459
581.550273	2591.243818
581.903895	2592.988057
582.257463	2595.354879
582.610975	2595.178438
582.964434	2595.032245
583.317837	2592.844384
583.671186	2592.541915
584.024481	2596.637852
584.377721	2596.577358
584.730906	2593.978644
585.084037	2596.143819
585.437113	2594.122317
585.790135	2591.160639
586.143103	2593.023345
586.496016	2596.307657
586.848874	2589.839856
587.201679	2591.168200
587.554428	2590.452357
587.907124	2592.032758
588.259765	2589.292891
588.612352	2593.663572
588.964884	2593.159456
589.317362	2593.673654
589.669786	2593.131730
590.022155	2594.762543
590.374470	2592.632656
590.726731	2591.931935
591.078937	2591.057295
591.431090	2591.384970
591.783188	2591.821030
592.135232	2592.123499
592.487222	2590.714497
592.839157	2593.482090
593.191038	2591.178283
593.542866	2593.638366
593.894639	2589.791965
594.246358	2594.860846
594.598022	2588.990422
594.949633	2591.319435
595.301190	2593.474528
595.652692	2589.776842
596.004141	2590.865731
596.355535	2592.468818
596.706876	2589.587799
597.058162	2593.643407
597.409395	2590.706935
597.760573	2590.598550
598.111698	2589.618046
598.462768	2594.339086
598.813785	2591.117789
599.164748	2591.069898
599.515657	2589.348344
599.866511	2589.013107
600.217312	2594.429827
600.568060	2590.908581
600.918753	2592.375557
601.269392	2591.546287
601.619978	2591.773139
601.970510	2593.257759
602.320988	2592.191555
602.671412	2592.630135
603.021783	2592.287337
603.372100	2589.731472
603.722363	2587.205853
604.072572	2590.424630
604.422728	2593.308170
604.772830	2586.762232
605.122878	2585.882551
605.472872	2588.524115
605.822813	2589.537387
606.172701	2589.774321
606.522534	2589.701225
606.872314	2589.040833
607.222041	2589.983529
607.571714	2591.644589
607.921333	2592.057964
608.270899	2590.283478
608.620411	2590.351533
608.969870	2592.625094
609.319276	2590.742223
609.668627	2591.944538
610.017926	2592.690629
610.367171	2591.142995
610.716362	2592.793973
611.065500	2586.278281
611.414585	2589.595360
611.763616	2590.787593
612.112594	2589.880186
612.461518	2590.049064
612.810389	2592.201637
613.159207	2590.724579
613.507971	2594.170207
613.856682	2590.568303
614.205340	2588.191399
614.553945	2590.883375
614.902496	2590.575865
615.250994	2591.347161
615.599439	2592.189034
615.947830	2590.545618
616.296169	2590.535536
616.644454	2588.483786
616.992686	2588.294743
617.340864	2591.082501
617.688990	2593.174580
618.037063	2591.054774
618.385082	2591.059816
618.733048	2593.219950
619.080961	2593.865218
619.428821	2591.994950
619.776628	2590.459918
620.124382	2591.500917
620.472083	2590.439754
620.819731	2591.306832
621.167326	2591.079980
621.514868	2589.867583
621.862357	2589.991091
622.209793	2591.788262
622.557176	2592.007552
622.904506	2586.777355
623.251783	2589.434043
623.599007	2586.101841
623.946179	2588.420772
624.293297	2584.977663
624.640363	2590.550659
624.987376	2589.028231
625.334336	2588.952613
625.681243	2588.388004
626.028097	2586.794999
626.374899	2589.993612
626.721647	2588.766091
627.068343	2590.384301
627.414987	2589.486976
627.761577	2591.425299
628.108115	2589.703745
628.454600	2588.839187
628.801032	2587.904053
629.147412	2588.282140
629.493739	2588.798858
629.840014	2587.369691
630.186236	2588.246852
630.532405	2590.021338
630.878521	2584.332396
631.224585	2587.778024
631.570597	2588.229208
631.916556	2591.465628
632.262462	2587.072263
632.608316	2590.091914
632.954117	2587.833477
633.299866	2585.396079
633.645562	2586.721903
633.991206	2587.813312
634.336797	2584.644947
634.682336	2587.775504
635.027823	2585.882551
635.373257	2586.361460
635.718639	2585.678384
636.063968	2586.139649
636.409245	2586.613518
636.754470	2587.150401
637.099642	2586.127047
637.444762	2587.125195
637.789829	2586.328693
638.134845	2587.662078
638.479808	2585.877509
638.824719	2586.001018
639.169577	2583.145204
639.514383	2586.046388
639.859137	2585.038157
640.203839	2586.729464
640.548489	2584.113106
640.893086	2583.800554
641.237632	2581.582446
641.582125	2581.998342
641.926566	2582.573033
642.270955	2582.951120
642.615292	2583.954309
642.959576	2585.620411
643.303809	2583.823239
643.647990	2584.665112
643.992118	2586.616038
644.336195	2585.789289
