Dividing Wavelength (nm)	Counts (n)	Blue Motor Position (mm): 0.000000	Red Motor Position (mm): 36.000000	
326.493990	2140.312606
326.888308	2140.312606
327.282561	2140.312606
327.676750	2114.998452
328.070874	2118.101282
328.464933	2124.322066
328.858929	2132.425721
329.252859	2143.032309
329.646726	2156.509833
330.040528	2172.626402
330.434265	2189.040399
330.827938	2209.290714
331.221547	2231.146637
331.615091	2249.360326
332.008571	2270.001330
332.401986	2289.238373
332.795338	2308.568678
333.188625	2327.571307
333.581847	2349.833042
333.975006	2367.824920
334.368100	2386.101624
334.761129	2404.973183
335.154095	2419.942889
335.546996	2438.932916
335.939833	2457.388580
336.332606	2471.604634
336.725315	2484.323465
337.117960	2490.027531
337.510540	2499.252842
337.903056	2509.065448
338.295508	2516.367560
338.687896	2523.906605
339.080220	2529.174611
339.472480	2536.421270
339.864676	2540.265149
340.256807	2541.444779
340.648875	2544.814791
341.040879	2548.739329
341.432818	2546.932075
341.824694	2550.823846
342.216506	2549.356870
342.608253	2547.947868
342.999937	2546.248999
343.391557	2546.982487
343.783113	2544.408978
344.174605	2543.559543
344.566033	2541.999306
344.957397	2539.592155
345.348697	2537.737011
345.739934	2542.110212
346.131106	2535.869263
346.522215	2535.155940
346.913260	2534.021680
347.304241	2530.157636
347.695159	2530.094622
348.086012	2527.407687
348.476802	2527.140505
348.867528	2525.497089
349.258191	2524.851822
349.648789	2522.190092
350.039324	2524.340144
350.429796	2524.236801
350.820203	2519.102386
351.210548	2519.692201
351.600828	2516.652385
351.991045	2521.514578
352.381198	2519.029289
352.771288	2517.640451
353.161314	2517.423681
353.551276	2516.102899
353.941175	2517.189268
354.331010	2518.580626
354.720782	2519.394772
355.110490	2518.671367
355.500135	2517.937879
355.889717	2516.423012
356.279235	2517.698424
356.668689	2518.686490
357.058080	2521.990967
357.447408	2515.268588
357.836672	2516.049967
358.225873	2519.351923
358.615010	2514.676252
359.004084	2521.499454
359.393095	2520.080369
359.782043	2522.517767
360.170927	2522.767304
360.559748	2525.353416
360.948505	2525.575227
361.337199	2524.796369
361.725830	2525.489527
362.114398	2526.366688
362.502903	2526.109589
362.891344	2526.643952
363.279722	2524.635052
363.668037	2528.284847
364.056289	2527.652182
364.444478	2530.676875
364.832603	2531.022194
365.220665	2527.889117
365.608665	2531.493542
365.996601	2531.717873
366.384474	2529.857687
366.772284	2531.740558
367.160031	2530.339118
367.547715	2531.294416
367.935336	2530.878521
368.322893	2533.525127
368.710388	2533.167205
369.097820	2535.710467
369.485189	2532.577390
369.872495	2531.982534
370.259738	2535.634850
370.646918	2533.527647
371.034035	2535.536547
371.421090	2536.759027
371.808081	2534.906403
372.195010	2536.847247
372.581875	2534.450178
372.968678	2539.428318
373.355418	2536.930426
373.742096	2539.597197
374.128710	2539.813966
374.515262	2542.919317
374.901751	2541.238092
375.288177	2543.267157
375.674540	2545.886036
376.060841	2545.389482
376.447079	2551.030533
376.833254	2549.548434
377.219367	2548.562889
377.605417	2552.086655
377.991404	2554.866852
378.377329	2556.666543
378.763191	2558.224260
379.148991	2563.051165
379.534727	2569.259346
379.920402	2572.803277
380.306013	2575.160016
380.691563	2579.815522
381.077049	2582.981367
381.462474	2589.600402
381.847835	2593.862697
382.233134	2599.092894
382.618371	2602.851074
383.003545	2609.442383
383.388657	2615.348095
383.773706	2625.130454
384.158693	2630.234622
384.543618	2635.653862
384.928480	2640.722743
385.313280	2646.885553
385.698017	2655.027017
386.082692	2667.488749
386.467305	2672.053514
386.851856	2681.235976
387.236344	2693.647296
387.620770	2697.816331
388.005133	2706.736652
388.389435	2715.518342
388.773674	2724.587378
389.157851	2732.265055
389.541965	2742.549009
389.926018	2747.461614
390.310008	2760.119951
390.693936	2767.578338
391.077802	2778.681479
391.461606	2788.804116
391.845348	2793.371402
392.229027	2805.938998
392.612645	2819.484579
392.996200	2830.623008
393.379694	2841.199349
393.763125	2858.072091
394.146494	2864.534850
394.529801	2877.760317
394.913047	2895.817730
395.296230	2895.719428
395.679351	2901.431055
396.062410	2921.749426
396.445408	2914.832963
396.828343	2924.794283
397.211217	2937.916406
397.594028	2929.449788
397.976778	2946.100719
398.359466	2956.387194
398.742092	2956.266206
399.124656	2969.073257
399.507158	2982.442397
399.889598	2988.179230
400.271977	3001.813031
400.654294	3010.814011
401.036549	3020.588808
401.418742	3026.907895
401.800874	3049.784651
402.182944	3057.790003
402.564952	3083.588108
402.946898	3078.640216
403.328783	3087.154724
403.710606	3102.890686
404.092367	3124.912967
404.474067	3151.527738
404.855705	3141.276552
405.237282	3141.367293
405.618797	3174.626305
406.000250	3194.904347
406.381642	3225.156311
406.762972	3227.956672
407.144240	3219.822770
407.525447	3244.446286
407.906593	3240.385637
408.287677	3263.030500
408.668700	3280.593880
409.049661	3281.034981
409.430560	3294.953607
409.811399	3299.999802
410.192176	3321.074345
410.572891	3324.895540
410.953545	3365.890203
411.334138	3334.481294
411.714669	3386.193450
412.095139	3332.968948
412.475547	3379.881925
412.855894	3374.500494
413.236180	3406.965524
413.616405	3382.790671
413.996568	3409.176070
414.376670	3411.666400
414.756711	3405.299423
415.136691	3432.047785
415.516609	3458.060139
415.896466	3462.221612
416.276262	3489.761435
416.655997	3518.891743
417.035670	3526.748381
417.415283	3591.900253
417.794834	3614.277935
418.174324	3594.793876
418.553753	3597.435440
418.933121	3641.827841
419.312428	3633.383908
419.691674	3627.657157
420.070859	3662.768794
420.449983	3645.316319
420.829045	3693.759287
421.208047	3678.648429
421.586988	3726.877148
421.965867	3757.973505
422.344686	3764.045575
422.723444	3803.941266
423.102141	3706.689847
423.480777	3809.423521
423.859352	3774.216103
424.237866	3874.310733
424.616319	3860.472766
424.994712	3921.241355
425.373044	3907.181577
425.751314	3969.984271
426.129524	3905.812903
426.507673	4006.920805
426.885762	3985.213597
427.263789	4007.510620
427.641756	4006.487266
428.019662	4040.157133
428.397508	4041.770302
428.775292	4082.628854
429.153016	4084.985593
429.530679	4100.847584
429.908282	4108.142133
430.285824	4084.448710
430.663305	4159.037623
431.040726	4117.009523
431.418086	4107.365796
431.795385	4184.513094
432.172624	4217.204976
432.549802	4182.985624
432.926920	4198.320814
433.303977	4196.705124
433.680974	4236.119386
434.057910	4260.074949
434.434786	4267.797996
434.811601	4260.858848
435.188355	4365.704766
435.565050	4337.134026
435.941683	4332.231504
436.318257	4419.675359
436.694770	4425.089558
437.071222	4479.226509
437.447614	4415.821397
437.823946	4420.471861
438.200218	4440.636477
438.576429	4421.437242
438.952580	4448.097384
439.328670	4450.063434
439.704700	4492.993900
440.080670	4456.926965
440.456580	4518.696223
440.832429	4554.246440
441.208218	4456.173313
441.583947	4505.322042
441.959616	4522.555227
442.335224	4550.634453
442.710773	4570.599943
443.086261	4628.542966
443.461689	4578.010439
443.837057	4592.128191
444.212365	4661.368439
444.587612	4667.594264
444.962800	4635.444305
445.337927	4675.917209
445.712995	4563.819591
446.088002	4754.206328
446.462949	4778.232467
446.837837	4794.273419
447.212664	4784.659938
447.587431	5004.882744
447.962139	5301.436181
448.336786	5639.783304
448.711374	5626.731756
449.085901	5275.514568
449.460369	5210.554259
449.834776	5146.105628
450.209124	5380.904930
450.583412	5389.300972
450.957640	5517.169839
451.331808	5378.021390
451.705917	5225.914655
452.079965	5216.830496
452.453954	5255.692751
452.827883	5221.281835
453.201752	5230.391200
453.575562	5256.022947
453.949311	5391.995469
454.323001	5396.371190
454.696632	5391.478750
455.070202	5541.274116
455.443713	5574.921298
455.817164	5665.994783
456.190556	5737.480865
456.563888	5714.135282
456.937160	5790.367610
457.310373	5632.582015
457.683526	5691.971849
458.056619	5680.641856
458.429653	5659.753835
458.802628	5712.083532
459.175542	5738.405917
459.548398	5879.780035
459.921194	6057.861316
460.293930	6125.498477
460.666607	6374.654985
461.039224	6587.880669
461.411782	6717.534105
461.784280	6636.605942
462.156719	6641.589122
462.529099	6599.026660
462.901419	6455.893179
463.273680	6325.085319
463.645882	6311.910264
464.018024	6315.250028
464.390106	6379.444081
464.762130	6638.733309
465.134094	7025.132710
465.505999	7659.203999
465.877845	8362.792801
466.249631	8717.591729
466.621358	8651.471955
466.993026	8450.690359
467.364634	8234.172801
467.736184	7955.223074
468.107674	7800.999054
468.479105	7711.016979
468.850477	7644.960219
469.221790	7477.984601
469.593043	7257.333297
469.964238	7158.889645
470.335373	7127.148020
470.706449	7281.876155
471.077467	7461.444575
471.448425	8115.894729
471.819324	8704.527579
472.190164	8753.509950
472.560945	8271.782330
472.931667	7800.222717
473.302330	7603.216945
473.672934	7481.911660
474.043479	7555.096611
474.413965	7458.949204
474.784393	7405.361739
475.154761	7566.479536
475.525070	7579.059736
475.895321	7532.723970
476.265513	7627.273331
476.635645	7787.453474
477.005719	7769.955629
477.375734	7862.125565
477.745691	7970.583470
478.115588	8173.961260
478.485427	8412.170903
478.855207	8876.819094
479.224928	9311.036360
479.594591	9698.191934
479.964194	9709.264828
480.333739	9794.621645
480.703226	9784.693093
481.072653	9886.113546
481.442022	10001.848356
481.811333	10150.532148
482.180584	9999.441205
482.549777	9937.369478
482.918912	9874.818841
483.287988	9856.413588
483.657005	9766.212223
484.025964	9686.962764
484.394864	9742.571732
484.763706	9703.643942
485.132489	9617.387279
485.501213	9609.139951
485.869879	9673.076905
486.238487	9604.943191
486.607036	9676.005816
486.975527	9628.772725
487.343959	9684.532927
487.712333	9725.048681
488.080648	9770.043500
488.448905	9865.444816
488.817104	9868.310712
489.185244	10032.964878
489.553326	10247.158464
489.921350	10714.622140
490.289315	11340.012562
490.657222	11627.741459
491.025070	11807.206536
491.392861	11723.656973
491.760593	11568.046636
492.128267	11313.521299
492.495883	11081.451782
492.863440	10846.710453
493.230939	10620.145876
493.598380	10431.697463
493.965763	10409.561756
494.333088	10279.318505
494.700354	10210.312671
495.067563	10187.141007
495.434713	10190.309372
495.801805	10236.766126
496.168839	10191.562099
496.535815	10164.392800
496.902733	10202.592144
497.269593	10162.391462
497.636395	10168.634931
498.003139	10280.936716
498.369825	10205.153050
498.736453	10298.137132
499.103023	10239.344676
499.469535	10245.774667
499.835989	10296.776021
500.202385	10265.563717
500.568723	10286.986100
500.935003	10346.325522
501.301226	10313.152209
501.667390	10483.427263
502.033497	10581.432335
502.399546	10512.217292
502.765537	10421.685731
503.131470	10523.973263
503.497345	10613.204207
503.863163	10389.089630
504.228923	10521.230875
504.594625	10635.322269
504.960269	10543.437158
505.325856	10694.356701
505.691385	10563.448018
506.056856	10631.838832
506.422270	10733.697866
506.787625	10662.937710
507.152924	10727.885416
507.518164	10792.117277
507.883347	10656.021247
508.248472	10726.274767
508.613540	10840.366161
508.978550	10906.405276
509.343503	10889.144365
509.708398	10936.518609
510.073236	11059.114429
510.438016	11073.312839
510.802738	10998.756694
511.167403	11114.826741
511.532010	11181.311998
511.896561	11269.746440
512.261053	11473.388890
512.625488	11383.159798
512.989866	11363.907632
513.354186	11347.846516
513.718449	11352.862464
514.082655	11492.459575
514.446803	11445.375198
514.810894	11565.417674
515.174927	11552.598020
515.538904	11536.284846
515.902822	11697.493385
516.266684	11564.056563
516.630488	11666.404589
516.994235	11654.215079
517.357925	11762.645257
517.721558	11828.399547
518.085133	11885.193186
518.448651	11915.145202
518.812112	11873.827905
519.175516	11882.914585
519.538863	11968.336937
519.902152	11977.421096
520.265385	12078.483628
520.628560	12107.969337
520.991678	12049.590254
521.354739	12112.856735
521.717743	12173.413596
522.080690	12149.011891
522.443580	12272.363884
522.806413	12285.009618
523.169189	12284.800411
523.531908	12335.776558
523.894569	12295.427163
524.257174	12306.913432
524.619722	12405.601580
524.982213	12385.741955
525.344647	12370.666384
525.707025	12380.557128
526.069345	12486.224754
526.431608	12467.690952
526.793815	12546.184238
527.155964	12436.481168
527.518057	12470.647588
527.880093	12420.341914
528.242072	12526.276721
528.603995	12449.797376
528.965860	12459.221813
529.327669	12487.999240
529.689421	12436.546703
530.051117	12447.939711
530.412755	12490.270280
530.774337	12487.205258
531.135862	12438.548041
531.497331	12492.639622
531.858743	12450.639249
532.220098	12537.962116
532.581396	12458.047224
532.942638	12373.837270
533.303824	12435.959409
533.664953	12415.530133
534.026025	12371.851055
534.387040	12459.310033
534.747999	12431.460179
535.108902	12476.298722
535.469748	12353.072757
535.830537	12367.593801
536.191270	12399.481619
536.551947	12326.780619
536.912567	12380.093342
537.273131	12412.651634
537.633638	12297.816670
537.994089	12342.539266
538.354483	12257.769744
538.714821	12362.461906
539.075103	12444.930142
539.435328	12365.597504
539.795497	12342.269564
540.155609	12335.227072
540.515665	12413.901840
540.875665	12281.989967
541.235609	12362.613141
541.595496	12320.479177
541.955328	12455.451030
542.315102	12325.328767
542.674821	12245.587795
543.034483	12248.068043
543.394090	12242.185017
543.753640	12205.954244
544.113134	12420.178077
544.472571	12194.220958
544.831953	12439.952003
545.191278	12259.972728
545.550548	12194.069724
545.909761	12272.908329
546.268918	12301.809264
546.628019	12349.145698
546.987064	12239.856003
547.346053	12094.209507
547.704986	12260.255032
548.063863	12132.809622
548.422684	12173.408555
548.781449	12121.159516
549.140158	12191.922192
549.498811	12132.197122
549.857408	12003.945127
550.215949	12162.882625
550.574434	12114.966458
550.932864	12043.578678
551.291237	12205.843338
551.649555	12091.086512
552.007817	12127.216462
552.366022	12038.333358
552.724173	12045.678319
553.082267	12106.948503
553.440305	12168.125425
553.798288	11997.099240
554.156215	12034.413861
554.514086	12062.407388
554.871902	11982.694143
555.229661	11974.696352
555.587365	11916.229050
555.945014	11901.571895
556.302606	11862.991945
556.660143	11891.986141
557.017625	11895.782130
557.375050	11842.174500
557.732421	11892.528065
558.089735	11865.331040
558.446994	11821.223465
558.804197	11899.068962
559.161345	11857.776871
559.518437	11670.981957
559.875474	11725.854916
560.232455	11726.164947
560.589381	11733.565361
560.946251	11652.427990
561.303065	11772.891402
561.659825	11695.267715
562.016528	11584.750499
562.373177	11505.168324
562.729770	11581.246897
563.086307	11449.534150
563.442789	11506.776452
563.799216	11503.398879
564.155587	11421.840572
564.511904	11408.983109
564.868164	11385.680375
565.224370	11402.175031
565.580520	11317.276959
565.936615	11335.803199
566.292654	11244.228119
566.648638	11246.403377
567.004567	11219.503780
567.360441	11182.282420
567.716260	11118.138779
568.072023	11138.215174
568.427732	11078.230484
568.783385	10966.463062
569.138982	11011.402428
569.494525	10969.928856
569.850013	10883.720084
570.205445	10845.873621
570.560823	10812.659979
570.916145	10730.995807
571.271412	10696.048008
571.626625	10623.215938
571.981782	10576.928064
572.336884	10488.317182
572.691931	10511.408187
573.046923	10387.121060
573.401860	10326.523870
573.756743	10273.957238
574.111570	10250.226006
574.466342	10189.588487
574.821059	10180.050624
575.175722	10056.280215
575.530330	10020.666984
575.884882	9930.826060
576.239380	9872.608295
576.593823	9817.533689
576.948211	9766.789435
577.302544	9647.510694
577.656823	9600.784239
578.011047	9596.121171
578.365216	9508.397533
578.719330	9424.953834
579.073389	9363.618115
579.427394	9316.654726
579.781344	9262.757229
580.135239	9170.988065
580.489080	9129.958113
580.842866	9008.867078
581.196597	9022.780662
581.550273	8966.712949
581.903895	8899.257269
582.257463	8909.707581
582.610975	8768.502342
582.964434	8762.904140
583.317837	8667.449892
583.671186	8597.576979
584.024481	8578.791119
584.377721	8461.828788
584.730906	8449.364536
585.084037	8414.446983
585.437113	8314.949730
585.790135	8287.339330
586.143103	8179.430912
586.496016	8148.193402
586.848874	8100.494004
587.201679	8056.119247
587.554428	7935.766741
587.907124	7916.000376
588.259765	7833.436359
588.612352	7823.248187
588.964884	7702.114301
589.317362	7685.750716
589.669786	7635.029146
590.022155	7556.755150
590.374470	7563.074237
590.726731	7452.907381
591.078937	7349.634303
591.431090	7316.806310
591.783188	7243.331492
592.135232	7155.567524
592.487222	7142.722664
592.839157	7098.058041
593.191038	7024.852926
593.542866	6956.719211
593.894639	6846.101172
594.246358	6824.577966
594.598022	6778.642972
594.949633	6701.720005
595.301190	6654.123951
595.652692	6592.384940
596.004141	6582.073260
596.355535	6447.277847
596.706876	6395.157358
597.058162	6342.547876
597.409395	6339.934038
597.760573	6309.430016
598.111698	6224.347942
598.462768	6176.724162
598.813785	6144.117978
599.164748	6054.181273
599.515657	6036.524632
599.866511	5955.147806
600.217312	5956.871881
600.568060	5834.321431
600.918753	5854.793556
601.269392	5814.078677
601.619978	5738.809209
601.970510	5712.590168
602.320988	5692.493608
602.671412	5677.516340
603.021783	5612.505620
603.372100	5544.843253
603.722363	5512.249673
604.072572	5477.316997
604.422728	5447.690136
604.772830	5387.566815
605.122878	5350.088357
605.472872	5311.447913
605.822813	5286.723573
606.172701	5242.999126
606.522534	5220.626485
606.872314	5201.782652
607.222041	5143.343076
607.571714	5126.104850
607.921333	5058.838214
608.270899	5036.619328
608.620411	5020.117111
608.969870	4973.625070
609.319276	4935.040078
609.668627	4906.512189
610.017926	4891.534921
610.367171	4868.658164
610.716362	4837.518957
611.065500	4798.387000
611.414585	4770.486734
611.763616	4755.995938
612.112594	4719.729877
612.461518	4693.914128
612.810389	4677.928629
613.159207	4636.182834
613.507971	4604.968010
613.856682	4595.586422
614.205340	4559.451432
614.553945	4557.881112
614.902496	4504.540663
615.250994	4486.647088
615.599439	4460.274291
615.947830	4442.579841
616.296169	4405.310591
616.644454	4385.125811
616.992686	4360.073797
617.340864	4356.204711
617.688990	4309.430365
618.037063	4313.407836
618.385082	4282.903814
618.733048	4267.908902
619.080961	4238.299685
619.428821	4212.163823
619.776628	4194.880227
620.124382	4159.892098
620.472083	4133.942759
620.819731	4115.345942
621.167326	4072.475970
621.514868	4042.904562
621.862357	4002.081298
622.209793	3974.291937
622.557176	3937.143674
622.904506	3896.514495
623.251783	3861.241542
623.599007	3831.055112
623.946179	3798.799289
624.293297	3773.898510
624.640363	3734.327973
624.987376	3711.327708
625.334336	3681.022812
625.681243	3650.657422
626.028097	3628.453660
626.374899	3605.304681
626.721647	3585.530755
627.068343	3560.942527
627.414987	3535.333466
627.761577	3511.009899
628.108115	3500.383146
628.454600	3470.239567
628.801032	3456.938483
629.147412	3443.985238
629.493739	3424.455808
629.840014	3404.752458
630.186236	3393.636714
630.532405	3370.611243
630.878521	3361.726210
631.224585	3345.125690
631.570597	3326.670026
631.916556	3316.217193
632.262462	3303.359731
632.608316	3286.991104
632.954117	3272.079371
633.299866	3261.876076
633.645562	3246.918972
633.991206	3221.327555
634.336797	3203.602858
634.682336	3187.844211
635.027823	3170.900893
635.373257	3154.242400
635.718639	3135.552322
636.063968	3121.676546
636.409245	3101.151488
636.754470	3090.824684
637.099642	3071.081005
637.444762	3058.478121
637.789829	3048.443704
638.134845	3033.373175
638.479808	3025.357740
638.824719	3013.556399
639.169577	2995.279696
639.514383	2989.411793
639.859137	2977.618013
640.203839	2970.872949
640.548489	2957.672688
640.893086	2949.185905
