Dividing Wavelength (nm)	Counts (n)	Blue Motor Position (mm): 0.000000	Red Motor Position (mm): 10.600000	
326.493990	2128.198713
326.888308	2128.198713
327.282561	2128.198713
327.676750	2097.200658
328.070874	2095.123703
328.464933	2099.141503
328.858929	2103.320619
329.252859	2114.302773
329.646726	2126.257869
330.040528	2138.742287
330.434265	2156.608136
330.827938	2173.609427
331.221547	2190.847653
331.615091	2208.947916
332.008571	2227.307798
332.401986	2246.048288
332.795338	2267.528644
333.188625	2285.961623
333.581847	2307.144552
333.975006	2323.926553
334.368100	2341.333657
334.761129	2360.197655
335.154095	2378.388658
335.546996	2394.888355
335.939833	2410.468041
336.332606	2420.605801
336.725315	2436.349325
337.117960	2445.138576
337.510540	2456.171142
337.903056	2463.972327
338.295508	2473.048925
338.687896	2484.479741
339.080220	2489.054588
339.472480	2497.306957
339.864676	2498.194200
340.256807	2503.832731
340.648875	2507.787516
341.040879	2510.756755
341.432818	2513.985614
341.824694	2511.835562
342.216506	2515.432426
342.608253	2512.700120
342.999937	2514.688855
343.391557	2510.413957
343.783113	2511.580984
344.174605	2511.646519
344.566033	2509.803977
344.957397	2507.674090
345.348697	2505.466064
345.739934	2507.422032
346.131106	2504.924140
346.522215	2502.022956
346.913260	2499.336021
347.304241	2496.255876
347.695159	2495.797131
348.086012	2496.606237
348.476802	2490.710607
348.867528	2490.241780
349.258191	2489.190699
349.648789	2488.787407
350.039324	2485.505616
350.429796	2487.789258
350.820203	2484.273054
351.210548	2483.156438
351.600828	2482.082672
351.991045	2484.106696
352.381198	2482.057467
352.771288	2484.318424
353.161314	2479.859523
353.551276	2483.131232
353.941175	2481.689462
354.331010	2480.275419
354.720782	2481.323979
355.110490	2484.759525
355.500135	2480.288022
355.889717	2484.328506
356.279235	2482.299442
356.668689	2482.982518
357.058080	2482.677528
357.447408	2480.580408
357.836672	2476.638226
358.225873	2480.996304
358.615010	2478.284163
359.004084	2486.115595
359.393095	2483.244658
359.782043	2485.465287
360.170927	2486.402941
360.559748	2486.856645
360.948505	2487.819505
361.337199	2487.650627
361.725830	2486.743219
362.114398	2491.252531
362.502903	2488.482417
362.891344	2488.583240
363.279722	2489.969558
363.668037	2494.186483
364.056289	2490.897130
364.444478	2493.808396
364.832603	2490.864362
365.220665	2492.061636
365.608665	2491.678509
365.996601	2493.531133
366.384474	2494.461226
366.772284	2495.671102
367.160031	2499.089005
367.547715	2499.429283
367.935336	2502.791732
368.322893	2506.600324
368.710388	2508.815911
369.097820	2513.259688
369.485189	2515.233300
369.872495	2522.495082
370.259738	2530.853315
370.646918	2537.742052
371.034035	2541.921168
371.421090	2553.243600
371.808081	2563.706515
372.195010	2570.854871
372.581875	2585.885071
372.968678	2599.085332
373.355418	2607.683020
373.742096	2628.462657
374.128710	2642.227527
374.515262	2655.876451
374.901751	2673.323885
375.288177	2684.580781
375.674540	2707.555840
376.060841	2725.124261
376.447079	2745.399782
376.833254	2763.162287
377.219367	2780.004782
377.605417	2813.934268
377.991404	2821.143118
378.377329	2844.408043
378.763191	2860.769108
379.148991	2899.333935
379.534727	2922.556010
379.920402	2949.541307
380.306013	2962.124027
380.691563	3007.791839
381.077049	3026.456712
381.462474	3043.878939
381.847835	3077.173240
382.233134	3093.070518
382.618371	3087.308480
383.003545	3145.866523
383.388657	3143.819814
383.773706	3167.677075
384.158693	3172.577076
384.543618	3186.636854
384.928480	3208.454968
385.313280	3237.512179
385.698017	3223.139849
386.082692	3252.532297
386.467305	3239.548805
386.851856	3254.889036
387.236344	3255.806526
387.620770	3260.459511
388.005133	3260.346085
388.389435	3261.513112
388.773674	3248.063314
389.157851	3256.061105
389.541965	3249.046339
389.926018	3202.768547
390.310008	3219.578274
390.693936	3207.035883
391.077802	3204.540512
391.461606	3172.748476
391.845348	3179.838858
392.229027	3154.343223
392.612645	3131.385808
392.996200	3137.954432
393.379694	3127.955303
393.763125	3130.697691
394.146494	3083.532655
394.529801	3079.310689
394.913047	3062.415262
395.296230	3017.528828
395.679351	3009.067251
396.062410	2983.485916
396.445408	2950.645319
396.828343	2928.829726
397.211217	2904.037332
397.594028	2857.648634
397.976778	2842.116839
398.359466	2826.005311
398.742092	2801.666620
399.124656	2772.586724
399.507158	2761.692791
399.889598	2744.265522
400.271977	2730.641804
400.654294	2712.455841
401.036549	2692.182841
401.418742	2671.935047
401.800874	2665.280724
402.182944	2651.820843
402.564952	2640.836169
402.946898	2627.018366
403.328783	2615.426233
403.710606	2596.894951
404.092367	2597.696495
404.474067	2587.321800
404.855705	2578.552713
405.237282	2569.110632
405.618797	2562.660475
406.000250	2558.453632
406.381642	2554.619835
406.762972	2551.418702
407.144240	2543.665408
407.525447	2541.837989
407.906593	2537.023687
408.287677	2537.179963
408.668700	2534.346835
409.049661	2532.080836
409.430560	2530.661751
409.811399	2529.512368
410.192176	2527.498427
410.572891	2528.720907
410.953545	2527.503468
411.334138	2522.845442
411.714669	2528.196627
412.095139	2525.121523
412.475547	2525.963396
412.855894	2523.662109
413.236180	2524.345186
413.616405	2523.941893
413.996568	2523.944414
414.376670	2525.053468
414.756711	2519.626666
415.136691	2525.068591
415.516609	2522.439629
415.896466	2522.011131
416.276262	2524.672861
416.655997	2517.781603
417.035670	2521.126409
417.415283	2519.914011
417.794834	2520.274454
418.174324	2523.384846
418.553753	2523.097500
418.933121	2522.119516
419.312428	2523.997346
419.691674	2524.761081
420.070859	2521.953158
420.449983	2523.730165
420.829045	2523.589013
421.208047	2525.182017
421.586988	2522.860566
421.965867	2526.626308
422.344686	2524.357788
422.723444	2523.548683
423.102141	2524.750998
423.480777	2526.293592
423.859352	2524.153622
424.237866	2527.069929
424.616319	2526.089425
424.994712	2525.991122
425.373044	2526.749816
425.751314	2526.399456
426.129524	2524.274609
426.507673	2527.110258
426.885762	2528.549508
427.263789	2526.228057
427.641756	2524.476256
428.019662	2526.248221
428.397508	2523.571368
428.775292	2528.350382
429.153016	2526.144877
429.530679	2525.514733
429.908282	2526.361647
430.285824	2525.605474
430.663305	2526.699404
431.040726	2526.931297
431.418086	2528.073119
431.795385	2530.029087
432.172624	2527.579086
432.549802	2525.960875
432.926920	2528.604961
433.303977	2531.528830
433.680974	2527.657224
434.057910	2529.174611
434.434786	2529.850126
434.811601	2527.798376
435.188355	2530.455064
435.565050	2528.423479
435.941683	2528.342821
436.318257	2526.366688
436.694770	2527.503468
437.071222	2526.235618
437.447614	2525.711338
437.823946	2523.367202
438.200218	2527.405166
438.576429	2528.778880
438.952580	2532.499252
439.328670	2528.738551
439.704700	2527.354754
440.080670	2530.984385
440.456580	2529.199817
440.832429	2528.748633
441.208218	2528.463808
441.583947	2529.330887
441.959616	2530.767616
442.335224	2531.112935
442.710773	2528.027748
443.086261	2530.588655
443.461689	2529.363654
443.837057	2531.117976
444.212365	2530.311391
444.587612	2529.877852
444.962800	2529.739220
445.337927	2530.013963
445.712995	2530.739889
446.088002	2531.367513
446.462949	2532.640404
446.837837	2530.576052
447.212664	2532.844571
447.587431	2532.451361
447.962139	2533.857843
448.336786	2535.738193
448.711374	2535.833975
449.085901	2537.356404
449.460369	2530.145033
449.834776	2533.754499
450.209124	2533.061341
450.583412	2533.812473
450.957640	2533.424304
451.331808	2532.622760
451.705917	2531.783408
452.079965	2535.317257
452.453954	2532.852133
452.827883	2534.334232
453.201752	2531.861546
453.575562	2535.045035
453.949311	2534.384643
454.323001	2535.176105
454.696632	2536.572504
455.070202	2535.934798
455.443713	2534.813142
455.817164	2531.135620
456.190556	2530.356762
456.563888	2531.889272
456.937160	2531.032276
457.310373	2532.272400
457.683526	2533.913296
458.056619	2535.839016
458.429653	2536.814480
458.802628	2537.512679
459.175542	2535.319778
459.548398	2536.607792
459.921194	2537.169881
460.293930	2536.448996
460.666607	2536.212062
461.039224	2540.363452
461.411782	2537.174922
461.784280	2539.415715
462.156719	2538.220962
462.529099	2540.668442
462.901419	2535.932278
463.273680	2540.139121
463.645882	2538.447813
464.018024	2538.077289
464.390106	2539.614841
464.762130	2540.302958
465.134094	2540.497043
465.505999	2539.269522
465.877845	2545.442414
466.249631	2543.027702
466.621358	2543.236910
466.993026	2544.870243
467.364634	2546.836293
467.736184	2541.527958
468.107674	2543.156251
468.479105	2540.343287
468.850477	2541.933771
469.221790	2543.451159
469.593043	2543.393185
469.964238	2541.843031
470.335373	2539.546785
470.706449	2540.615510
471.077467	2541.462423
471.448425	2544.005686
471.819324	2545.321427
472.190164	2545.276056
472.560945	2542.631971
472.931667	2541.719522
473.302330	2539.582073
473.672934	2540.320602
474.043479	2540.996117
474.413965	2540.529810
474.784393	2536.476722
475.154761	2540.214738
475.525070	2537.800025
475.895321	2537.515200
476.265513	2537.585776
476.635645	2542.697506
477.005719	2542.689944
477.375734	2542.679862
477.745691	2542.899152
478.115588	2545.147507
478.485427	2541.091899
478.855207	2546.785882
479.224928	2545.654143
479.594591	2545.694472
479.964194	2544.978628
480.333739	2544.852599
480.703226	2544.202291
481.072653	2545.134904
481.442022	2546.425439
481.811333	2544.529966
482.180584	2545.013916
482.549777	2545.772610
482.918912	2541.873278
483.287988	2546.211190
483.657005	2547.791592
484.025964	2547.022816
484.394864	2543.688093
484.763706	2543.557023
485.132489	2546.289328
485.501213	2543.693134
485.869879	2543.015099
486.238487	2543.501570
486.607036	2544.527445
486.975527	2543.246992
487.343959	2544.736653
487.712333	2543.216745
488.080648	2544.847558
488.448905	2547.345450
488.817104	2545.530635
489.185244	2543.771272
489.553326	2543.761190
489.921350	2545.742363
490.289315	2547.511808
490.657222	2546.611962
491.025070	2547.476520
491.392861	2550.604556
491.760593	2546.218752
492.128267	2548.704041
492.495883	2546.264123
492.863440	2544.774462
493.230939	2546.939637
493.598380	2546.100285
493.965763	2540.532331
494.333088	2544.759338
494.700354	2540.512166
495.067563	2544.724050
495.434713	2543.100798
495.801805	2544.371169
496.168839	2542.629451
496.535815	2546.420398
496.902733	2545.152548
497.269593	2550.871737
497.636395	2542.314378
498.003139	2545.702034
498.369825	2545.712116
498.736453	2544.771941
499.103023	2547.809236
499.469535	2546.808567
499.835989	2547.516849
500.202385	2544.635830
500.568723	2545.313865
500.935003	2544.731612
501.301226	2545.157589
501.667390	2544.681200
502.033497	2545.921324
502.399546	2547.247148
502.765537	2544.872764
503.131470	2545.926365
503.497345	2544.184647
503.863163	2547.544576
504.228923	2547.131201
504.594625	2546.853937
504.960269	2548.772097
505.325856	2544.179605
505.691385	2545.901159
506.056856	2549.301418
506.422270	2544.167002
506.787625	2547.620193
507.152924	2546.044832
507.518164	2545.961653
507.883347	2544.308155
508.248472	2543.940151
508.613540	2544.282949
508.978550	2543.466282
509.343503	2546.869061
509.708398	2547.569781
510.073236	2545.641540
510.438016	2547.509287
510.802738	2547.481561
511.167403	2543.700696
511.532010	2548.089020
511.896561	2547.642878
512.261053	2547.849565
512.625488	2544.434184
512.989866	2540.996117
513.354186	2546.697662
513.718449	2540.005530
514.082655	2545.016437
514.446803	2547.902497
514.810894	2547.884853
515.174927	2549.114895
515.538904	2549.361912
515.902822	2547.733619
516.266684	2548.971222
516.630488	2544.945861
516.994235	2546.453166
517.357925	2546.619524
517.721558	2548.837632
518.085133	2547.524411
518.448651	2549.281253
518.812112	2547.342929
519.175516	2548.983825
519.538863	2550.944834
519.902152	2548.343598
520.265385	2548.141952
520.628560	2547.834442
520.991678	2547.872251
521.354739	2548.572971
521.717743	2547.826880
522.080690	2549.354350
522.443580	2548.278063
522.806413	2548.888043
523.169189	2549.941644
523.531908	2548.184802
523.894569	2547.950388
524.257174	2548.527601
524.619722	2550.349978
524.982213	2551.091027
525.344647	2548.199926
525.707025	2546.493495
526.069345	2548.865358
526.431608	2547.642878
526.793815	2547.816798
527.155964	2550.866696
527.518057	2549.341747
527.880093	2550.518856
528.242072	2550.072714
528.603995	2549.583722
528.965860	2549.813095
529.327669	2548.799823
529.689421	2547.635316
530.051117	2550.914587
530.412755	2547.907539
530.774337	2549.404761
531.135862	2548.855276
531.497331	2541.863195
531.858743	2541.805222
532.220098	2546.944678
532.581396	2545.689431
532.942638	2545.888557
533.303824	2547.945347
533.664953	2548.333516
534.026025	2547.322765
534.387040	2551.814433
534.747999	2546.617003
535.108902	2547.037940
535.469748	2547.073228
535.830537	2550.566747
536.191270	2548.855276
536.551947	2550.052550
536.912567	2548.656150
537.273131	2547.761345
537.633638	2545.880995
537.994089	2548.401572
538.354483	2549.608928
538.714821	2548.787220
539.075103	2549.571119
539.435328	2547.118598
539.795497	2548.870399
540.155609	2550.304607
540.515665	2548.983825
540.875665	2548.762014
541.235609	2548.310831
541.595496	2550.856614
541.955328	2551.915256
542.315102	2551.320400
542.674821	2550.493651
543.034483	2549.041798
543.394090	2551.088507
543.753640	2551.118754
544.113134	2550.181099
544.472571	2548.227652
544.831953	2549.689587
545.191278	2550.647406
545.550548	2550.009700
545.909761	2548.366284
546.268918	2548.915769
546.628019	2546.990049
546.987064	2550.294525
547.346053	2550.440718
547.704986	2549.102292
548.063863	2551.582540
548.422684	2550.108002
548.781449	2548.270502
549.140158	2548.704041
549.498811	2550.276881
549.857408	2548.003321
550.215949	2546.866540
550.574434	2543.993083
550.932864	2545.495347
551.291237	2547.763866
551.649555	2553.016748
552.007817	2549.785368
552.366022	2548.976263
552.724173	2550.549103
553.082267	2551.002807
553.440305	2549.490461
553.798288	2550.453321
554.156215	2550.518856
554.514086	2547.910059
554.871902	2551.370811
555.229661	2549.697148
555.587365	2551.348126
555.945014	2550.488609
556.302606	2548.590615
556.660143	2551.408620
557.017625	2550.274360
557.375050	2549.036757
557.732421	2552.502550
558.089735	2550.423074
558.446994	2549.314021
558.804197	2549.576161
559.161345	2549.371994
559.518437	2550.803682
559.875474	2548.782179
560.232455	2551.219577
560.589381	2548.451983
560.946251	2550.508774
561.303065	2548.192364
561.659825	2550.884340
562.016528	2552.295863
562.373177	2550.125646
562.729770	2549.296377
563.086307	2551.816953
563.442789	2549.780327
563.799216	2549.780327
564.155587	2550.811243
564.511904	2548.630944
564.868164	2553.014227
565.224370	2548.986346
565.580520	2546.856458
565.936615	2549.843342
566.292654	2549.760163
566.648638	2549.298897
567.004567	2550.907025
567.360441	2550.851572
567.716260	2550.634803
568.072023	2551.869886
568.427732	2543.844369
568.783385	2547.534493
569.138982	2544.978628
569.494525	2548.996428
569.850013	2545.462579
570.205445	2551.269988
570.560823	2551.267468
570.916145	2550.183620
571.271412	2549.465255
571.626625	2549.613969
571.981782	2548.376366
572.336884	2550.491130
572.691931	2549.661860
573.046923	2550.450801
573.401860	2547.229503
573.756743	2550.183620
574.111570	2549.218239
574.466342	2551.022972
574.821059	2546.740512
575.175722	2551.068342
575.530330	2551.761501
575.884882	2552.144628
576.239380	2547.995759
576.593823	2549.024154
576.948211	2550.758311
577.302544	2549.316541
577.656823	2547.743701
578.011047	2551.373332
578.365216	2549.808054
578.719330	2551.547252
579.073389	2546.836293
579.427394	2547.501726
579.781344	2546.914431
580.135239	2548.562889
580.489080	2546.314534
580.842866	2548.809905
581.196597	2550.849052
581.550273	2549.818136
581.903895	2550.100441
582.257463	2548.487271
582.610975	2547.481561
582.964434	2551.181768
583.317837	2550.987684
583.671186	2549.755122
584.024481	2549.913918
584.377721	2549.558517
584.730906	2548.701520
585.084037	2550.158414
585.437113	2549.840821
585.790135	2549.508105
586.143103	2550.120605
586.496016	2550.251675
586.848874	2547.854607
587.201679	2546.768238
587.554428	2544.613145
587.907124	2545.487785
588.259765	2545.482744
588.612352	2549.099772
588.964884	2546.254040
589.317362	2549.850903
589.669786	2547.627755
590.022155	2550.387786
590.374470	2548.920811
590.726731	2545.301262
591.078937	2548.635985
591.431090	2549.417364
591.783188	2549.379556
592.135232	2548.310831
592.487222	2547.894936
592.839157	2549.843342
593.191038	2549.402241
593.542866	2547.395862
593.894639	2547.463917
594.246358	2550.019782
594.598022	2548.152035
594.949633	2546.916952
595.301190	2548.683876
595.652692	2549.107333
596.004141	2545.490305
596.355535	2546.669935
596.706876	2549.276212
597.058162	2547.499205
597.409395	2548.756973
597.760573	2547.557178
598.111698	2545.301262
598.462768	2549.248486
598.813785	2546.581715
599.164748	2547.232024
599.515657	2547.032898
599.866511	2547.151366
600.217312	2547.602549
600.568060	2547.693290
600.918753	2549.440049
601.269392	2549.593805
601.619978	2549.044319
601.970510	2547.252189
602.320988	2549.719833
602.671412	2547.988197
603.021783	2547.849565
603.372100	2546.717826
603.722363	2548.756973
604.072572	2547.988197
604.422728	2549.349309
604.772830	2545.326468
605.122878	2541.885880
605.472872	2545.480223
605.822813	2543.257074
606.172701	2545.155069
606.522534	2546.435522
606.872314	2548.711603
607.222041	2547.816798
607.571714	2548.283105
607.921333	2548.280584
608.270899	2546.327137
608.620411	2548.333516
608.969870	2549.059442
609.319276	2549.835780
609.668627	2551.479196
610.017926	2553.309135
610.367171	2555.449105
610.716362	2555.197047
611.065500	2554.587067
611.414585	2552.938610
611.763616	2551.758980
612.112594	2549.785368
612.461518	2547.282436
612.810389	2549.329144
613.159207	2551.159083
613.507971	2550.176058
613.856682	2550.191181
614.205340	2548.981304
614.553945	2547.673125
614.902496	2548.409133
615.250994	2546.884184
615.599439	2548.376366
615.947830	2546.914431
616.296169	2548.005841
616.644454	2547.968032
616.992686	2547.804195
617.340864	2546.100285
617.688990	2547.960471
618.037063	2546.405275
618.385082	2544.262784
618.733048	2549.581202
619.080961	2548.872920
619.428821	2549.311500
619.776628	2550.176058
620.124382	2549.825698
620.472083	2547.431150
620.819731	2549.152704
621.167326	2544.986190
621.514868	2545.651622
621.862357	2547.799154
622.209793	2547.731098
622.557176	2548.346119
622.904506	2543.327650
623.251783	2543.093237
623.599007	2541.515356
623.946179	2543.990562
624.293297	2544.174564
624.640363	2545.633978
624.987376	2546.256561
625.334336	2545.392003
625.681243	2547.872251
626.028097	2546.425439
626.374899	2542.579039
626.721647	2544.766900
627.068343	2546.985007
627.414987	2546.463248
627.761577	2546.397713
628.108115	2546.916952
628.454600	2545.051725
628.801032	2547.174051
629.147412	2547.547096
629.493739	2542.326981
629.840014	2545.432332
630.186236	2546.364946
630.532405	2545.419729
630.878521	2546.831252
631.224585	2544.366128
631.570597	2543.970397
631.916556	2545.321427
632.262462	2548.988866
632.608316	2547.993238
632.954117	2544.383772
633.299866	2544.628268
633.645562	2545.381921
633.991206	2543.998124
634.336797	2543.715819
634.682336	2543.453679
635.027823	2541.626261
635.373257	2543.667928
635.718639	2542.881508
636.063968	2544.290511
636.409245	2544.159441
636.754470	2544.598021
637.099642	2541.969059
637.444762	2546.375028
637.789829	2541.797660
638.134845	2543.224307
638.479808	2541.958977
638.824719	2545.916283
639.169577	2543.062990
639.514383	2541.999306
639.859137	2544.562733
640.203839	2547.148845
640.548489	2543.650284
640.893086	2542.067362
641.237632	2536.940508
641.582125	2538.193235
641.926566	2538.906558
642.270955	2544.993752
642.615292	2542.619368
642.959576	2546.087682
643.303809	2544.111550
643.647990	2542.059800
643.992118	2542.029553
644.336195	2544.393854
