Dividing Wavelength (nm)	Counts (n)	Blue Motor Position (mm): 0.000000	Red Motor Position (mm): 36.200000	
326.493990	2129.637963
326.888308	2129.637963
327.282561	2129.637963
327.676750	2097.367017
328.070874	2093.810483
328.464933	2098.536564
328.858929	2101.949425
329.252859	2113.942330
329.646726	2125.247118
330.040528	2139.173305
330.434265	2154.158135
330.827938	2171.164468
331.221547	2189.718434
331.615091	2208.166537
332.008571	2228.202603
332.401986	2245.672722
332.795338	2266.230547
333.188625	2286.155708
333.581847	2305.060034
333.975006	2323.717345
334.368100	2340.708554
334.761129	2358.203878
335.154095	2377.864378
335.546996	2395.848695
335.939833	2414.221180
336.332606	2428.618715
336.725315	2443.979111
337.117960	2452.755760
337.510540	2460.370423
337.903056	2471.720581
338.295508	2478.178299
338.687896	2488.162304
339.080220	2495.030876
339.472480	2504.256188
339.864676	2506.312978
340.256807	2509.418329
340.648875	2515.477796
341.040879	2517.731192
341.432818	2520.057684
341.824694	2521.086080
342.216506	2521.607839
342.608253	2521.199506
342.999937	2517.917714
343.391557	2518.661285
343.783113	2520.576923
344.174605	2519.462828
344.566033	2517.078362
344.957397	2516.186078
345.348697	2513.804133
345.739934	2511.991838
346.131106	2511.757424
346.522215	2511.049142
346.913260	2507.696775
347.304241	2505.055210
347.695159	2502.821979
348.086012	2501.894407
348.476802	2498.287461
348.867528	2500.422390
349.258191	2497.745537
349.648789	2496.298726
350.039324	2491.885196
350.429796	2495.444251
350.820203	2492.260762
351.210548	2493.624394
351.600828	2487.746409
351.991045	2491.517192
352.381198	2491.335710
352.771288	2491.280257
353.161314	2489.195740
353.551276	2488.449650
353.941175	2487.983343
354.331010	2486.912098
354.720782	2487.867396
355.110490	2487.685915
355.500135	2490.264465
355.889717	2488.502582
356.279235	2489.699856
356.668689	2489.815802
357.058080	2491.028200
357.447408	2492.210350
357.836672	2486.019813
358.225873	2491.023159
358.615010	2487.554845
359.004084	2495.227481
359.393095	2492.553149
359.782043	2494.786380
360.170927	2494.725886
360.559748	2496.291164
360.948505	2495.325783
361.337199	2494.922491
361.725830	2496.447440
362.114398	2496.200424
362.502903	2496.460043
362.891344	2498.960455
363.279722	2498.705877
363.668037	2500.009015
364.056289	2500.130003
364.444478	2502.065806
364.832603	2499.134375
365.220665	2503.946157
365.608665	2503.008502
365.996601	2503.734428
366.384474	2507.263236
366.772284	2508.095026
367.160031	2506.781806
367.547715	2509.604852
367.935336	2509.443535
368.322893	2513.753721
368.710388	2517.398476
369.097820	2527.914323
369.485189	2528.042872
369.872495	2533.179808
370.259738	2541.159954
370.646918	2548.860317
371.034035	2551.842159
371.421090	2564.810527
371.808081	2577.456262
372.195010	2585.275092
372.581875	2597.938470
372.968678	2608.925665
373.355418	2621.528549
373.742096	2640.783237
374.128710	2653.048364
374.515262	2666.813234
374.901751	2684.570699
375.288177	2693.412883
375.674540	2720.249465
376.060841	2737.606158
376.447079	2757.770773
376.833254	2781.870009
377.219367	2790.071967
377.605417	2828.293995
377.991404	2835.767506
378.377329	2858.145187
378.763191	2874.594473
379.148991	2914.101995
379.534727	2941.094853
379.920402	2967.765078
380.306013	2980.070534
380.691563	3029.410828
381.077049	3054.130126
381.462474	3069.934143
381.847835	3108.367900
382.233134	3131.554687
382.618371	3128.139305
383.003545	3196.983823
383.388657	3201.893907
383.773706	3237.197107
384.158693	3250.460383
384.543618	3279.076492
384.928480	3314.737615
385.313280	3359.578678
385.698017	3363.460367
386.082692	3413.277049
386.467305	3419.129829
386.851856	3451.751135
387.236344	3469.753096
387.620770	3504.257273
388.005133	3534.481511
388.389435	3561.454205
388.773674	3573.366451
389.157851	3608.740228
389.541965	3627.543732
389.926018	3592.679112
390.310008	3661.332065
390.693936	3682.464582
391.077802	3723.144173
391.461606	3709.465002
391.845348	3775.007564
392.229027	3771.894651
392.612645	3789.611787
392.996200	3867.409393
393.379694	3904.497162
393.763125	3969.296154
394.146494	3935.573355
394.529801	3998.834795
394.913047	4046.922361
395.296230	4008.750744
395.679351	4066.618149
396.062410	4088.474072
396.445408	4072.233995
396.828343	4101.722224
397.211217	4128.286584
397.594028	4049.682393
397.976778	4117.679997
398.359466	4141.348214
398.742092	4172.989016
399.124656	4091.604628
399.507158	4170.733100
399.889598	4197.582285
400.271977	4259.545628
400.654294	4228.512284
401.036549	4237.293974
401.418742	4208.831620
401.800874	4311.043535
402.182944	4331.724868
402.564952	4393.484044
402.946898	4381.894431
403.328783	4381.798649
403.710606	4292.658447
404.092367	4487.776306
404.474067	4448.805666
404.855705	4458.240186
405.237282	4385.750914
405.618797	4495.653109
406.000250	4530.250548
406.381642	4610.379688
406.762972	4572.749995
407.144240	4582.610492
407.525447	4581.342642
407.906593	4641.884379
408.287677	4686.687634
408.668700	4613.653918
409.049661	4663.417668
409.430560	4703.131878
409.811399	4631.973471
410.192176	4794.165034
410.572891	4736.910129
410.953545	4835.590716
411.334138	4719.077047
411.714669	4788.884425
412.095139	4680.139175
412.475547	4823.025640
412.855894	4801.149553
413.236180	4811.156243
413.616405	4762.829222
413.996568	4847.316440
414.376670	4794.049087
414.756711	4748.741717
415.136691	4779.938898
415.516609	4859.165672
415.896466	4896.437443
416.276262	4928.539510
416.655997	4911.286161
417.035670	5090.352987
417.415283	5186.326474
417.794834	5129.868072
418.174324	5081.750258
418.553753	4989.502184
418.933121	5172.927087
419.312428	5239.346810
419.691674	5179.422614
420.070859	5300.627076
420.449983	5218.373089
420.829045	5334.987580
421.208047	5238.298250
421.586988	5309.769208
421.965867	5324.592721
422.344686	5453.026198
422.723444	5310.656451
423.102141	5128.146518
423.480777	5424.994862
423.859352	5195.367783
424.237866	5452.143996
424.616319	5445.134271
424.994712	5553.773657
425.373044	5432.012148
425.751314	5573.850052
426.129524	5377.043406
426.507673	5575.896761
426.885762	5656.898021
427.263789	5588.882773
427.641756	5467.847190
428.019662	5592.862764
428.397508	5600.603456
428.775292	5543.976175
429.153016	5642.876052
429.530679	5566.124484
429.908282	5652.751672
430.285824	5525.260891
430.663305	5796.873219
431.040726	5536.023755
431.418086	5530.773393
431.795385	5642.782790
432.172624	5652.592876
432.549802	5650.238657
432.926920	5662.879350
433.303977	5664.336243
433.680974	5704.804106
434.057910	5726.392847
434.434786	5728.003496
434.811601	5700.123395
435.188355	5937.793634
435.565050	5807.656247
435.941683	5787.353000
436.318257	6007.293501
436.694770	5987.091077
437.071222	6022.174988
437.447614	5950.472136
437.823946	5863.766810
438.200218	6017.592579
438.576429	5882.492176
438.952580	5980.446837
439.328670	6027.425349
439.704700	5935.809940
440.080670	5920.999030
440.456580	6193.216296
440.832429	6074.287915
441.208218	5921.568680
441.583947	6075.616259
441.959616	6080.473411
442.335224	6005.778635
442.710773	6142.522453
443.086261	6172.643348
443.461689	5971.811340
443.837057	6115.466581
444.212365	6271.490292
444.587612	6161.598179
444.962800	6314.680378
445.337927	6297.908459
445.712995	5905.310959
446.088002	6482.679350
446.462949	6316.858156
446.837837	6248.001036
447.212664	6421.308343
447.587431	6561.528038
447.962139	7098.789009
448.336786	8030.767285
448.711374	7766.600741
449.085901	6842.431212
449.460369	6763.348111
449.834776	6697.097267
450.209124	7093.271466
450.583412	7241.342757
450.957640	7383.410034
451.331808	7151.146432
451.705917	6702.965170
452.079965	6627.983048
452.453954	6835.976015
452.827883	6718.081070
453.201752	6806.366798
453.575562	6608.778773
453.949311	6812.595143
454.323001	6698.743204
454.696632	6777.281860
455.070202	6915.467449
455.443713	7067.909421
455.817164	7171.926069
456.190556	7254.611074
456.563888	7326.344173
456.937160	7373.862089
457.310373	7021.682040
457.683526	7052.420476
458.056619	6941.394103
458.429653	6930.112001
458.802628	6867.006837
459.175542	6976.533466
459.548398	7325.403997
459.921194	7486.473904
460.293930	7492.908937
460.666607	8020.337137
461.039224	8327.519847
461.411782	8453.150442
461.784280	8471.974111
462.156719	8361.845064
462.529099	8239.866785
462.901419	7835.760331
463.273680	7722.702373
463.645882	7741.672235
464.018024	7600.887932
464.390106	7772.077955
464.762130	8152.448136
465.134094	8625.935990
465.505999	9645.746290
465.877845	10867.696776
466.249631	11514.063440
466.621358	11126.983483
466.993026	10496.630045
467.364634	10245.396581
467.736184	9886.453824
468.107674	9555.935613
468.479105	9585.048277
468.850477	9350.029685
469.221790	9125.022824
469.593043	8796.906723
469.964238	8657.833891
470.335373	8668.344697
470.706449	8728.578924
471.077467	8711.819608
471.448425	10017.110450
471.819324	11087.309603
472.190164	11115.295568
472.560945	9865.853149
472.931667	9075.284279
473.302330	8942.976676
473.672934	8585.727747
474.043479	8948.463972
474.413965	8886.051967
474.784393	8772.484853
475.154761	8926.625694
475.525070	9007.725256
475.895321	8838.642436
476.265513	9009.393878
476.635645	9183.447276
477.005719	9183.908542
477.375734	9296.175038
477.745691	9529.300677
478.115588	9668.534826
478.485427	9908.176156
478.855207	10446.218506
479.224928	11260.783268
479.594591	11884.852908
479.964194	11701.047398
480.333739	11638.209415
480.703226	11558.385265
481.072653	11644.294088
481.442022	11878.939635
481.811333	12074.082700
482.180584	11877.155067
482.549777	11584.702608
482.918912	11410.886144
483.287988	11433.367170
483.657005	11443.273037
484.025964	11128.818463
484.394864	11260.463155
484.763706	11231.773948
485.132489	10985.901752
485.501213	10948.574528
485.869879	11029.394307
486.238487	10872.967303
486.607036	10977.299023
486.975527	10756.423388
487.343959	10946.104363
487.712333	10990.562298
488.080648	10928.546024
488.448905	10972.520009
488.817104	10902.001828
489.185244	11170.576861
489.553326	11329.726088
489.921350	11862.008920
490.289315	12925.291610
490.657222	13266.018157
491.025070	13177.901308
491.392861	13049.752657
491.760593	12668.691838
492.128267	12323.997902
492.495883	11995.836431
492.863440	11657.075934
493.230939	11318.630508
493.598380	11251.217679
493.965763	11120.979469
494.333088	11020.796619
494.700354	10948.009919
495.067563	11003.258444
495.434713	10832.507002
495.801805	10961.878133
496.168839	10885.391226
496.535815	10820.226751
496.902733	10818.606020
497.269593	10752.705537
497.636395	10855.782009
498.003139	10838.057312
498.369825	10708.282889
498.736453	10868.213495
499.103023	10786.289703
499.469535	10817.413787
499.835989	10805.461212
500.202385	10771.778742
500.568723	10618.930957
500.935003	10844.653662
501.301226	10648.545216
501.667390	10906.173383
502.033497	11004.143167
502.399546	10864.717454
502.765537	10773.946438
503.131470	10844.525113
503.497345	11023.110508
503.863163	10629.489654
504.228923	10938.673702
504.594625	11002.015800
504.960269	10750.550443
505.325856	10975.653086
505.691385	10765.550397
506.056856	10925.841445
506.422270	10947.772985
506.787625	10831.166055
507.152924	10948.438417
507.518164	10928.707341
507.883347	10851.693633
508.248472	10766.112485
508.613540	11003.167704
508.978550	10881.696061
509.343503	10856.702020
509.708398	10972.875410
510.073236	11084.995713
510.438016	11087.929664
510.802738	11038.591892
511.167403	11094.581467
511.532010	10992.301497
511.896561	11218.077133
512.261053	11290.047166
512.625488	11157.956332
512.989866	11137.847170
513.354186	11124.437701
513.718449	11014.099446
514.082655	11214.540764
514.446803	11108.910947
514.810894	11227.325130
515.174927	11098.067425
515.538904	11116.717173
515.902822	11272.866914
516.266684	11149.658593
516.630488	11088.690879
516.994235	11148.967955
517.357925	11201.514422
517.721558	11288.040787
518.085133	11300.880606
518.448651	11310.473922
518.812112	11186.189315
519.175516	11199.117354
519.538863	11315.502472
519.902152	11226.518545
520.265385	11386.524768
520.628560	11289.288472
520.991678	11260.299317
521.354739	11322.197125
521.717743	11250.022925
522.080690	11230.538866
522.443580	11351.241733
522.806413	11302.009824
523.169189	11322.877681
523.531908	11372.664116
523.894569	11187.283245
524.257174	11189.168637
524.619722	11296.416664
524.982213	11240.651420
525.344647	11279.685074
525.707025	11226.294214
526.069345	11312.240846
526.431608	11216.380785
526.793815	11323.782568
527.155964	11106.667633
527.518057	11152.063224
527.880093	11089.227762
528.242072	11152.889973
528.603995	11041.346882
528.965860	10955.622061
529.327669	11000.601756
529.689421	10937.075656
530.051117	10895.362629
530.412755	10982.312450
530.774337	10863.820129
531.135862	10827.884264
531.497331	10848.671462
531.858743	10682.139465
532.220098	10834.344502
532.581396	10693.179592
532.942638	10661.805971
533.303824	10620.206369
533.664953	10604.445202
534.026025	10506.964410
534.387040	10583.627757
534.747999	10573.222816
535.108902	10607.883269
535.469748	10365.935611
535.830537	10443.098032
536.191270	10412.699874
536.551947	10409.289534
536.912567	10380.688547
537.273131	10298.119488
537.633638	10249.961346
537.994089	10221.088137
538.354483	10154.970884
538.714821	10276.167784
539.075103	10256.713971
539.435328	10199.756495
539.795497	10022.018013
540.155609	10139.880190
540.515665	10192.832470
540.875665	9926.427654
541.235609	9963.563313
541.595496	9937.263614
541.955328	10043.170694
542.315102	9923.067725
542.674821	9842.517648
543.034483	9819.154420
543.394090	9789.099061
543.753640	9695.729330
544.113134	9856.065749
544.472571	9704.785763
544.831953	9801.207913
545.191278	9597.847767
545.550548	9591.448022
545.909761	9680.812556
546.268918	9618.869378
546.628019	9667.312346
546.987064	9505.050207
547.346053	9417.747504
547.704986	9456.362743
548.063863	9414.364890
548.422684	9378.096309
548.781449	9269.950956
549.140158	9315.233120
549.498811	9179.207666
549.857408	9032.618474
550.215949	9165.241149
550.574434	9015.758335
550.932864	9050.154127
551.291237	9065.285151
551.649555	8971.807035
552.007817	8950.735012
552.366022	8887.312255
552.724173	8841.299124
553.082267	8797.105848
553.440305	8843.371038
553.798288	8673.101026
554.156215	8731.827947
554.514086	8672.755707
554.871902	8527.331021
555.229661	8506.241354
555.587365	8448.724309
555.945014	8341.693051
556.302606	8372.250005
556.660143	8275.744677
557.017625	8320.114392
557.375050	8217.902477
557.732421	8268.762678
558.089735	8159.195720
558.446994	8125.724979
558.804197	8105.280580
559.161345	8060.129485
559.518437	7932.207686
559.875474	7933.785567
560.232455	7900.466061
560.589381	7841.850044
560.946251	7770.328674
561.303065	7814.048081
561.659825	7714.931435
562.016528	7631.066799
562.373177	7521.111672
562.729770	7528.055862
563.086307	7440.874147
563.442789	7455.722866
563.799216	7318.880744
564.155587	7308.732902
564.511904	7238.449135
564.868164	7187.714963
565.224370	7159.882752
565.580520	7054.878038
565.936615	7033.004472
566.292654	6900.507825
566.648638	6937.073834
567.004567	6865.348298
567.360441	6811.846532
567.716260	6717.070319
568.072023	6731.876188
568.427732	6649.508775
568.783385	6584.082160
569.138982	6553.139557
569.494525	6527.928747
569.850013	6418.432365
570.205445	6410.351395
570.560823	6334.683676
570.916145	6238.921918
571.271412	6230.714919
571.626625	6162.883674
571.981782	6108.913081
572.336884	6054.395522
572.691931	6026.901069
573.046923	5949.690757
573.401860	5890.268156
573.756743	5818.497249
574.111570	5797.344567
574.466342	5760.171099
574.821059	5730.312344
575.175722	5645.898223
575.530330	5601.909115
575.884882	5567.422581
576.239380	5492.541282
576.593823	5446.288696
576.948211	5414.131175
577.302544	5341.150391
577.656823	5295.492661
578.011047	5266.808495
578.365216	5213.745310
578.719330	5155.356145
579.073389	5115.606647
579.427394	5071.131068
579.781344	5031.184964
580.135239	4976.677488
580.489080	4948.520124
580.842866	4873.205285
581.196597	4846.406511
581.550273	4827.844983
581.903895	4781.058034
582.257463	4778.343373
582.610975	4702.312690
582.964434	4688.131925
583.317837	4623.902583
583.671186	4599.473152
584.024481	4560.106782
584.377721	4512.639277
584.730906	4476.363134
585.084037	4446.630408
585.437113	4409.169594
585.790135	4378.358062
586.143103	4324.972243
586.496016	4294.425371
586.848874	4275.944501
587.201679	4251.184874
587.554428	4187.905790
587.907124	4173.248635
588.259765	4146.273421
588.612352	4117.241416
588.964884	4067.679312
589.317362	4043.322977
589.669786	4020.915048
590.022155	4011.455323
590.374470	3977.518276
590.726731	3948.869398
591.078937	3886.890932
591.431090	3882.384141
591.783188	3838.379909
592.135232	3804.710042
592.487222	3792.359215
592.839157	3773.318777
593.191038	3739.245618
593.542866	3711.806618
593.894639	3668.230884
594.246358	3657.969616
594.598022	3636.438847
594.949633	3601.259155
595.301190	3579.486412
595.652692	3562.263310
596.004141	3556.317269
596.355535	3506.175432
596.706876	3484.432936
597.058162	3457.041826
597.409395	3449.616207
597.760573	3440.794187
598.111698	3411.487439
598.462768	3389.452556
598.813785	3372.957901
599.164748	3343.814990
599.515657	3332.613546
599.866511	3299.969555
600.217312	3302.706901
600.568060	3269.989813
600.918753	3270.337652
601.269392	3249.754621
601.619978	3224.831157
601.970510	3221.017524
602.320988	3207.935729
602.671412	3196.948535
603.021783	3179.569157
603.372100	3167.508196
603.722363	3145.528765
604.072572	3138.771099
604.422728	3125.238121
604.772830	3103.636777
605.122878	3089.261927
605.472872	3078.690627
605.822813	3066.385171
606.172701	3055.506361
606.522534	3049.477141
606.872314	3041.192004
607.222041	3025.287164
607.571714	3019.557893
607.921333	3011.083713
608.270899	2998.132989
608.620411	2997.807834
608.969870	2980.032726
609.319276	2973.816983
609.668627	2964.624439
610.017926	2963.172587
610.367171	2958.824592
610.716362	2951.429219
611.065500	2939.766509
611.414585	2928.386105
611.763616	2924.015424
612.112594	2911.054618
612.461518	2904.566653
612.810389	2903.210582
613.159207	2890.121226
613.507971	2882.584701
613.856682	2880.021275
614.205340	2872.278062
614.553945	2870.077599
614.902496	2858.417410
615.250994	2851.805937
615.599439	2848.879547
615.947830	2840.874194
616.296169	2835.878411
616.644454	2830.539829
616.992686	2827.414314
617.340864	2822.287460
617.688990	2813.470482
618.037063	2814.521563
618.385082	2807.426139
618.733048	2807.448824
619.080961	2797.749644
619.428821	2793.857873
619.776628	2789.298149
620.124382	2785.287912
620.472083	2775.190480
620.819731	2773.796601
621.167326	2762.413676
621.514868	2763.560538
621.862357	2750.098137
622.209793	2747.897673
622.557176	2738.644636
622.904506	2729.603326
623.251783	2726.256000
623.599007	2722.092007
623.946179	2714.870554
624.293297	2708.768237
624.640363	2705.688092
624.987376	2705.597352
625.334336	2700.233564
625.681243	2694.514375
626.028097	2688.830474
626.374899	2689.120340
626.721647	2681.833352
627.068343	2684.220339
627.414987	2677.656756
627.761577	2674.493432
628.108115	2673.344049
628.454600	2668.887669
628.801032	2664.428769
629.147412	2667.239212
629.493739	2658.608757
629.840014	2659.165804
630.186236	2658.671771
630.532405	2655.546256
630.878521	2654.444763
631.224585	2652.818991
631.570597	2649.910246
631.916556	2648.239103
632.262462	2647.689617
632.608316	2648.085348
632.954117	2644.901859
633.299866	2645.458907
633.645562	2639.023874
633.991206	2638.376086
634.336797	2633.002216
634.682336	2631.696557
635.027823	2627.076339
635.373257	2627.182203
635.718639	2625.173304
636.063968	2624.553242
636.409245	2623.242542
636.754470	2622.640124
637.099642	2621.173148
637.444762	2615.884978
637.789829	2616.462190
638.134845	2615.721140
638.479808	2615.443877
638.824719	2611.211828
639.169577	2609.265943
639.514383	2611.035388
639.859137	2610.518669
640.203839	2611.413474
640.548489	2609.613782
640.893086	2603.697988
641.237632	2600.441403
641.582125	2602.588934
641.926566	2598.200610
