Dividing Wavelength (nm)	Counts (n)	Blue Motor Position (mm): 0.000000	Red Motor Position (mm): 8.300000	
326.493990	2129.466564
326.888308	2129.466564
327.282561	2129.466564
327.676750	2095.519434
328.070874	2093.480287
328.464933	2097.452716
328.858929	2103.600403
329.252859	2113.972577
329.646726	2124.909361
330.040528	2139.100209
330.434265	2154.674853
330.827938	2172.444921
331.221547	2191.583661
331.615091	2211.221476
332.008571	2228.497510
332.401986	2249.758577
332.795338	2267.165681
333.188625	2284.633279
333.581847	2304.092133
333.975006	2324.937304
334.368100	2342.553616
334.761129	2360.046420
335.154095	2377.617362
335.546996	2395.369785
335.939833	2408.829666
336.332606	2423.398600
336.725315	2434.955446
337.117960	2445.778803
337.510540	2454.462190
337.903056	2465.088943
338.295508	2473.666466
338.687896	2478.513535
339.080220	2487.501913
339.472480	2494.320073
339.864676	2499.288130
340.256807	2502.438852
340.648875	2506.728873
341.040879	2505.897083
341.432818	2509.176354
341.824694	2512.745491
342.216506	2511.901097
342.608253	2516.049967
342.999937	2514.978722
343.391557	2510.179543
343.783113	2510.217352
344.174605	2510.257681
344.566033	2509.093175
344.957397	2509.423370
345.348697	2505.526558
345.739934	2504.220899
346.131106	2503.124448
346.522215	2499.325939
346.913260	2500.351814
347.304241	2498.461381
347.695159	2494.015083
348.086012	2495.477018
348.476802	2493.752943
348.867528	2491.665906
349.258191	2487.267499
349.648789	2491.822182
350.039324	2483.567292
350.429796	2485.684577
350.820203	2485.989567
351.210548	2482.120481
351.600828	2481.865903
351.991045	2480.487147
352.381198	2480.545120
352.771288	2479.463793
353.161314	2482.256592
353.551276	2481.913794
353.941175	2480.270378
354.331010	2481.787765
354.720782	2481.596201
355.110490	2484.199957
355.500135	2481.651654
355.889717	2480.030923
356.279235	2480.285501
356.668689	2480.479585
357.058080	2482.324648
357.447408	2477.112095
357.836672	2476.756693
358.225873	2480.202322
358.615010	2476.852475
359.004084	2483.897488
359.393095	2485.097282
359.782043	2485.515698
360.170927	2486.576861
360.559748	2485.971923
360.948505	2485.987046
361.337199	2485.528301
361.725830	2487.698518
362.114398	2487.892602
362.502903	2488.610967
362.891344	2487.617859
363.279722	2488.459732
363.668037	2488.653816
364.056289	2489.543580
364.444478	2491.648262
364.832603	2489.319249
365.220665	2491.859990
365.608665	2491.121461
365.996601	2492.454846
366.384474	2491.794455
366.772284	2495.149343
367.160031	2496.689416
367.547715	2498.630260
367.935336	2500.664365
368.322893	2504.084788
368.710388	2507.235509
369.097820	2513.234482
369.485189	2513.234483
369.872495	2518.636079
370.259738	2524.481297
370.646918	2532.867256
371.034035	2540.708771
371.421090	2554.014897
371.808081	2562.617626
372.195010	2571.782443
372.581875	2583.727457
372.968678	2595.405290
373.355418	2606.573967
373.742096	2622.864455
374.128710	2638.234933
374.515262	2648.864206
374.901751	2665.348779
375.288177	2677.966787
375.674540	2698.393543
376.060841	2711.046839
376.447079	2728.554766
376.833254	2745.971953
377.219367	2750.786255
377.605417	2782.628703
377.991404	2780.655091
378.377329	2796.774181
378.763191	2804.041004
379.148991	2832.868842
379.534727	2842.215141
379.920402	2858.654344
380.306013	2859.617204
380.691563	2887.456977
381.077049	2890.466545
381.462474	2895.331259
381.847835	2908.687796
382.233134	2911.551171
382.618371	2900.437948
383.003545	2928.179417
383.388657	2919.279260
383.773706	2925.842843
384.158693	2913.529824
384.543618	2911.044535
384.928480	2913.549989
385.313280	2920.037954
385.698017	2898.834861
386.082692	2904.796025
386.467305	2886.610063
386.851856	2880.245606
387.236344	2870.763196
387.620770	2859.365147
388.005133	2845.993486
388.389435	2836.604337
388.773674	2819.013231
389.157851	2810.718012
389.541965	2791.637245
389.926018	2768.473143
390.310008	2764.656989
390.693936	2749.205853
391.077802	2737.931312
391.461606	2715.656974
391.845348	2712.181098
392.229027	2693.738037
392.612645	2677.150120
392.996200	2673.376817
393.379694	2665.068995
393.763125	2658.477687
394.146494	2638.297948
394.529801	2629.549025
394.913047	2617.735081
395.296230	2606.934409
395.679351	2594.767584
396.062410	2587.122674
396.445408	2576.994996
396.828343	2571.689182
397.211217	2557.652089
397.594028	2552.177396
397.976778	2545.187836
398.359466	2544.010727
398.742092	2535.972607
399.124656	2535.140817
399.507158	2530.142513
399.889598	2530.507996
400.271977	2529.189734
400.654294	2527.601771
401.036549	2524.496420
401.418742	2522.021214
401.800874	2522.190092
402.182944	2520.874351
402.564952	2520.685308
402.946898	2519.977026
403.328783	2518.762108
403.710606	2517.559792
404.092367	2518.804957
404.474067	2518.260513
404.855705	2516.730523
405.237282	2516.181037
405.618797	2513.690707
406.000250	2519.432581
406.381642	2518.575585
406.762972	2518.449556
407.144240	2516.057529
407.525447	2517.159021
407.906593	2518.363857
408.287677	2516.135667
408.668700	2519.707324
409.049661	2518.741943
409.430560	2517.453928
409.811399	2518.686490
410.192176	2518.048784
410.572891	2516.319669
410.953545	2519.190606
411.334138	2519.669515
411.714669	2518.913342
412.095139	2519.034330
412.475547	2518.401665
412.855894	2517.428723
413.236180	2517.196829
413.616405	2519.339320
413.996568	2517.247241
414.376670	2516.972498
414.756711	2519.825791
415.136691	2518.333610
415.516609	2519.455266
415.896466	2518.767149
416.276262	2518.313445
416.655997	2515.986952
417.035670	2517.141377
417.415283	2519.805627
417.794834	2513.002589
418.174324	2518.159690
418.553753	2520.155987
418.933121	2519.427540
419.312428	2522.290915
419.691674	2523.483148
420.070859	2522.500123
420.449983	2520.985257
420.829045	2519.959382
421.208047	2520.246727
421.586988	2523.589012
421.965867	2522.517767
422.344686	2521.932993
422.723444	2524.355268
423.102141	2523.306708
423.480777	2524.198992
423.859352	2521.325534
424.237866	2520.153466
424.616319	2522.835360
424.994712	2520.894516
425.373044	2524.935001
425.751314	2524.882068
426.129524	2520.894516
426.507673	2522.779907
426.885762	2525.923067
427.263789	2524.919877
427.641756	2523.936852
428.019662	2524.493900
428.397508	2523.911646
428.775292	2524.292253
429.153016	2526.162522
429.530679	2524.443488
429.908282	2525.166894
430.285824	2525.454239
430.663305	2524.632531
431.040726	2523.304187
431.418086	2524.748478
431.795385	2524.264527
432.172624	2523.349558
432.549802	2525.303005
432.926920	2523.926770
433.303977	2523.987264
433.680974	2526.064219
434.057910	2524.796369
434.434786	2526.737213
434.811601	2526.301153
435.188355	2525.504651
435.565050	2525.827285
435.941683	2525.121523
436.318257	2527.505989
436.694770	2523.490710
437.071222	2522.701769
437.447614	2524.695546
437.823946	2526.023890
438.200218	2526.427182
438.576429	2527.243849
438.952580	2526.386853
439.328670	2528.700743
439.704700	2527.745444
440.080670	2525.895340
440.456580	2529.721576
440.832429	2526.853160
441.208218	2527.841226
441.583947	2528.136133
441.959616	2525.512213
442.335224	2526.991791
442.710773	2530.606299
443.086261	2527.569003
443.461689	2527.047244
443.837057	2525.771832
444.212365	2529.121679
444.587612	2528.113448
444.962800	2531.286854
445.337927	2528.234436
445.712995	2526.951462
446.088002	2530.344159
446.462949	2528.914992
446.837837	2529.824920
447.212664	2526.444826
447.587431	2527.689991
447.962139	2531.785929
448.336786	2534.634181
448.711374	2530.238294
449.085901	2529.514889
449.460369	2531.259128
449.834776	2530.903727
450.209124	2527.881555
450.583412	2534.225847
450.957640	2532.514375
451.331808	2532.413552
451.705917	2529.615712
452.079965	2532.872297
452.453954	2530.397091
452.827883	2532.315250
453.201752	2531.485980
453.575562	2532.595034
453.949311	2530.318953
454.323001	2531.022194
454.696632	2527.730320
455.070202	2530.598737
455.443713	2531.987575
455.817164	2530.649148
456.190556	2528.340300
456.563888	2529.814838
456.937160	2526.916174
457.310373	2532.249715
457.683526	2532.829448
458.056619	2531.102852
458.429653	2531.107893
458.802628	2533.570497
459.175542	2531.125537
459.548398	2535.302133
459.921194	2533.953625
460.293930	2535.886907
460.666607	2532.529499
461.039224	2534.729963
461.411782	2532.095960
461.784280	2536.017977
462.156719	2533.633512
462.529099	2534.505631
462.901419	2533.109232
463.273680	2532.864736
463.645882	2534.563604
464.018024	2534.828265
464.390106	2531.637215
464.762130	2536.239788
465.134094	2534.805580
465.505999	2535.047555
465.877845	2536.688451
466.249631	2537.719367
466.621358	2537.981507
466.993026	2540.348328
467.364634	2539.539223
467.736184	2537.404295
468.107674	2534.682072
468.479105	2536.106198
468.850477	2535.685261
469.221790	2536.920344
469.593043	2534.893800
469.964238	2538.664583
470.335373	2535.697864
470.706449	2537.162319
471.077467	2533.678882
471.448425	2537.437062
471.819324	2538.152906
472.190164	2538.493184
472.560945	2536.806918
472.931667	2536.408667
473.302330	2538.062165
473.672934	2535.158461
474.043479	2535.791125
474.413965	2534.394726
474.784393	2532.872297
475.154761	2532.610157
475.525070	2530.387008
475.895321	2532.900024
476.265513	2532.085877
476.635645	2534.319108
477.005719	2535.367668
477.375734	2535.952442
477.745691	2535.813811
478.115588	2536.864891
478.485427	2538.470499
478.855207	2538.160468
479.224928	2535.624767
479.594591	2538.750283
479.964194	2535.415559
480.333739	2539.390509
480.703226	2537.253060
481.072653	2540.055942
481.442022	2538.349511
481.811333	2536.360776
482.180584	2537.744572
482.549777	2539.085519
482.918912	2537.159799
483.287988	2539.098122
483.657005	2538.679707
484.025964	2539.403112
484.394864	2540.247505
484.763706	2541.341436
485.132489	2539.539223
485.501213	2539.793802
485.869879	2537.462268
486.238487	2538.462937
486.607036	2537.931095
486.975527	2539.992927
487.343959	2538.735159
487.712333	2541.061652
488.080648	2535.178625
488.448905	2536.285158
488.817104	2536.527134
489.185244	2538.470499
489.553326	2539.025026
489.921350	2540.227341
490.289315	2541.520397
490.657222	2543.216745
491.025070	2540.678524
491.392861	2542.952084
491.760593	2539.569470
492.128267	2540.267670
492.495883	2536.748945
492.863440	2540.802032
493.230939	2537.298430
493.598380	2537.616023
493.965763	2535.103008
494.333088	2538.752803
494.700354	2535.647452
495.067563	2536.174253
495.434713	2535.186187
495.801805	2542.208514
496.168839	2539.879501
496.535815	2539.733308
496.902733	2540.053421
497.269593	2538.982176
497.636395	2538.772968
498.003139	2541.482588
498.369825	2540.681045
498.736453	2539.882022
499.103023	2540.602907
499.469535	2538.538554
499.835989	2537.976466
500.202385	2541.182639
500.568723	2539.322454
500.935003	2539.766075
501.301226	2540.580222
501.667390	2542.037115
502.033497	2540.552495
502.399546	2539.387989
502.765537	2541.182639
503.131470	2540.260108
503.497345	2541.606096
503.863163	2541.938812
504.228923	2541.805222
504.594625	2543.191539
504.960269	2540.648277
505.325856	2541.301107
505.691385	2541.112063
506.056856	2542.866385
506.422270	2538.962011
506.787625	2541.991745
507.152924	2541.051569
507.518164	2542.773123
507.883347	2540.711292
508.248472	2537.832793
508.613540	2539.776158
508.978550	2540.302958
509.343503	2542.412681
509.708398	2544.393854
510.073236	2541.195242
510.438016	2540.844882
510.802738	2542.584080
511.167403	2542.450490
511.532010	2541.669111
511.896561	2543.307486
512.261053	2544.640871
512.625488	2539.267001
512.989866	2536.738862
513.354186	2540.081147
513.718449	2539.105684
514.082655	2540.665921
514.446803	2542.626930
514.810894	2542.372352
515.174927	2541.023843
515.538904	2543.620037
515.902822	2539.561908
516.266684	2540.542413
516.630488	2541.933771
516.994235	2545.434853
517.357925	2541.354039
517.721558	2543.912424
518.085133	2538.725077
518.448651	2542.707588
518.812112	2541.094419
519.175516	2542.637012
519.538863	2542.730274
519.902152	2541.157434
520.265385	2543.002496
520.628560	2544.948381
520.991678	2540.706250
521.354739	2542.942002
521.717743	2542.465613
522.080690	2544.255223
522.443580	2542.758000
522.806413	2542.495860
523.169189	2542.395037
523.531908	2543.115922
523.894569	2542.957126
524.257174	2544.272867
524.619722	2543.143648
524.982213	2543.882177
525.344647	2545.021478
525.707025	2543.642722
526.069345	2543.186498
526.431608	2544.741694
526.793815	2544.058618
527.155964	2543.065510
527.518057	2543.128525
527.880093	2542.997455
528.242072	2545.512991
528.603995	2544.088865
528.965860	2543.652805
529.327669	2544.003165
529.689421	2542.463093
530.051117	2544.103988
530.412755	2545.543237
530.774337	2544.018288
531.135862	2544.683721
531.497331	2539.556867
531.858743	2538.026877
532.220098	2541.485109
532.581396	2539.226672
532.942638	2538.838503
533.303824	2543.219266
533.664953	2545.893598
534.026025	2544.880326
534.387040	2544.262784
534.747999	2540.900335
535.108902	2545.112219
535.469748	2543.312527
535.830537	2542.221117
536.191270	2542.947043
536.551947	2545.225645
536.912567	2543.342774
537.273131	2544.343443
537.633638	2543.199101
537.994089	2544.741694
538.354483	2545.306303
538.714821	2547.232024
539.075103	2544.582898
539.435328	2545.780172
539.795497	2544.590459
540.155609	2546.667415
540.515665	2542.881508
540.875665	2544.819832
541.235609	2544.512322
541.595496	2544.005686
541.955328	2543.148689
542.315102	2546.337219
542.674821	2543.723381
543.034483	2543.650284
543.394090	2543.809081
543.753640	2543.559543
544.113134	2543.945192
544.472571	2544.338402
544.831953	2544.666077
545.191278	2546.468289
545.550548	2543.957795
545.909761	2545.225645
546.268918	2542.843700
546.628019	2543.453679
546.987064	2544.776982
547.346053	2544.971067
547.704986	2544.033412
548.063863	2545.608772
548.422684	2544.421581
548.781449	2543.153731
549.140158	2542.947043
549.498811	2545.087013
549.857408	2545.875954
550.215949	2542.889070
550.574434	2541.568288
550.932864	2540.532331
551.291237	2539.151054
551.649555	2544.535007
552.007817	2544.272867
552.366022	2544.794626
552.724173	2545.886036
553.082267	2544.716488
553.440305	2544.353525
553.798288	2544.880326
554.156215	2544.905532
554.514086	2544.159441
554.871902	2543.912424
555.229661	2544.003165
555.587365	2546.422919
555.945014	2543.877136
556.302606	2545.732281
556.660143	2546.440563
557.017625	2543.998124
557.375050	2542.516025
557.732421	2544.784544
558.089735	2545.870913
558.446994	2545.828063
558.804197	2547.264792
559.161345	2543.244471
559.518437	2544.686241
559.875474	2542.722712
560.232455	2547.226983
560.589381	2543.892260
560.946251	2547.426108
561.303065	2543.859492
561.659825	2546.148176
562.016528	2541.984183
562.373177	2544.121632
562.729770	2543.952753
563.086307	2546.508618
563.442789	2543.136087
563.799216	2547.068187
564.155587	2545.535676
564.511904	2547.418547
564.868164	2544.744215
565.224370	2544.522404
565.580520	2542.931920
565.936615	2545.114739
566.292654	2542.994934
566.648638	2546.034750
567.004567	2542.158103
567.360441	2543.461241
567.716260	2544.270346
568.072023	2544.471992
568.427732	2540.466796
568.783385	2544.023330
569.138982	2540.428987
569.494525	2540.764224
569.850013	2539.468647
570.205445	2545.424770
570.560823	2546.077600
570.916145	2544.368649
571.271412	2542.866385
571.626625	2544.648433
571.981782	2542.047197
572.336884	2545.220604
572.691931	2544.895449
573.046923	2544.734132
573.401860	2545.848227
573.756743	2546.128011
574.111570	2543.347815
574.466342	2545.044163
574.821059	2545.109698
575.175722	2542.493339
575.530330	2543.720860
575.884882	2545.686910
576.239380	2544.890408
576.593823	2545.777651
576.948211	2544.703885
577.302544	2544.860161
577.656823	2542.765562
578.011047	2544.078782
578.365216	2544.708927
578.719330	2544.260264
579.073389	2545.260933
579.427394	2540.592824
579.781344	2545.160110
580.135239	2548.061294
580.489080	2543.156251
580.842866	2544.179605
581.196597	2546.768238
581.550273	2543.940151
581.903895	2544.083823
582.257463	2545.654143
582.610975	2542.505942
582.964434	2544.383772
583.317837	2543.441076
583.671186	2546.314534
584.024481	2545.296221
584.377721	2543.655325
584.730906	2545.399565
585.084037	2546.271684
585.437113	2543.138607
585.790135	2546.327137
586.143103	2548.267981
586.496016	2545.059287
586.848874	2540.265149
587.201679	2541.812784
587.554428	2543.728422
587.907124	2540.542413
588.259765	2540.123997
588.612352	2543.062990
588.964884	2542.306817
589.317362	2545.180274
589.669786	2545.581046
590.022155	2545.434853
590.374470	2545.220604
590.726731	2546.611962
591.078937	2543.176416
591.431090	2545.447456
591.783188	2543.045346
592.135232	2543.370500
592.487222	2543.683052
592.839157	2545.991900
593.191038	2544.736653
593.542866	2545.177754
593.894639	2545.696993
594.246358	2543.554502
594.598022	2545.699513
594.949633	2541.671631
595.301190	2544.572815
595.652692	2542.440407
596.004141	2543.181457
596.355535	2546.064997
596.706876	2542.354708
597.058162	2542.374872
597.409395	2543.683052
597.760573	2544.716488
598.111698	2544.179605
598.462768	2545.553320
598.813785	2543.080634
599.164748	2543.983000
599.515657	2541.318751
599.866511	2545.608773
600.217312	2542.803370
600.568060	2543.587270
600.918753	2546.221273
601.269392	2541.722043
601.619978	2544.232537
601.970510	2544.096426
602.320988	2542.090047
602.671412	2542.165664
603.021783	2543.514173
603.372100	2545.210521
603.722363	2540.970911
604.072572	2541.008720
604.422728	2545.429812
604.772830	2541.507794
605.122878	2540.068544
605.472872	2540.043339
605.822813	2540.378575
606.172701	2542.405119
606.522534	2541.071734
606.872314	2543.292362
607.222041	2541.089378
607.571714	2542.216076
607.921333	2542.173226
608.270899	2544.517363
608.620411	2545.165151
608.969870	2543.219266
609.319276	2543.680531
609.668627	2550.181099
610.017926	2551.761501
610.367171	2552.840308
610.716362	2549.445091
611.065500	2548.762014
611.414585	2549.155224
611.763616	2545.137425
612.112594	2545.991900
612.461518	2545.729760
612.810389	2545.694472
613.159207	2544.918134
613.507971	2543.640202
613.856682	2543.395706
614.205340	2542.863864
614.553945	2543.478885
614.902496	2541.356559
615.250994	2543.100798
615.599439	2541.608617
615.947830	2544.134235
616.296169	2542.969728
616.644454	2544.383772
616.992686	2542.309337
617.340864	2543.917465
617.688990	2540.986034
618.037063	2541.880839
618.385082	2540.665921
618.733048	2543.766231
619.080961	2544.557692
619.428821	2543.486447
619.776628	2542.740356
620.124382	2544.645912
620.472083	2544.242620
620.819731	2542.611807
621.167326	2544.091385
621.514868	2545.323947
621.862357	2545.119781
622.209793	2543.388144
622.557176	2542.815973
622.904506	2541.391847
623.251783	2539.133410
623.599007	2542.490819
623.946179	2538.452855
624.293297	2539.201466
624.640363	2543.327650
624.987376	2544.366128
625.334336	2541.346477
625.681243	2543.282280
626.028097	2542.521066
626.374899	2542.659698
626.721647	2542.122815
627.068343	2542.205994
627.414987	2541.656508
627.761577	2542.090047
628.108115	2541.482588
628.454600	2541.918648
628.801032	2541.739687
629.147412	2542.236241
629.493739	2540.799512
629.840014	2544.025850
630.186236	2545.039122
630.532405	2539.957639
630.878521	2543.035263
631.224585	2541.308668
631.570597	2542.284132
631.916556	2541.671631
632.262462	2540.524769
632.608316	2540.575180
632.954117	2540.547454
633.299866	2541.916127
633.645562	2540.711292
633.991206	2544.535007
634.336797	2539.062834
634.682336	2541.207845
635.027823	2541.976621
635.373257	2543.612476
635.718639	2539.670293
636.063968	2541.250695
636.409245	2541.046528
636.754470	2540.693647
637.099642	2539.672814
637.444762	2541.797660
637.789829	2540.923020
638.134845	2540.938143
638.479808	2539.418236
638.824719	2542.243802
639.169577	2537.860519
639.514383	2543.360418
639.859137	2540.466796
640.203839	2543.040305
640.548489	2541.543082
640.893086	2539.919830
641.237632	2537.041332
641.582125	2536.743903
641.926566	2532.801721
642.270955	2540.113915
642.615292	2539.352701
642.959576	2537.951260
643.303809	2541.991745
643.647990	2541.144831
643.992118	2541.996786
644.336195	2537.994110
