Dividing Wavelength (nm)	Counts (n)	Blue Motor Position (mm): 0.000000	Red Motor Position (mm): 14.000000	
326.493990	2128.294495
326.888308	2128.294495
327.282561	2128.294495
327.676750	2097.215782
328.070874	2095.947932
328.464933	2095.148909
328.858929	2105.616865
329.252859	2111.499891
329.646726	2125.184103
330.040528	2135.558798
330.434265	2153.974133
330.827938	2171.109015
331.221547	2191.344207
331.615091	2210.188040
332.008571	2228.391646
332.401986	2248.969636
332.795338	2267.185846
333.188625	2284.945831
333.581847	2305.150775
333.975006	2321.947900
334.368100	2342.054542
334.761129	2357.956862
335.154095	2376.246168
335.546996	2393.083622
335.939833	2407.818914
336.332606	2422.460946
336.725315	2435.847730
337.117960	2443.885850
337.510540	2453.219546
337.903056	2465.028449
338.295508	2471.834007
338.687896	2481.288691
339.080220	2488.739516
339.472480	2495.154384
339.864676	2498.738645
340.256807	2503.668893
340.648875	2505.327433
341.040879	2507.686693
341.432818	2513.526869
341.824694	2511.268433
342.216506	2512.241375
342.608253	2513.776407
342.999937	2512.609379
343.391557	2513.126098
343.783113	2511.220542
344.174605	2509.418329
344.566033	2508.578977
344.957397	2509.705675
345.348697	2504.147803
345.739934	2503.898266
346.131106	2501.145796
346.522215	2500.792915
346.913260	2496.686895
347.304241	2498.174035
347.695159	2494.239415
348.086012	2495.411483
348.476802	2491.940649
348.867528	2492.202789
349.258191	2488.731954
349.648789	2488.621049
350.039324	2488.200112
350.429796	2486.027375
350.820203	2486.425626
351.210548	2482.891777
351.600828	2480.182157
351.991045	2483.542086
352.381198	2480.570326
352.771288	2482.924545
353.161314	2483.191726
353.551276	2479.786427
353.941175	2478.556385
354.331010	2483.627786
354.720782	2480.787096
355.110490	2481.202991
355.500135	2481.016468
355.889717	2481.485296
356.279235	2478.816005
356.668689	2480.414050
357.058080	2479.816674
357.447408	2479.335243
357.836672	2478.024543
358.225873	2479.388176
358.615010	2480.257775
359.004084	2483.708444
359.393095	2481.697024
359.782043	2484.210039
360.170927	2485.815647
360.559748	2485.550986
360.948505	2487.398569
361.337199	2487.804382
361.725830	2485.941676
362.114398	2489.319249
362.502903	2489.016779
362.891344	2491.829743
363.279722	2489.672129
363.668037	2490.093066
364.056289	2492.119610
364.444478	2490.685401
364.832603	2492.822851
365.220665	2495.383757
365.608665	2493.374857
365.996601	2493.999960
366.384474	2495.184631
366.772284	2497.236381
367.160031	2500.084633
367.547715	2502.587566
367.935336	2502.080930
368.322893	2507.671569
368.710388	2508.079903
369.097820	2517.579957
369.485189	2516.748167
369.872495	2523.508354
370.259738	2528.821730
370.646918	2535.715508
371.034035	2544.151879
371.421090	2555.295350
371.808081	2565.039900
372.195010	2572.982238
372.581875	2588.418251
372.968678	2600.433841
373.355418	2609.223093
373.742096	2627.512399
374.128710	2643.316416
374.515262	2658.747388
374.901751	2674.758093
375.288177	2686.002387
375.674540	2712.337374
376.060841	2726.853377
376.447079	2746.339957
376.833254	2767.633791
377.219367	2778.373969
377.605417	2815.532314
377.991404	2825.972544
378.377329	2846.590863
378.763191	2864.524768
379.148991	2901.080695
379.534727	2927.761002
379.920402	2952.485341
380.306013	2965.090746
380.691563	3012.764938
381.077049	3036.702857
381.462474	3056.527194
381.847835	3092.747885
382.233134	3117.101699
382.618371	3117.467182
383.003545	3184.123839
383.388657	3191.569623
383.773706	3219.439642
384.158693	3239.175760
384.543618	3263.905140
384.928480	3299.157929
385.313280	3348.415043
385.698017	3344.261132
386.082692	3399.252559
386.467305	3402.181469
386.851856	3436.630194
387.236344	3458.607104
387.620770	3487.107268
388.005133	3515.879653
388.389435	3541.644991
388.773674	3553.093451
389.157851	3592.905963
389.541965	3607.258128
389.926018	3568.113569
390.310008	3639.279538
390.693936	3654.521466
391.077802	3689.880119
391.461606	3674.123993
391.845348	3733.579362
392.229027	3723.986046
392.612645	3728.480234
392.996200	3797.818785
393.379694	3819.246209
393.763125	3867.323694
394.146494	3825.580419
394.529801	3872.979868
394.913047	3894.339237
395.296230	3849.213348
395.679351	3879.687123
396.062410	3878.459602
396.445408	3843.312678
396.828343	3849.188143
397.211217	3847.582535
397.594028	3755.359667
397.976778	3785.425108
398.359466	3780.580559
398.742092	3770.848612
399.124656	3685.459028
399.507158	3713.523131
399.889598	3708.539950
400.271977	3716.346177
400.654294	3666.645441
401.036549	3631.165801
401.418742	3581.361721
401.800874	3609.161164
402.182944	3584.961105
402.564952	3586.206270
402.946898	3543.956360
403.328783	3501.192252
403.710606	3417.816608
404.092367	3476.205773
404.474067	3421.002617
404.855705	3386.362329
405.237282	3319.403203
405.618797	3323.824295
406.000250	3300.766057
406.381642	3293.085859
406.762972	3243.891759
407.144240	3205.435317
407.525447	3173.587828
407.906593	3152.460352
408.287677	3127.189048
408.668700	3069.735017
409.049661	3052.534600
409.430560	3028.384953
409.811399	2979.596666
410.192176	2982.694455
410.572891	2943.023095
410.953545	2927.095569
411.334138	2880.094371
411.714669	2866.349665
412.095139	2822.607573
412.475547	2815.769248
412.855894	2792.708490
413.236180	2769.047834
413.616405	2743.705954
413.996568	2734.780591
414.376670	2708.836293
414.756711	2692.235773
415.136691	2678.344874
415.516609	2666.535971
415.896466	2658.328972
416.276262	2643.157620
416.655997	2629.357461
417.035670	2620.598457
417.415283	2619.691049
417.794834	2605.921137
418.174324	2594.628953
418.553753	2584.634865
418.933121	2583.490523
419.312428	2577.579770
419.691674	2570.330591
420.070859	2568.631722
420.449983	2559.534960
420.829045	2557.236194
421.208047	2549.180430
421.586988	2549.636654
421.965867	2545.676828
422.344686	2545.263453
422.723444	2543.367980
423.102141	2538.064686
423.480777	2541.401930
423.859352	2537.535365
424.237866	2535.297092
424.616319	2535.171063
424.994712	2535.206352
425.373044	2532.859694
425.751314	2536.431352
426.129524	2534.818183
426.507673	2532.869777
426.885762	2530.316432
427.263789	2531.458254
427.641756	2532.514375
428.019662	2533.021011
428.397508	2532.476567
428.775292	2531.589324
429.153016	2532.305168
429.530679	2531.095291
429.908282	2528.131092
430.285824	2530.266021
430.663305	2531.556556
431.040726	2530.132430
431.418086	2530.079498
431.795385	2531.390198
432.172624	2528.587317
432.549802	2532.262318
432.926920	2529.656041
433.303977	2531.228881
433.680974	2532.310209
434.057910	2530.376926
434.434786	2529.867770
434.811601	2530.311391
435.188355	2529.716535
435.565050	2529.950949
435.941683	2532.285003
436.318257	2530.737369
436.694770	2527.090094
437.071222	2528.352903
437.447614	2528.541946
437.823946	2528.148736
438.200218	2532.353058
438.576429	2531.443130
438.952580	2531.760723
439.328670	2530.089580
439.704700	2530.523120
440.080670	2533.164684
440.456580	2534.976979
440.832429	2535.130734
441.208218	2531.526309
441.583947	2532.852133
441.959616	2532.249715
442.335224	2532.131248
442.710773	2532.438758
443.086261	2534.719880
443.461689	2531.042358
443.837057	2536.428831
444.212365	2534.256094
444.587612	2534.855991
444.962800	2534.891279
445.337927	2533.452030
445.712995	2532.547143
446.088002	2534.384643
446.462949	2532.935312
446.837837	2536.978317
447.212664	2533.641073
447.587431	2536.769109
447.962139	2533.217616
448.336786	2538.480581
448.711374	2536.590148
449.085901	2538.064686
449.460369	2534.823224
449.834776	2537.729449
450.209124	2533.988913
450.583412	2538.967052
450.957640	2538.588966
451.331808	2538.336908
451.705917	2538.049562
452.079965	2538.233564
452.453954	2536.128883
452.827883	2534.498069
453.201752	2536.859850
453.575562	2536.433873
453.949311	2541.038967
454.323001	2537.033770
454.696632	2537.174922
455.070202	2538.503266
455.443713	2537.507638
455.817164	2534.971938
456.190556	2535.307175
456.563888	2538.427649
456.937160	2537.270704
457.310373	2538.641898
457.683526	2539.947557
458.056619	2540.428987
458.429653	2539.695499
458.802628	2541.674152
459.175542	2537.724408
459.548398	2540.804553
459.921194	2539.879501
460.293930	2539.781199
460.666607	2538.392361
461.039224	2543.320089
461.411782	2544.338402
461.784280	2545.422250
462.156719	2543.299924
462.529099	2544.434184
462.901419	2543.433515
463.273680	2545.419729
463.645882	2543.685572
464.018024	2542.631971
464.390106	2542.899152
464.762130	2544.928217
465.134094	2545.278577
465.505999	2550.140770
465.877845	2552.147149
466.249631	2553.478014
466.621358	2550.672612
466.993026	2554.526574
467.364634	2557.440361
467.736184	2549.981973
468.107674	2549.795451
468.479105	2548.731767
468.850477	2550.982642
469.221790	2550.579350
469.593043	2546.135573
469.964238	2547.262271
470.335373	2547.975594
470.706449	2550.158414
471.077467	2550.780996
471.448425	2550.438198
471.819324	2559.592933
472.190164	2556.923642
472.560945	2551.660678
472.931667	2549.394679
473.302330	2551.958106
473.672934	2551.159083
474.043479	2551.675801
474.413965	2549.480379
474.784393	2547.030378
475.154761	2544.194729
475.525070	2545.676828
475.895321	2546.493495
476.265513	2548.230173
476.635645	2550.725544
477.005719	2549.389638
477.375734	2549.848383
477.745691	2552.346275
478.115588	2552.063970
478.485427	2551.678322
478.855207	2554.095555
479.224928	2558.390618
479.594591	2558.206616
479.964194	2556.507747
480.333739	2558.599826
480.703226	2556.185113
481.072653	2559.832388
481.442022	2559.368602
481.811333	2557.611760
482.180584	2557.349620
482.549777	2555.166800
482.918912	2553.989691
483.287988	2555.985988
483.657005	2556.805175
484.025964	2554.803837
484.394864	2554.834084
484.763706	2553.064639
485.132489	2554.839125
485.501213	2556.011193
485.869879	2552.389124
486.238487	2551.733774
486.607036	2553.399876
486.975527	2554.251831
487.343959	2556.777449
487.712333	2553.288970
488.080648	2553.301573
488.448905	2555.086142
488.817104	2554.665205
489.185244	2553.568754
489.553326	2555.625545
489.921350	2556.752243
490.289315	2559.779456
490.657222	2563.767009
491.025070	2559.446740
491.392861	2562.209292
491.760593	2560.926318
492.128267	2555.610422
492.495883	2557.147974
492.863440	2559.010680
493.230939	2555.189485
493.598380	2557.158056
493.965763	2550.082797
494.333088	2552.502550
494.700354	2551.958106
495.067563	2552.918446
495.434713	2548.865358
495.801805	2554.947510
496.168839	2557.934394
496.535815	2555.645710
496.902733	2553.495658
497.269593	2553.818292
497.636395	2554.246790
498.003139	2557.079918
498.369825	2555.486913
498.736453	2556.485062
499.103023	2555.262582
499.469535	2555.834753
499.835989	2554.647561
500.202385	2555.330638
500.568723	2554.045143
500.935003	2554.392983
501.301226	2554.052705
501.667390	2556.767367
502.033497	2557.528581
502.399546	2554.569423
502.765537	2556.296019
503.131470	2553.876265
503.497345	2556.578323
503.863163	2556.757284
504.228923	2558.123437
504.594625	2554.413148
504.960269	2555.365926
505.325856	2556.714434
505.691385	2554.355174
506.056856	2555.890206
506.422270	2555.456667
506.787625	2557.221070
507.152924	2554.098076
507.518164	2555.668395
507.883347	2555.433981
508.248472	2555.277706
508.613540	2554.851728
508.978550	2557.223591
509.343503	2553.825853
509.708398	2555.280226
510.073236	2556.752243
510.438016	2555.373487
510.802738	2554.193857
511.167403	2558.952707
511.532010	2554.057746
511.896561	2559.245094
512.261053	2556.089331
512.625488	2553.846018
512.989866	2552.931048
513.354186	2553.155380
513.718449	2553.588919
514.082655	2555.678477
514.446803	2556.245607
514.810894	2557.168138
515.174927	2555.968344
515.538904	2556.762325
515.902822	2555.801986
516.266684	2555.809547
516.630488	2555.078580
516.994235	2557.750392
517.357925	2554.836605
517.721558	2555.648230
518.085133	2557.546225
518.448651	2557.452963
518.812112	2555.060936
519.175516	2555.706204
519.538863	2556.364074
519.902152	2558.264589
520.265385	2556.505227
520.628560	2558.088149
520.991678	2555.544887
521.354739	2558.430947
521.717743	2556.540515
522.080690	2557.004301
522.443580	2556.676626
522.806413	2559.035886
523.169189	2554.163611
523.531908	2556.250648
523.894569	2556.585885
524.257174	2559.386246
524.619722	2553.243600
524.982213	2559.023283
525.344647	2556.676626
525.707025	2558.148643
526.069345	2559.229970
526.431608	2556.076728
526.793815	2558.897254
527.155964	2555.900288
527.518057	2557.654610
527.880093	2557.647048
528.242072	2557.818447
528.603995	2557.140412
528.965860	2557.299208
529.327669	2555.018086
529.689421	2557.725186
530.051117	2555.741492
530.412755	2556.953889
530.774337	2553.384752
531.135862	2556.336348
531.497331	2553.311656
531.858743	2550.748229
532.220098	2554.095555
532.581396	2552.273178
532.942638	2552.807540
533.303824	2555.827191
533.664953	2555.421378
534.026025	2555.466749
534.387040	2557.241235
534.747999	2556.684188
535.108902	2557.752912
535.469748	2558.148643
535.830537	2556.570762
536.191270	2556.548076
536.551947	2554.947510
536.912567	2558.239383
537.273131	2558.388097
537.633638	2557.170659
537.994089	2554.957592
538.354483	2554.302242
538.714821	2555.325597
539.075103	2556.742161
539.435328	2555.892726
539.795497	2555.930535
540.155609	2556.936245
540.515665	2559.161915
540.875665	2559.194682
541.235609	2556.477500
541.595496	2558.171328
541.955328	2555.766698
542.315102	2557.329455
542.674821	2556.699311
543.034483	2559.618139
543.394090	2555.335679
543.753640	2560.041596
544.113134	2554.932387
544.472571	2556.202757
544.831953	2556.701832
545.191278	2557.815927
545.550548	2557.357182
545.909761	2557.730227
546.268918	2555.731409
546.628019	2556.086811
546.987064	2555.093703
547.346053	2556.497665
547.704986	2557.221070
548.063863	2556.779969
548.422684	2558.100752
548.781449	2557.899106
549.140158	2554.962633
549.498811	2556.648899
549.857408	2555.476831
550.215949	2554.766028
550.574434	2550.914587
550.932864	2553.672098
551.291237	2553.054557
551.649555	2559.383725
552.007817	2555.822150
552.366022	2557.810885
552.724173	2556.351471
553.082267	2557.387428
553.440305	2554.972716
553.798288	2559.282902
554.156215	2557.838612
554.514086	2556.868190
554.871902	2555.123950
555.229661	2555.693601
555.587365	2554.695452
555.945014	2557.798283
556.302606	2558.254507
556.660143	2557.818447
557.017625	2556.296019
557.375050	2555.733930
557.732421	2559.834909
558.089735	2558.869528
558.446994	2556.860628
558.804197	2556.611091
559.161345	2557.868859
559.518437	2557.674774
559.875474	2558.231822
560.232455	2558.125957
560.589381	2558.216698
560.946251	2558.509085
561.303065	2559.232491
561.659825	2556.406924
562.016528	2556.074208
562.373177	2557.432799
562.729770	2557.906667
563.086307	2556.749722
563.442789	2555.401214
563.799216	2556.356513
564.155587	2555.486913
564.511904	2556.114537
564.868164	2554.907181
565.224370	2556.308622
565.580520	2554.922304
565.936615	2556.885834
566.292654	2554.103117
566.648638	2556.931204
567.004567	2556.064126
567.360441	2556.245607
567.716260	2553.846018
568.072023	2552.351316
568.427732	2551.149001
568.783385	2553.667057
569.138982	2553.120092
569.494525	2551.706048
569.850013	2553.903991
570.205445	2557.851215
570.560823	2558.408262
570.916145	2557.629404
571.271412	2555.305432
571.626625	2555.590257
571.981782	2553.861141
572.336884	2555.272664
572.691931	2555.595298
573.046923	2552.275698
573.401860	2556.321224
573.756743	2554.657644
574.111570	2554.062788
574.466342	2555.620504
574.821059	2555.355843
575.175722	2554.771070
575.530330	2551.695966
575.884882	2551.612787
576.239380	2555.002963
576.593823	2558.156204
576.948211	2557.188303
577.302544	2556.260731
577.656823	2553.455328
578.011047	2555.096224
578.365216	2554.879454
578.719330	2557.810885
579.073389	2553.384752
579.427394	2552.063970
579.781344	2554.113199
580.135239	2554.471121
580.489080	2552.779814
580.842866	2552.757129
581.196597	2554.861810
581.550273	2554.876934
581.903895	2556.391801
582.257463	2553.127653
582.610975	2556.331307
582.964434	2553.488096
583.317837	2553.820812
583.671186	2556.487582
584.024481	2554.004814
584.377721	2554.163611
584.730906	2554.498847
585.084037	2554.551779
585.437113	2551.965668
585.790135	2554.382901
586.143103	2554.105637
586.496016	2553.137736
586.848874	2549.818136
587.201679	2554.299722
587.554428	2552.505071
587.907124	2550.337375
588.259765	2551.660678
588.612352	2553.777962
588.964884	2555.766697
589.317362	2556.369115
589.669786	2551.257385
590.022155	2554.735782
590.374470	2554.793755
590.726731	2553.515822
591.078937	2553.362067
591.431090	2555.905329
591.783188	2554.047664
592.135232	2554.564382
592.487222	2554.168652
592.839157	2552.056408
593.191038	2555.103786
593.542866	2553.611604
593.894639	2551.748898
594.246358	2552.409289
594.598022	2554.884496
594.949633	2551.421223
595.301190	2553.775442
595.652692	2552.043805
596.004141	2552.560524
596.355535	2555.071018
596.706876	2553.611604
597.058162	2552.855431
597.409395	2552.724361
597.760573	2553.125133
598.111698	2552.414330
598.462768	2552.915925
598.813785	2552.283260
599.164748	2552.353836
599.515657	2550.952396
599.866511	2550.997766
600.217312	2553.891388
600.568060	2550.975081
600.918753	2554.125802
601.269392	2551.743857
601.619978	2549.881150
601.970510	2553.896429
602.320988	2548.794782
602.671412	2550.970040
603.021783	2551.847200
603.372100	2548.653629
603.722363	2553.132695
604.072572	2551.005328
604.422728	2555.718807
604.772830	2547.957950
605.122878	2546.128011
605.472872	2548.804864
605.822813	2547.040460
606.172701	2548.787220
606.522534	2552.038764
606.872314	2552.482386
607.222041	2552.772252
607.571714	2552.154711
607.921333	2552.149670
608.270899	2550.907025
608.620411	2554.692932
608.969870	2555.426420
609.319276	2555.728889
609.668627	2559.971020
610.017926	2556.399362
610.367171	2559.227450
610.716362	2559.547563
611.065500	2557.589075
611.414585	2557.281564
611.763616	2555.305432
612.112594	2553.725030
612.461518	2555.726368
612.810389	2554.335010
613.159207	2554.027499
613.507971	2553.959444
613.856682	2553.861141
614.205340	2551.335523
614.553945	2555.570093
614.902496	2555.081101
615.250994	2553.283929
615.599439	2552.568085
615.947830	2552.391645
616.296169	2552.731923
616.644454	2553.697304
616.992686	2551.542211
617.340864	2553.026830
617.688990	2553.364588
618.037063	2552.547921
618.385082	2553.601522
618.733048	2555.249979
619.080961	2553.278888
619.428821	2553.790565
619.776628	2553.442726
620.124382	2552.857952
620.472083	2552.847869
620.819731	2553.057077
621.167326	2551.305276
621.514868	2553.586398
621.862357	2551.912735
622.209793	2550.120605
622.557176	2555.764177
622.904506	2548.315872
623.251783	2545.568443
623.599007	2549.046839
623.946179	2546.042312
624.293297	2547.068187
624.640363	2548.789741
624.987376	2551.713610
625.334336	2550.541542
625.681243	2550.070194
626.028097	2550.430636
626.374899	2552.401727
626.721647	2552.900802
627.068343	2552.096738
627.414987	2550.155893
627.761577	2549.803013
628.108115	2550.349978
628.454600	2550.009700
628.801032	2544.905532
629.147412	2547.907539
629.493739	2551.418702
629.840014	2551.479196
630.186236	2548.595656
630.532405	2550.196223
630.878521	2551.297715
631.224585	2549.656819
631.570597	2552.336192
631.916556	2549.218239
632.262462	2547.118598
632.608316	2549.750080
632.954117	2551.907694
633.299866	2549.729916
633.645562	2548.043650
633.991206	2550.521377
634.336797	2549.238403
634.682336	2549.767724
635.027823	2547.539534
635.373257	2548.008362
635.718639	2547.201777
636.063968	2549.079607
636.409245	2547.378217
636.754470	2549.303938
637.099642	2546.682538
637.444762	2546.009544
637.789829	2548.547765
638.134845	2548.441901
638.479808	2546.685059
638.824719	2545.608772
639.169577	2546.254040
639.514383	2544.716488
639.859137	2546.611962
640.203839	2543.741025
640.548489	2546.062476
640.893086	2545.364277
641.237632	2545.623896
641.582125	2544.008206
641.926566	2542.110212
642.270955	2545.974256
642.615292	2546.536345
642.959576	2548.086500
643.303809	2545.762528
643.647990	2544.842517
643.992118	2545.409647
644.336195	2547.698331
