Dividing Wavelength (nm)	Counts (n)	Blue Motor Position (mm): 0.000000	Red Motor Position (mm): 0.400000	
326.493990	2127.860956
326.888308	2127.860956
327.282561	2127.860956
327.676750	2095.574886
328.070874	2094.967427
328.464933	2095.761409
328.858929	2103.514704
329.252859	2113.768411
329.646726	2124.289299
330.040528	2138.548202
330.434265	2154.747950
330.827938	2171.892914
331.221547	2189.950328
331.615091	2207.720395
332.008571	2228.333673
332.401986	2248.833525
332.795338	2268.090733
333.188625	2287.385749
333.581847	2306.736218
333.975006	2325.869918
334.368100	2341.212669
334.761129	2359.857377
335.154095	2377.035108
335.546996	2395.163098
335.939833	2408.103740
336.332606	2422.014804
336.725315	2435.237750
337.117960	2443.449790
337.510540	2454.341203
337.903056	2464.390743
338.295508	2471.339973
338.687896	2476.948257
339.080220	2489.508292
339.472480	2493.122799
339.864676	2500.661845
340.256807	2504.490601
340.648875	2505.135869
341.040879	2508.798267
341.432818	2510.325737
341.824694	2513.247085
342.216506	2510.292969
342.608253	2513.627693
342.999937	2510.900428
343.391557	2510.532424
343.783113	2511.182733
344.174605	2508.457989
344.566033	2509.216683
344.957397	2507.795078
345.348697	2505.415653
345.739934	2502.799294
346.131106	2500.525734
346.522215	2501.990189
346.913260	2497.556494
347.304241	2494.355361
347.695159	2492.288488
348.086012	2493.531133
348.476802	2490.692963
348.867528	2488.182468
349.258191	2486.332365
349.648789	2488.152222
350.039324	2485.825729
350.429796	2483.852117
350.820203	2482.206181
351.210548	2483.761377
351.600828	2480.643423
351.991045	2482.216263
352.381198	2480.499750
352.771288	2480.829946
353.161314	2477.404482
353.551276	2479.264667
353.941175	2477.895994
354.331010	2478.332054
354.720782	2478.004379
355.110490	2479.892291
355.500135	2482.188537
355.889717	2477.439770
356.279235	2477.911117
356.668689	2479.887250
357.058080	2479.650316
357.447408	2475.254429
357.836672	2474.344501
358.225873	2476.865078
358.615010	2476.237454
359.004084	2481.452528
359.393095	2482.775831
359.782043	2481.767600
360.170927	2481.676859
360.559748	2483.342961
360.948505	2484.754484
361.337199	2486.503764
361.725830	2486.082828
362.114398	2485.077118
362.502903	2486.423106
362.891344	2486.962509
363.279722	2486.952427
363.668037	2486.392859
364.056289	2484.799854
364.444478	2488.787407
364.832603	2487.532160
365.220665	2491.426451
365.608665	2487.640544
365.996601	2490.844198
366.384474	2490.907212
366.772284	2491.355875
367.160031	2490.007366
367.547715	2490.783704
367.935336	2492.192706
368.322893	2489.175576
368.710388	2494.390649
369.097820	2492.948879
369.485189	2493.463077
369.872495	2492.379229
370.259738	2493.543736
370.646918	2494.574652
371.034035	2494.413335
371.421090	2493.498365
371.808081	2495.179590
372.195010	2494.342758
372.581875	2496.177738
372.968678	2493.737820
373.355418	2495.391318
373.742096	2496.901144
374.128710	2497.344766
374.515262	2494.751092
374.901751	2495.169508
375.288177	2497.135558
375.674540	2494.972903
376.060841	2496.250835
376.447079	2494.927532
376.833254	2498.163953
377.219367	2494.143633
377.605417	2495.063643
377.991404	2494.940135
378.377329	2496.223109
378.763191	2494.766215
379.148991	2496.064313
379.534727	2495.998778
379.920402	2496.979282
380.306013	2498.910044
380.691563	2498.204282
381.077049	2498.191679
381.462474	2498.935250
381.847835	2499.792246
382.233134	2497.909375
382.618371	2501.171001
383.003545	2498.733603
383.388657	2499.562873
383.773706	2505.430776
384.158693	2499.651093
384.543618	2501.791063
384.928480	2499.424242
385.313280	2503.331136
385.698017	2502.675786
386.082692	2504.011692
386.467305	2503.636126
386.851856	2503.101763
387.236344	2501.707884
387.620770	2505.332474
388.005133	2502.764006
388.389435	2502.665703
388.773674	2502.910199
389.157851	2502.612771
389.541965	2504.840961
389.926018	2503.437000
390.310008	2503.300889
390.693936	2504.268790
391.077802	2503.132010
391.461606	2501.914572
391.845348	2507.379182
392.229027	2505.503873
392.612645	2504.188132
392.996200	2505.488750
393.379694	2505.697958
393.763125	2504.601507
394.146494	2506.287772
394.529801	2505.534120
394.913047	2504.175529
395.296230	2505.556805
395.679351	2507.822804
396.062410	2505.087978
396.445408	2505.786178
396.828343	2509.239368
397.211217	2502.285096
397.594028	2506.491939
397.976778	2502.879953
398.359466	2502.113697
398.742092	2502.390961
399.124656	2507.936230
399.507158	2507.502691
399.889598	2508.508401
400.271977	2508.987310
400.654294	2509.045284
401.036549	2508.442866
401.418742	2511.608710
401.800874	2509.050325
402.182944	2510.545027
402.564952	2509.257012
402.946898	2511.359173
403.328783	2509.498988
403.710606	2511.336488
404.092367	2509.042763
404.474067	2511.976715
404.855705	2511.747342
405.237282	2513.378155
405.618797	2510.378669
406.000250	2511.175171
406.381642	2513.173989
406.762972	2507.268277
407.144240	2510.587877
407.525447	2514.628362
407.906593	2511.165089
408.287677	2513.678104
408.668700	2514.953516
409.049661	2513.005110
409.430560	2512.667353
409.811399	2511.311282
410.192176	2514.517456
410.572891	2512.480830
410.953545	2512.891684
411.334138	2514.542662
411.714669	2514.822446
412.095139	2513.562158
412.475547	2514.409071
412.855894	2514.923269
413.236180	2512.473268
413.616405	2515.162724
413.996568	2514.003258
414.376670	2516.687673
414.756711	2516.944772
415.136691	2514.527538
415.516609	2513.869668
415.896466	2512.942096
416.276262	2516.644823
416.655997	2512.727847
417.035670	2512.558968
417.415283	2513.846983
417.794834	2511.540655
418.174324	2515.886129
418.553753	2515.208094
418.933121	2513.872188
419.312428	2516.607014
419.691674	2515.797909
420.070859	2515.361849
420.449983	2516.861593
420.829045	2518.588188
421.208047	2517.582478
421.586988	2517.431243
421.965867	2517.348064
422.344686	2519.349402
422.723444	2518.111799
423.102141	2518.457118
423.480777	2515.762621
423.859352	2518.111799
424.237866	2518.041223
424.616319	2520.697911
424.994712	2518.865451
425.373044	2520.239166
425.751314	2518.520132
426.129524	2518.073990
426.507673	2521.040709
426.885762	2517.642972
427.263789	2519.848476
427.641756	2518.424350
428.019662	2519.946779
428.397508	2517.685821
428.775292	2521.154135
429.153016	2521.532222
429.530679	2521.501975
429.908282	2519.493075
430.285824	2520.672705
430.663305	2518.714217
431.040726	2519.886285
431.418086	2517.587519
431.795385	2522.031296
432.172624	2520.360153
432.549802	2519.929135
432.926920	2520.823940
433.303977	2520.725637
433.680974	2521.877541
434.057910	2521.433919
434.434786	2521.050792
434.811601	2522.623632
435.188355	2518.101717
435.565050	2520.818898
435.941683	2522.976512
436.318257	2517.476613
436.694770	2519.558610
437.071222	2517.539628
437.447614	2516.909484
437.823946	2517.582478
438.200218	2518.744464
438.576429	2525.076153
438.952580	2524.302336
439.328670	2523.732685
439.704700	2520.471059
440.080670	2523.062212
440.456580	2522.608508
440.832429	2522.474917
441.208218	2520.115657
441.583947	2522.263189
441.959616	2522.273271
442.335224	2524.509023
442.710773	2522.651358
443.086261	2523.964578
443.461689	2520.768487
443.837057	2521.882582
444.212365	2524.715710
444.587612	2524.020031
444.962800	2522.265710
445.337927	2527.052285
445.712995	2526.210412
446.088002	2525.386184
446.462949	2524.488858
446.837837	2524.776204
447.212664	2525.597912
447.587431	2525.408869
447.962139	2525.681091
448.336786	2527.805938
448.711374	2526.233098
449.085901	2526.472553
449.460369	2523.992305
449.834776	2525.423992
450.209124	2522.845442
450.583412	2521.708662
450.957640	2525.013138
451.331808	2523.311749
451.705917	2521.801923
452.079965	2529.381298
452.453954	2523.309228
452.827883	2526.374250
453.201752	2525.260155
453.575562	2526.049096
453.949311	2525.257634
454.323001	2526.424662
454.696632	2527.057326
455.070202	2528.635208
455.443713	2526.767460
455.817164	2525.020700
456.190556	2521.975843
456.563888	2520.934845
456.937160	2523.079856
457.310373	2526.964065
457.683526	2526.134795
458.056619	2526.311236
458.429653	2525.429034
458.802628	2528.184024
459.175542	2526.517923
459.548398	2527.344672
459.921194	2526.855680
460.293930	2526.573376
460.666607	2527.803417
461.039224	2526.419620
461.411782	2528.307533
461.784280	2526.991791
462.156719	2528.373067
462.529099	2526.848118
462.901419	2525.446678
463.273680	2527.982378
463.645882	2527.563962
464.018024	2528.541946
464.390106	2525.875176
464.762130	2529.998840
465.134094	2525.386184
465.505999	2527.843746
465.877845	2527.284178
466.249631	2528.678057
466.621358	2527.001874
466.993026	2531.543953
467.364634	2533.694005
467.736184	2526.853160
468.107674	2525.459281
468.479105	2526.454908
468.850477	2529.630835
469.221790	2531.024714
469.593043	2527.523633
469.964238	2528.022707
470.335373	2528.468849
470.706449	2529.109076
471.077467	2533.056299
471.448425	2532.133768
471.819324	2529.691329
472.190164	2529.706453
472.560945	2527.533715
472.931667	2529.575383
473.302330	2528.758716
473.672934	2530.455064
474.043479	2531.891793
474.413965	2528.017666
474.784393	2525.597912
475.154761	2527.185876
475.525070	2526.601102
475.895321	2525.902902
476.265513	2525.013138
476.635645	2530.240815
477.005719	2526.933818
477.375734	2528.577234
477.745691	2528.370547
478.115588	2529.973634
478.485427	2530.936494
478.855207	2529.431710
479.224928	2529.063706
479.594591	2530.276103
479.964194	2530.455064
480.333739	2531.352389
480.703226	2530.691998
481.072653	2529.630835
481.442022	2530.714683
481.811333	2528.373067
482.180584	2532.027904
482.549777	2531.909437
482.918912	2530.404653
483.287988	2533.273069
483.657005	2529.242667
484.025964	2532.733666
484.394864	2531.213758
484.763706	2533.275590
485.132489	2529.935825
485.501213	2530.134951
485.869879	2529.555218
486.238487	2532.297606
486.607036	2531.279293
486.975527	2532.869777
487.343959	2530.303829
487.712333	2534.167874
488.080648	2529.928263
488.448905	2530.618902
488.817104	2530.102183
489.185244	2531.327184
489.553326	2532.547143
489.921350	2530.255938
490.289315	2529.739220
490.657222	2532.216947
491.025070	2532.766433
491.392861	2529.852646
491.760593	2533.517565
492.128267	2535.599562
492.495883	2533.212575
492.863440	2531.203675
493.230939	2527.533715
493.598380	2530.029087
493.965763	2529.308202
494.333088	2527.374919
494.700354	2527.992460
495.067563	2530.021525
495.434713	2528.448685
495.801805	2532.237112
496.168839	2532.753830
496.535815	2528.862059
496.902733	2532.083357
497.269593	2533.499921
497.636395	2532.794159
498.003139	2529.895496
498.369825	2529.736700
498.736453	2534.306506
499.103023	2529.101514
499.469535	2531.906916
499.835989	2532.010260
500.202385	2531.359951
500.568723	2533.172246
500.935003	2533.341125
501.301226	2533.411701
501.667390	2531.428007
502.033497	2533.426824
502.399546	2534.235929
502.765537	2532.605116
503.131470	2535.032432
503.497345	2533.215096
503.863163	2536.491846
504.228923	2530.739889
504.594625	2533.880528
504.960269	2533.575538
505.325856	2533.976310
505.691385	2535.614685
506.056856	2534.253573
506.422270	2533.041176
506.787625	2531.637215
507.152924	2534.175436
507.518164	2532.043028
507.883347	2534.951773
508.248472	2532.312729
508.613540	2533.008408
508.978550	2534.389685
509.343503	2531.632173
509.708398	2534.666948
510.073236	2535.468492
510.438016	2533.404139
510.802738	2534.341794
511.167403	2532.441279
511.532010	2532.627801
511.896561	2533.336083
512.261053	2535.586959
512.625488	2528.229395
512.989866	2529.552698
513.354186	2529.630835
513.718449	2529.736700
514.082655	2531.307019
514.446803	2535.677699
514.810894	2534.162833
515.174927	2537.089223
515.538904	2536.406146
515.902822	2534.064530
516.266684	2532.108563
516.630488	2533.923378
516.994235	2534.326670
517.357925	2532.736186
517.721558	2536.753986
518.085133	2534.188038
518.448651	2534.004036
518.812112	2535.637370
519.175516	2535.259284
519.538863	2534.011598
519.902152	2535.350024
520.265385	2532.705939
520.628560	2535.455889
520.991678	2532.668131
521.354739	2533.605785
521.717743	2533.512524
522.080690	2535.317257
522.443580	2533.615867
522.806413	2530.981865
523.169189	2532.458923
523.531908	2532.824406
523.894569	2536.509490
524.257174	2533.527647
524.619722	2534.896321
524.982213	2535.357586
525.344647	2535.758358
525.707025	2534.341794
526.069345	2531.720394
526.431608	2535.904551
526.793815	2533.666279
527.155964	2534.740045
527.518057	2534.861032
527.880093	2533.890610
528.242072	2533.247863
528.603995	2537.215251
528.965860	2535.140817
529.327669	2535.566794
529.689421	2535.728111
530.051117	2537.492515
530.412755	2536.950591
530.774337	2537.873122
531.135862	2535.811290
531.497331	2530.936494
531.858743	2530.339117
532.220098	2532.867256
532.581396	2529.524971
532.942638	2533.963707
533.303824	2534.266176
533.664953	2537.404295
534.026025	2535.849099
534.387040	2535.034952
534.747999	2533.089067
535.108902	2534.707277
535.469748	2534.455220
535.830537	2536.348173
536.191270	2536.774150
536.551947	2536.784233
536.912567	2534.924047
537.273131	2536.930426
537.633638	2533.552853
537.994089	2536.166691
538.354483	2535.208872
538.714821	2537.512679
539.075103	2535.002185
539.435328	2535.150899
539.795497	2535.934798
540.155609	2535.145858
540.515665	2536.673327
540.875665	2537.525282
541.235609	2536.363296
541.595496	2537.384130
541.955328	2534.268697
542.315102	2536.796836
542.674821	2537.742052
543.034483	2535.944881
543.394090	2534.576207
543.753640	2535.975127
544.113134	2536.108718
544.472571	2535.831455
544.831953	2537.225334
545.191278	2534.732483
545.550548	2534.959335
545.909761	2535.339942
546.268918	2535.471012
546.628019	2537.079140
546.987064	2535.387833
547.346053	2536.196938
547.704986	2534.959335
548.063863	2536.479243
548.422684	2536.738862
548.781449	2534.946732
549.140158	2534.649304
549.498811	2536.799356
549.857408	2534.576207
550.215949	2534.072092
550.574434	2531.677544
550.932864	2533.585621
551.291237	2532.794159
551.649555	2537.875642
552.007817	2533.520086
552.366022	2535.589479
552.724173	2537.585776
553.082267	2535.720549
553.440305	2536.703574
553.798288	2533.199972
554.156215	2534.835827
554.514086	2536.040662
554.871902	2534.417411
555.229661	2534.959335
555.587365	2534.649304
555.945014	2534.563604
556.302606	2536.030580
556.660143	2536.035621
557.017625	2537.006043
557.375050	2533.174767
557.732421	2533.867925
558.089735	2538.929244
558.446994	2535.261804
558.804197	2534.755168
559.161345	2537.119469
559.518437	2535.304654
559.875474	2537.666435
560.232455	2536.721218
560.589381	2537.749614
560.946251	2537.734490
561.303065	2534.334232
561.659825	2538.226003
562.016528	2538.853626
562.373177	2534.775333
562.729770	2537.432021
563.086307	2539.766075
563.442789	2537.363965
563.799216	2536.522093
564.155587	2537.225334
564.511904	2536.370858
564.868164	2533.822555
565.224370	2535.138296
565.580520	2538.679707
565.936615	2535.375230
566.292654	2537.041332
566.648638	2534.893800
567.004567	2535.287010
567.360441	2536.484284
567.716260	2536.771630
568.072023	2536.501928
568.427732	2532.484128
568.783385	2533.172246
569.138982	2532.098480
569.494525	2535.501259
569.850013	2530.760054
570.205445	2537.527803
570.560823	2535.914634
570.916145	2533.058820
571.271412	2537.679037
571.626625	2537.311033
571.981782	2536.466640
572.336884	2537.016126
572.691931	2536.867412
573.046923	2535.781043
573.401860	2535.962525
573.756743	2536.955632
574.111570	2535.395395
574.466342	2538.205838
574.821059	2537.774819
575.175722	2537.532844
575.530330	2535.027391
575.884882	2538.180632
576.239380	2537.553009
576.593823	2536.784233
576.948211	2537.563091
577.302544	2537.099305
577.656823	2537.280786
578.011047	2537.489994
578.365216	2536.033101
578.719330	2536.290200
579.073389	2534.309026
579.427394	2535.765920
579.781344	2536.779192
580.135239	2536.927906
580.489080	2537.399253
580.842866	2537.459747
581.196597	2535.791125
581.550273	2539.372865
581.903895	2536.837165
582.257463	2537.313554
582.610975	2538.591486
582.964434	2534.964376
583.317837	2539.297248
583.671186	2534.709798
584.024481	2535.534027
584.377721	2537.326157
584.730906	2537.366486
585.084037	2537.363965
585.437113	2537.038811
585.790135	2538.546116
586.143103	2536.141486
586.496016	2538.430169
586.848874	2532.186700
587.201679	2536.784233
587.554428	2533.517565
587.907124	2536.146527
588.259765	2532.952956
588.612352	2537.505118
588.964884	2539.488812
589.317362	2534.230888
589.669786	2535.929757
590.022155	2537.747093
590.374470	2536.920344
590.726731	2536.413708
591.078937	2533.656197
591.431090	2535.065199
591.783188	2535.846578
592.135232	2537.515200
592.487222	2537.207690
592.839157	2536.285158
593.191038	2537.106867
593.542866	2535.302133
593.894639	2537.719367
594.246358	2536.920344
594.598022	2535.460930
594.949633	2539.725746
595.301190	2537.744572
595.652692	2534.271218
596.004141	2538.916641
596.355535	2539.466127
596.706876	2533.951104
597.058162	2537.174922
597.409395	2537.855478
597.760573	2536.761548
598.111698	2534.936650
598.462768	2537.832793
598.813785	2537.285828
599.164748	2538.815818
599.515657	2537.956301
599.866511	2535.773481
600.217312	2537.903369
600.568060	2535.977648
600.918753	2538.886394
601.269392	2538.563760
601.619978	2535.309695
601.970510	2536.189377
602.320988	2537.346321
602.671412	2536.617875
603.021783	2535.415559
603.372100	2540.514687
603.722363	2537.547968
604.072572	2536.580066
604.422728	2538.510828
604.772830	2533.605785
605.122878	2533.152081
605.472872	2535.304654
605.822813	2532.549663
606.172701	2536.262473
606.522534	2537.374048
606.872314	2538.924203
607.222041	2534.971938
607.571714	2535.050076
607.921333	2536.038142
608.270899	2538.848585
608.620411	2539.650129
608.969870	2537.091743
609.319276	2538.268852
609.668627	2540.751621
610.017926	2543.264636
610.367171	2544.056097
610.716362	2543.587270
611.065500	2540.118956
611.414585	2543.798998
611.763616	2538.659542
612.112594	2539.932433
612.461518	2538.009233
612.810389	2539.350180
613.159207	2538.226003
613.507971	2537.779861
613.856682	2537.328677
614.205340	2541.107022
614.553945	2537.371527
614.902496	2538.604089
615.250994	2536.481763
615.599439	2536.106197
615.947830	2536.239788
616.296169	2537.366486
616.644454	2538.387320
616.992686	2535.942360
617.340864	2535.370189
617.688990	2537.452186
618.037063	2537.424459
618.385082	2535.415559
618.733048	2535.569315
619.080961	2536.315405
619.428821	2537.487474
619.776628	2537.187525
620.124382	2539.025026
620.472083	2536.602751
620.819731	2539.261960
621.167326	2537.633667
621.514868	2536.436393
621.862357	2539.781199
622.209793	2535.715508
622.557176	2538.437731
622.904506	2535.975128
623.251783	2531.798532
623.599007	2534.006557
623.946179	2533.257946
624.293297	2532.668131
624.640363	2538.125180
624.987376	2537.086702
625.334336	2535.460930
625.681243	2538.160468
626.028097	2537.923533
626.374899	2537.512679
626.721647	2536.128883
627.068343	2537.812628
627.414987	2535.191228
627.761577	2537.346321
628.108115	2537.401774
628.454600	2538.616692
628.801032	2539.229192
629.147412	2538.210879
629.493739	2534.767771
629.840014	2539.014943
630.186236	2535.327339
630.532405	2537.363965
630.878521	2537.429500
631.224585	2539.299768
631.570597	2533.900693
631.916556	2538.324305
632.262462	2536.753986
632.608316	2537.038811
632.954117	2536.728780
633.299866	2536.093595
633.645562	2538.498225
633.991206	2536.844727
634.336797	2533.618388
634.682336	2538.004192
635.027823	2537.517721
635.373257	2534.608975
635.718639	2537.109387
636.063968	2535.148378
636.409245	2535.975128
636.754470	2536.756506
637.099642	2535.627288
637.444762	2535.516383
637.789829	2535.221475
638.134845	2534.974458
638.479808	2534.185518
638.824719	2535.508821
639.169577	2538.402443
639.514383	2537.618544
639.859137	2537.681558
640.203839	2535.894469
640.548489	2536.267514
640.893086	2534.772812
641.237632	2533.414221
641.582125	2533.557894
641.926566	2533.744417
642.270955	2534.919006
642.615292	2535.234078
642.959576	2535.929757
643.303809	2537.139634
643.647990	2537.358924
643.992118	2536.673327
644.336195	2535.292051
