Dividing Wavelength (nm)	Counts (n)	Blue Motor Position (mm): 0.000000	Red Motor Position (mm): 13.500000	
326.493990	2127.412293
326.888308	2127.412293
327.282561	2127.412293
327.676750	2095.710998
328.070874	2093.525657
328.464933	2095.337952
328.858929	2102.927409
329.252859	2114.466610
329.646726	2125.589916
330.040528	2136.788840
330.434265	2155.574699
330.827938	2171.824859
331.221547	2190.832529
331.615091	2208.809284
332.008571	2228.699157
332.401986	2245.813874
332.795338	2265.746596
333.188625	2286.591767
333.581847	2302.153809
333.975006	2323.382108
334.368100	2342.430108
334.761129	2360.290916
335.154095	2374.935468
335.546996	2396.410783
335.939833	2408.396127
336.332606	2421.369536
336.725315	2435.116763
337.117960	2441.269491
337.510540	2451.324072
337.903056	2463.969807
338.295508	2472.580097
338.687896	2478.619400
339.080220	2490.085504
339.472480	2496.018942
339.864676	2500.314005
340.256807	2503.991527
340.648875	2505.629902
341.040879	2509.130983
341.432818	2513.123577
341.824694	2510.913031
342.216506	2512.304390
342.608253	2512.848834
342.999937	2511.984276
343.391557	2512.090141
343.783113	2512.795902
344.174605	2510.877743
344.566033	2508.062259
344.957397	2511.507887
345.348697	2506.315499
345.739934	2503.709222
346.131106	2500.941629
346.522215	2500.490446
346.913260	2497.170846
347.304241	2499.204951
347.695159	2494.002481
348.086012	2492.555669
348.476802	2490.856801
348.867528	2493.896616
349.258191	2487.907726
349.648789	2487.375884
350.039324	2484.762046
350.429796	2488.646255
350.820203	2485.538383
351.210548	2483.824391
351.600828	2481.918835
351.991045	2483.552169
352.381198	2485.382107
352.771288	2482.256592
353.161314	2479.380614
353.551276	2481.339102
353.941175	2482.627117
354.331010	2482.165851
354.720782	2479.068062
355.110490	2480.774493
355.500135	2480.635861
355.889717	2479.912456
356.279235	2481.079483
356.668689	2480.638382
357.058080	2482.475882
357.447408	2480.182157
357.836672	2480.136787
358.225873	2480.582929
358.615010	2478.957157
359.004084	2484.615852
359.393095	2486.042499
359.782043	2486.367653
360.170927	2485.966881
360.559748	2485.329175
360.948505	2486.589464
361.337199	2485.319093
361.725830	2488.759681
362.114398	2492.094404
362.502903	2493.165649
362.891344	2491.673468
363.279722	2492.278406
363.668037	2490.519043
364.056289	2491.567603
364.444478	2492.908550
364.832603	2492.434682
365.220665	2493.674806
365.608665	2493.861328
365.996601	2494.161277
366.384474	2494.047851
366.772284	2499.154540
367.160031	2497.826196
367.547715	2498.957935
367.935336	2503.719305
368.322893	2506.552433
368.710388	2506.617968
369.097820	2516.773372
369.485189	2517.658095
369.872495	2523.014321
370.259738	2528.373068
370.646918	2541.265818
371.034035	2544.025850
371.421090	2556.273333
371.808081	2563.404046
372.195010	2570.812021
372.581875	2587.568817
372.968678	2601.406784
373.355418	2611.237034
373.742096	2629.359982
374.128710	2644.861530
374.515262	2656.685556
374.901751	2674.075017
375.288177	2686.687983
375.674540	2708.289328
376.060841	2728.675754
376.447079	2742.612024
376.833254	2765.476177
377.219367	2776.276849
377.605417	2814.035091
377.991404	2825.798624
378.377329	2847.200843
378.763191	2860.305322
379.148991	2900.947104
379.534727	2926.188162
379.920402	2953.448201
380.306013	2964.942032
380.691563	3016.099661
381.077049	3034.845192
381.462474	3050.999569
381.847835	3091.124633
382.233134	3116.315279
382.618371	3114.354270
383.003545	3180.844569
383.388657	3190.299253
383.773706	3222.063563
384.158693	3240.451172
384.543618	3263.995881
384.928480	3298.061478
385.313280	3344.724918
385.698017	3345.216431
386.082692	3397.384812
386.467305	3401.876480
386.851856	3432.062909
387.236344	3453.848255
387.620770	3485.761280
388.005133	3509.537882
388.389435	3537.828837
388.773674	3543.676576
389.157851	3583.174016
389.541965	3594.083073
389.926018	3555.808112
390.310008	3620.438225
390.693936	3631.223774
391.077802	3664.311387
391.461606	3640.673417
391.845348	3694.606201
392.229027	3682.855272
392.612645	3681.816794
392.996200	3740.183273
393.379694	3759.800923
393.763125	3801.733241
394.146494	3756.630038
394.529801	3791.282929
394.913047	3808.400167
395.296230	3760.773866
395.679351	3784.311013
396.062410	3779.106022
396.445408	3739.248139
396.828343	3740.682347
397.211217	3725.823546
397.594028	3638.568735
397.976778	3657.548679
398.359466	3649.177843
398.742092	3634.319042
399.124656	3548.495919
399.507158	3570.283786
399.889598	3557.159142
400.271977	3559.004204
400.654294	3510.021833
401.036549	3473.861636
401.418742	3422.036054
401.800874	3439.057510
402.182944	3414.239909
402.564952	3405.387643
402.946898	3363.770398
403.328783	3322.112823
403.710606	3243.982500
404.092367	3287.134777
404.474067	3237.953280
404.855705	3204.570759
405.237282	3148.026657
405.618797	3146.176554
406.000250	3123.022534
406.381642	3109.852520
406.762972	3063.917526
407.144240	3033.650438
407.525447	3001.681961
407.906593	2981.242603
408.287677	2959.958851
408.668700	2916.158786
409.049661	2897.105745
409.430560	2873.747559
409.811399	2840.493587
410.192176	2836.632063
410.572891	2805.134934
410.953545	2792.126237
411.334138	2758.915115
411.714669	2745.230903
412.095139	2715.697303
412.475547	2709.237065
412.855894	2692.694518
413.236180	2673.893535
413.616405	2658.349137
413.996568	2649.849752
414.376670	2632.674541
414.756711	2620.908488
415.136691	2608.996241
415.516609	2603.032556
415.896466	2595.107862
416.276262	2589.524784
416.655997	2577.935172
417.035670	2574.396282
417.415283	2572.934347
417.794834	2561.392625
418.174324	2559.769374
418.553753	2554.912222
418.933121	2554.284598
419.312428	2548.562889
419.691674	2543.975439
420.070859	2543.599873
420.449983	2539.682896
420.829045	2541.268339
421.208047	2539.544264
421.586988	2537.502597
421.965867	2536.736342
422.344686	2535.866743
422.723444	2534.296423
423.102141	2530.911288
423.480777	2532.615198
423.859352	2530.805424
424.237866	2532.726104
424.616319	2531.851464
424.994712	2529.915661
425.373044	2532.204344
425.751314	2533.139478
426.129524	2528.947759
426.507673	2530.056813
426.885762	2530.553367
427.263789	2530.906247
427.641756	2531.959848
428.019662	2528.670496
428.397508	2528.186545
428.775292	2531.538912
429.153016	2530.659231
429.530679	2529.114117
429.908282	2529.658562
430.285824	2530.281144
430.663305	2530.172759
431.040726	2529.565300
431.418086	2527.173273
431.795385	2533.320960
432.172624	2530.818027
432.549802	2529.303160
432.926920	2529.149405
433.303977	2532.910106
433.680974	2530.903727
434.057910	2530.944056
434.434786	2528.945238
434.811601	2531.939684
435.188355	2530.306350
435.565050	2531.014632
435.941683	2531.180990
436.318257	2529.270393
436.694770	2525.918026
437.071222	2529.744261
437.447614	2528.403314
437.823946	2525.981040
438.200218	2527.952131
438.576429	2530.502955
438.952580	2528.652852
439.328670	2531.821217
439.704700	2531.604447
440.080670	2532.148892
440.456580	2531.649818
440.832429	2532.779036
441.208218	2529.093952
441.583947	2531.279293
441.959616	2531.760723
442.335224	2529.545136
442.710773	2533.751979
443.086261	2531.004550
443.461689	2533.187369
443.837057	2533.751979
444.212365	2532.814324
444.587612	2532.935312
444.962800	2533.633512
445.337927	2535.216434
445.712995	2534.253573
446.088002	2533.010929
446.462949	2533.852802
446.837837	2534.462781
447.212664	2535.952442
447.587431	2536.716177
447.962139	2536.055786
448.336786	2541.091899
448.711374	2535.297092
449.085901	2535.337422
449.460369	2537.903369
449.834776	2536.141486
450.209124	2536.436393
450.583412	2536.771630
450.957640	2537.008564
451.331808	2537.071578
451.705917	2534.946732
452.079965	2537.394212
452.453954	2536.532175
452.827883	2537.636188
453.201752	2538.672145
453.575562	2534.719880
453.949311	2537.240457
454.323001	2537.855478
454.696632	2537.260622
455.070202	2538.258770
455.443713	2536.721218
455.817164	2534.974458
456.190556	2534.480425
456.563888	2534.845909
456.937160	2534.911444
457.310373	2536.927906
457.683526	2539.080478
458.056619	2540.915458
458.429653	2535.770961
458.802628	2541.964018
459.175542	2538.568801
459.548398	2540.232382
459.921194	2541.285983
460.293930	2539.246836
460.666607	2539.985365
461.039224	2543.153731
461.411782	2543.027702
461.784280	2544.958464
462.156719	2543.909904
462.529099	2543.660367
462.901419	2542.510983
463.273680	2542.516025
463.645882	2543.020140
464.018024	2542.745397
464.390106	2544.872764
464.762130	2546.322096
465.134094	2544.676159
465.505999	2548.492313
465.877845	2550.395348
466.249631	2555.764177
466.621358	2553.185627
466.993026	2555.668395
467.364634	2555.912891
467.736184	2550.400389
468.107674	2548.814946
468.479105	2548.890564
468.850477	2548.031047
469.221790	2549.324103
469.593043	2548.540203
469.964238	2548.063814
470.335373	2550.360060
470.706449	2545.946530
471.077467	2548.008362
471.448425	2550.523897
471.819324	2554.977757
472.190164	2556.996739
472.560945	2553.684701
472.931667	2547.809236
473.302330	2548.827549
473.672934	2546.700182
474.043479	2548.883002
474.413965	2549.041798
474.784393	2545.323947
475.154761	2548.474668
475.525070	2544.575336
475.895321	2544.746735
476.265513	2543.708257
476.635645	2549.891233
477.005719	2546.831252
477.375734	2548.020965
477.745691	2550.342416
478.115588	2551.098589
478.485427	2549.298897
478.855207	2554.269475
479.224928	2552.563044
479.594591	2555.091183
479.964194	2554.602191
480.333739	2556.394321
480.703226	2555.038251
481.072653	2554.403065
481.442022	2558.050340
481.811333	2555.040771
482.180584	2556.328786
482.549777	2554.093034
482.918912	2552.799978
483.287988	2555.991029
483.657005	2555.381049
484.025964	2555.121430
484.394864	2551.688404
484.763706	2554.965154
485.132489	2551.360729
485.501213	2550.851573
485.869879	2554.193857
486.238487	2550.281922
486.607036	2555.343241
486.975527	2555.965823
487.343959	2552.631100
487.712333	2552.411810
488.080648	2553.525905
488.448905	2551.237221
488.817104	2553.755277
489.185244	2555.474311
489.553326	2552.374001
489.921350	2556.709393
490.289315	2556.227963
490.657222	2558.052861
491.025070	2556.885834
491.392861	2557.316852
491.760593	2557.238714
492.128267	2556.406924
492.495883	2555.418858
492.863440	2555.922973
493.230939	2552.542880
493.598380	2553.641851
493.965763	2550.113043
494.333088	2550.264278
494.700354	2550.889381
495.067563	2550.160934
495.434713	2548.817467
495.801805	2552.777293
496.168839	2552.295863
496.535815	2551.557334
496.902733	2551.466593
497.269593	2554.108158
497.636395	2552.701676
498.003139	2552.129505
498.369825	2554.975236
498.736453	2553.533466
499.103023	2553.898950
499.469535	2554.065308
499.835989	2553.609084
500.202385	2556.419527
500.568723	2554.677808
500.935003	2553.999773
501.301226	2553.775442
501.667390	2554.360216
502.033497	2553.256203
502.399546	2553.541028
502.765537	2553.319217
503.131470	2553.639331
503.497345	2553.485575
503.863163	2556.497665
504.228923	2555.202088
504.594625	2555.222253
504.960269	2553.697304
505.325856	2552.343754
505.691385	2552.704197
506.056856	2552.293342
506.422270	2553.606563
506.787625	2553.989691
507.152924	2554.806358
507.518164	2552.389124
507.883347	2550.980122
508.248472	2554.816440
508.613540	2553.946841
508.978550	2552.560524
509.343503	2551.733774
509.708398	2555.481872
510.073236	2555.065977
510.438016	2554.576985
510.802738	2553.644372
511.167403	2554.181255
511.532010	2553.248641
511.896561	2554.859290
512.261053	2555.285267
512.625488	2551.905174
512.989866	2550.271840
513.354186	2550.949875
513.718449	2550.055070
514.082655	2551.542211
514.446803	2554.032541
514.810894	2553.969526
515.174927	2555.454146
515.538904	2553.755277
515.902822	2555.370967
516.266684	2554.680329
516.630488	2553.021789
516.994235	2555.761656
517.357925	2555.711245
517.721558	2554.324927
518.085133	2553.238559
518.448651	2555.910370
518.812112	2554.919784
519.175516	2558.040258
519.538863	2554.944989
519.902152	2552.442057
520.265385	2556.948848
520.628560	2555.504557
520.991678	2554.524053
521.354739	2556.041440
521.717743	2556.616132
522.080690	2557.321893
522.443580	2556.578323
522.806413	2557.989846
523.169189	2557.659651
523.531908	2556.646379
523.894569	2555.749053
524.257174	2558.080587
524.619722	2554.748384
524.982213	2557.248797
525.344647	2558.428427
525.707025	2556.114537
526.069345	2557.077397
526.431608	2555.575134
526.793815	2556.389280
527.155964	2557.263920
527.518057	2555.181924
527.880093	2555.509599
528.242072	2557.601677
528.603995	2554.881975
528.965860	2558.340207
529.327669	2558.491441
529.689421	2551.688404
530.051117	2558.335165
530.412755	2552.893240
530.774337	2555.741492
531.135862	2554.206460
531.497331	2553.921635
531.858743	2552.479865
532.220098	2553.992211
532.581396	2550.937272
532.942638	2554.335010
533.303824	2553.213353
533.664953	2554.075390
534.026025	2555.638148
534.387040	2556.994218
534.747999	2553.442726
535.108902	2556.404403
535.469748	2553.878785
535.830537	2554.874413
536.191270	2555.754095
536.551947	2556.537994
536.912567	2553.770401
537.273131	2556.502706
537.633638	2553.866182
537.994089	2555.749053
538.354483	2555.474311
538.714821	2556.348951
539.075103	2554.876934
539.435328	2554.745864
539.795497	2555.128992
540.155609	2555.812068
540.515665	2552.810061
540.875665	2557.831050
541.235609	2556.099414
541.595496	2554.839125
541.955328	2555.998591
542.315102	2556.953889
542.674821	2554.687891
543.034483	2556.933725
543.394090	2555.915412
543.753640	2552.941131
544.113134	2556.737120
544.472571	2554.002294
544.831953	2555.219732
545.191278	2557.934394
545.550548	2553.460370
545.909761	2555.282747
546.268918	2555.159238
546.628019	2555.600339
546.987064	2555.678477
547.346053	2555.968344
547.704986	2556.948848
548.063863	2552.893240
548.422684	2556.495144
548.781449	2555.486913
549.140158	2554.423230
549.498811	2555.378529
549.857408	2556.008673
550.215949	2554.511450
550.574434	2550.415513
550.932864	2553.674619
551.291237	2551.358208
551.649555	2555.993549
552.007817	2556.051523
552.366022	2557.122768
552.724173	2556.001111
553.082267	2555.217212
553.440305	2553.024310
553.798288	2556.749722
554.156215	2554.511450
554.514086	2556.714434
554.871902	2554.012376
555.229661	2557.919270
555.587365	2554.168652
555.945014	2557.969682
556.302606	2557.934394
556.660143	2555.950700
557.017625	2556.109496
557.375050	2557.117727
557.732421	2556.094372
558.089735	2556.003632
558.446994	2555.454146
558.804197	2557.513457
559.161345	2554.410627
559.518437	2556.890875
559.875474	2557.309291
560.232455	2555.791903
560.589381	2554.077911
560.946251	2556.911039
561.303065	2557.417675
561.659825	2556.527912
562.016528	2555.970864
562.373177	2555.295350
562.729770	2554.876934
563.086307	2557.326935
563.442789	2554.992880
563.799216	2556.641338
564.155587	2558.889692
564.511904	2558.277192
564.868164	2557.427758
565.224370	2555.411296
565.580520	2561.861453
565.936615	2553.268806
566.292654	2554.463559
566.648638	2556.790052
567.004567	2555.214691
567.360441	2557.967161
567.716260	2556.175031
568.072023	2556.525391
568.427732	2550.339895
568.783385	2552.714279
569.138982	2552.081614
569.494525	2554.781152
569.850013	2550.846531
570.205445	2558.279713
570.560823	2555.121430
570.916145	2556.041440
571.271412	2554.009855
571.626625	2555.315514
571.981782	2556.958930
572.336884	2557.319373
572.691931	2556.611091
573.046923	2554.670247
573.401860	2552.926007
573.756743	2555.189485
574.111570	2557.679815
574.466342	2555.209650
574.821059	2554.781152
575.175722	2555.214691
575.530330	2553.772921
575.884882	2556.081770
576.239380	2553.425082
576.593823	2555.887685
576.948211	2556.205278
577.302544	2554.927345
577.656823	2553.034392
578.011047	2556.603529
578.365216	2554.672767
578.719330	2552.363919
579.073389	2552.749567
579.427394	2553.130174
579.781344	2553.359547
580.135239	2556.921122
580.489080	2558.113355
580.842866	2554.755946
581.196597	2555.796944
581.550273	2556.585885
581.903895	2554.519012
582.257463	2553.137736
582.610975	2553.586398
582.964434	2556.490103
583.317837	2554.251831
583.671186	2554.261913
584.024481	2554.130843
584.377721	2554.521532
584.730906	2553.578837
585.084037	2557.624363
585.437113	2554.231666
585.790135	2554.629917
586.143103	2553.987170
586.496016	2555.310473
586.848874	2550.085317
587.201679	2552.079093
587.554428	2547.332847
587.907124	2553.785524
588.259765	2550.876778
588.612352	2552.023641
588.964884	2555.754095
589.317362	2552.391645
589.669786	2552.159752
590.022155	2553.523384
590.374470	2551.393497
590.726731	2554.327448
591.078937	2552.684032
591.431090	2554.307283
591.783188	2553.520863
592.135232	2553.956923
592.487222	2553.840977
592.839157	2553.299053
593.191038	2552.923487
593.542866	2552.454659
593.894639	2552.132026
594.246358	2553.500699
594.598022	2553.493137
594.949633	2555.998591
595.301190	2553.765359
595.652692	2553.868703
596.004141	2552.812581
596.355535	2553.936759
596.706876	2550.584391
597.058162	2549.747560
597.409395	2553.198230
597.760573	2552.479865
598.111698	2549.699669
598.462768	2552.961295
598.813785	2553.452808
599.164748	2548.605738
599.515657	2552.794937
599.866511	2552.207643
600.217312	2551.819474
600.568060	2550.319731
600.918753	2553.929197
601.269392	2552.704197
601.619978	2553.135215
601.970510	2551.673281
602.320988	2551.736295
602.671412	2552.179917
603.021783	2549.808054
603.372100	2550.765873
603.722363	2551.791748
604.072572	2550.163455
604.422728	2552.565565
604.772830	2549.170348
605.122878	2548.860317
605.472872	2547.955430
605.822813	2545.079451
606.172701	2550.239072
606.522534	2549.266130
606.872314	2550.218908
607.222041	2549.689587
607.571714	2551.726213
607.921333	2552.600853
608.270899	2551.070863
608.620411	2553.972047
608.969870	2550.907025
609.319276	2552.011038
609.668627	2557.465566
610.017926	2558.990515
610.367171	2560.500341
610.716362	2556.565720
611.065500	2558.347768
611.414585	2554.423230
611.763616	2557.021945
612.112594	2554.887016
612.461518	2556.197716
612.810389	2555.786862
613.159207	2554.007335
613.507971	2555.398693
613.856682	2554.082952
614.205340	2551.474155
614.553945	2553.583878
614.902496	2552.613456
615.250994	2554.902140
615.599439	2549.495502
615.947830	2553.535987
616.296169	2552.747046
616.644454	2550.823846
616.992686	2550.987684
617.340864	2550.294525
617.688990	2548.699000
618.037063	2552.447098
618.385082	2550.629762
618.733048	2552.076573
619.080961	2549.228321
619.428821	2551.723692
619.776628	2551.285112
620.124382	2552.270657
620.472083	2552.331151
620.819731	2553.205791
621.167326	2551.234700
621.514868	2552.376522
621.862357	2550.191181
622.209793	2551.000287
622.557176	2552.918446
622.904506	2546.927034
623.251783	2547.849565
623.599007	2547.748742
623.946179	2545.860830
624.293297	2549.596325
624.640363	2547.005172
624.987376	2550.922149
625.334336	2550.866696
625.681243	2550.791079
626.028097	2547.973074
626.374899	2550.062632
626.721647	2547.423588
627.068343	2550.113043
627.414987	2550.294525
627.761577	2550.574309
628.108115	2548.638506
628.454600	2548.762014
628.801032	2547.710934
629.147412	2552.447098
629.493739	2550.057591
629.840014	2549.737478
630.186236	2549.127498
630.532405	2548.915769
630.878521	2549.220759
631.224585	2550.050029
631.570597	2544.792106
631.916556	2548.633465
632.262462	2550.584391
632.608316	2552.038764
632.954117	2547.451314
633.299866	2547.516849
633.645562	2547.224462
633.991206	2546.758156
634.336797	2548.217570
634.682336	2550.165976
635.027823	2545.172713
635.373257	2549.165307
635.718639	2547.191695
636.063968	2549.281253
636.409245	2547.753783
636.754470	2547.524411
637.099642	2546.715306
637.444762	2548.141952
637.789829	2546.203629
638.134845	2546.334699
638.479808	2545.986859
638.824719	2547.496685
639.169577	2547.295038
639.514383	2547.221942
639.859137	2545.545758
640.203839	2544.071221
640.548489	2546.798485
640.893086	2543.138607
641.237632	2542.263967
641.582125	2542.866385
641.926566	2542.742877
642.270955	2543.743546
642.615292	2546.309493
642.959576	2546.987528
643.303809	2546.201108
643.647990	2546.029709
643.992118	2545.429812
644.336195	2546.352343
