Dividing Wavelength (nm)	Counts (n)	Blue Motor Position (mm): 0.000000	Red Motor Position (mm): 6.300000	
326.493990	2127.618981
326.888308	2127.618981
327.282561	2127.618981
327.676750	2095.650504
328.070874	2091.670513
328.464933	2095.945411
328.858929	2104.820363
329.252859	2114.469131
329.646726	2124.735441
330.040528	2135.357152
330.434265	2154.342137
330.827938	2172.608758
331.221547	2185.977898
331.615091	2207.087730
332.008571	2226.453323
332.401986	2248.538618
332.795338	2266.643922
333.188625	2287.103444
333.581847	2304.598769
333.975006	2321.035451
334.368100	2339.531444
334.761129	2357.866121
335.154095	2374.905221
335.546996	2394.220402
335.939833	2405.499984
336.332606	2419.584968
336.725315	2433.828748
337.117960	2445.307455
337.510540	2452.123095
337.903056	2464.441154
338.295508	2471.274438
338.687896	2480.305666
339.080220	2486.395379
339.472480	2493.926863
339.864676	2497.828716
340.256807	2503.966321
340.648875	2505.892042
341.040879	2508.896570
341.432818	2508.054697
341.824694	2510.913031
342.216506	2512.120388
342.608253	2511.656601
342.999937	2513.907477
343.391557	2509.771210
343.783113	2507.606034
344.174605	2511.369256
344.566033	2505.987824
344.957397	2505.987824
345.348697	2502.675786
345.739934	2503.157216
346.131106	2501.564211
346.522215	2498.589931
346.913260	2499.005826
347.304241	2497.864004
347.695159	2493.778149
348.086012	2495.625732
348.476802	2493.127840
348.867528	2488.250524
349.258191	2487.862355
349.648789	2486.460914
350.039324	2485.661892
350.429796	2485.228352
350.820203	2481.303814
351.210548	2482.105357
351.600828	2481.881026
351.991045	2480.156952
352.381198	2480.386324
352.771288	2481.782724
353.161314	2475.693010
353.551276	2479.683083
353.941175	2478.001858
354.331010	2480.492188
354.720782	2476.308031
355.110490	2479.645274
355.500135	2479.630151
355.889717	2476.108905
356.279235	2476.459265
356.668689	2480.174596
357.058080	2477.356591
357.447408	2479.786427
357.836672	2475.937506
358.225873	2477.598566
358.615010	2475.672845
359.004084	2478.601756
359.393095	2481.457569
359.782043	2481.974288
360.170927	2482.526294
360.559748	2480.673670
360.948505	2481.689462
361.337199	2482.937148
361.725830	2484.948568
362.114398	2484.847745
362.502903	2485.858497
362.891344	2487.048209
363.279722	2487.075935
363.668037	2487.113744
364.056289	2486.493682
364.444478	2489.137767
364.832603	2488.802530
365.220665	2491.736482
365.608665	2488.800010
365.996601	2490.682881
366.384474	2489.702376
366.772284	2495.340907
367.160031	2493.188334
367.547715	2499.209992
367.935336	2496.452481
368.322893	2499.353665
368.710388	2501.775940
369.097820	2509.977897
369.485189	2512.624503
369.872495	2516.329751
370.259738	2523.838550
370.646918	2527.516071
371.034035	2534.104859
371.421090	2545.064328
371.808081	2551.645554
372.195010	2560.618808
372.581875	2567.862946
372.968678	2578.928279
373.355418	2585.350709
373.742096	2599.455857
374.128710	2605.580859
374.515262	2614.216356
374.901751	2618.599639
375.288177	2624.885958
375.674540	2636.790643
376.060841	2645.526962
376.447079	2652.975267
376.833254	2657.287974
377.219367	2658.104641
377.605417	2673.041580
377.991404	2668.658297
378.377329	2674.594255
378.763191	2673.497804
379.148991	2683.910308
379.534727	2689.122861
379.920402	2691.736699
380.306013	2687.406348
380.691563	2696.031762
381.077049	2694.746268
381.462474	2690.972964
381.847835	2690.524302
382.233134	2685.861234
382.618371	2677.543330
383.003545	2681.419978
383.388657	2673.008812
383.773706	2668.522186
384.158693	2661.119251
384.543618	2653.252531
384.928480	2651.515853
385.313280	2645.915131
385.698017	2637.299799
386.082692	2632.624129
386.467305	2624.477624
386.851856	2616.116871
387.236344	2606.692434
387.620770	2600.794284
388.005133	2591.934456
388.389435	2585.204515
388.773674	2576.460634
389.157851	2567.946125
389.541965	2562.383212
389.926018	2556.795093
390.310008	2552.615976
390.693936	2543.698175
391.077802	2540.111394
391.461606	2537.762217
391.845348	2532.244674
392.229027	2528.373067
392.612645	2524.171266
392.996200	2523.369722
393.379694	2522.101872
393.763125	2522.749660
394.146494	2514.691376
394.529801	2517.963085
394.913047	2515.548372
395.296230	2514.935872
395.679351	2514.038547
396.062410	2513.100892
396.445408	2510.227434
396.828343	2510.824811
397.211217	2504.183091
397.594028	2511.192815
397.976778	2507.530417
398.359466	2508.604183
398.742092	2505.710560
399.124656	2510.426560
399.507158	2511.414626
399.889598	2509.211642
400.271977	2510.040912
400.654294	2511.258350
401.036549	2508.679800
401.418742	2511.364214
401.800874	2509.314985
402.182944	2512.329595
402.564952	2510.981087
402.946898	2510.111488
403.328783	2510.688700
403.710606	2510.759276
404.092367	2509.680469
404.474067	2512.937054
404.855705	2513.927641
405.237282	2512.765655
405.618797	2509.748525
406.000250	2511.812877
406.381642	2511.459996
406.762972	2515.460152
407.144240	2511.591066
407.525447	2514.499812
407.906593	2514.807323
408.287677	2515.714730
408.668700	2511.243227
409.049661	2514.225069
409.430560	2516.768331
409.811399	2513.194153
410.192176	2516.163393
410.572891	2516.423012
410.953545	2513.166427
411.334138	2514.542662
411.714669	2516.032323
412.095139	2514.900584
412.475547	2515.876047
412.855894	2516.488547
413.236180	2515.392096
413.616405	2519.664474
413.996568	2515.518125
414.376670	2517.484175
414.756711	2515.061901
415.136691	2515.520646
415.516609	2514.341016
415.896466	2516.241531
416.276262	2517.746315
416.655997	2513.826818
417.035670	2512.183402
417.415283	2515.316479
417.794834	2512.485871
418.174324	2515.833197
418.553753	2516.818743
418.933121	2518.154649
419.312428	2520.438291
419.691674	2520.685308
420.070859	2517.332941
420.449983	2518.101717
420.829045	2518.079031
421.208047	2518.547859
421.586988	2521.285205
421.965867	2522.510206
422.344686	2517.847138
422.723444	2521.494413
423.102141	2520.471059
423.480777	2519.233456
423.859352	2520.841584
424.237866	2521.358302
424.616319	2518.663805
424.994712	2520.284536
425.373044	2521.373425
425.751314	2519.311593
426.129524	2520.012314
426.507673	2522.069105
426.885762	2519.639268
427.263789	2520.040040
427.641756	2520.826460
428.019662	2523.415093
428.397508	2519.679598
428.775292	2520.816378
429.153016	2520.314783
429.530679	2521.393590
429.908282	2521.784279
430.285824	2523.475587
430.663305	2523.581451
431.040726	2520.120699
431.418086	2522.111954
431.795385	2522.966430
432.172624	2522.933662
432.549802	2521.852335
432.926920	2522.457273
433.303977	2523.331914
433.680974	2520.566841
434.057910	2522.913498
434.434786	2520.017355
434.811601	2523.107582
435.188355	2520.934845
435.565050	2521.759074
435.941683	2524.239321
436.318257	2520.571882
436.694770	2519.389731
437.071222	2522.366533
437.447614	2517.395955
437.823946	2521.202026
438.200218	2520.914680
438.576429	2523.369722
438.952580	2522.164887
439.328670	2523.359640
439.704700	2527.062368
440.080670	2523.712521
440.456580	2525.214785
440.832429	2522.550535
441.208218	2523.405010
441.583947	2523.979702
441.959616	2523.137829
442.335224	2527.289219
442.710773	2521.265041
443.086261	2522.719413
443.461689	2522.106913
443.837057	2523.684794
444.212365	2525.192099
444.587612	2524.130937
444.962800	2523.757891
445.337927	2524.042716
445.712995	2524.730834
446.088002	2525.570186
446.462949	2525.134126
446.837837	2525.310567
447.212664	2526.696884
447.587431	2524.962727
447.962139	2527.808458
448.336786	2529.908099
448.711374	2526.802748
449.085901	2529.651000
449.460369	2527.458098
449.834776	2528.612522
450.209124	2527.097656
450.583412	2526.820392
450.957640	2526.427182
451.331808	2524.917357
451.705917	2526.434744
452.079965	2530.820548
452.453954	2529.204858
452.827883	2527.873993
453.201752	2527.178314
453.575562	2529.091432
453.949311	2524.332583
454.323001	2529.275434
454.696632	2525.706297
455.070202	2529.106555
455.443713	2527.309384
455.817164	2526.706966
456.190556	2525.746626
456.563888	2527.004394
456.937160	2523.420134
457.310373	2527.258972
457.683526	2528.320135
458.056619	2530.850795
458.429653	2529.840043
458.802628	2528.156298
459.175542	2526.684281
459.548398	2528.564631
459.921194	2528.478932
460.293930	2530.530681
460.666607	2526.820392
461.039224	2530.697039
461.411782	2527.853829
461.784280	2530.167718
462.156719	2530.137471
462.529099	2529.474560
462.901419	2526.160001
463.273680	2530.956659
463.645882	2528.763757
464.018024	2530.979344
464.390106	2529.865249
464.762130	2530.439941
465.134094	2530.810465
465.505999	2532.932791
465.877845	2530.316432
466.249631	2530.543284
466.621358	2531.395239
466.993026	2533.474715
467.364634	2536.000333
467.736184	2531.657379
468.107674	2527.332069
468.479105	2529.232584
468.850477	2530.225692
469.221790	2531.874149
469.593043	2527.679909
469.964238	2530.210568
470.335373	2528.078160
470.706449	2531.780888
471.077467	2532.811803
471.448425	2531.397760
471.819324	2531.803573
472.190164	2532.675692
472.560945	2529.658562
472.931667	2531.433048
473.302330	2531.438089
473.672934	2532.385826
474.043479	2532.174098
474.413965	2533.139478
474.784393	2526.994312
475.154761	2529.976154
475.525070	2526.759898
475.895321	2529.827440
476.265513	2525.580268
476.635645	2531.841381
477.005719	2531.586803
477.375734	2533.305837
477.745691	2529.600588
478.115588	2533.446989
478.485427	2535.786084
478.855207	2532.713501
479.224928	2530.230733
479.594591	2532.552184
479.964194	2533.585621
480.333739	2533.855322
480.703226	2533.295754
481.072653	2533.197452
481.442022	2534.266176
481.811333	2532.645445
482.180584	2534.303985
482.549777	2530.722245
482.918912	2529.955990
483.287988	2535.004705
483.657005	2536.101156
484.025964	2534.576207
484.394864	2534.611495
484.763706	2532.589993
485.132489	2534.485467
485.501213	2535.491177
485.869879	2535.082843
486.238487	2530.825589
486.607036	2533.835158
486.975527	2534.603934
487.343959	2532.957997
487.712333	2534.487987
488.080648	2531.198634
488.448905	2534.626619
488.817104	2535.057638
489.185244	2535.256763
489.553326	2533.409180
489.921350	2534.591331
490.289315	2534.220806
490.657222	2532.983203
491.025070	2535.027391
491.392861	2538.583925
491.760593	2534.369520
492.128267	2535.173584
492.495883	2534.601413
492.863440	2534.311547
493.230939	2534.505631
493.598380	2535.516383
493.965763	2532.471526
494.333088	2533.290713
494.700354	2531.291896
495.067563	2535.720549
495.434713	2529.988757
495.801805	2535.733152
496.168839	2536.383461
496.535815	2535.327339
496.902733	2534.369520
497.269593	2538.039480
497.636395	2533.872966
498.003139	2537.074099
498.369825	2535.718029
498.736453	2534.261135
499.103023	2535.057638
499.469535	2534.356917
499.835989	2534.419932
500.202385	2535.891948
500.568723	2534.626619
500.935003	2536.968235
501.301226	2532.264838
501.667390	2538.162988
502.033497	2536.043183
502.399546	2534.238450
502.765537	2533.446989
503.131470	2535.748276
503.497345	2535.609644
503.863163	2533.361289
504.228923	2535.097967
504.594625	2534.455220
504.960269	2535.723070
505.325856	2536.867412
505.691385	2537.124511
506.056856	2538.500746
506.422270	2535.062679
506.787625	2537.676517
507.152924	2535.513862
507.518164	2536.753986
507.883347	2536.887576
508.248472	2535.592000
508.613540	2536.403626
508.978550	2535.718029
509.343503	2535.193749
509.708398	2537.376568
510.073236	2536.630478
510.438016	2538.067206
510.802738	2534.205682
511.167403	2539.937474
511.532010	2534.036804
511.896561	2537.187525
512.261053	2537.641229
512.625488	2532.438758
512.989866	2534.452699
513.354186	2534.263656
513.718449	2532.421114
514.082655	2534.893800
514.446803	2535.347504
514.810894	2536.080992
515.174927	2536.796836
515.538904	2535.344983
515.902822	2534.029242
516.266684	2537.663914
516.630488	2537.452186
516.994235	2537.616023
517.357925	2537.096784
517.721558	2536.774150
518.085133	2536.859850
518.448651	2536.239788
518.812112	2538.407484
519.175516	2539.098122
519.538863	2537.089222
519.902152	2539.120807
520.265385	2536.932947
520.628560	2536.910262
520.991678	2537.235416
521.354739	2535.574356
521.717743	2536.973276
522.080690	2536.196938
522.443580	2534.510672
522.806413	2539.738349
523.169189	2534.714839
523.531908	2537.613503
523.894569	2538.120138
524.257174	2536.280117
524.619722	2535.957483
524.982213	2535.960004
525.344647	2537.507638
525.707025	2534.926568
526.069345	2534.480425
526.431608	2536.471681
526.793815	2536.960673
527.155964	2539.481250
527.518057	2536.322967
527.880093	2540.139121
528.242072	2536.312885
528.603995	2537.926054
528.965860	2537.333718
529.327669	2538.677186
529.689421	2537.487474
530.051117	2539.430838
530.412755	2536.300282
530.774337	2536.862371
531.135862	2538.478060
531.497331	2539.609799
531.858743	2536.804397
532.220098	2535.954963
532.581396	2534.931609
532.942638	2533.953625
533.303824	2543.819163
533.664953	2538.591486
534.026025	2541.051569
534.387040	2538.430169
534.747999	2536.116280
535.108902	2536.527134
535.469748	2537.820190
535.830537	2537.079140
536.191270	2536.625436
536.551947	2541.376724
536.912567	2535.133255
537.273131	2538.493184
537.633638	2539.002340
537.994089	2541.396888
538.354483	2538.112577
538.714821	2537.142155
539.075103	2539.037628
539.435328	2536.393543
539.795497	2538.263811
540.155609	2541.303627
540.515665	2540.192053
540.875665	2539.186343
541.235609	2539.153575
541.595496	2539.219110
541.955328	2537.857998
542.315102	2537.409336
542.674821	2538.805735
543.034483	2542.563916
543.394090	2538.377237
543.753640	2543.050387
544.113134	2538.193235
544.472571	2539.418236
544.831953	2540.055942
545.191278	2538.662062
545.550548	2536.310364
545.909761	2538.304141
546.268918	2538.455375
546.628019	2538.523431
546.987064	2540.267670
547.346053	2540.565098
547.704986	2538.677186
548.063863	2537.391692
548.422684	2539.019984
548.781449	2537.132072
549.140158	2538.389840
549.498811	2540.373534
549.857408	2537.875642
550.215949	2537.172402
550.574434	2533.018491
550.932864	2538.944367
551.291237	2534.530837
551.649555	2538.800694
552.007817	2539.461085
552.366022	2539.937474
552.724173	2537.948739
553.082267	2537.066537
553.440305	2537.835313
553.798288	2541.701878
554.156215	2540.242464
554.514086	2536.557381
554.871902	2538.979655
555.229661	2540.144162
555.587365	2539.277083
555.945014	2540.532331
556.302606	2539.761034
556.660143	2540.381096
557.017625	2538.916641
557.375050	2539.715664
557.732421	2536.575025
558.089735	2540.295396
558.446994	2541.190201
558.804197	2537.933616
559.161345	2539.027546
559.518437	2539.597197
559.875474	2538.157947
560.232455	2540.391178
560.589381	2536.496887
560.946251	2543.952753
561.303065	2536.925385
561.659825	2539.009902
562.016528	2536.683410
562.373177	2538.152906
562.729770	2538.034439
563.086307	2539.478729
563.442789	2539.171219
563.799216	2540.560057
564.155587	2537.888245
564.511904	2539.461085
564.868164	2540.814635
565.224370	2542.052238
565.580520	2539.662732
565.936615	2540.063503
566.292654	2538.677186
566.648638	2538.702392
567.004567	2537.966383
567.360441	2541.643905
567.716260	2539.831610
568.072023	2539.997968
568.427732	2535.816331
568.783385	2541.046528
569.138982	2536.353214
569.494525	2538.636857
569.850013	2534.203162
570.205445	2541.137269
570.560823	2541.550644
570.916145	2538.858667
571.271412	2539.703061
571.626625	2540.766744
571.981782	2538.188194
572.336884	2539.156096
572.691931	2540.305479
573.046923	2539.254398
573.401860	2537.217772
573.756743	2538.271373
574.111570	2536.413708
574.466342	2539.418236
574.821059	2539.390509
575.175722	2539.584594
575.530330	2539.501415
575.884882	2540.227341
576.239380	2538.639377
576.593823	2540.106353
576.948211	2537.313554
577.302544	2540.461754
577.656823	2538.697351
578.011047	2542.389996
578.365216	2536.184335
578.719330	2541.923689
579.073389	2539.660211
579.427394	2539.599717
579.781344	2540.297917
580.135239	2541.222969
580.489080	2539.554347
580.842866	2539.095602
581.196597	2543.501570
581.550273	2536.932947
581.903895	2538.052083
582.257463	2538.324305
582.610975	2537.222813
582.964434	2539.440921
583.317837	2540.219779
583.671186	2541.956457
584.024481	2540.648277
584.377721	2541.457382
584.730906	2538.624254
585.084037	2543.521735
585.437113	2538.833462
585.790135	2540.035777
586.143103	2536.847247
586.496016	2540.570139
586.848874	2534.820703
587.201679	2534.982020
587.554428	2536.892618
587.907124	2538.765406
588.259765	2533.184849
588.612352	2538.818338
588.964884	2538.251208
589.317362	2539.224151
589.669786	2538.563760
590.022155	2540.807073
590.374470	2538.843544
590.726731	2540.915458
591.078937	2539.335057
591.431090	2537.172402
591.783188	2537.225334
592.135232	2538.500746
592.487222	2536.174253
592.839157	2541.185160
593.191038	2538.329346
593.542866	2537.716846
593.894639	2541.084337
594.246358	2535.919675
594.598022	2539.393030
594.949633	2539.904707
595.301190	2539.675334
595.652692	2540.310520
596.004141	2537.986548
596.355535	2539.214069
596.706876	2539.571991
597.058162	2538.659542
597.409395	2538.162988
597.760573	2539.294727
598.111698	2538.848585
598.462768	2541.918648
598.813785	2539.244316
599.164748	2538.520910
599.515657	2539.995448
599.866511	2537.457227
600.217312	2542.551313
600.568060	2539.458565
600.918753	2540.756662
601.269392	2539.929913
601.619978	2538.548637
601.970510	2539.118287
602.320988	2541.782537
602.671412	2539.319933
603.021783	2537.772299
603.372100	2540.086188
603.722363	2540.038298
604.072572	2538.561239
604.422728	2540.854964
604.772830	2533.741896
605.122878	2535.854140
605.472872	2536.597710
605.822813	2531.191073
606.172701	2536.668286
606.522534	2538.462937
606.872314	2538.851106
607.222041	2537.265663
607.571714	2538.188194
607.921333	2537.981507
608.270899	2537.346321
608.620411	2538.026877
608.969870	2537.636188
609.319276	2539.438400
609.668627	2544.023330
610.017926	2545.608772
610.367171	2545.727240
610.716362	2544.466951
611.065500	2542.891591
611.414585	2542.760521
611.763616	2542.815973
612.112594	2540.154244
612.461518	2539.526620
612.810389	2541.734646
613.159207	2540.522248
613.507971	2540.716333
613.856682	2540.466796
614.205340	2541.331353
614.553945	2541.782537
614.902496	2538.556198
615.250994	2538.823379
615.599439	2539.871939
615.947830	2537.369007
616.296169	2539.324974
616.644454	2541.792619
616.992686	2537.333718
617.340864	2538.127700
617.688990	2538.178112
618.037063	2539.821528
618.385082	2539.289686
618.733048	2539.824048
619.080961	2539.307330
619.428821	2538.934285
619.776628	2541.170037
620.124382	2534.992103
620.472083	2540.602907
620.819731	2538.130221
621.167326	2538.669624
621.514868	2539.146013
621.862357	2537.265663
622.209793	2539.962680
622.557176	2538.210879
622.904506	2533.998995
623.251783	2534.661907
623.599007	2538.621733
623.946179	2531.372554
624.293297	2533.557894
624.640363	2538.760365
624.987376	2537.673996
625.334336	2539.269522
625.681243	2539.685417
626.028097	2538.233564
626.374899	2537.507638
626.721647	2535.982689
627.068343	2541.011240
627.414987	2539.057793
627.761577	2539.420756
628.108115	2538.977135
628.454600	2534.989582
628.801032	2538.692309
629.147412	2539.254398
629.493739	2539.135931
629.840014	2540.910417
630.186236	2538.122659
630.532405	2540.620551
630.878521	2536.378420
631.224585	2541.762372
631.570597	2537.419418
631.916556	2539.924872
632.262462	2537.558050
632.608316	2536.577545
632.954117	2536.683410
633.299866	2537.406815
633.645562	2538.049562
633.991206	2539.952598
634.336797	2537.129552
634.682336	2537.923533
635.027823	2537.109387
635.373257	2538.382278
635.718639	2538.626774
636.063968	2538.563760
636.409245	2537.472350
636.754470	2536.527134
637.099642	2533.787267
637.444762	2541.235572
637.789829	2538.087371
638.134845	2536.731301
638.479808	2537.268183
638.824719	2536.985879
639.169577	2535.019829
639.514383	2538.021836
639.859137	2538.029398
640.203839	2535.377751
640.548489	2539.138452
640.893086	2535.241640
641.237632	2531.249046
641.582125	2535.153419
641.926566	2531.672503
642.270955	2536.592669
642.615292	2534.097298
642.959576	2537.008564
643.303809	2534.820703
643.647990	2535.692823
643.992118	2535.778523
644.336195	2538.510828
