Dividing Wavelength (nm)	Counts (n)	Blue Motor Position (mm): 0.000000	Red Motor Position (mm): 8.600000	
326.493990	2131.069651
326.888308	2131.069651
327.282561	2131.069651
327.676750	2099.501945
328.070874	2093.702098
328.464933	2098.342480
328.858929	2103.784405
329.252859	2115.953751
329.646726	2125.310132
330.040528	2137.555095
330.434265	2153.737199
330.827938	2173.251505
331.221547	2189.310101
331.615091	2207.526310
332.008571	2229.430124
332.401986	2249.022568
332.795338	2268.080650
333.188625	2285.419699
333.581847	2306.700930
333.975006	2323.866059
334.368100	2342.793071
334.761129	2358.864269
335.154095	2376.594008
335.546996	2394.747203
335.939833	2409.260684
336.332606	2423.973292
336.725315	2434.582400
337.117960	2444.604214
337.510540	2452.654937
337.903056	2466.278655
338.295508	2469.436938
338.687896	2480.373721
339.080220	2490.103148
339.472480	2494.680516
339.864676	2498.640342
340.256807	2505.070334
340.648875	2507.298524
341.040879	2508.760458
341.432818	2509.602331
341.824694	2513.980573
342.216506	2514.671211
342.608253	2511.870850
342.999937	2511.593587
343.391557	2512.997548
343.783113	2510.199708
344.174605	2510.625685
344.566033	2510.076200
344.957397	2505.143431
345.348697	2503.189983
345.739934	2504.137720
346.131106	2501.942298
346.522215	2501.347442
346.913260	2496.606237
347.304241	2496.684374
347.695159	2495.915598
348.086012	2492.807727
348.476802	2490.035093
348.867528	2488.590802
349.258191	2489.246152
349.648789	2488.608446
350.039324	2486.801192
350.429796	2485.548466
350.820203	2482.417909
351.210548	2483.771459
351.600828	2479.443628
351.991045	2482.606952
352.381198	2480.426653
352.771288	2482.889257
353.161314	2481.213073
353.551276	2482.375059
353.941175	2481.669298
354.331010	2481.991932
354.720782	2477.817856
355.110490	2479.937661
355.500135	2479.103350
355.889717	2480.081334
356.279235	2481.586119
356.668689	2484.731799
357.058080	2479.552013
357.447408	2477.631333
357.836672	2477.477578
358.225873	2479.491519
358.615010	2477.696868
359.004084	2485.235914
359.393095	2481.835656
359.782043	2482.541417
360.170927	2484.477220
360.559748	2487.368322
360.948505	2486.234063
361.337199	2488.956286
361.725830	2484.323465
362.114398	2489.057109
362.502903	2487.622900
362.891344	2490.014928
363.279722	2488.772283
363.668037	2489.793117
364.056289	2489.115082
364.444478	2490.657675
364.832603	2492.170021
365.220665	2493.105155
365.608665	2494.897285
365.996601	2492.752274
366.384474	2492.245638
366.772284	2492.976606
367.160031	2497.906854
367.547715	2498.642863
367.935336	2502.993378
368.322893	2504.253667
368.710388	2505.188801
369.097820	2513.925121
369.485189	2513.562158
369.872495	2520.715555
370.259738	2525.275278
370.646918	2536.764068
371.034035	2538.147865
371.421090	2552.492468
371.808081	2559.839950
372.195010	2567.966290
372.581875	2584.052612
372.968678	2596.930239
373.355418	2606.697475
373.742096	2623.207254
374.128710	2637.657721
374.515262	2653.257572
374.901751	2669.268276
375.288177	2679.680780
375.674540	2700.508307
376.060841	2716.148487
376.447079	2734.175653
376.833254	2748.704258
377.219367	2758.602564
377.605417	2791.556586
377.991404	2794.540949
378.377329	2809.011582
378.763191	2819.262768
379.148991	2844.992817
379.534727	2861.283306
379.920402	2878.115718
380.306013	2878.662684
380.691563	2911.825914
381.077049	2919.763211
381.462474	2922.853438
381.847835	2939.632919
382.233134	2944.235492
382.618371	2928.381063
383.003545	2967.238277
383.388657	2956.450208
383.773706	2961.375415
384.158693	2956.233438
384.543618	2950.484003
384.928480	2957.992801
385.313280	2964.629480
385.698017	2944.943774
386.082692	2955.444498
386.467305	2936.096549
386.851856	2931.645211
387.236344	2924.524581
387.620770	2912.163672
388.005133	2898.633215
388.389435	2887.862789
388.773674	2872.953577
389.157851	2861.061495
389.541965	2845.809484
389.926018	2812.762200
390.310008	2815.096254
390.693936	2800.398770
391.077802	2788.990639
391.461606	2765.350148
391.845348	2757.884199
392.229027	2739.216807
392.612645	2721.315669
392.996200	2719.125288
393.379694	2707.518031
393.763125	2699.222812
394.146494	2678.395285
394.529801	2669.762309
394.913047	2658.165135
395.296230	2641.413381
395.679351	2630.910137
396.062410	2621.301697
396.445408	2604.151692
396.828343	2593.867738
397.211217	2582.794844
397.594028	2570.161712
397.976778	2563.724159
398.359466	2557.901626
398.742092	2549.775286
399.124656	2547.652960
399.507158	2543.945192
399.889598	2542.233720
400.271977	2537.613503
400.654294	2534.669469
401.036549	2530.225692
401.418742	2527.132944
401.800874	2526.485155
402.182944	2522.938704
402.564952	2523.488189
402.946898	2521.048271
403.328783	2525.439116
403.710606	2518.535256
404.092367	2519.593898
404.474067	2519.707324
404.855705	2520.710514
405.237282	2518.217663
405.618797	2520.564320
406.000250	2517.716068
406.381642	2515.750018
406.762972	2518.792355
407.144240	2518.373939
407.525447	2519.689680
407.906593	2518.799916
408.287677	2518.535256
408.668700	2514.141890
409.049661	2520.612211
409.430560	2518.404186
409.811399	2520.299660
410.192176	2517.277488
410.572891	2518.613394
410.953545	2520.339989
411.334138	2516.929648
411.714669	2517.446367
412.095139	2520.508868
412.475547	2516.758249
412.855894	2517.663136
413.236180	2515.508043
413.616405	2517.905112
413.996568	2518.530215
414.376670	2519.422499
414.756711	2519.576254
415.136691	2521.507016
415.516609	2520.614732
415.896466	2519.551048
416.276262	2520.604649
416.655997	2515.192971
417.035670	2517.090965
417.415283	2519.223373
417.794834	2517.214473
418.174324	2519.919052
418.553753	2520.786131
418.933121	2521.083559
419.312428	2521.529701
419.691674	2519.916532
420.070859	2522.096831
420.449983	2520.206398
420.829045	2521.459125
421.208047	2524.045237
421.586988	2519.503157
421.965867	2522.303518
422.344686	2523.389887
422.723444	2522.742099
423.102141	2521.199506
423.480777	2523.508354
423.859352	2522.968951
424.237866	2520.818898
424.616319	2522.074146
424.994712	2524.173786
425.373044	2520.234125
425.751314	2524.115813
426.129524	2524.650175
426.507673	2522.704290
426.885762	2527.478263
427.263789	2523.740247
427.641756	2525.842408
428.019662	2526.371729
428.397508	2524.882068
428.775292	2525.837367
429.153016	2524.816533
429.530679	2525.509692
429.908282	2523.377284
430.285824	2524.945083
430.663305	2521.348220
431.040726	2526.033972
431.418086	2523.601615
431.795385	2527.016997
432.172624	2523.223529
432.549802	2525.802079
432.926920	2524.340144
433.303977	2525.532377
433.680974	2525.260155
434.057910	2524.161183
434.434786	2526.013808
434.811601	2524.740916
435.188355	2525.602953
435.565050	2527.193438
435.941683	2528.161339
436.318257	2524.698066
436.694770	2522.207736
437.071222	2523.379805
437.447614	2524.446009
437.823946	2523.286543
438.200218	2525.265196
438.576429	2527.879034
438.952580	2526.870804
439.328670	2526.147398
439.704700	2525.035824
440.080670	2528.342821
440.456580	2527.052285
440.832429	2528.887265
441.208218	2525.275278
441.583947	2528.950280
441.959616	2528.277286
442.335224	2532.179139
442.710773	2527.183355
443.086261	2529.474560
443.461689	2526.021369
443.837057	2529.615712
444.212365	2526.336441
444.587612	2530.470187
444.962800	2529.393901
445.337927	2529.971113
445.712995	2528.834333
446.088002	2530.608819
446.462949	2530.205527
446.837837	2529.998840
447.212664	2528.879703
447.587431	2532.302647
447.962139	2532.101001
448.336786	2533.194931
448.711374	2530.465146
449.085901	2528.733510
449.460369	2528.640249
449.834776	2531.669982
450.209124	2525.865093
450.583412	2531.281813
450.957640	2531.720394
451.331808	2532.683254
451.705917	2531.433048
452.079965	2532.804242
452.453954	2529.900537
452.827883	2530.717204
453.201752	2534.218285
453.575562	2529.595547
453.949311	2530.162677
454.323001	2529.913140
454.696632	2534.210724
455.070202	2531.617050
455.443713	2531.768285
455.817164	2531.102852
456.190556	2528.788963
456.563888	2531.117976
456.937160	2526.875845
457.310373	2532.892462
457.683526	2532.083357
458.056619	2530.558408
458.429653	2533.260466
458.802628	2531.158305
459.175542	2533.033614
459.548398	2532.416073
459.921194	2533.174767
460.293930	2533.724252
460.666607	2531.985054
461.039224	2533.774664
461.411782	2534.130065
461.784280	2535.828934
462.156719	2535.544109
462.529099	2536.174253
462.901419	2533.585621
463.273680	2536.161650
463.645882	2532.282482
464.018024	2532.940353
464.390106	2535.115611
464.762130	2537.046373
465.134094	2531.241484
465.505999	2538.508307
465.877845	2539.004861
466.249631	2540.673483
466.621358	2537.348842
466.993026	2540.320602
467.364634	2538.962011
467.736184	2538.208359
468.107674	2538.039480
468.479105	2536.335570
468.850477	2537.472350
469.221790	2536.945550
469.593043	2534.306506
469.964238	2538.440252
470.335373	2535.392874
470.706449	2534.961856
471.077467	2537.303472
471.448425	2540.607948
471.819324	2536.683410
472.190164	2538.447813
472.560945	2539.584594
472.931667	2537.061496
473.302330	2537.207690
473.672934	2536.214582
474.043479	2535.465971
474.413965	2534.198121
474.784393	2532.317770
475.154761	2535.302133
475.525070	2531.498583
475.895321	2533.318439
476.265513	2532.325332
476.635645	2539.355221
477.005719	2537.348842
477.375734	2536.622916
477.745691	2534.603934
478.115588	2535.680220
478.485427	2536.683410
478.855207	2540.822197
479.224928	2538.727598
479.594591	2541.827907
479.964194	2537.396733
480.333739	2541.023843
480.703226	2539.728267
481.072653	2538.735159
481.442022	2541.220448
481.811333	2537.946219
482.180584	2537.159799
482.549777	2539.269522
482.918912	2539.652649
483.287988	2541.117104
483.657005	2539.221631
484.025964	2540.612989
484.394864	2538.783050
484.763706	2538.334387
485.132489	2538.278935
485.501213	2543.869574
485.869879	2538.762886
486.238487	2537.419418
486.607036	2540.121477
486.975527	2538.319264
487.343959	2539.075437
487.712333	2541.974101
488.080648	2537.613503
488.448905	2539.448483
488.817104	2538.147865
489.185244	2538.994779
489.553326	2537.852957
489.921350	2540.073586
490.289315	2544.348484
490.657222	2543.609955
491.025070	2543.693134
491.392861	2542.132897
491.760593	2542.236241
492.128267	2541.636343
492.495883	2540.121477
492.863440	2542.455531
493.230939	2538.160468
493.598380	2539.995448
493.965763	2532.191742
494.333088	2538.213400
494.700354	2537.830272
495.067563	2538.034439
495.434713	2534.508152
495.801805	2542.871426
496.168839	2540.126518
496.535815	2539.430838
496.902733	2540.040818
497.269593	2541.699358
497.636395	2538.969573
498.003139	2537.923533
498.369825	2541.230530
498.736453	2539.198945
499.103023	2539.758513
499.469535	2542.014430
499.835989	2541.797660
500.202385	2541.406971
500.568723	2542.919317
500.935003	2540.602907
501.301226	2538.727597
501.667390	2540.363452
502.033497	2541.432177
502.399546	2541.404450
502.765537	2538.979655
503.131470	2543.070552
503.497345	2540.630633
503.863163	2544.628268
504.228923	2542.379913
504.594625	2542.357228
504.960269	2542.059800
505.325856	2539.012423
505.691385	2541.288504
506.056856	2541.583411
506.422270	2540.847403
506.787625	2540.451672
507.152924	2542.243802
507.518164	2545.023999
507.883347	2542.916796
508.248472	2542.697506
508.613540	2541.943854
508.978550	2540.701209
509.343503	2540.426466
509.708398	2543.050387
510.073236	2542.755479
510.438016	2541.104502
510.802738	2541.873277
511.167403	2544.547610
511.532010	2543.289842
511.896561	2543.879657
512.261053	2544.804708
512.625488	2538.258770
512.989866	2537.915972
513.354186	2543.665408
513.718449	2535.564273
514.082655	2543.380583
514.446803	2543.378062
514.810894	2544.260264
515.174927	2544.189688
515.538904	2545.578526
515.902822	2542.460572
516.266684	2541.648946
516.630488	2542.082485
516.994235	2540.885211
517.357925	2543.133566
517.721558	2541.525438
518.085133	2544.282949
518.448651	2542.306817
518.812112	2542.841179
519.175516	2544.177085
519.538863	2543.516694
519.902152	2542.984852
520.265385	2540.358411
520.628560	2545.389482
520.991678	2543.050387
521.354739	2543.620037
521.717743	2540.789429
522.080690	2542.561395
522.443580	2545.359235
522.806413	2543.226827
523.169189	2542.332022
523.531908	2545.094575
523.894569	2543.977959
524.257174	2545.666746
524.619722	2543.153731
524.982213	2545.926365
525.344647	2545.765048
525.707025	2543.320089
526.069345	2543.660367
526.431608	2541.533000
526.793815	2540.691127
527.155964	2546.286808
527.518057	2543.216745
527.880093	2544.424101
528.242072	2543.698175
528.603995	2546.183464
528.965860	2543.529297
529.327669	2543.050387
529.689421	2543.068031
530.051117	2545.243289
530.412755	2544.376210
530.774337	2543.809081
531.135862	2543.793957
531.497331	2541.333874
531.858743	2540.761703
532.220098	2539.776157
532.581396	2539.869419
532.942638	2544.287990
533.303824	2545.815460
533.664953	2544.865202
534.026025	2543.481406
534.387040	2542.659697
534.747999	2541.444779
535.108902	2544.532486
535.469748	2547.985677
535.830537	2543.118443
536.191270	2542.649615
536.551947	2543.748587
536.912567	2545.981818
537.273131	2544.696324
537.633638	2542.742877
537.994089	2544.885367
538.354483	2544.270346
538.714821	2545.591128
539.075103	2544.212373
539.435328	2544.383772
539.795497	2543.395706
540.155609	2545.162630
540.515665	2543.839328
540.875665	2542.347146
541.235609	2542.284132
541.595496	2543.988042
541.955328	2543.831766
542.315102	2548.288146
542.674821	2544.711447
543.034483	2544.903011
543.394090	2544.701365
543.753640	2545.177754
544.113134	2547.342929
544.472571	2545.578526
544.831953	2543.645243
545.191278	2543.872095
545.550548	2544.756817
545.909761	2544.313196
546.268918	2544.484595
546.628019	2543.685572
546.987064	2542.926879
547.346053	2545.371838
547.704986	2543.446118
548.063863	2542.967208
548.422684	2545.248330
548.781449	2543.357897
549.140158	2544.436704
549.498811	2546.057435
549.857408	2543.083154
550.215949	2543.327650
550.574434	2539.725746
550.932864	2539.130890
551.291237	2541.006199
551.649555	2544.968546
552.007817	2544.471992
552.366022	2543.569626
552.724173	2546.085162
553.082267	2542.760521
553.440305	2544.729091
553.798288	2543.778834
554.156215	2542.992414
554.514086	2545.810419
554.871902	2544.779503
555.229661	2545.933927
555.587365	2545.402085
555.945014	2546.518701
556.302606	2544.867723
556.660143	2547.887374
557.017625	2545.553320
557.375050	2544.585418
557.732421	2544.630789
558.089735	2545.127342
558.446994	2541.840510
558.804197	2545.475182
559.161345	2544.161961
559.518437	2545.913762
559.875474	2544.408978
560.232455	2545.023999
560.589381	2546.102806
560.946251	2548.935934
561.303065	2544.411498
561.659825	2544.308155
562.016528	2546.196067
562.373177	2545.029040
562.729770	2545.235727
563.086307	2547.232024
563.442789	2546.221273
563.799216	2546.105326
564.155587	2544.161961
564.511904	2544.275387
564.868164	2545.094575
565.224370	2546.206149
565.580520	2544.255223
565.936615	2548.038609
566.292654	2543.269677
566.648638	2547.756304
567.004567	2543.617517
567.360441	2544.537527
567.716260	2544.535007
568.072023	2545.218083
568.427732	2541.641384
568.783385	2545.631458
569.138982	2540.713812
569.494525	2543.176416
569.850013	2540.612989
570.205445	2545.326468
570.560823	2544.290511
570.916145	2544.353525
571.271412	2546.606921
571.626625	2544.953423
571.981782	2544.875285
572.336884	2545.167672
572.691931	2543.304965
573.046923	2541.898483
573.401860	2544.724050
573.756743	2547.365615
574.111570	2544.035933
574.466342	2543.678011
574.821059	2545.132383
575.175722	2546.606921
575.530330	2546.251520
575.884882	2546.465769
576.239380	2548.058773
576.593823	2546.259081
576.948211	2545.760007
577.302544	2545.447456
577.656823	2543.158772
578.011047	2548.333516
578.365216	2546.564071
578.719330	2546.755635
579.073389	2545.833104
579.427394	2543.113401
579.781344	2545.331509
580.135239	2545.724719
580.489080	2548.005841
580.842866	2544.479554
581.196597	2543.504091
581.550273	2545.326468
581.903895	2543.524255
582.257463	2545.029040
582.610975	2543.347815
582.964434	2545.162630
583.317837	2544.787064
583.671186	2546.354863
584.024481	2544.275387
584.377721	2544.802188
584.730906	2544.124153
585.084037	2546.387631
585.437113	2545.767569
585.790135	2542.523586
586.143103	2544.262784
586.496016	2547.136242
586.848874	2541.810263
587.201679	2542.725233
587.554428	2539.277083
587.907124	2542.342105
588.259765	2539.140972
588.612352	2544.426622
588.964884	2542.604245
589.317362	2542.851261
589.669786	2543.647764
590.022155	2544.066179
590.374470	2544.020809
590.726731	2545.051725
591.078937	2545.162630
591.431090	2547.226983
591.783188	2544.471992
592.135232	2543.126004
592.487222	2544.892929
592.839157	2545.046684
593.191038	2543.420912
593.542866	2544.429143
593.894639	2543.330171
594.246358	2545.104657
594.598022	2541.580891
594.949633	2547.133722
595.301190	2544.073741
595.652692	2543.158772
596.004141	2545.016437
596.355535	2545.815460
596.706876	2542.006868
597.058162	2542.112732
597.409395	2544.686241
597.760573	2547.753783
598.111698	2542.435366
598.462768	2546.269164
598.813785	2540.335726
599.164748	2545.470141
599.515657	2543.166333
599.866511	2545.661705
600.217312	2542.742877
600.568060	2545.429812
600.918753	2547.327806
601.269392	2545.041643
601.619978	2544.277908
601.970510	2543.751107
602.320988	2543.882177
602.671412	2542.720191
603.021783	2543.849410
603.372100	2541.689275
603.722363	2542.803370
604.072572	2544.524924
604.422728	2544.948381
604.772830	2541.986703
605.122878	2539.970242
605.472872	2542.395037
605.822813	2537.857998
606.172701	2543.403268
606.522534	2545.230686
606.872314	2544.497198
607.222041	2547.932744
607.571714	2545.018957
607.921333	2544.451828
608.270899	2543.675490
608.620411	2542.815973
608.969870	2546.004503
609.319276	2546.763197
609.668627	2544.096426
610.017926	2548.605738
610.367171	2551.338044
610.716362	2551.753939
611.065500	2548.217570
611.414585	2548.951057
611.763616	2545.823022
612.112594	2547.111036
612.461518	2549.140101
612.810389	2546.052394
613.159207	2547.479041
613.507971	2543.856972
613.856682	2545.041643
614.205340	2544.519883
614.553945	2547.179092
614.902496	2543.733463
615.250994	2545.858310
615.599439	2545.041643
615.947830	2545.407126
616.296169	2542.032074
616.644454	2544.658515
616.992686	2545.775131
617.340864	2545.258412
617.688990	2542.420243
618.037063	2543.693134
618.385082	2539.728267
618.733048	2545.500388
619.080961	2547.257230
619.428821	2546.339740
619.776628	2543.279759
620.124382	2545.023999
620.472083	2542.397558
620.819731	2544.880326
621.167326	2544.542568
621.514868	2543.607434
621.862357	2545.434853
622.209793	2541.472506
622.557176	2543.562064
622.904506	2539.609799
623.251783	2538.921682
623.599007	2539.657690
623.946179	2540.333205
624.293297	2540.686086
624.640363	2540.968390
624.987376	2542.349667
625.334336	2541.931251
625.681243	2543.332692
626.028097	2542.727753
626.374899	2544.068700
626.721647	2543.488967
627.068343	2543.829245
627.414987	2543.612476
627.761577	2541.906045
628.108115	2543.302445
628.454600	2543.884698
628.801032	2542.377393
629.147412	2541.376724
629.493739	2543.418391
629.840014	2545.122301
630.186236	2542.531148
630.532405	2543.859492
630.878521	2541.074255
631.224585	2542.498381
631.570597	2541.974101
631.916556	2542.374872
632.262462	2542.006868
632.608316	2542.576518
632.954117	2542.637012
633.299866	2542.011909
633.645562	2542.077444
633.991206	2542.374872
634.336797	2540.222300
634.682336	2540.764224
635.027823	2541.192722
635.373257	2540.605427
635.718639	2542.261446
636.063968	2540.756662
636.409245	2541.843031
636.754470	2542.531148
637.099642	2541.873278
637.444762	2544.066179
637.789829	2541.724563
638.134845	2544.444266
638.479808	2539.632485
638.824719	2542.684903
639.169577	2540.973432
639.514383	2538.674665
639.859137	2539.624923
640.203839	2541.278421
640.548489	2540.812115
640.893086	2537.731970
641.237632	2537.016126
641.582125	2540.413863
641.926566	2538.049562
642.270955	2541.510314
642.615292	2541.147351
642.959576	2540.686086
643.303809	2540.832279
643.647990	2542.785726
643.992118	2540.325643
644.336195	2542.291693
