Dividing Wavelength (nm)	Counts (n)	Blue Motor Position (mm): 0.000000	Red Motor Position (mm): 2.400000	
326.493990	2129.978241
326.888308	2129.978241
327.282561	2129.978241
327.676750	2096.429362
328.070874	2096.323498
328.464933	2097.760227
328.858929	2105.490836
329.252859	2113.390324
329.646726	2125.857098
330.040528	2137.635753
330.434265	2155.806593
330.827938	2170.267142
331.221547	2189.622653
331.615091	2207.188553
332.008571	2226.228991
332.401986	2246.741446
332.795338	2267.100146
333.188625	2288.227622
333.581847	2303.550209
333.975006	2322.820019
334.368100	2337.860302
334.761129	2359.665813
335.154095	2374.781713
335.546996	2392.735782
335.939833	2407.587021
336.332606	2419.612694
336.725315	2433.738007
337.117960	2441.801332
337.510540	2457.091152
337.903056	2462.485187
338.295508	2469.835189
338.687896	2480.945892
339.080220	2488.530308
339.472480	2496.563387
339.864676	2502.436331
340.256807	2503.762154
340.648875	2507.379182
341.040879	2508.914214
341.432818	2510.608041
341.824694	2512.881602
342.216506	2512.717764
342.608253	2515.056860
342.999937	2514.348577
343.391557	2513.189112
343.783113	2513.698269
344.174605	2509.831704
344.566033	2508.160561
344.957397	2508.205932
345.348697	2504.392299
345.739934	2504.949346
346.131106	2501.947339
346.522215	2502.401043
346.913260	2497.543891
347.304241	2498.723521
347.695159	2493.594147
348.086012	2492.195227
348.476802	2491.766729
348.867528	2488.996615
349.258191	2485.891264
349.648789	2487.935452
350.039324	2482.536376
350.429796	2485.235914
350.820203	2483.552169
351.210548	2480.955974
351.600828	2481.563433
351.991045	2483.244658
352.381198	2479.211735
352.771288	2481.891108
353.161314	2479.791468
353.551276	2478.485809
353.941175	2476.739049
354.331010	2477.409523
354.720782	2480.436736
355.110490	2480.509832
355.500135	2478.095120
355.889717	2478.606797
356.279235	2477.636375
356.668689	2480.600573
357.058080	2478.891622
357.447408	2475.715695
357.836672	2476.499594
358.225873	2476.754173
358.615010	2476.847434
359.004084	2482.143166
359.393095	2483.668115
359.782043	2482.987559
360.170927	2484.706593
360.559748	2483.141315
360.948505	2485.041830
361.337199	2486.508805
361.725830	2482.445635
362.114398	2485.384628
362.502903	2484.941007
362.891344	2486.208857
363.279722	2486.357571
363.668037	2491.186996
364.056289	2486.665081
364.444478	2490.143477
364.832603	2490.072901
365.220665	2486.831439
365.608665	2489.959475
365.996601	2490.309835
366.384474	2488.568117
366.772284	2489.881337
367.160031	2489.263796
367.547715	2490.851759
367.935336	2490.382932
368.322893	2490.687922
368.710388	2494.158756
369.097820	2495.091370
369.485189	2492.727069
369.872495	2496.260917
370.259738	2491.675988
370.646918	2493.072388
371.034035	2495.628253
371.421090	2493.573982
371.808081	2493.510968
372.195010	2495.512306
372.581875	2494.375526
372.968678	2494.151195
373.355418	2492.149857
373.742096	2498.481546
374.128710	2494.496514
374.515262	2497.090187
374.901751	2495.701349
375.288177	2496.366782
375.674540	2495.096411
376.060841	2499.575476
376.447079	2497.485918
376.833254	2496.477687
377.219367	2491.282778
377.605417	2497.674961
377.991404	2493.770588
378.377329	2495.708911
378.763191	2493.730258
379.148991	2497.879128
379.534727	2496.795280
379.920402	2497.904334
380.306013	2499.136896
380.691563	2497.977430
381.077049	2501.501197
381.462474	2498.567245
381.847835	2498.148830
382.233134	2500.374499
382.618371	2499.184787
383.003545	2500.649242
383.388657	2501.377689
383.773706	2502.186794
384.158693	2499.865342
384.543618	2498.267297
384.928480	2501.788543
385.313280	2500.634118
385.698017	2502.544716
386.082692	2501.544047
386.467305	2500.427431
386.851856	2501.541526
387.236344	2503.172339
387.620770	2502.963132
388.005133	2501.599499
388.389435	2505.191322
388.773674	2501.831393
389.157851	2501.443224
389.541965	2502.915241
389.926018	2505.398009
390.310008	2504.162926
390.693936	2507.290962
391.077802	2502.602689
391.461606	2505.186280
391.845348	2504.853564
392.229027	2504.881291
392.612645	2505.390447
392.996200	2504.576301
393.379694	2505.100581
393.763125	2506.423884
394.146494	2504.483039
394.529801	2505.466064
394.913047	2506.824655
395.296230	2508.347084
395.679351	2504.258708
396.062410	2507.298524
396.445408	2508.052176
396.828343	2510.401354
397.211217	2501.392812
397.594028	2506.431445
397.976778	2502.244767
398.359466	2505.758451
398.742092	2503.963801
399.124656	2510.872702
399.507158	2507.921106
399.889598	2509.758607
400.271977	2510.366066
400.654294	2509.511590
401.036549	2511.066786
401.418742	2511.487723
401.800874	2508.082423
402.182944	2510.570233
402.564952	2511.359173
402.946898	2512.276663
403.328783	2507.195180
403.710606	2511.263391
404.092367	2508.137876
404.474067	2512.279184
404.855705	2509.065448
405.237282	2512.644668
405.618797	2511.833042
406.000250	2511.333968
406.381642	2511.795233
406.762972	2512.884122
407.144240	2512.916890
407.525447	2510.255161
407.906593	2512.621982
408.287677	2512.085099
408.668700	2510.754235
409.049661	2512.826149
409.430560	2511.394461
409.811399	2513.703310
410.192176	2514.625841
410.572891	2513.335306
410.953545	2513.471417
411.334138	2511.361694
411.714669	2514.484689
412.095139	2511.260871
412.475547	2513.322703
412.855894	2512.629544
413.236180	2513.191633
413.616405	2514.285563
413.996568	2513.708351
414.376670	2516.312107
414.756711	2516.183557
415.136691	2512.816067
415.516609	2513.973012
415.896466	2519.455266
416.276262	2513.811695
416.655997	2512.677435
417.035670	2513.216838
417.415283	2514.479647
417.794834	2511.669204
418.174324	2514.255316
418.553753	2515.394617
418.933121	2518.157169
419.312428	2517.607683
419.691674	2518.457118
420.070859	2514.593073
420.449983	2515.588701
420.829045	2516.801099
421.208047	2518.041223
421.586988	2518.399145
421.965867	2515.777745
422.344686	2517.406037
422.723444	2518.036182
423.102141	2518.033661
423.480777	2516.342354
423.859352	2515.752539
424.237866	2519.009124
424.616319	2517.368229
424.994712	2517.506860
425.373044	2516.178516
425.751314	2516.954854
426.129524	2519.034330
426.507673	2520.511388
426.885762	2518.094155
427.263789	2516.549041
427.641756	2517.406037
428.019662	2517.272447
428.397508	2521.247397
428.775292	2520.801254
429.153016	2516.571726
429.530679	2520.682787
429.908282	2516.990142
430.285824	2520.516429
430.663305	2520.007273
431.040726	2519.603980
431.418086	2519.213291
431.795385	2521.418796
432.172624	2522.245545
432.549802	2524.405679
432.926920	2519.919053
433.303977	2520.919722
433.680974	2521.567510
434.057910	2520.647499
434.434786	2520.279495
434.811601	2522.500123
435.188355	2518.893178
435.565050	2522.311080
435.941683	2521.534742
436.318257	2519.049453
436.694770	2516.322189
437.071222	2521.562469
437.447614	2516.912004
437.823946	2517.300173
438.200218	2521.766635
438.576429	2522.485000
438.952580	2522.235463
439.328670	2523.044568
439.704700	2522.333765
440.080670	2520.224042
440.456580	2523.818385
440.832429	2523.818385
441.208218	2522.172448
441.583947	2523.097500
441.959616	2522.411903
442.335224	2519.787983
442.710773	2522.669002
443.086261	2522.134640
443.461689	2523.586492
443.837057	2523.808303
444.212365	2522.873169
444.587612	2523.636903
444.962800	2524.877027
445.337927	2523.573889
445.712995	2524.110772
446.088002	2526.112110
446.462949	2525.509692
446.837837	2521.229753
447.212664	2525.033303
447.587431	2524.229239
447.962139	2522.432068
448.336786	2526.283509
448.711374	2523.150432
449.085901	2525.701256
449.460369	2524.521626
449.834776	2525.366019
450.209124	2523.636903
450.583412	2528.133613
450.957640	2526.928777
451.331808	2524.403159
451.705917	2524.123375
452.079965	2525.013138
452.453954	2525.237470
452.827883	2527.473222
453.201752	2525.734023
453.575562	2524.982892
453.949311	2526.898530
454.323001	2527.059847
454.696632	2526.157480
455.070202	2526.548170
455.443713	2525.416431
455.817164	2522.850483
456.190556	2522.646317
456.563888	2524.882068
456.937160	2520.198837
457.310373	2528.272244
457.683526	2526.326359
458.056619	2528.176463
458.429653	2525.378622
458.802628	2527.586648
459.175542	2525.456760
459.548398	2526.656555
459.921194	2528.625125
460.293930	2527.735362
460.666607	2528.610002
461.039224	2526.729651
461.411782	2528.642769
461.784280	2530.611340
462.156719	2527.120341
462.529099	2526.207892
462.901419	2526.853160
463.273680	2528.070598
463.645882	2526.807789
464.018024	2527.937008
464.390106	2530.235774
464.762130	2529.121679
465.134094	2530.104704
465.505999	2525.582789
465.877845	2528.206709
466.249631	2531.261649
466.621358	2528.214271
466.993026	2532.337935
467.364634	2533.278110
467.736184	2527.939528
468.107674	2529.691329
468.479105	2530.084539
468.850477	2530.298788
469.221790	2527.548839
469.593043	2528.163860
469.964238	2529.862728
470.335373	2528.867101
470.706449	2527.629497
471.077467	2530.409694
471.448425	2529.799714
471.819324	2528.441123
472.190164	2532.549663
472.560945	2529.809796
472.931667	2530.220650
473.302330	2528.935156
473.672934	2530.240815
474.043479	2527.410207
474.413965	2530.616381
474.784393	2524.801410
475.154761	2526.457429
475.525070	2526.676719
475.895321	2524.965248
476.265513	2525.330731
476.635645	2532.486649
477.005719	2530.407173
477.375734	2532.857174
477.745691	2528.047913
478.115588	2531.922040
478.485427	2529.764426
478.855207	2532.549663
479.224928	2531.599406
479.594591	2533.779705
479.964194	2531.717873
480.333739	2529.048582
480.703226	2530.639066
481.072653	2533.270548
481.442022	2530.623943
481.811333	2531.453213
482.180584	2528.115969
482.549777	2530.545805
482.918912	2528.683098
483.287988	2535.281969
483.657005	2529.507327
484.025964	2531.458254
484.394864	2531.705270
484.763706	2531.932122
485.132489	2531.543953
485.501213	2530.260980
485.869879	2530.318953
486.238487	2529.048582
486.607036	2532.547143
486.975527	2534.903882
487.343959	2530.845753
487.712333	2531.715353
488.080648	2529.222502
488.448905	2534.243491
488.817104	2531.632173
489.185244	2531.450692
489.553326	2532.582431
489.921350	2533.409180
490.289315	2531.453213
490.657222	2533.131917
491.025070	2531.579241
491.392861	2533.389016
491.760593	2531.349869
492.128267	2532.043027
492.495883	2530.450023
492.863440	2530.734848
493.230939	2532.242153
493.598380	2534.301464
493.965763	2526.293592
494.333088	2530.588655
494.700354	2530.586134
495.067563	2531.458254
495.434713	2528.776360
495.801805	2532.186700
496.168839	2533.225178
496.535815	2532.872297
496.902733	2533.499921
497.269593	2534.772812
497.636395	2531.322142
498.003139	2531.871628
498.369825	2532.133768
498.736453	2533.013450
499.103023	2531.985054
499.469535	2533.653676
499.835989	2532.133768
500.202385	2533.361289
500.568723	2534.223327
500.935003	2534.319108
501.301226	2529.517409
501.667390	2534.056968
502.033497	2536.320447
502.399546	2532.438758
502.765537	2533.008408
503.131470	2533.510003
503.497345	2532.239632
503.863163	2534.614016
504.228923	2534.689633
504.594625	2533.762061
504.960269	2531.997657
505.325856	2536.264994
505.691385	2533.172246
506.056856	2532.000178
506.422270	2531.922040
506.787625	2533.898172
507.152924	2532.002698
507.518164	2532.224509
507.883347	2533.131917
508.248472	2533.971269
508.613540	2533.759540
508.978550	2534.200641
509.343503	2533.323481
509.708398	2533.618388
510.073236	2533.457071
510.438016	2534.926567
510.802738	2531.117976
511.167403	2535.970086
511.532010	2536.025539
511.896561	2535.279448
512.261053	2535.160981
512.625488	2530.669313
512.989866	2531.712832
513.354186	2533.862884
513.718449	2530.760054
514.082655	2533.086546
514.446803	2535.521424
514.810894	2533.230219
515.174927	2534.719880
515.538904	2533.416742
515.902822	2535.589479
516.266684	2532.990764
516.630488	2533.207534
516.994235	2534.651825
517.357925	2536.181815
517.721558	2534.077133
518.085133	2534.750127
518.448651	2536.365817
518.812112	2533.890610
519.175516	2535.904551
519.538863	2534.298944
519.902152	2536.181815
520.265385	2533.883049
520.628560	2535.783564
520.991678	2533.852802
521.354739	2534.674510
521.717743	2534.334232
522.080690	2535.324819
522.443580	2532.731145
522.806413	2534.298944
523.169189	2534.117462
523.531908	2535.904551
523.894569	2535.791125
524.257174	2535.085364
524.619722	2532.511855
524.982213	2535.463450
525.344647	2534.228368
525.707025	2532.910106
526.069345	2531.236443
526.431608	2536.030580
526.793815	2534.062010
527.155964	2534.344314
527.518057	2535.150899
527.880093	2533.434386
528.242072	2534.344314
528.603995	2535.420601
528.965860	2538.402443
529.327669	2532.227030
529.689421	2532.375744
530.051117	2536.517052
530.412755	2534.800539
530.774337	2533.260466
531.135862	2535.571835
531.497331	2532.763913
531.858743	2531.319622
532.220098	2530.830630
532.581396	2532.025383
532.942638	2532.897503
533.303824	2533.320960
533.664953	2535.781043
534.026025	2537.053934
534.387040	2536.333049
534.747999	2537.623585
535.108902	2534.573687
535.469748	2536.287679
535.830537	2538.228523
536.191270	2535.781043
536.551947	2538.818338
536.912567	2534.871115
537.273131	2536.587628
537.633638	2536.048224
537.994089	2536.476722
538.354483	2533.681402
538.714821	2537.018646
539.075103	2536.292720
539.435328	2537.782381
539.795497	2536.290200
540.155609	2538.692309
540.515665	2536.675848
540.875665	2538.175591
541.235609	2538.901517
541.595496	2536.874973
541.955328	2539.574511
542.315102	2535.954963
542.674821	2536.806918
543.034483	2537.822710
543.394090	2533.930940
543.753640	2535.740714
544.113134	2533.968748
544.472571	2537.701723
544.831953	2537.651311
545.191278	2538.594007
545.550548	2534.392205
545.909761	2536.353214
546.268918	2538.188194
546.628019	2538.047042
546.987064	2535.067720
547.346053	2537.573173
547.704986	2533.797349
548.063863	2536.254912
548.422684	2534.714839
548.781449	2536.204500
549.140158	2537.467309
549.498811	2539.216589
549.857408	2537.835313
550.215949	2532.869777
550.574434	2532.456402
550.932864	2535.118131
551.291237	2530.031607
551.649555	2535.430683
552.007817	2533.610826
552.366022	2536.552340
552.724173	2536.154088
553.082267	2536.675848
553.440305	2537.633667
553.798288	2534.205682
554.156215	2534.039324
554.514086	2535.715508
554.871902	2536.834644
555.229661	2537.152237
555.587365	2534.984541
555.945014	2535.229037
556.302606	2535.518903
556.660143	2536.887576
557.017625	2536.297761
557.375050	2537.842875
557.732421	2534.200641
558.089735	2535.024870
558.446994	2535.413039
558.804197	2537.984027
559.161345	2534.631660
559.518437	2535.992772
559.875474	2537.389171
560.232455	2536.075951
560.589381	2531.856505
560.946251	2537.636188
561.303065	2537.336239
561.659825	2536.080992
562.016528	2534.924047
562.373177	2537.094264
562.729770	2532.874818
563.086307	2536.968235
563.442789	2532.983203
563.799216	2537.502597
564.155587	2536.451517
564.511904	2535.279448
564.868164	2536.895138
565.224370	2540.272711
565.580520	2535.569315
565.936615	2536.701054
566.292654	2535.871784
566.648638	2536.378420
567.004567	2534.303985
567.360441	2537.782381
567.716260	2535.171063
568.072023	2539.146013
568.427732	2529.325846
568.783385	2533.764582
569.138982	2531.531350
569.494525	2534.152750
569.850013	2530.507996
570.205445	2534.959335
570.560823	2535.806249
570.916145	2536.701054
571.271412	2535.803728
571.626625	2536.028060
571.981782	2535.218954
572.336884	2537.396733
572.691931	2534.694674
573.046923	2537.923533
573.401860	2534.674510
573.756743	2537.169881
574.111570	2535.917154
574.466342	2537.114428
574.821059	2536.539737
575.175722	2536.517052
575.530330	2535.491177
575.884882	2536.549819
576.239380	2536.322967
576.593823	2537.389171
576.948211	2535.758358
577.302544	2537.064017
577.656823	2537.505118
578.011047	2537.434542
578.365216	2537.379089
578.719330	2533.031094
579.073389	2541.782537
579.427394	2535.523944
579.781344	2537.318595
580.135239	2536.491846
580.489080	2537.462268
580.842866	2538.047042
581.196597	2540.398740
581.550273	2535.755837
581.903895	2537.248019
582.257463	2537.701723
582.610975	2536.748945
582.964434	2535.478574
583.317837	2536.663245
583.671186	2537.752134
584.024481	2538.168029
584.377721	2535.672658
584.730906	2534.707277
585.084037	2539.819007
585.437113	2536.557381
585.790135	2538.258770
586.143103	2535.239119
586.496016	2539.272042
586.848874	2530.238294
587.201679	2532.786598
587.554428	2532.542102
587.907124	2537.855478
588.259765	2532.925229
588.612352	2536.887576
588.964884	2535.886907
589.317362	2538.657021
589.669786	2537.124511
590.022155	2536.451517
590.374470	2536.133924
590.726731	2538.714995
591.078937	2537.036290
591.431090	2537.827752
591.783188	2537.240457
592.135232	2537.714326
592.487222	2537.550488
592.839157	2536.721218
593.191038	2537.144675
593.542866	2539.312371
593.894639	2535.702905
594.246358	2537.517721
594.598022	2534.692154
594.949633	2535.486136
595.301190	2535.796167
595.652692	2534.878677
596.004141	2536.943029
596.355535	2536.814480
596.706876	2538.359593
597.058162	2540.192053
597.409395	2536.824562
597.760573	2535.463450
598.111698	2537.462268
598.462768	2537.220292
598.813785	2536.784233
599.164748	2536.557381
599.515657	2537.996630
599.866511	2537.250539
600.217312	2536.179294
600.568060	2537.873122
600.918753	2540.459234
601.269392	2536.055786
601.619978	2536.053265
601.970510	2538.760365
602.320988	2537.321116
602.671412	2536.562422
603.021783	2538.682227
603.372100	2534.939170
603.722363	2537.086702
604.072572	2538.074768
604.422728	2539.710623
604.772830	2536.701054
605.122878	2532.247194
605.472872	2535.380271
605.822813	2532.753830
606.172701	2534.951773
606.522534	2538.629295
606.872314	2537.684079
607.222041	2540.398740
607.571714	2540.502084
607.921333	2538.583925
608.270899	2540.799512
608.620411	2536.408667
608.969870	2536.882535
609.319276	2540.045859
609.668627	2543.357897
610.017926	2543.614996
610.367171	2546.569112
610.716362	2544.167003
611.065500	2543.098278
611.414585	2540.131559
611.763616	2540.300437
612.112594	2537.452186
612.461518	2537.210210
612.810389	2540.595345
613.159207	2539.592155
613.507971	2538.427649
613.856682	2539.201466
614.205340	2536.539737
614.553945	2537.787422
614.902496	2537.921013
615.250994	2538.984696
615.599439	2539.927392
615.947830	2537.426980
616.296169	2536.285158
616.644454	2538.742721
616.992686	2536.953111
617.340864	2539.287166
617.688990	2539.246836
618.037063	2538.054603
618.385082	2534.321629
618.733048	2540.350849
619.080961	2538.155427
619.428821	2536.678368
619.776628	2536.239788
620.124382	2538.984696
620.472083	2538.848585
620.819731	2536.988399
621.167326	2537.260622
621.514868	2535.667617
621.862357	2537.255581
622.209793	2538.372196
622.557176	2536.002854
622.904506	2535.236598
623.251783	2530.505476
623.599007	2532.428676
623.946179	2535.415559
624.293297	2534.697195
624.640363	2536.471681
624.987376	2532.663089
625.334336	2536.819521
625.681243	2537.351363
626.028097	2535.211393
626.374899	2538.437731
626.721647	2537.626105
627.068343	2536.524613
627.414987	2535.324819
627.761577	2537.734490
628.108115	2538.500746
628.454600	2537.356404
628.801032	2536.113759
629.147412	2537.928575
629.493739	2537.984027
629.840014	2538.596528
630.186236	2535.980169
630.532405	2535.355066
630.878521	2536.176774
631.224585	2538.256250
631.570597	2534.719880
631.916556	2537.547967
632.262462	2538.246167
632.608316	2538.155427
632.954117	2537.863040
633.299866	2539.922351
633.645562	2536.111239
633.991206	2534.959335
634.336797	2536.731301
634.682336	2534.961856
635.027823	2539.035108
635.373257	2535.879346
635.718639	2536.890097
636.063968	2536.229706
636.409245	2534.437576
636.754470	2537.185004
637.099642	2536.625436
637.444762	2539.135931
637.789829	2536.817000
638.134845	2538.732639
638.479808	2537.167360
638.824719	2537.815149
639.169577	2536.073430
639.514383	2535.957483
639.859137	2536.023018
640.203839	2540.244985
640.548489	2539.352701
640.893086	2534.432534
641.237632	2531.024714
641.582125	2532.549663
641.926566	2528.975485
642.270955	2536.466640
642.615292	2535.087884
642.959576	2535.145858
643.303809	2534.220806
643.647990	2536.993441
643.992118	2539.854295
644.336195	2537.910931
