Dividing Wavelength (nm)	Counts (n)	Blue Motor Position (mm): 0.000000	Red Motor Position (mm): 1.000000	
326.493990	2151.317445
326.888308	2151.317445
327.282561	2151.317445
327.676750	2123.170163
328.070874	2126.215019
328.464933	2130.300875
328.858929	2141.595580
329.252859	2151.929945
329.646726	2163.776657
330.040528	2179.056394
330.434265	2198.600948
330.827938	2218.952086
331.221547	2237.571587
331.615091	2259.225864
332.008571	2279.536673
332.401986	2299.116514
332.795338	2318.351037
333.188625	2334.903665
333.581847	2357.029289
333.975006	2376.581405
334.368100	2397.570249
334.761129	2413.777558
335.154095	2429.087542
335.546996	2447.505398
335.939833	2458.041410
336.332606	2474.745273
336.725315	2483.453866
337.117960	2490.703045
337.510540	2500.981958
337.903056	2511.618793
338.295508	2515.911335
338.687896	2522.825278
339.080220	2529.288037
339.472480	2536.859850
339.864676	2538.475540
340.256807	2542.828576
340.648875	2544.688762
341.040879	2548.915769
341.432818	2546.072559
341.824694	2548.777138
342.216506	2547.859648
342.608253	2549.871068
342.999937	2546.508618
343.391557	2548.283105
343.783113	2545.029040
344.174605	2546.400234
344.566033	2542.815973
344.957397	2542.727753
345.348697	2539.335057
345.739934	2539.239275
346.131106	2538.873791
346.522215	2534.868594
346.913260	2533.691485
347.304241	2530.956659
347.695159	2529.590506
348.086012	2527.717717
348.476802	2526.326359
348.867528	2527.014477
349.258191	2523.062212
349.648789	2522.931142
350.039324	2521.411234
350.429796	2522.064063
350.820203	2520.705473
351.210548	2518.739423
351.600828	2516.599453
351.991045	2516.982580
352.381198	2518.134484
352.771288	2518.013496
353.161314	2515.487878
353.551276	2516.717920
353.941175	2516.748167
354.331010	2517.776562
354.720782	2517.953003
355.110490	2515.923938
355.500135	2517.363187
355.889717	2515.976870
356.279235	2521.932993
356.668689	2517.889988
357.058080	2516.410409
357.447408	2514.925790
357.836672	2515.775224
358.225873	2517.922756
358.615010	2518.431912
359.004084	2518.615914
359.393095	2522.716893
359.782043	2522.235463
360.170927	2523.445340
360.559748	2522.948786
360.948505	2526.026410
361.337199	2523.397449
361.725830	2525.257634
362.114398	2524.297295
362.502903	2525.547501
362.891344	2524.503982
363.279722	2526.444826
363.668037	2527.586648
364.056289	2527.332069
364.444478	2527.311905
364.832603	2527.750485
365.220665	2528.216792
365.608665	2527.937008
365.996601	2530.013963
366.384474	2528.604961
366.772284	2529.711494
367.160031	2529.184693
367.547715	2528.302491
367.935336	2528.355423
368.322893	2531.367513
368.710388	2529.706453
369.097820	2532.690816
369.485189	2530.215609
369.872495	2531.221319
370.259738	2531.586803
370.646918	2533.613347
371.034035	2531.327184
371.421090	2532.889941
371.808081	2529.333407
372.195010	2534.785415
372.581875	2531.939684
372.968678	2533.522606
373.355418	2531.478418
373.742096	2535.274407
374.128710	2532.826927
374.515262	2534.601413
374.901751	2533.361289
375.288177	2534.389685
375.674540	2535.047555
376.060841	2536.552340
376.447079	2534.273738
376.833254	2535.539068
377.219367	2530.888603
377.605417	2532.640404
377.991404	2533.046217
378.377329	2534.205683
378.763191	2532.615198
379.148991	2536.940508
379.534727	2534.621578
379.920402	2538.818338
380.306013	2535.201310
380.691563	2538.291538
381.077049	2537.553009
381.462474	2540.444110
381.847835	2539.829090
382.233134	2540.920499
382.618371	2537.878163
383.003545	2539.589635
383.388657	2539.226672
383.773706	2541.563247
384.158693	2539.660211
384.543618	2540.217258
384.928480	2538.926723
385.313280	2541.212886
385.698017	2538.929244
386.082692	2539.662732
386.467305	2542.982331
386.851856	2541.643905
387.236344	2542.405119
387.620770	2542.997455
388.005133	2539.514018
388.389435	2542.382434
388.773674	2540.141641
389.157851	2539.259439
389.541965	2539.435880
389.926018	2541.845551
390.310008	2543.544420
390.693936	2540.136600
391.077802	2541.568288
391.461606	2542.952084
391.845348	2544.008206
392.229027	2545.208001
392.612645	2547.476520
392.996200	2544.807229
393.379694	2545.359235
393.763125	2545.898639
394.146494	2543.400747
394.529801	2545.308824
394.913047	2545.807898
395.296230	2546.339740
395.679351	2548.157076
396.062410	2544.552651
396.445408	2545.412167
396.828343	2545.911242
397.211217	2543.536858
397.594028	2543.335212
397.976778	2543.849410
398.359466	2544.779503
398.742092	2543.408309
399.124656	2547.163968
399.507158	2549.563558
399.889598	2547.292518
400.271977	2548.923331
400.654294	2548.983825
401.036549	2547.857127
401.418742	2548.124308
401.800874	2546.236396
402.182944	2549.835780
402.564952	2548.938455
402.946898	2548.479710
403.328783	2549.160265
403.710606	2549.795451
404.092367	2548.893084
404.474067	2550.884340
404.855705	2549.064483
405.237282	2553.059598
405.618797	2548.855276
406.000250	2547.738660
406.381642	2551.448949
406.762972	2550.806202
407.144240	2549.288815
407.525447	2553.452808
407.906593	2549.719833
408.287677	2550.922149
408.668700	2547.703372
409.049661	2554.014897
409.430560	2550.334854
409.811399	2552.076573
410.192176	2551.322920
410.572891	2550.155893
410.953545	2553.735112
411.334138	2551.968188
411.714669	2551.040616
412.095139	2550.581871
412.475547	2552.169834
412.855894	2551.953065
413.236180	2551.302756
413.616405	2554.818961
413.996568	2553.835936
414.376670	2554.619835
414.756711	2555.534804
415.136691	2554.483724
415.516609	2555.222253
415.896466	2555.358364
416.276262	2555.973385
416.655997	2548.343598
417.035670	2550.307128
417.415283	2548.741850
417.794834	2549.515667
418.174324	2553.407437
418.553753	2553.384752
418.933121	2556.205278
419.312428	2551.448949
419.691674	2555.522202
420.070859	2555.983467
420.449983	2552.162272
420.829045	2556.469938
421.208047	2557.382387
421.586988	2556.323745
421.965867	2557.682336
422.344686	2556.200237
422.723444	2556.086811
423.102141	2554.392983
423.480777	2557.394990
423.859352	2561.261555
424.237866	2557.982285
424.616319	2558.231822
424.994712	2556.931204
425.373044	2559.817265
425.751314	2557.067315
426.129524	2558.105793
426.507673	2559.287943
426.885762	2555.265103
427.263789	2560.074363
427.641756	2556.961451
428.019662	2557.946997
428.397508	2559.766853
428.775292	2560.515464
429.153016	2557.397511
429.530679	2561.493448
429.908282	2559.108982
430.285824	2557.959599
430.663305	2556.522871
431.040726	2559.827347
431.418086	2561.589230
431.795385	2559.671071
432.172624	2559.411452
432.549802	2559.988664
432.926920	2559.605536
433.303977	2562.030331
433.680974	2560.976730
434.057910	2560.311298
434.434786	2560.931360
434.811601	2562.075702
435.188355	2558.604867
435.565050	2562.844477
435.941683	2559.582851
436.318257	2555.149156
436.694770	2554.962633
437.071222	2556.948848
437.447614	2558.562017
437.823946	2556.527912
438.200218	2563.179714
438.576429	2560.843139
438.952580	2562.660475
439.328670	2560.026472
439.704700	2559.676112
440.080670	2561.997564
440.456580	2561.659806
440.832429	2561.609395
441.208218	2559.454302
441.583947	2563.393963
441.959616	2560.139898
442.335224	2562.191648
442.710773	2560.144940
443.086261	2562.892368
443.461689	2561.226267
443.837057	2561.821123
444.212365	2561.871535
444.587612	2563.041083
444.962800	2562.768860
445.337927	2561.942111
445.712995	2565.644838
446.088002	2563.998902
446.462949	2564.172822
446.837837	2564.926474
447.212664	2566.398491
447.587431	2563.308264
447.962139	2561.795918
448.336786	2561.185938
448.711374	2564.707184
449.085901	2565.859087
449.460369	2564.805486
449.834776	2562.312636
450.209124	2562.814231
450.583412	2564.828172
450.957640	2563.993861
451.331808	2565.236505
451.705917	2565.435631
452.079965	2565.012174
452.453954	2563.388922
452.827883	2563.310784
453.201752	2563.583007
453.575562	2564.218192
453.949311	2565.884293
454.323001	2563.714077
454.696632	2566.514437
455.070202	2568.828327
455.443713	2564.767678
455.817164	2560.248283
456.190556	2560.785166
456.563888	2564.198027
456.937160	2559.784497
457.310373	2566.002760
457.683526	2565.362534
458.056619	2566.612740
458.429653	2566.345559
458.802628	2566.388409
459.175542	2566.085939
459.548398	2567.643656
459.921194	2566.025446
460.293930	2564.903789
460.666607	2563.111659
461.039224	2565.733059
461.411782	2565.365054
461.784280	2566.030487
462.156719	2567.341187
462.529099	2565.982596
462.901419	2565.712894
463.273680	2565.478480
463.645882	2566.784139
464.018024	2564.631567
464.390106	2564.765157
464.762130	2566.345559
465.134094	2569.234140
465.505999	2567.530230
465.877845	2566.940415
466.249631	2568.813204
466.621358	2568.709860
466.993026	2569.992834
467.364634	2570.446537
467.736184	2569.181208
468.107674	2568.704819
468.479105	2565.808676
468.850477	2566.864798
469.221790	2569.944943
469.593043	2567.169787
469.964238	2568.750189
470.335373	2568.488049
470.706449	2570.139027
471.077467	2567.121897
471.448425	2568.475446
471.819324	2569.123235
472.190164	2568.213306
472.560945	2567.396639
472.931667	2566.542164
473.302330	2568.578790
473.672934	2569.841599
474.043479	2568.170457
474.413965	2571.152299
474.784393	2566.406053
475.154761	2567.452092
475.525070	2564.954200
475.895321	2565.496124
476.265513	2563.489745
476.635645	2570.312947
477.005719	2566.993347
477.375734	2569.113152
477.745691	2568.483008
478.115588	2569.637432
478.485427	2569.249263
478.855207	2569.299675
479.224928	2567.898234
479.594591	2571.011147
479.964194	2568.828327
480.333739	2570.496949
480.703226	2568.941753
481.072653	2569.985272
481.442022	2571.737073
481.811333	2570.857392
482.180584	2569.430745
482.549777	2567.391598
482.918912	2569.302196
483.287988	2570.194480
483.657005	2569.554253
484.025964	2569.992834
484.394864	2567.484860
484.763706	2572.016857
485.132489	2569.375292
485.501213	2569.201372
485.869879	2569.657597
486.238487	2566.947977
486.607036	2568.261197
486.975527	2573.141034
487.343959	2569.733214
487.712333	2568.535940
488.080648	2570.708677
488.448905	2570.179356
488.817104	2570.098698
489.185244	2571.691703
489.553326	2570.418811
489.921350	2571.739593
490.289315	2570.963256
490.657222	2572.929306
491.025070	2568.863615
491.392861	2570.597772
491.760593	2571.079202
492.128267	2570.862433
492.495883	2571.565674
492.863440	2571.298493
493.230939	2570.673389
493.598380	2573.249419
493.965763	2568.079716
494.333088	2568.137689
494.700354	2567.068964
495.067563	2567.540312
495.434713	2565.294478
495.801805	2570.436455
496.168839	2570.693554
496.535815	2571.001064
496.902733	2569.259346
497.269593	2572.531055
497.636395	2568.540981
498.003139	2570.759089
498.369825	2569.675241
498.736453	2571.663976
499.103023	2571.953842
499.469535	2573.435942
499.835989	2572.218503
500.202385	2571.006106
500.568723	2573.448545
500.935003	2571.792526
501.301226	2571.817731
501.667390	2574.633216
502.033497	2575.709502
502.399546	2570.766651
502.765537	2572.551219
503.131470	2573.146075
503.497345	2571.492577
503.863163	2574.728998
504.228923	2572.599110
504.594625	2574.613051
504.960269	2570.562484
505.325856	2572.765468
505.691385	2571.734552
506.056856	2575.654049
506.422270	2574.333267
506.787625	2572.548699
507.152924	2572.107598
507.518164	2574.481981
507.883347	2572.939388
508.248472	2570.010478
508.613540	2575.079358
508.978550	2571.232957
509.343503	2572.934347
509.708398	2573.761096
510.073236	2573.085582
510.438016	2573.773699
510.802738	2571.971487
511.167403	2573.335119
511.532010	2569.874367
511.896561	2570.721280
512.261053	2572.936867
512.625488	2570.474264
512.989866	2568.127607
513.354186	2568.351938
513.718449	2570.479305
514.082655	2568.815724
514.446803	2572.042063
514.810894	2570.779254
515.174927	2572.921744
515.538904	2570.179356
515.902822	2572.210941
516.266684	2572.183215
516.630488	2575.407033
516.994235	2574.918041
517.357925	2572.394943
517.721558	2577.357959
518.085133	2573.672876
518.448651	2574.529872
518.812112	2571.744635
519.175516	2573.980386
519.538863	2574.751683
519.902152	2573.322516
520.265385	2574.421487
520.628560	2575.263360
520.991678	2574.696230
521.354739	2571.913513
521.717743	2572.964594
522.080690	2576.148083
522.443580	2574.633216
522.806413	2572.679769
523.169189	2572.311764
523.531908	2575.901066
523.894569	2574.214800
524.257174	2573.027608
524.619722	2573.549368
524.982213	2573.866960
525.344647	2573.604820
525.707025	2573.342680
526.069345	2576.120356
526.431608	2573.577094
526.793815	2577.115984
527.155964	2573.443503
527.518057	2575.938875
527.880093	2574.366035
528.242072	2574.797053
528.603995	2574.907959
528.965860	2574.171950
529.327669	2574.716395
529.689421	2573.256981
530.051117	2573.393092
530.412755	2571.994172
530.774337	2574.066086
531.135862	2575.081878
531.497331	2573.617423
531.858743	2570.481826
532.220098	2572.909141
532.581396	2570.133986
532.942638	2569.566856
533.303824	2572.604151
533.664953	2577.501632
534.026025	2576.760583
534.387040	2573.546847
534.747999	2570.779254
535.108902	2573.992989
535.469748	2574.393761
535.830537	2575.059193
536.191270	2570.638101
536.551947	2573.778740
536.912567	2575.134811
537.273131	2572.510890
537.633638	2575.235634
537.994089	2573.143555
538.354483	2570.131465
538.714821	2578.270408
539.075103	2576.246385
539.435328	2575.344018
539.795497	2575.611200
540.155609	2575.328895
540.515665	2571.356466
540.875665	2575.346539
541.235609	2572.820921
541.595496	2577.040367
541.955328	2574.290417
542.315102	2572.939388
542.674821	2571.974007
543.034483	2575.974163
543.394090	2569.955025
543.753640	2575.575912
544.113134	2573.350242
544.472571	2573.680438
544.831953	2572.299162
545.191278	2573.430901
545.550548	2575.086920
545.909761	2573.882084
546.268918	2574.905438
546.628019	2573.201528
546.987064	2573.874522
547.346053	2576.357290
547.704986	2575.654049
548.063863	2575.989286
548.422684	2575.535582
548.781449	2574.015674
549.140158	2573.380489
549.498811	2577.947774
549.857408	2573.874522
550.215949	2570.960735
550.574434	2573.594738
550.932864	2574.209759
551.291237	2569.037535
551.649555	2575.956519
552.007817	2575.003741
552.366022	2575.953998
552.724173	2575.706982
553.082267	2573.705643
553.440305	2574.310582
553.798288	2577.118505
554.156215	2576.198494
554.514086	2572.909141
554.871902	2573.284707
555.229661	2576.034657
555.587365	2573.940057
555.945014	2574.217321
556.302606	2574.154306
556.660143	2574.088771
557.017625	2574.071127
557.375050	2573.642629
557.732421	2574.199677
558.089735	2575.641447
558.446994	2574.348391
558.804197	2573.919892
559.161345	2574.792012
559.518437	2574.081209
559.875474	2573.935016
560.232455	2575.701940
560.589381	2574.610531
560.946251	2578.149421
561.303065	2576.639595
561.659825	2576.014492
562.016528	2572.891497
562.373177	2577.632702
562.729770	2576.596745
563.086307	2575.124728
563.442789	2574.146744
563.799216	2575.112125
564.155587	2574.794533
564.511904	2575.533062
564.868164	2575.565829
565.224370	2577.423494
565.580520	2573.524162
565.936615	2577.302507
566.292654	2576.533731
566.648638	2573.259501
567.004567	2576.944585
567.360441	2574.219841
567.716260	2577.461303
568.072023	2575.764955
568.427732	2572.853688
568.783385	2571.679100
569.138982	2570.121383
569.494525	2575.391909
569.850013	2575.701940
570.205445	2574.764286
570.560823	2572.286559
570.916145	2579.109760
571.271412	2572.805797
571.626625	2576.576581
571.981782	2573.763617
572.336884	2577.113463
572.691931	2575.454924
573.046923	2575.689337
573.401860	2575.517938
573.756743	2576.858885
574.111570	2576.591704
574.466342	2575.134811
574.821059	2576.574060
575.175722	2574.345870
575.530330	2573.788823
575.884882	2578.378793
576.239380	2576.972311
576.593823	2578.303176
576.948211	2575.941395
577.302544	2576.914338
577.656823	2576.140521
578.011047	2575.817887
578.365216	2577.385686
578.719330	2575.601117
579.073389	2576.183371
579.427394	2574.320664
579.781344	2574.424008
580.135239	2574.323185
580.489080	2575.235634
580.842866	2576.513566
581.196597	2574.499625
581.550273	2577.342836
581.903895	2575.696899
582.257463	2578.656057
582.610975	2575.588514
582.964434	2575.528021
583.317837	2578.197312
583.671186	2578.076324
584.024481	2574.769327
584.377721	2576.188412
584.730906	2574.862588
585.084037	2574.847465
585.437113	2573.937537
585.790135	2575.427197
586.143103	2577.181519
586.496016	2575.827969
586.848874	2573.561971
587.201679	2572.213462
587.554428	2573.330077
587.907124	2571.497618
588.259765	2573.072979
588.612352	2576.022054
588.964884	2572.566343
589.317362	2575.076837
589.669786	2572.717577
590.022155	2577.720923
590.374470	2573.801425
590.726731	2576.465675
591.078937	2577.138669
591.431090	2577.357959
591.783188	2575.099522
592.135232	2573.249419
592.487222	2573.461147
592.839157	2574.887794
593.191038	2575.008782
593.542866	2578.131777
593.894639	2576.710171
594.246358	2575.964080
594.598022	2577.289904
594.949633	2575.422156
595.301190	2573.279666
595.652692	2577.065572
596.004141	2574.852506
596.355535	2576.725295
596.706876	2574.855027
597.058162	2573.506518
597.409395	2576.369893
597.760573	2577.438618
598.111698	2574.446693
598.462768	2576.727815
598.813785	2575.825449
599.164748	2575.981724
599.515657	2577.234451
599.866511	2576.168247
600.217312	2576.059862
600.568060	2573.342680
600.918753	2579.634040
601.269392	2575.538103
601.619978	2573.027608
601.970510	2574.741601
602.320988	2578.398958
602.671412	2574.126580
603.021783	2576.788309
603.372100	2575.643967
603.722363	2575.394430
604.072572	2577.262177
604.422728	2578.315779
604.772830	2570.998544
605.122878	2570.653225
605.472872	2570.537278
605.822813	2569.569377
606.172701	2570.312947
606.522534	2574.885273
606.872314	2573.844275
607.222041	2576.500963
607.571714	2576.886612
607.921333	2575.538103
608.270899	2575.701940
608.620411	2574.731518
608.969870	2577.670511
609.319276	2574.544996
609.668627	2578.487178
610.017926	2576.203535
610.367171	2574.981055
610.716362	2573.085582
611.065500	2575.628844
611.414585	2576.536251
611.763616	2577.259657
612.112594	2575.495253
612.461518	2574.043401
612.810389	2574.492063
613.159207	2574.940726
613.507971	2579.147569
613.856682	2575.054152
614.205340	2575.578432
614.553945	2575.152455
614.902496	2578.441807
615.250994	2574.996179
615.599439	2576.170768
615.947830	2575.336457
616.296169	2575.638926
616.644454	2576.120356
616.992686	2575.875860
617.340864	2575.470047
617.688990	2576.135480
618.037063	2577.806622
618.385082	2576.516087
618.733048	2575.485171
619.080961	2575.386868
619.428821	2577.400809
619.776628	2572.876374
620.124382	2576.843762
620.472083	2576.382496
620.819731	2574.945767
621.167326	2575.613720
621.514868	2575.780078
621.862357	2574.862588
622.209793	2573.864440
622.557176	2578.167065
622.904506	2572.200859
623.251783	2571.185067
623.599007	2573.302351
623.946179	2573.183884
624.293297	2571.331260
624.640363	2575.691858
624.987376	2576.430387
625.334336	2576.841241
625.681243	2575.061714
626.028097	2575.321333
626.374899	2575.207907
626.721647	2578.852662
627.068343	2578.219997
627.414987	2577.015161
627.761577	2574.784450
628.108115	2576.160685
628.454600	2573.859399
628.801032	2576.548854
629.147412	2574.913000
629.493739	2575.467527
629.840014	2578.308217
630.186236	2575.160016
630.532405	2575.338977
630.878521	2575.593556
631.224585	2578.792168
631.570597	2576.684965
631.916556	2575.288566
632.262462	2576.342167
632.608316	2577.153793
632.954117	2573.877043
633.299866	2575.449883
633.645562	2574.502146
633.991206	2576.538772
634.336797	2577.123546
634.682336	2576.261508
635.027823	2573.546847
635.373257	2574.870150
635.718639	2573.239337
636.063968	2574.739080
636.409245	2575.313772
636.754470	2574.741601
637.099642	2573.614903
637.444762	2576.221179
637.789829	2571.255643
638.134845	2574.575243
638.479808	2573.451065
638.824719	2575.890984
639.169577	2574.451734
639.514383	2576.017012
639.859137	2576.165727
640.203839	2575.419636
640.548489	2577.078175
640.893086	2572.662125
641.237632	2572.581466
641.582125	2571.840417
641.926566	2568.835889
642.270955	2573.645150
642.615292	2575.724626
642.959576	2575.691858
643.303809	2574.968452
643.647990	2572.573904
643.992118	2577.632702
644.336195	2573.423339
