Dividing Wavelength (nm)	Counts (n)	Blue Motor Position (mm): 0.000000	Red Motor Position (mm): 9.600000	
326.493990	2130.245422
326.888308	2130.245422
327.282561	2130.245422
327.676750	2096.646132
328.070874	2095.829465
328.464933	2098.554208
328.858929	2105.596700
329.252859	2112.677001
329.646726	2127.225771
330.040528	2141.230096
330.434265	2155.178969
330.827938	2172.981804
331.221547	2191.205575
331.615091	2211.186188
332.008571	2230.279558
332.401986	2249.458628
332.795338	2268.811618
333.188625	2287.957920
333.581847	2305.924592
333.975006	2323.102324
334.368100	2343.503874
334.761129	2361.667151
335.154095	2376.452855
335.546996	2395.503376
335.939833	2408.736404
336.332606	2425.969589
336.725315	2434.111052
337.117960	2445.637651
337.510540	2454.767180
337.903056	2465.124231
338.295508	2472.577577
338.687896	2479.892291
339.080220	2489.790597
339.472480	2497.148161
339.864676	2502.033039
340.256807	2505.937412
340.648875	2506.562515
341.040879	2509.751045
341.432818	2511.749863
341.824694	2514.711541
342.216506	2515.394617
342.608253	2515.014010
342.999937	2514.590553
343.391557	2514.993845
343.783113	2514.426715
344.174605	2513.020233
344.566033	2510.847496
344.957397	2507.361538
345.348697	2508.863802
345.739934	2507.732063
346.131106	2504.367093
346.522215	2504.233502
346.913260	2501.445744
347.304241	2497.856443
347.695159	2498.980620
348.086012	2498.123624
348.476802	2488.424444
348.867528	2492.477532
349.258191	2491.708756
349.648789	2491.701194
350.039324	2486.967550
350.429796	2487.166676
350.820203	2484.605770
351.210548	2483.839514
351.600828	2484.557879
351.991045	2483.784062
352.381198	2482.937148
352.771288	2483.164000
353.161314	2482.876654
353.551276	2484.126860
353.941175	2482.362456
354.331010	2482.894298
354.720782	2479.037815
355.110490	2482.357415
355.500135	2480.817343
355.889717	2483.290029
356.279235	2482.491006
356.668689	2485.041830
357.058080	2484.315903
357.447408	2481.870944
357.836672	2482.059987
358.225873	2481.018989
358.615010	2481.029071
359.004084	2485.530822
359.393095	2484.273054
359.782043	2485.291367
360.170927	2485.785400
360.559748	2487.930411
360.948505	2487.350678
361.337199	2486.859166
361.725830	2488.973930
362.114398	2488.308497
362.502903	2488.626090
362.891344	2488.744557
363.279722	2489.662047
363.668037	2491.681029
364.056289	2490.067860
364.444478	2494.325114
364.832603	2494.703201
365.220665	2492.578355
365.608665	2496.013901
365.996601	2492.522902
366.384474	2497.254025
366.772284	2496.041627
367.160031	2498.925167
367.547715	2499.451968
367.935336	2500.908861
368.322893	2504.815756
368.710388	2507.603514
369.097820	2516.148269
369.485189	2516.183558
369.872495	2523.334434
370.259738	2528.007584
370.646918	2536.703574
371.034035	2542.866385
371.421090	2550.533980
371.808081	2562.380691
372.195010	2569.733214
372.581875	2586.583271
372.968678	2598.745055
373.355418	2609.928854
373.742096	2626.799076
374.128710	2641.771303
374.515262	2655.072387
374.901751	2669.732062
375.288177	2685.349557
375.674540	2706.424101
376.060841	2723.987481
376.447079	2743.146386
376.833254	2764.914088
377.219367	2772.695109
377.605417	2808.835141
377.991404	2819.713951
378.377329	2840.082733
378.763191	2851.516070
379.148991	2884.606204
379.534727	2904.700243
379.920402	2928.015580
380.306013	2937.442538
380.691563	2975.684731
381.077049	2989.802482
381.462474	2997.114676
381.847835	3021.912111
382.233134	3030.608102
382.618371	3023.895805
383.003545	3071.832137
383.388657	3065.855849
383.773706	3078.277252
384.158693	3076.245668
384.543618	3082.375711
384.928480	3096.856425
385.313280	3115.682614
385.698017	3095.369285
386.082692	3119.534056
386.467305	3100.039914
386.851856	3103.135182
387.236344	3098.593103
387.620770	3092.488265
388.005133	3089.748398
388.389435	3078.647777
388.773674	3061.593554
389.157851	3058.079870
389.541965	3042.127138
389.926018	3003.584997
390.310008	3008.439628
390.693936	2992.698625
391.077802	2984.940289
391.461606	2953.120526
391.845348	2948.515432
392.229027	2924.607760
392.612645	2907.513207
392.996200	2902.766961
393.379694	2890.942934
393.763125	2883.686193
394.146494	2849.504650
394.529801	2840.944771
394.913047	2821.488437
395.296230	2792.685805
395.679351	2780.171140
396.062410	2760.485435
396.445408	2737.404512
396.828343	2722.507902
397.211217	2705.166333
397.594028	2677.492919
397.976778	2664.852226
398.359466	2653.365957
398.742092	2638.696199
399.124656	2624.560803
399.507158	2616.018568
399.889598	2606.228647
400.271977	2599.337390
400.654294	2591.682398
401.036549	2578.913155
401.418742	2570.111301
401.800874	2567.152143
402.182944	2560.268448
402.564952	2554.355174
402.946898	2547.083310
403.328783	2544.391334
403.710606	2536.728780
404.092367	2538.561239
404.474067	2535.377751
404.855705	2533.956145
405.237282	2529.154446
405.618797	2528.927594
406.000250	2527.410207
406.381642	2526.107069
406.762972	2528.766277
407.144240	2524.327542
407.525447	2526.578417
407.906593	2523.861235
408.287677	2523.049609
408.668700	2523.135309
409.049661	2524.526667
409.430560	2522.616070
409.811399	2523.432737
410.192176	2522.825278
410.572891	2522.873169
410.953545	2520.529032
411.334138	2522.023734
411.714669	2520.372756
412.095139	2521.547345
412.475547	2523.800741
412.855894	2521.010462
413.236180	2519.992149
413.616405	2523.152953
413.996568	2520.962571
414.376670	2518.759587
414.756711	2522.691687
415.136691	2520.481141
415.516609	2521.229752
415.896466	2523.150432
416.276262	2521.524660
416.655997	2518.144566
417.035670	2519.477952
417.415283	2520.627335
417.794834	2518.182375
418.174324	2521.932993
418.553753	2523.462984
418.933121	2523.808303
419.312428	2525.108920
419.691674	2521.716224
420.070859	2521.484331
420.449983	2521.897705
420.829045	2523.195803
421.208047	2523.145391
421.586988	2524.647655
421.965867	2521.401152
422.344686	2523.710000
422.723444	2523.785618
423.102141	2521.043230
423.480777	2525.454239
423.859352	2523.505833
424.237866	2525.320649
424.616319	2522.336286
424.994712	2526.470032
425.373044	2525.640762
425.751314	2524.105731
426.129524	2524.975330
426.507673	2527.195958
426.885762	2525.534898
427.263789	2524.009949
427.641756	2525.950793
428.019662	2527.621936
428.397508	2527.679909
428.775292	2527.760567
429.153016	2527.732841
429.530679	2525.731503
429.908282	2526.568334
430.285824	2528.022707
430.663305	2528.204189
431.040726	2527.987419
431.418086	2525.577748
431.795385	2528.264683
432.172624	2527.606812
432.549802	2527.974816
432.926920	2525.817203
433.303977	2531.223840
433.680974	2528.080681
434.057910	2528.985568
434.434786	2526.608664
434.811601	2527.783253
435.188355	2530.984385
435.565050	2527.299302
435.941683	2528.733510
436.318257	2527.321987
436.694770	2528.083201
437.071222	2526.354085
437.447614	2524.614887
437.823946	2527.072450
438.200218	2527.228726
438.576429	2527.132944
438.952580	2529.532533
439.328670	2533.676361
439.704700	2529.671165
440.080670	2529.293078
440.456580	2530.384488
440.832429	2530.399611
441.208218	2527.919364
441.583947	2531.654859
441.959616	2529.847605
442.335224	2528.247039
442.710773	2530.651669
443.086261	2531.632173
443.461689	2529.991278
443.837057	2532.811803
444.212365	2530.676875
444.587612	2528.902389
444.962800	2530.263500
445.337927	2531.531350
445.712995	2530.069416
446.088002	2530.460105
446.462949	2532.083357
446.837837	2531.312060
447.212664	2532.353058
447.587431	2530.422297
447.962139	2531.675023
448.336786	2532.773995
448.711374	2534.732483
449.085901	2534.135106
449.460369	2533.988913
449.834776	2531.299457
450.209124	2533.389016
450.583412	2537.207690
450.957640	2535.725590
451.331808	2534.460261
451.705917	2535.498738
452.079965	2534.079654
452.453954	2533.807431
452.827883	2533.421783
453.201752	2534.195600
453.575562	2532.189221
453.949311	2533.383974
454.323001	2534.974458
454.696632	2532.335414
455.070202	2535.929757
455.443713	2533.857843
455.817164	2532.945394
456.190556	2532.060672
456.563888	2532.350538
456.937160	2528.753675
457.310373	2534.273738
457.683526	2535.594520
458.056619	2533.915816
458.429653	2534.792977
458.802628	2534.830786
459.175542	2533.391536
459.548398	2536.428831
459.921194	2533.865405
460.293930	2536.398584
460.666607	2536.121321
461.039224	2537.726928
461.411782	2536.179294
461.784280	2539.899666
462.156719	2537.522762
462.529099	2537.648791
462.901419	2536.950591
463.273680	2537.666435
463.645882	2539.251877
464.018024	2537.994110
464.390106	2537.452186
464.762130	2539.682896
465.134094	2539.040149
465.505999	2540.907897
465.877845	2540.310520
466.249631	2542.631971
466.621358	2541.175078
466.993026	2545.144986
467.364634	2544.577857
467.736184	2541.616179
468.107674	2540.975952
468.479105	2541.117104
468.850477	2543.015099
469.221790	2540.398740
469.593043	2538.263811
469.964238	2536.232226
470.335373	2539.065355
470.706449	2540.557536
471.077467	2539.929913
471.448425	2539.997968
471.819324	2542.521066
472.190164	2542.909235
472.560945	2542.190870
472.931667	2538.536034
473.302330	2540.678524
473.672934	2540.764224
474.043479	2541.535520
474.413965	2539.277083
474.784393	2534.354397
475.154761	2538.462937
475.525070	2538.220962
475.895321	2537.512679
476.265513	2535.095446
476.635645	2539.534182
477.005719	2542.498381
477.375734	2540.154244
477.745691	2538.422608
478.115588	2542.190870
478.485427	2541.293545
478.855207	2541.961498
479.224928	2542.422763
479.594591	2544.305634
479.964194	2542.846220
480.333739	2543.428473
480.703226	2541.477547
481.072653	2542.155582
481.442022	2543.143648
481.811333	2546.760676
482.180584	2542.510983
482.549777	2543.302445
482.918912	2539.801363
483.287988	2543.753628
483.657005	2543.466282
484.025964	2542.412681
484.394864	2541.734646
484.763706	2546.480892
485.132489	2542.274049
485.501213	2541.923689
485.869879	2544.469472
486.238487	2542.541230
486.607036	2544.497198
486.975527	2542.445448
487.343959	2545.520552
487.712333	2542.967208
488.080648	2541.505273
488.448905	2541.122146
488.817104	2542.904193
489.185244	2544.361087
489.553326	2542.100129
489.921350	2543.473844
490.289315	2545.008875
490.657222	2545.553320
491.025070	2547.554658
491.392861	2547.418547
491.760593	2547.645399
492.128267	2543.307486
492.495883	2543.254554
492.863440	2543.816642
493.230939	2543.199101
493.598380	2543.506611
493.965763	2541.744728
494.333088	2540.202135
494.700354	2540.139121
495.067563	2539.957639
495.434713	2541.205325
495.801805	2543.254554
496.168839	2543.859492
496.535815	2543.536858
496.902733	2544.056097
497.269593	2544.388813
497.636395	2541.326312
498.003139	2544.224976
498.369825	2541.908566
498.736453	2546.664894
499.103023	2542.634492
499.469535	2546.140614
499.835989	2542.475695
500.202385	2544.010727
500.568723	2542.823535
500.935003	2544.908052
501.301226	2543.047866
501.667390	2545.928886
502.033497	2545.137425
502.399546	2545.114739
502.765537	2544.955943
503.131470	2543.466282
503.497345	2545.848227
503.863163	2545.308824
504.228923	2543.599873
504.594625	2545.442414
504.960269	2542.964687
505.325856	2544.613145
505.691385	2543.340253
506.056856	2545.331509
506.422270	2543.453679
506.787625	2544.124153
507.152924	2540.910417
507.518164	2543.057949
507.883347	2543.947712
508.248472	2547.143804
508.613540	2542.647095
508.978550	2545.412168
509.343503	2545.888557
509.708398	2544.361087
510.073236	2543.118442
510.438016	2544.446787
510.802738	2547.723537
511.167403	2547.136242
511.532010	2544.000644
511.896561	2546.674977
512.261053	2548.149514
512.625488	2545.392003
512.989866	2542.425284
513.354186	2541.946374
513.718449	2540.716333
514.082655	2542.609286
514.446803	2547.763866
514.810894	2546.707744
515.174927	2550.365101
515.538904	2546.259081
515.902822	2547.380738
516.266684	2546.606921
516.630488	2546.843855
516.994235	2546.400234
517.357925	2544.517363
517.721558	2544.214893
518.085133	2545.323947
518.448651	2547.158927
518.812112	2547.264792
519.175516	2545.253371
519.538863	2547.836963
519.902152	2547.148845
520.265385	2546.674977
520.628560	2544.824873
520.991678	2544.507280
521.354739	2548.482230
521.717743	2545.896118
522.080690	2547.690769
522.443580	2546.009544
522.806413	2549.354350
523.169189	2545.316386
523.531908	2544.378731
523.894569	2546.334699
524.257174	2546.727909
524.619722	2546.957281
524.982213	2548.194884
525.344647	2546.879143
525.707025	2546.102806
526.069345	2546.546427
526.431608	2547.133722
526.793815	2544.759338
527.155964	2549.492982
527.518057	2546.521221
527.880093	2546.301931
528.242072	2547.587425
528.603995	2548.527601
528.965860	2548.414175
529.327669	2548.361242
529.689421	2545.654143
530.051117	2548.542724
530.412755	2544.540048
530.774337	2550.118085
531.135862	2546.105326
531.497331	2544.081303
531.858743	2543.070552
532.220098	2545.248330
532.581396	2542.795809
532.942638	2543.181457
533.303824	2548.071376
533.664953	2548.109185
534.026025	2544.436704
534.387040	2546.420398
534.747999	2545.951571
535.108902	2546.642209
535.469748	2548.633465
535.830537	2549.619010
536.191270	2548.212528
536.551947	2545.994421
536.912567	2547.789072
537.273131	2546.793444
537.633638	2548.126829
537.994089	2549.339226
538.354483	2549.366953
538.714821	2547.801674
539.075103	2545.875954
539.435328	2550.203784
539.795497	2546.296890
540.155609	2548.852755
540.515665	2546.680018
540.875665	2549.336706
541.235609	2547.138763
541.595496	2548.020965
541.955328	2546.674977
542.315102	2549.787889
542.674821	2546.795964
543.034483	2550.115564
543.394090	2548.026006
543.753640	2551.370811
544.113134	2545.407126
544.472571	2550.019782
544.831953	2547.214380
545.191278	2549.586243
545.550548	2546.972405
545.909761	2547.302600
546.268918	2547.670604
546.628019	2548.981304
546.987064	2546.785882
547.346053	2547.526932
547.704986	2548.441901
548.063863	2549.440049
548.422684	2551.201933
548.781449	2549.765204
549.140158	2547.955430
549.498811	2548.167158
549.857408	2546.548948
550.215949	2544.177085
550.574434	2542.818494
550.932864	2546.228834
551.291237	2546.213711
551.649555	2547.116078
552.007817	2548.691438
552.366022	2547.247147
552.724173	2548.628424
553.082267	2548.827549
553.440305	2547.040460
553.798288	2548.315872
554.156215	2547.703372
554.514086	2544.918134
554.871902	2550.251675
555.229661	2546.133053
555.587365	2548.661191
555.945014	2545.094575
556.302606	2547.652960
556.660143	2548.794782
557.017625	2548.179761
557.375050	2551.423743
557.732421	2546.448125
558.089735	2547.020296
558.446994	2547.496685
558.804197	2548.089020
559.161345	2550.077755
559.518437	2546.591797
559.875474	2548.492312
560.232455	2548.812426
560.589381	2547.118598
560.946251	2550.193702
561.303065	2547.884853
561.659825	2549.150183
562.016528	2548.731767
562.373177	2545.384441
562.729770	2548.686397
563.086307	2550.922149
563.442789	2550.745708
563.799216	2548.121788
564.155587	2546.475851
564.511904	2549.913918
564.868164	2547.768907
565.224370	2548.741850
565.580520	2551.007848
565.936615	2549.548434
566.292654	2549.200595
566.648638	2549.878630
567.004567	2551.017931
567.360441	2547.806716
567.716260	2550.052550
568.072023	2549.311500
568.427732	2544.136756
568.783385	2548.164638
569.138982	2545.092054
569.494525	2547.234545
569.850013	2544.613145
570.205445	2547.002652
570.560823	2546.397713
570.916145	2548.386448
571.271412	2546.516180
571.626625	2548.948537
571.981782	2547.395862
572.336884	2546.634647
572.691931	2549.225800
573.046923	2549.369473
573.401860	2549.145142
573.756743	2547.869730
574.111570	2550.602035
574.466342	2548.434339
574.821059	2548.799823
575.175722	2551.159083
575.530330	2546.354863
575.884882	2547.766386
576.239380	2548.378887
576.593823	2549.314021
576.948211	2546.498536
577.302544	2547.075748
577.656823	2544.444266
578.011047	2548.555327
578.365216	2548.862837
578.719330	2550.528939
579.073389	2545.553320
579.427394	2547.174051
579.781344	2547.111036
580.135239	2548.900646
580.489080	2544.144317
580.842866	2547.605069
581.196597	2552.709238
581.550273	2548.152035
581.903895	2547.635316
582.257463	2546.064997
582.610975	2546.763197
582.964434	2548.436860
583.317837	2548.986346
583.671186	2549.613969
584.024481	2546.012065
584.377721	2546.972405
584.730906	2546.163299
585.084037	2549.571119
585.437113	2547.461397
585.790135	2548.242775
586.143103	2547.897456
586.496016	2549.981973
586.848874	2539.387989
587.201679	2546.261602
587.554428	2542.838658
587.907124	2548.504915
588.259765	2542.102650
588.612352	2546.075079
588.964884	2544.358566
589.317362	2548.333516
589.669786	2548.656150
590.022155	2549.170348
590.374470	2546.768238
590.726731	2548.031047
591.078937	2547.862168
591.431090	2547.857127
591.783188	2548.051212
592.135232	2548.396531
592.487222	2544.913093
592.839157	2548.434339
593.191038	2548.197405
593.542866	2547.383259
593.894639	2548.867878
594.246358	2546.075079
594.598022	2547.035419
594.949633	2547.206818
595.301190	2543.988042
595.652692	2547.615152
596.004141	2543.741025
596.355535	2547.209339
596.706876	2545.195398
597.058162	2545.344112
597.409395	2547.330327
597.760573	2546.112888
598.111698	2545.785213
598.462768	2546.579195
598.813785	2549.152704
599.164748	2546.039791
599.515657	2545.394523
599.866511	2545.868392
600.217312	2545.374359
600.568060	2546.327137
600.918753	2548.164638
601.269392	2547.935265
601.619978	2544.456869
601.970510	2545.172713
602.320988	2546.286808
602.671412	2544.973587
603.021783	2545.041643
603.372100	2548.883002
603.722363	2547.347971
604.072572	2545.702034
604.422728	2548.459545
604.772830	2541.855633
605.122878	2541.805222
605.472872	2544.613145
605.822813	2539.761034
606.172701	2545.081972
606.522534	2545.323947
606.872314	2548.063814
607.222041	2546.236396
607.571714	2546.934596
607.921333	2547.612631
608.270899	2545.293700
608.620411	2545.306303
608.969870	2545.717157
609.319276	2546.619524
609.668627	2550.196223
610.017926	2551.771583
610.367171	2555.373487
610.716362	2552.003476
611.065500	2550.617159
611.414585	2550.980122
611.763616	2549.644216
612.112594	2548.202446
612.461518	2550.629762
612.810389	2544.235058
613.159207	2549.538352
613.507971	2549.092210
613.856682	2547.279915
614.205340	2548.187323
614.553945	2548.837632
614.902496	2546.175902
615.250994	2546.496016
615.599439	2546.677497
615.947830	2548.262940
616.296169	2547.970553
616.644454	2550.087838
616.992686	2547.930224
617.340864	2546.473330
617.688990	2544.003165
618.037063	2545.417209
618.385082	2545.487785
618.733048	2547.078269
619.080961	2546.949719
619.428821	2546.130532
619.776628	2546.342260
620.124382	2546.506098
620.472083	2545.591128
620.819731	2547.542055
621.167326	2543.705737
621.514868	2545.913762
621.862357	2545.384441
622.209793	2545.790254
622.557176	2545.646581
622.904506	2544.101467
623.251783	2541.853113
623.599007	2543.453679
623.946179	2539.352701
624.293297	2544.872764
624.640363	2546.412837
624.987376	2545.092054
625.334336	2545.807898
625.681243	2545.850748
626.028097	2543.834286
626.374899	2547.380738
626.721647	2545.636499
627.068343	2546.344781
627.414987	2544.023330
627.761577	2549.296377
628.108115	2543.846889
628.454600	2546.317055
628.801032	2544.998793
629.147412	2544.587939
629.493739	2544.744215
629.840014	2545.139945
630.186236	2543.463762
630.532405	2547.035419
630.878521	2544.719009
631.224585	2547.733619
631.570597	2545.974256
631.916556	2545.409647
632.262462	2544.023330
632.608316	2543.819163
632.954117	2545.639019
633.299866	2542.654656
633.645562	2542.326981
633.991206	2542.309337
634.336797	2543.249512
634.682336	2545.354194
635.027823	2546.175902
635.373257	2546.559030
635.718639	2546.042312
636.063968	2545.560882
636.409245	2541.878319
636.754470	2544.739173
637.099642	2541.230530
637.444762	2545.591128
637.789829	2543.448638
638.134845	2541.510314
638.479808	2542.936961
638.824719	2540.923020
639.169577	2542.332022
639.514383	2544.315717
639.859137	2541.895963
640.203839	2545.649102
640.548489	2542.311858
640.893086	2540.744059
641.237632	2539.819007
641.582125	2544.010727
641.926566	2537.878163
642.270955	2543.209183
642.615292	2544.441745
642.959576	2541.984183
643.303809	2542.221117
643.647990	2543.514173
643.992118	2540.139121
644.336195	2541.550644
