Dividing Wavelength (nm)	Counts (n)	Blue Motor Position (mm): 0.000000	Red Motor Position (mm): 29.800000	
326.493990	2128.798611
326.888308	2128.798611
327.282561	2128.798611
327.676750	2093.896182
328.070874	2095.663107
328.464933	2097.840885
328.858929	2104.530496
329.252859	2114.050715
329.646726	2126.381378
330.040528	2135.440331
330.434265	2154.016983
330.827938	2171.335867
331.221547	2192.584330
331.615091	2207.586804
332.008571	2226.947356
332.401986	2249.254461
332.795338	2266.351535
333.188625	2288.769546
333.581847	2304.848306
333.975006	2323.687098
334.368100	2340.522031
334.761129	2358.690350
335.154095	2374.759028
335.546996	2392.771070
335.939833	2413.230593
336.332606	2425.856163
336.725315	2437.491146
337.117960	2446.774431
337.510540	2460.680454
337.903056	2466.381999
338.295508	2475.874491
338.687896	2484.041161
339.080220	2491.428972
339.472480	2498.736124
339.864676	2500.490446
340.256807	2508.652074
340.648875	2508.077382
341.040879	2514.419154
341.432818	2515.495440
341.824694	2516.864113
342.216506	2517.174144
342.608253	2517.645492
342.999937	2517.547190
343.391557	2517.716068
343.783113	2516.256654
344.174605	2515.775224
344.566033	2513.589884
344.957397	2511.795233
345.348697	2508.831035
345.739934	2507.706857
346.131106	2507.212824
346.522215	2506.723832
346.913260	2501.826351
347.304241	2500.256032
347.695159	2500.324087
348.086012	2500.165291
348.476802	2494.720845
348.867528	2495.887872
349.258191	2490.849239
349.648789	2492.936277
350.039324	2489.107520
350.429796	2492.603560
350.820203	2487.171717
351.210548	2488.628611
351.600828	2486.516367
351.991045	2484.903198
352.381198	2486.682725
352.771288	2486.476038
353.161314	2484.782210
353.551276	2486.286995
353.941175	2482.629638
354.331010	2485.833291
354.720782	2485.258599
355.110490	2483.680718
355.500135	2483.789103
355.889717	2484.089052
356.279235	2483.733650
356.668689	2486.748260
357.058080	2484.946048
357.447408	2483.963023
357.836672	2482.828763
358.225873	2485.808085
358.615010	2482.375059
359.004084	2487.965699
359.393095	2486.980153
359.782043	2490.526605
360.170927	2490.408138
360.559748	2492.411997
360.948505	2493.334528
361.337199	2491.459218
361.725830	2492.114568
362.114398	2491.774291
362.502903	2495.230002
362.891344	2496.170177
363.279722	2494.690598
363.668037	2495.020794
364.056289	2495.630773
364.444478	2499.968686
364.832603	2498.146309
365.220665	2499.847698
365.608665	2497.211175
365.996601	2499.008346
366.384474	2498.826865
366.772284	2502.756444
367.160031	2503.875580
367.547715	2506.144100
367.935336	2507.653925
368.322893	2512.995028
368.710388	2511.933865
369.097820	2522.258148
369.485189	2521.202026
369.872495	2531.881711
370.259738	2535.725590
370.646918	2544.217414
371.034035	2550.581871
371.421090	2560.107131
371.808081	2571.802608
372.195010	2581.829463
372.581875	2593.935794
372.968678	2610.374997
373.355418	2617.175513
373.742096	2634.665796
374.128710	2650.910915
374.515262	2664.280055
374.901751	2680.348733
375.288177	2694.889941
375.674540	2713.751418
376.060841	2733.028790
376.447079	2755.194744
376.833254	2774.640995
377.219367	2786.152469
377.605417	2825.062615
377.991404	2835.649038
378.377329	2856.161493
378.763191	2871.927702
379.148991	2912.992941
379.534727	2936.247784
379.920402	2967.150057
380.306013	2979.175730
380.691563	3024.735158
381.077049	3050.041750
381.462474	3067.307702
381.847835	3109.083744
382.233134	3124.615539
382.618371	3126.730303
383.003545	3196.232691
383.388657	3204.359031
383.773706	3234.399267
384.158693	3250.992224
384.543618	3277.622120
384.928480	3313.316009
385.313280	3360.682691
385.698017	3357.962988
386.082692	3411.169847
386.467305	3419.596135
386.851856	3448.262657
387.236344	3471.860298
387.620770	3505.716687
388.005133	3528.790048
388.389435	3555.298956
388.773674	3570.918971
389.157851	3609.617388
389.541965	3625.431488
389.926018	3588.588215
390.310008	3663.411541
390.693936	3680.380065
391.077802	3720.757187
391.461606	3707.766133
391.845348	3770.145371
392.229027	3774.836165
392.612645	3781.734984
392.996200	3864.346892
393.379694	3903.841812
393.763125	3967.287254
394.146494	3934.459260
394.529801	3996.742716
394.913047	4044.923544
395.296230	4014.192670
395.679351	4065.746030
396.062410	4090.757714
396.445408	4073.579983
396.828343	4106.047534
397.211217	4129.743478
397.594028	4046.718194
397.976778	4116.530613
398.359466	4145.618071
398.742092	4171.751413
399.124656	4092.751491
399.507158	4172.265610
399.889598	4195.694373
400.271977	4256.954474
400.654294	4229.379363
401.036549	4236.994026
401.418742	4210.787588
401.800874	4313.763237
402.182944	4336.372812
402.564952	4396.309611
402.946898	4386.915421
403.328783	4379.998957
403.710606	4293.800268
404.092367	4485.820338
404.474067	4449.614772
404.855705	4455.182726
405.237282	4388.165627
405.618797	4497.644365
406.000250	4530.805075
406.381642	4609.684009
406.762972	4570.582299
407.144240	4583.041511
407.525447	4581.819031
407.906593	4640.503103
408.287677	4686.813663
408.668700	4614.266418
409.049661	4665.852545
409.430560	4703.399059
409.811399	4632.795179
410.192176	4795.705107
410.572891	4734.830653
410.953545	4838.769163
411.334138	4720.556626
411.714669	4784.730515
412.095139	4677.301006
412.475547	4820.636133
412.855894	4805.623577
413.236180	4805.111900
413.616405	4763.948358
413.996568	4851.543447
414.376670	4796.163852
414.756711	4747.728445
415.136691	4779.570894
415.516609	4858.154920
415.896466	4895.356115
416.276262	4934.780459
416.655997	4908.304319
417.035670	5092.999593
417.415283	5186.144993
417.794834	5127.745746
418.174324	5082.312347
418.553753	4988.133511
418.933121	5170.504813
419.312428	5241.083487
419.691674	5178.273231
420.070859	5305.766532
420.449983	5213.788160
420.829045	5335.569834
421.208047	5238.300770
421.586988	5308.156039
421.965867	5324.078523
422.344686	5453.333708
422.723444	5310.462367
423.102141	5130.888905
423.480777	5429.912507
423.859352	5195.508936
424.237866	5457.797650
424.616319	5446.702070
424.994712	5556.006888
425.373044	5437.388538
425.751314	5577.661165
426.129524	5377.534919
426.507673	5573.202264
426.885762	5657.540768
427.263789	5585.396815
427.641756	5470.650072
428.019662	5592.799750
428.397508	5596.762097
428.775292	5546.259817
429.153016	5643.705321
429.530679	5572.864507
429.908282	5655.299975
430.285824	5526.276684
430.663305	5802.577285
431.040726	5531.479154
431.418086	5537.357140
431.795385	5638.339013
432.172624	5654.314430
432.549802	5648.028111
432.926920	5660.280635
433.303977	5666.352705
433.680974	5706.820567
434.057910	5725.152723
434.434786	5734.055401
434.811601	5699.982242
435.188355	5938.305311
435.565050	5804.389580
435.941683	5788.882990
436.318257	6004.294015
436.694770	5985.077136
437.071222	6020.496283
437.447614	5954.384071
437.823946	5866.257140
438.200218	6018.628536
438.576429	5883.480242
438.952580	5983.584955
439.328670	6024.551892
439.704700	5936.372028
440.080670	5925.253764
440.456580	6194.895001
440.832429	6076.342186
441.208218	5922.612199
441.583947	6075.916208
441.959616	6082.578093
442.335224	6007.263254
442.710773	6148.176107
443.086261	6171.075549
443.461689	5968.118695
443.837057	6115.499348
444.212365	6274.446929
444.587612	6165.426936
444.962800	6316.901006
445.337927	6299.110774
445.712995	5909.021248
446.088002	6486.765205
446.462949	6316.901006
446.837837	6246.216467
447.212664	6415.432878
447.587431	6559.504014
447.962139	7100.490398
448.336786	8031.717542
448.711374	7773.199611
449.085901	6845.622263
449.460369	6766.453462
449.834776	6699.106167
450.209124	7089.470436
450.583412	7242.308138
450.957640	7383.798203
451.331808	7154.092987
451.705917	6704.124636
452.079965	6626.490867
452.453954	6836.769996
452.827883	6709.884154
453.201752	6806.996942
453.575562	6609.267764
453.949311	6808.892416
454.323001	6698.697834
454.696632	6773.319513
455.070202	6910.547283
455.443713	7067.541417
455.817164	7165.851478
456.190556	7249.436330
456.563888	7323.621950
456.937160	7363.797425
457.310373	7021.321597
457.683526	7040.258692
458.056619	6936.143742
458.429653	6920.982471
458.802628	6853.025197
459.175542	6961.800694
459.548398	7314.956206
459.921194	7471.070658
460.293930	7479.101217
460.666607	8004.069334
461.039224	8301.885580
461.411782	8428.786546
461.784280	8448.575595
462.156719	8323.827202
462.529099	8206.438893
462.901419	7793.495297
463.273680	7681.735437
463.645882	7695.202879
464.018024	7560.125162
464.390106	7718.230870
464.762130	8096.178777
465.134094	8547.175523
465.505999	9541.888438
465.877845	10732.077135
466.249631	11366.004752
466.621358	10980.570732
466.993026	10360.745743
467.364634	10104.042627
467.736184	9737.969158
468.107674	9401.353672
468.479105	9418.672556
468.850477	9169.674844
469.221790	8944.239485
469.593043	8611.931665
469.964238	8459.038510
470.335373	8465.798697
470.706449	8507.297476
471.077467	8467.512689
471.448425	9698.575062
471.819324	10694.487771
472.190164	10716.046266
472.560945	9505.214044
472.931667	8731.654027
473.302330	8588.339065
473.672934	8228.866987
474.043479	8547.392293
474.413965	8468.677196
474.784393	8329.410280
475.154761	8457.397614
475.525070	8511.877364
475.895321	8329.208634
476.265513	8454.322510
476.635645	8582.796316
477.005719	8548.768528
477.375734	8626.082184
477.745691	8805.897621
478.115588	8886.177996
478.485427	9063.324142
478.855207	9488.353905
479.224928	10130.223860
479.594591	10627.057298
479.964194	10422.076420
480.333739	10339.913174
480.703226	10207.179594
481.072653	10222.986132
481.442022	10339.283030
481.811333	10439.556621
482.180584	10226.633406
482.549777	9921.343650
482.918912	9710.015960
483.287988	9671.015073
483.657005	9612.953584
484.025964	9294.566910
484.394864	9336.111059
484.763706	9239.603210
485.132489	9000.231581
485.501213	8904.928567
485.869879	8897.646621
486.238487	8695.642545
486.607036	8730.691167
486.975527	8480.299576
487.343959	8552.120895
487.712333	8510.846448
488.080648	8390.950165
488.448905	8335.570570
488.817104	8223.583858
489.185244	8328.661668
489.553326	8344.717743
489.921350	8603.424718
490.289315	9163.479266
490.657222	9305.589393
491.025070	9136.098239
491.392861	8976.548240
491.760593	8670.913165
492.128267	8368.958132
492.495883	8085.541942
492.863440	7804.283366
493.230939	7515.541197
493.598380	7393.036118
493.965763	7223.227371
494.333088	7104.989628
494.700354	6976.099927
495.067563	6931.243740
495.434713	6755.297388
495.801805	6747.004690
496.168839	6626.929447
496.535815	6505.924111
496.902733	6440.827691
497.269593	6318.703218
497.636395	6297.144724
498.003139	6199.505136
498.369825	6079.755047
498.736453	6054.241767
499.103023	5956.955060
499.469535	5889.665738
499.835989	5814.940715
500.202385	5714.180652
500.568723	5586.815900
500.935003	5609.246514
501.301226	5442.878355
501.667390	5481.304550
502.033497	5439.412562
502.399546	5325.520293
502.765537	5220.394592
503.131470	5169.567158
503.497345	5149.178211
503.863163	4972.407631
504.228923	4990.071834
504.594625	4950.647491
504.960269	4814.919464
505.325856	4808.212209
505.691385	4689.125032
506.056856	4667.848842
506.422270	4610.430100
506.787625	4531.473028
507.152924	4492.595649
507.518164	4434.549283
507.883347	4353.517776
508.248472	4285.648722
508.613540	4279.090181
508.978550	4194.446687
509.343503	4142.762258
509.708398	4109.568780
510.073236	4074.101742
510.438016	4024.227087
510.802738	3968.209785
511.167403	3928.019186
511.532010	3859.540152
511.896561	3856.969164
512.261053	3820.720747
512.625488	3752.297166
512.989866	3700.930329
513.354186	3659.610511
513.718449	3605.455916
514.082655	3592.139708
514.446803	3543.585835
514.810894	3520.540200
515.174927	3468.941470
515.538904	3436.589865
515.902822	3416.468099
516.266684	3371.702653
516.630488	3333.992302
516.994235	3310.624033
517.357925	3279.799898
517.721558	3261.563524
518.085133	3230.741909
518.448651	3207.179556
518.812112	3169.711180
519.175516	3143.693785
519.538863	3124.030765
519.902152	3099.808021
520.265385	3080.636512
520.628560	3057.265723
520.991678	3031.392001
521.354739	3014.801564
521.717743	2994.387411
522.080690	2973.330512
522.443580	2958.106227
522.806413	2937.976900
523.169189	2922.903850
523.531908	2906.772158
523.894569	2888.593757
524.257174	2873.795450
524.619722	2860.844725
524.982213	2854.245855
525.344647	2836.332115
525.707025	2824.969354
526.069345	2812.444607
526.431608	2801.477577
526.793815	2791.566669
527.155964	2778.293311
527.518057	2769.821652
527.880093	2762.469129
528.242072	2755.930752
528.603995	2748.452200
528.965860	2737.691857
529.327669	2730.452761
529.689421	2722.172665
530.051117	2717.113868
530.412755	2709.849565
530.774337	2705.945191
531.135862	2700.571321
531.497331	2692.984385
531.858743	2682.710513
532.220098	2686.766121
532.581396	2678.538958
532.942638	2676.971159
533.303824	2671.768689
533.664953	2668.749037
534.026025	2665.066475
534.387040	2664.819458
534.747999	2662.823161
535.108902	2660.809220
535.469748	2656.156235
535.830537	2652.922335
536.191270	2651.178096
536.551947	2650.573157
536.912567	2648.959988
537.273131	2645.985707
537.633638	2643.414719
537.994089	2643.500418
538.354483	2639.981693
538.714821	2640.435397
539.075103	2638.592855
539.435328	2636.334418
539.795497	2635.595889
540.155609	2637.438431
540.515665	2636.505817
540.875665	2632.387195
541.235609	2632.591362
541.595496	2632.838378
541.955328	2630.834519
542.315102	2627.618263
542.674821	2628.087091
543.034483	2627.426699
543.394090	2626.146246
543.753640	2625.347223
544.113134	2627.189765
544.472571	2623.933180
544.831953	2623.209774
545.191278	2622.408231
545.550548	2621.122737
545.909761	2620.663992
546.268918	2622.831688
546.628019	2622.433437
546.987064	2619.638117
547.346053	2620.273302
547.704986	2620.462345
548.063863	2619.650720
548.422684	2618.440843
548.781449	2616.366408
549.140158	2618.942437
549.498811	2615.736264
549.857408	2613.863475
550.215949	2614.082765
550.574434	2611.607559
550.932864	2614.538990
551.291237	2611.473968
551.649555	2615.685852
552.007817	2615.532097
552.366022	2615.426233
552.724173	2614.523866
553.082267	2615.106119
553.440305	2614.158382
553.798288	2608.232506
554.156215	2613.293825
554.514086	2614.140738
554.871902	2612.903135
555.229661	2613.306427
555.587365	2614.599483
555.945014	2612.212497
556.302606	2611.436159
556.660143	2610.594287
557.017625	2610.427929
557.375050	2611.945316
557.732421	2612.827518
558.089735	2612.467075
558.446994	2609.956581
558.804197	2611.050511
559.161345	2611.496653
559.518437	2607.259563
559.875474	2611.090840
560.232455	2611.347939
560.589381	2610.795933
560.946251	2612.157044
561.303065	2613.003958
561.659825	2611.726026
562.016528	2608.275356
562.373177	2608.577825
562.729770	2609.122270
563.086307	2611.325254
563.442789	2609.538165
563.799216	2609.452465
564.155587	2608.222424
564.511904	2607.998092
564.868164	2609.452465
565.224370	2609.351642
565.580520	2607.430963
565.936615	2606.727722
566.292654	2607.095726
566.648638	2608.986159
567.004567	2607.594800
567.360441	2608.650922
567.716260	2606.100098
568.072023	2607.317537
568.427732	2603.980293
568.783385	2603.904676
569.138982	2603.138420
569.494525	2605.830396
569.850013	2600.322936
570.205445	2608.303082
570.560823	2605.205293
570.916145	2605.142279
571.271412	2604.186980
571.626625	2604.313009
571.981782	2605.739656
572.336884	2606.364759
572.691931	2603.675303
573.046923	2601.699171
573.401860	2603.929881
573.756743	2603.829058
574.111570	2602.019284
574.466342	2601.384099
574.821059	2602.082298
575.175722	2602.266301
575.530330	2603.007350
575.884882	2603.277052
576.239380	2601.152206
576.593823	2605.976590
576.948211	2602.273862
577.302544	2600.897627
577.656823	2603.592124
578.011047	2602.941815
578.365216	2602.863677
578.719330	2604.764192
579.073389	2599.922164
579.427394	2601.825200
579.781344	2602.513317
580.135239	2600.343100
580.489080	2599.236567
580.842866	2599.912082
581.196597	2598.558532
581.550273	2601.646239
581.903895	2598.278748
582.257463	2598.755137
582.610975	2598.026690
582.964434	2600.822010
583.317837	2595.861515
583.671186	2600.852257
584.024481	2598.654314
584.377721	2597.046186
584.730906	2595.639704
585.084037	2596.801690
585.437113	2600.479212
585.790135	2598.747575
586.143103	2596.158943
586.496016	2595.506113
586.848874	2592.141143
587.201679	2595.296905
587.554428	2594.689446
587.907124	2593.726586
588.259765	2590.202819
588.612352	2596.632811
588.964884	2596.108531
589.317362	2595.382605
589.669786	2594.097111
590.022155	2596.325301
590.374470	2596.577358
590.726731	2596.242122
591.078937	2592.720876
591.431090	2594.155084
591.783188	2594.535691
592.135232	2592.327666
592.487222	2595.090218
592.839157	2594.271031
593.191038	2594.076946
593.542866	2593.978644
593.894639	2592.052923
594.246358	2593.368664
594.598022	2593.172059
594.949633	2591.737851
595.301190	2591.339600
595.652692	2590.822881
596.004141	2592.708273
596.355535	2593.439240
596.706876	2592.985536
597.058162	2588.796337
597.409395	2590.895978
597.760573	2592.509147
598.111698	2592.917481
598.462768	2591.815989
598.813785	2590.714497
599.164748	2589.849939
599.515657	2587.289032
599.866511	2589.963365
600.217312	2590.540577
600.568060	2592.400762
600.918753	2594.873448
601.269392	2589.708786
601.619978	2588.103179
601.970510	2590.671647
602.320988	2589.676019
602.671412	2592.909919
603.021783	2590.192737
603.372100	2590.659044
603.722363	2590.318766
604.072572	2589.441605
604.422728	2592.806575
604.772830	2586.610997
605.122878	2584.037488
605.472872	2583.654361
605.822813	2582.953640
606.172701	2585.610328
606.522534	2589.882706
606.872314	2590.550659
607.222041	2590.618715
607.571714	2588.440936
607.921333	2588.309866
608.270899	2587.805751
608.620411	2589.247521
608.969870	2592.917481
609.319276	2592.007552
609.668627	2592.834302
610.017926	2593.943356
610.367171	2598.203131
610.716362	2596.053078
611.065500	2597.172215
611.414585	2592.887234
611.763616	2594.828078
612.112594	2592.584765
612.461518	2593.529981
612.810389	2591.722727
613.159207	2591.044692
613.507971	2587.934300
613.856682	2591.248859
614.205340	2589.224836
614.553945	2591.410176
614.902496	2589.809609
615.250994	2593.189703
615.599439	2590.969075
615.947830	2589.202150
616.296169	2590.275916
616.644454	2593.104003
616.992686	2591.543766
617.340864	2589.456729
617.688990	2588.453539
618.037063	2590.774990
618.385082	2590.923704
618.733048	2591.090062
619.080961	2593.943356
619.428821	2591.531163
619.776628	2590.124682
620.124382	2591.634507
620.472083	2590.144846
620.819731	2592.995619
621.167326	2590.215422
621.514868	2589.701225
621.862357	2589.494537
622.209793	2587.309197
622.557176	2588.922366
622.904506	2586.608477
623.251783	2583.493044
623.599007	2582.086562
623.946179	2583.046902
624.293297	2584.370204
624.640363	2585.852304
624.987376	2583.009093
625.334336	2584.541604
625.681243	2583.644278
626.028097	2585.259968
626.374899	2586.847932
626.721647	2583.049422
627.068343	2583.271233
627.414987	2586.532859
627.761577	2580.969946
628.108115	2584.004721
628.454600	2584.960019
628.801032	2584.324834
629.147412	2583.097313
629.493739	2583.427509
629.840014	2581.955492
630.186236	2582.353743
630.532405	2584.939855
630.878521	2584.730647
631.224585	2581.519432
631.570597	2581.965574
631.916556	2580.748135
632.262462	2582.205029
632.608316	2582.096644
632.954117	2577.239492
633.299866	2581.307703
633.645562	2580.362487
633.991206	2578.688824
634.336797	2578.741756
634.682336	2579.076993
635.027823	2576.677404
635.373257	2577.297466
635.718639	2576.889132
636.063968	2578.378793
636.409245	2577.136149
636.754470	2576.901735
637.099642	2575.757393
637.444762	2576.180850
637.789829	2577.030284
638.134845	2578.343505
638.479808	2574.963411
638.824719	2573.940057
639.169577	2575.676735
639.514383	2577.577250
639.859137	2574.310582
640.203839	2573.045252
640.548489	2577.617579
640.893086	2571.578277
641.237632	2570.277659
641.582125	2568.767833
641.926566	2568.059551
642.270955	2576.009451
642.615292	2573.347722
642.959576	2571.056517
643.303809	2571.991651
643.647990	2572.226065
643.992118	2574.139183
644.336195	2571.646332
