Dividing Wavelength (nm)	Counts (n)	Blue Motor Position (mm): 23.300000	Red Motor Position (mm): 0.000000	
326.493990	2192.730524
326.888308	2192.730524
327.282561	2192.730524
327.676750	2155.678043
328.070874	2149.079173
328.464933	2148.801909
328.858929	2153.691828
329.252859	2157.392035
329.646726	2168.321257
330.040528	2178.605211
330.434265	2194.265555
330.827938	2209.487319
331.221547	2228.527757
331.615091	2245.617269
332.008571	2264.924888
332.401986	2283.292332
332.795338	2299.386216
333.188625	2319.555872
333.581847	2336.937771
333.975006	2357.422499
334.368100	2373.765920
334.761129	2393.229815
335.154095	2410.878895
335.546996	2438.469130
335.939833	2468.912658
336.332606	2486.120637
336.725315	2496.936432
337.117960	2511.853206
337.510540	2520.339989
337.903056	2534.475384
338.295508	2540.807073
338.687896	2551.932900
339.080220	2556.028837
339.472480	2566.234653
339.864676	2571.996692
340.256807	2577.040367
340.648875	2578.666139
341.040879	2582.802406
341.432818	2585.209557
341.824694	2590.013776
342.216506	2588.624938
342.608253	2588.357757
342.999937	2590.449836
343.391557	2590.369177
343.783113	2589.928077
344.174605	2587.730133
344.566033	2587.684763
344.957397	2588.544280
345.348697	2587.906574
345.739934	2583.707293
346.131106	2582.537745
346.522215	2582.000862
346.913260	2579.465162
347.304241	2576.281673
347.695159	2576.112794
348.086012	2571.295972
348.476802	2571.169943
348.867528	2568.467885
349.258191	2563.588048
349.648789	2562.688202
350.039324	2555.454146
350.429796	2561.778273
350.820203	2559.494631
351.210548	2559.764333
351.600828	2554.642520
351.991045	2556.580844
352.381198	2554.375339
352.771288	2557.485731
353.161314	2558.025134
353.551276	2555.186965
353.941175	2553.183106
354.331010	2554.710576
354.720782	2553.014227
355.110490	2552.071532
355.500135	2553.846018
355.889717	2550.470965
356.279235	2554.589588
356.668689	2554.677808
357.058080	2553.636810
357.447408	2554.430792
357.836672	2556.106975
358.225873	2556.109496
358.615010	2558.342727
359.004084	2554.226625
359.393095	2555.917932
359.782043	2556.545556
360.170927	2558.085628
360.559748	2557.755433
360.948505	2556.999260
361.337199	2559.741647
361.725830	2561.553942
362.114398	2560.850701
362.502903	2561.311967
362.891344	2562.990671
363.279722	2563.552760
363.668037	2564.744992
364.056289	2562.022769
364.444478	2564.351783
364.832603	2565.173491
365.220665	2565.468398
365.608665	2564.505538
365.996601	2562.824313
366.384474	2565.667524
366.772284	2567.194993
367.160031	2565.075188
367.547715	2569.975190
367.935336	2565.720456
368.322893	2564.387071
368.710388	2565.173491
369.097820	2564.644169
369.485189	2563.083932
369.872495	2570.496949
370.259738	2571.424521
370.646918	2568.896383
371.034035	2569.221537
371.421090	2575.041549
371.808081	2570.867474
372.195010	2569.319840
372.581875	2568.452761
372.968678	2570.668348
373.355418	2570.620457
373.742096	2570.063410
374.128710	2573.224213
374.515262	2570.731363
374.901751	2570.300344
375.288177	2572.105077
375.674540	2571.847978
376.060841	2571.676579
376.447079	2571.379151
376.833254	2573.325036
377.219367	2574.681107
377.605417	2573.314954
377.991404	2574.449214
378.377329	2575.333936
378.763191	2571.336301
379.148991	2576.382496
379.534727	2572.919223
379.920402	2576.783268
380.306013	2574.663463
380.691563	2577.736046
381.077049	2578.247723
381.462474	2576.914338
381.847835	2579.513053
382.233134	2577.499112
382.618371	2577.254616
383.003545	2577.214287
383.388657	2575.606158
383.773706	2578.136818
384.158693	2578.472054
384.543618	2578.116653
384.928480	2578.635892
385.313280	2578.545151
385.698017	2578.474575
386.082692	2579.765110
386.467305	2581.998342
386.851856	2579.192939
387.236344	2578.446849
387.620770	2576.269070
388.005133	2578.519945
388.389435	2577.625141
388.773674	2576.412743
389.157851	2582.631006
389.541965	2580.216294
389.926018	2581.940368
390.310008	2580.796026
390.693936	2580.049936
391.077802	2582.999011
391.461606	2581.358115
391.845348	2580.725450
392.229027	2584.085379
392.612645	2583.442632
392.996200	2583.672005
393.379694	2584.740729
393.763125	2586.512695
394.146494	2586.091758
394.529801	2586.812643
394.913047	2583.767787
395.296230	2585.262489
395.679351	2586.139649
396.062410	2584.773497
396.445408	2587.525967
396.828343	2586.313569
397.211217	2585.060842
397.594028	2586.946234
397.976778	2586.116964
398.359466	2587.334403
398.742092	2587.941862
399.124656	2586.454722
399.507158	2585.068404
399.889598	2588.997984
400.271977	2586.878178
400.654294	2587.964547
401.036549	2588.166193
401.418742	2589.204671
401.800874	2588.350195
402.182944	2589.323138
402.564952	2589.807089
402.946898	2590.588468
403.328783	2590.394383
403.710606	2589.446646
404.092367	2590.878334
404.474067	2591.286668
404.855705	2593.356061
405.237282	2593.056112
405.618797	2588.556883
406.000250	2594.157605
406.381642	2592.559559
406.762972	2591.153077
407.144240	2590.187696
407.525447	2589.590319
407.906593	2586.744588
408.287677	2592.703232
408.668700	2593.724065
409.049661	2593.913109
409.430560	2595.357399
409.811399	2596.206834
410.192176	2592.985536
410.572891	2595.017121
410.953545	2596.776484
411.334138	2596.915116
411.714669	2595.959817
412.095139	2597.663727
412.475547	2595.284302
412.855894	2595.947214
413.236180	2595.808582
413.616405	2595.962338
413.996568	2596.428644
414.376670	2596.844540
414.756711	2598.379571
415.136691	2597.797318
415.516609	2597.325970
415.896466	2596.380753
416.276262	2598.122472
416.655997	2598.634149
417.035670	2596.330342
417.415283	2598.558532
417.794834	2602.256218
418.174324	2599.392843
418.553753	2599.521392
418.933121	2599.140785
419.312428	2598.956783
419.691674	2600.617843
420.070859	2602.561208
420.449983	2602.536002
420.829045	2601.706732
421.208047	2600.446444
421.586988	2604.149172
421.965867	2602.941815
422.344686	2600.103646
422.723444	2601.278234
423.102141	2603.723194
423.480777	2601.469798
423.859352	2603.849223
424.237866	2602.019284
424.616319	2604.106322
424.994712	2601.691609
425.373044	2602.178080
425.751314	2601.404263
426.129524	2599.831423
426.507673	2601.772268
426.885762	2598.956783
427.263789	2604.698657
427.641756	2605.381734
428.019662	2607.761158
428.397508	2604.610437
428.775292	2605.651435
429.153016	2605.621188
429.530679	2606.571446
429.908282	2607.627568
430.285824	2607.738473
430.663305	2607.304934
431.040726	2607.544389
431.418086	2606.387444
431.795385	2604.920468
432.172624	2606.195880
432.549802	2607.577156
432.926920	2608.126642
433.303977	2611.347939
433.680974	2609.848196
434.057910	2610.107815
434.434786	2609.215531
434.811601	2610.054883
435.188355	2610.891715
435.565050	2610.876591
435.941683	2609.255860
436.318257	2612.973711
436.694770	2612.872888
437.071222	2611.985645
437.447614	2613.119905
437.823946	2611.211828
438.200218	2611.453803
438.576429	2612.462034
438.952580	2614.586881
439.328670	2615.232148
439.704700	2615.345574
440.080670	2615.597632
440.456580	2613.099740
440.832429	2616.384052
441.208218	2614.977570
441.583947	2615.199381
441.959616	2615.746346
442.335224	2616.898250
442.710773	2614.498660
443.086261	2617.230966
443.461689	2615.544700
443.837057	2617.959412
444.212365	2619.476800
444.587612	2616.530245
444.962800	2616.510081
445.337927	2614.798609
445.712995	2611.342898
446.088002	2619.275154
446.462949	2618.866820
446.837837	2621.452932
447.212664	2620.616101
447.587431	2619.673405
447.962139	2621.268930
448.336786	2626.675567
448.711374	2627.434261
449.085901	2624.298663
449.460369	2624.359157
449.834776	2624.190279
450.209124	2626.226905
450.583412	2630.297637
450.957640	2628.699591
451.331808	2630.970631
451.705917	2629.438120
452.079965	2630.708491
452.453954	2628.455095
452.827883	2630.466515
453.201752	2630.330404
453.575562	2633.539098
453.949311	2636.367186
454.323001	2632.750158
454.696632	2635.046403
455.070202	2636.475571
455.443713	2639.558236
455.817164	2642.345994
456.190556	2641.345325
456.563888	2644.513690
456.937160	2646.134421
457.310373	2648.642395
457.683526	2647.243475
458.056619	2649.910246
458.429653	2649.552324
458.802628	2651.969557
459.175542	2655.899136
459.548398	2662.399704
459.921194	2668.915396
460.293930	2672.736590
460.666607	2681.672035
461.039224	2693.695187
461.411782	2702.512165
461.784280	2709.501725
462.156719	2716.125801
462.529099	2720.312480
462.901419	2717.504557
463.273680	2723.516133
463.645882	2729.741958
464.018024	2740.729153
464.390106	2751.325658
464.762130	2775.215686
465.134094	2806.332208
465.505999	2864.784387
465.877845	2964.150571
466.249631	3036.770912
466.621358	3050.883623
466.993026	3041.678476
467.364634	3058.256310
467.736184	3058.369736
468.107674	3072.545461
468.479105	3123.030096
468.850477	3148.709733
469.221790	3173.494566
469.593043	3193.397042
469.964238	3214.847151
470.335373	3252.605394
470.706449	3315.410609
471.077467	3345.039991
471.448425	3497.527333
471.819324	3808.085095
472.190164	4013.741487
472.560945	3877.325343
472.931667	3792.936428
473.302330	3823.077486
473.672934	3862.423692
474.043479	3976.384016
474.413965	4042.503790
474.784393	4097.580916
475.154761	4249.112960
475.525070	4338.961445
475.895321	4392.402717
476.265513	4557.994538
476.635645	4722.643664
477.005719	4801.973781
477.375734	4942.327066
477.745691	5127.591991
478.115588	5303.649248
478.485427	5516.388460
478.855207	5802.955371
479.224928	6241.079532
479.594591	6823.395815
479.964194	6972.225800
480.333739	7196.168977
480.703226	7220.744602
481.072653	7348.202616
481.442022	7681.758122
481.811333	8062.811379
482.180584	8256.542922
482.549777	8187.332920
482.918912	8328.180238
483.287988	8545.242241
483.657005	8668.195983
484.025964	8766.430427
484.394864	8943.747973
484.763706	9053.957678
485.132489	9132.692939
485.501213	9327.455398
485.869879	9536.736379
486.238487	9599.637376
486.607036	9923.924721
486.975527	10000.615794
487.343959	10304.700715
487.712333	10536.603874
488.080648	10563.168234
488.448905	10982.569549
488.817104	11088.315313
489.185244	11546.956969
489.553326	11794.470061
489.921350	12349.080163
490.289315	13556.620512
490.657222	14605.702271
491.025070	15090.031127
491.392861	15261.808444
491.760593	15123.388442
492.128267	15041.741914
492.495883	14758.504685
492.863440	14603.695892
493.230939	14393.625970
493.598380	14544.691707
493.965763	14550.189085
494.333088	14545.470565
494.700354	14719.397934
495.067563	14900.377878
495.434713	14970.409587
495.801805	15204.737541
496.168839	15369.621081
496.535815	15481.378420
496.902733	15789.884433
497.269593	15750.573515
497.636395	16115.386696
498.003139	16294.483768
498.369825	16383.450051
498.736453	16653.686144
499.103023	16758.726147
499.469535	16967.553424
499.835989	17300.428374
500.202385	17543.674130
500.568723	17364.748456
500.935003	17698.477882
501.301226	17628.481461
501.667390	18347.256738
502.033497	18755.507020
502.399546	18687.668213
502.765537	18633.990007
503.131470	19052.672957
503.497345	19326.629422
503.863163	18875.206698
504.228923	19547.132012
504.594625	19848.855152
504.960269	19598.967676
505.325856	20167.461116
505.691385	19853.366984
506.056856	20453.322265
506.422270	20621.359047
506.787625	20394.214737
507.152924	20911.666494
507.518164	21034.889938
507.883347	20989.270016
508.248472	20861.716221
508.613540	21645.204790
508.978550	21601.374478
509.343503	21700.256710
509.708398	22068.817989
510.073236	22311.264721
510.438016	22592.112443
510.802738	22443.899999
511.167403	22748.978027
511.532010	22565.308628
511.896561	23385.290110
512.261053	23469.477379
512.625488	23402.525815
512.989866	23411.715838
513.354186	23358.151058
513.718449	23529.686400
514.082655	23963.356701
514.446803	23809.669564
514.810894	24295.667042
515.174927	23882.025245
515.538904	23984.766481
515.902822	24505.142108
516.266684	24359.901424
516.630488	24311.738240
516.994235	24379.239290
517.357925	24705.838004
517.721558	24936.707727
518.085133	25067.752521
518.448651	25049.488420
518.812112	24816.017462
519.175516	25017.829974
519.538863	25252.339410
519.902152	25071.190588
520.265385	25414.157928
520.628560	25227.443672
520.991678	25283.897033
521.354739	25393.141358
521.717743	25482.979760
522.080690	25300.484950
522.443580	25660.120865
522.806413	25684.676326
523.169189	25796.342924
523.531908	25876.562806
523.894569	25516.384966
524.257174	25608.002896
524.619722	25831.207544
524.982213	25522.741861
525.344647	25625.790608
525.707025	25732.975621
526.069345	25768.324191
526.431608	25721.650668
526.793815	25939.685613
527.155964	25386.524843
527.518057	25563.343314
527.880093	25513.279615
528.242072	25761.886638
528.603995	25461.554856
528.965860	25282.152794
529.327669	25350.278947
529.689421	25339.228738
530.051117	25172.868140
530.412755	25354.437899
530.774337	25178.713358
531.135862	25044.074221
531.497331	25255.091880
531.858743	24795.215141
532.220098	25294.944722
532.581396	24969.203004
532.942638	24924.891262
533.303824	25007.971998
533.664953	25045.828543
534.026025	24715.317894
534.387040	24946.298522
534.747999	25019.929615
535.108902	25183.555386
535.469748	24680.652399
535.830537	24876.481062
536.191270	24990.161601
536.551947	24881.681012
536.912567	24564.287445
537.273131	24852.936353
537.633638	24582.801082
537.994089	24789.266579
538.354483	24358.321022
538.714821	24841.334137
539.075103	24887.634614
539.435328	24687.881414
539.795497	24217.292223
540.155609	24642.639579
540.515665	24925.743217
540.875665	24176.020296
541.235609	24443.627428
541.595496	24428.251908
541.955328	24781.956906
542.315102	24696.532034
542.674821	24267.512197
543.034483	24141.132991
543.394090	24312.146574
543.753640	24089.060393
544.113134	24727.172167
544.472571	24330.405633
544.831953	24616.443223
545.191278	24227.971907
545.550548	24163.929089
545.909761	24383.488983
546.268918	24611.712100
546.628019	24552.317225
546.987064	24267.313072
547.346053	24037.194481
547.704986	24165.968236
548.063863	24326.934798
548.422684	24304.214318
548.781449	23877.329410
549.140158	24265.843576
549.498811	23841.204502
549.857408	23588.350307
550.215949	24027.626371
550.574434	23706.754408
550.932864	23926.452934
551.291237	24057.840527
551.649555	23936.976343
552.007817	23986.566173
552.366022	23858.006668
552.724173	23903.051898
553.082267	23828.919210
553.440305	24303.243896
553.798288	23584.047682
554.156215	24101.391055
554.514086	24196.633574
554.871902	23552.424524
555.229661	23851.148178
555.587365	23712.483680
555.945014	23560.286204
556.302606	23837.363143
556.660143	23758.179219
557.017625	24024.155537
557.375050	23552.931160
557.732421	23943.302991
558.089735	23740.903184
558.446994	23826.007944
558.804197	23838.615869
559.161345	23794.853613
559.518437	23536.428943
559.875474	23743.751436
560.232455	23907.911570
560.589381	23745.732610
560.946251	23711.253638
561.303065	24044.536922
561.659825	24126.594303
562.016528	23730.735177
562.373177	23472.121464
562.729770	23821.433097
563.086307	23701.458676
563.442789	23870.909501
563.799216	23695.195042
564.155587	23708.896899
564.511904	23693.314692
564.868164	23618.720739
565.224370	23608.197330
565.580520	23508.571527
565.936615	23644.765860
566.292654	23314.663544
566.648638	23629.770948
567.004567	23449.743782
567.360441	23404.680908
567.716260	23131.057160
568.072023	23461.444300
568.427732	23215.844326
568.783385	23004.032686
569.138982	23239.280650
569.494525	23260.143466
569.850013	23020.633205
570.205445	23121.284883
570.560823	22916.495570
570.916145	22691.042567
571.271412	22874.026369
571.626625	22616.831741
571.981782	22737.451429
572.336884	22539.986912
572.691931	22673.441378
573.046923	22405.188979
573.401860	22286.220269
573.756743	22285.385958
574.111570	22208.019370
574.466342	22138.554790
574.821059	22230.061815
575.175722	21928.542842
575.530330	21917.785019
575.884882	21939.736724
576.239380	21835.067247
576.593823	21747.303279
576.948211	21730.387687
577.302544	21564.581616
577.656823	21439.624015
578.011047	21525.573168
578.365216	21406.586814
578.719330	21292.074483
579.073389	21196.176614
579.427394	21341.712205
579.781344	21106.872573
580.135239	21006.339363
580.489080	20971.076492
580.842866	20739.932026
581.196597	20904.843292
581.550273	20902.315153
581.903895	20798.500152
582.257463	21111.848192
582.610975	20639.918054
582.964434	20938.956780
583.317837	20652.284005
583.671186	20743.803632
584.024481	20706.320133
584.377721	20486.669498
584.730906	20530.910664
585.084037	20577.569064
585.437113	20468.433124
585.790135	20678.311482
586.143103	20153.398817
586.496016	20156.181534
586.848874	20396.168184
587.201679	20342.346305
587.554428	19994.148767
587.907124	20331.147381
588.259765	20116.986563
588.612352	20187.255207
588.964884	19750.209853
589.317362	19935.726835
589.669786	19983.849690
590.022155	20035.007319
590.374470	20205.136179
590.726731	20018.195071
591.078937	19770.036711
591.431090	19866.942812
591.783188	19614.154152
592.135232	19589.790256
592.487222	19691.709783
592.839157	19714.021930
593.191038	19603.875239
593.542866	19488.044648
593.894639	19205.487974
594.246358	19428.211192
594.598022	19331.771399
594.949633	19087.880376
595.301190	19053.988698
595.652692	19215.189675
596.004141	19456.968455
596.355535	18786.046330
596.706876	18798.593762
597.058162	18690.944963
597.409395	18912.145753
597.760573	18996.103649
598.111698	18781.403428
598.462768	18715.969251
598.813785	18659.621754
599.164748	18499.434049
599.515657	18522.336011
599.866511	18320.137851
600.217312	18677.659002
600.568060	18208.710707
600.918753	18518.356020
601.269392	18423.529396
601.619978	18188.687244
601.970510	18410.495492
602.320988	18344.670626
602.671412	18567.504749
603.021783	18468.607393
603.372100	18207.810861
603.722363	18335.820880
604.072572	18272.897198
604.422728	18407.748063
604.772830	18169.755190
605.122878	18125.927399
605.472872	18118.589999
605.822813	18104.230273
606.172701	18062.393737
606.522534	18271.394934
606.872314	18284.338097
607.222041	18117.833826
607.571714	18339.150563
607.921333	18172.865582
608.270899	18239.237414
608.620411	18430.428215
608.969870	18185.241615
609.319276	18189.274538
609.668627	18221.921050
610.017926	18365.972022
610.367171	18475.622159
610.716362	18506.894957
611.065500	18339.175768
611.414585	18463.873750
611.763616	18451.260783
612.112594	18410.082118
612.461518	18361.349283
612.810389	18552.847595
613.159207	18412.151511
613.507971	18324.316967
613.856682	18598.817877
614.205340	18531.843627
614.553945	18676.146656
614.902496	18419.284744
615.250994	18663.957146
615.599439	18601.275439
615.947830	18581.035206
616.296169	18622.660014
616.644454	18596.957691
616.992686	18564.442248
617.340864	18776.276574
617.688990	18539.785965
618.037063	18718.782215
618.385082	18556.615857
618.733048	18839.787551
619.080961	18701.070121
619.428821	18747.884796
619.776628	18633.871540
620.124382	18559.025529
620.472083	18592.529037
620.819731	18616.464436
621.167326	18312.666861
621.514868	18355.007512
621.862357	18119.197458
622.209793	18125.274569
622.557176	17963.947564
622.904506	17790.993137
623.251783	17692.826748
623.599007	17459.103733
623.946179	17411.157318
624.293297	17346.416300
624.640363	17111.594313
624.987376	17128.693907
625.334336	16916.776402
625.681243	16759.522649
626.028097	16770.444309
626.374899	16699.585850
626.721647	16572.689926
627.068343	16407.244298
627.414987	16333.187227
627.761577	16311.797611
628.108115	16345.404463
628.454600	16069.106383
628.801032	16163.640620
629.147412	16099.002946
629.493739	16127.127543
629.840014	15922.950730
630.186236	16033.593974
630.532405	15786.680780
630.878521	15990.900442
631.224585	15879.178391
631.570597	15707.958121
631.916556	15735.142543
632.262462	15719.656119
632.608316	15637.394570
632.954117	15577.626650
633.299866	15573.271093
633.645562	15496.617828
633.991206	15252.089099
634.336797	15117.066835
634.682336	15091.162866
635.027823	14976.806811
635.373257	14868.835378
635.718639	14755.467390
636.063968	14707.687334
636.409245	14460.617863
636.754470	14486.925125
637.099642	14339.665459
637.444762	14100.465230
637.789829	14151.864834
638.134845	13989.794259
