Dividing Wavelength (nm)	Counts (n)	Blue Motor Position (mm): 0.000000	Red Motor Position (mm): 40.000000	
326.493990	2139.349746
326.888308	2139.349746
327.282561	2139.349746
327.676750	2115.179934
328.070874	2117.755963
328.464933	2118.265120
328.858929	2129.602675
329.252859	2143.425519
329.646726	2155.708290
330.040528	2168.916113
330.434265	2190.701459
330.827938	2209.308358
331.221547	2227.136399
331.615091	2246.607856
332.008571	2267.778181
332.401986	2287.252158
332.795338	2309.523976
333.188625	2331.064827
333.581847	2348.640809
333.975006	2367.842564
334.368100	2385.748743
334.761129	2403.682648
335.154095	2417.760070
335.546996	2438.983327
335.939833	2457.164249
336.332606	2475.940026
336.725315	2485.848414
337.117960	2495.739158
337.510540	2500.054386
337.903056	2510.328257
338.295508	2518.689011
338.687896	2523.291584
339.080220	2531.027235
339.472480	2535.612164
339.864676	2542.248843
340.256807	2544.870243
340.648875	2546.667415
341.040879	2546.901828
341.432818	2547.922662
341.824694	2552.467262
342.216506	2552.948692
342.608253	2550.302087
342.999937	2549.026675
343.391557	2548.099103
343.783113	2548.419216
344.174605	2545.439894
344.566033	2545.046684
344.957397	2543.700696
345.348697	2543.718340
345.739934	2540.146682
346.131106	2538.410005
346.522215	2535.891948
346.913260	2532.446320
347.304241	2533.898172
347.695159	2527.710156
348.086012	2532.776515
348.476802	2527.032121
348.867528	2526.938859
349.258191	2526.964065
349.648789	2526.117151
350.039324	2522.187572
350.429796	2524.047758
350.820203	2521.380987
351.210548	2520.082890
351.600828	2518.865451
351.991045	2520.415606
352.381198	2518.910822
352.771288	2520.403003
353.161314	2516.223887
353.551276	2518.293280
353.941175	2520.256810
354.331010	2519.104906
354.720782	2518.774711
355.110490	2521.380987
355.500135	2519.314114
355.889717	2519.886285
356.279235	2521.196985
356.668689	2522.353930
357.058080	2522.588343
357.447408	2516.281860
357.836672	2516.433095
358.225873	2520.040040
358.615010	2519.767818
359.004084	2523.044568
359.393095	2524.325021
359.782043	2525.136647
360.170927	2527.624456
360.559748	2524.582120
360.948505	2527.505989
361.337199	2525.401307
361.725830	2525.928108
362.114398	2529.320804
362.502903	2527.337110
362.891344	2527.495907
363.279722	2528.690660
363.668037	2531.803573
364.056289	2530.465146
364.444478	2529.537574
364.832603	2529.769467
365.220665	2530.976823
365.608665	2531.929602
365.996601	2532.484128
366.384474	2528.751154
366.772284	2532.340456
367.160031	2531.876669
367.547715	2531.876669
367.935336	2533.875487
368.322893	2533.063861
368.710388	2536.020498
369.097820	2532.373223
369.485189	2531.425486
369.872495	2534.364479
370.259738	2532.549663
370.646918	2536.753986
371.034035	2535.604603
371.421090	2535.917154
371.808081	2535.947401
372.195010	2536.748945
372.581875	2538.689789
372.968678	2539.203987
373.355418	2539.387989
373.742096	2541.999306
374.128710	2541.112063
374.515262	2541.883360
374.901751	2542.861344
375.288177	2545.160110
375.674540	2544.625747
376.060841	2548.086500
376.447079	2548.199926
376.833254	2550.765873
377.219367	2551.403579
377.605417	2550.874258
377.991404	2555.648230
378.377329	2556.099414
378.763191	2556.288457
379.148991	2566.063254
379.534727	2567.454613
379.920402	2575.585994
380.306013	2579.810481
380.691563	2581.645461
381.077049	2584.352560
381.462474	2589.121492
381.847835	2596.000146
382.233134	2599.367637
382.618371	2601.923502
383.003545	2612.391458
383.388657	2616.051336
383.773706	2624.102058
384.158693	2631.119345
384.543618	2637.947587
384.928480	2642.779533
385.313280	2650.613487
385.698017	2659.501041
386.082692	2667.483708
386.467305	2673.820438
386.851856	2682.581964
387.236344	2692.283664
387.620770	2702.678523
388.005133	2709.531972
388.389435	2718.265771
388.773674	2722.848180
389.157851	2734.861250
389.541965	2745.729977
389.926018	2748.311048
390.310008	2761.672626
390.693936	2771.548247
391.077802	2779.382200
391.461606	2788.723458
391.845348	2796.638069
392.229027	2809.805563
392.612645	2821.690083
392.996200	2831.195179
393.379694	2841.486695
393.763125	2856.746267
394.146494	2868.736652
394.529801	2878.335009
394.913047	2893.463511
395.296230	2898.499624
395.679351	2902.799728
396.062410	2919.637182
396.445408	2916.806574
396.828343	2930.211002
397.211217	2939.280038
397.594028	2931.050354
397.976778	2943.368414
398.359466	2960.276444
398.742092	2955.298304
399.124656	2970.260449
399.507158	2984.098416
399.889598	2992.141577
400.271977	3003.700943
400.654294	3011.706295
401.036549	3023.994108
401.418742	3027.999305
401.800874	3051.937224
402.182944	3059.506516
402.564952	3085.508788
402.946898	3078.655339
403.328783	3086.988366
403.710606	3102.331118
404.092367	3123.952627
404.474067	3150.927841
404.855705	3142.748569
405.237282	3141.115235
405.618797	3175.233764
406.000250	3196.199923
406.381642	3224.145560
406.762972	3232.917167
407.144240	3220.672205
407.525447	3244.237078
407.906593	3242.190370
408.287677	3263.590068
408.668700	3284.178140
409.049661	3279.605814
409.430560	3297.365799
409.811399	3303.357210
410.192176	3321.704489
410.572891	3328.878051
410.953545	3367.838609
411.334138	3337.112776
411.714669	3387.224366
412.095139	3335.731500
412.475547	3386.201012
412.855894	3376.229609
413.236180	3407.504928
413.616405	3383.347719
413.996568	3412.041966
414.376670	3416.299221
414.756711	3408.916451
415.136691	3433.376129
415.516609	3455.194243
415.896466	3464.318732
416.276262	3489.035509
416.655997	3520.633461
417.035670	3525.914070
417.415283	3595.602981
417.794834	3612.062348
418.174324	3596.119699
418.553753	3598.415945
418.933121	3641.895897
419.312428	3634.127478
419.691674	3628.836787
420.070859	3664.742406
420.449983	3648.313285
420.829045	3698.419834
421.208047	3677.753624
421.586988	3725.742888
421.965867	3754.167434
422.344686	3763.866614
422.723444	3801.592089
423.102141	3706.533571
423.480777	3807.165084
423.859352	3777.601238
424.237866	3875.891135
424.616319	3860.132488
424.994712	3918.035181
425.373044	3908.595620
425.751314	3973.339159
426.129524	3909.321546
426.507673	4006.399046
426.885762	3982.894666
427.263789	4004.516175
427.641756	4013.038246
428.019662	4042.060168
428.397508	4041.911454
428.775292	4080.632557
429.153016	4088.582457
429.530679	4102.501082
429.908282	4106.728090
430.285824	4087.753187
430.663305	4156.572498
431.040726	4118.521869
431.418086	4107.940487
431.795385	4178.803987
432.172624	4216.743711
432.549802	4185.060059
432.926920	4205.633008
433.303977	4197.065567
433.680974	4240.358996
434.057910	4256.798199
434.434786	4264.722893
434.811601	4263.213067
435.188355	4365.989591
435.565050	4337.345755
435.941683	4333.431299
436.318257	4418.220986
436.694770	4428.336061
437.071222	4483.892097
437.447614	4417.681583
437.823946	4421.585956
438.200218	4436.676650
438.576429	4421.669135
438.952580	4447.154688
439.328670	4447.605872
439.704700	4494.150845
440.080670	4460.266730
440.456580	4520.901728
440.832429	4554.647212
441.208218	4457.161379
441.583947	4506.466384
441.959616	4524.085217
442.335224	4549.144792
442.710773	4571.051127
443.086261	4622.498622
443.461689	4576.460285
443.837057	4587.071913
444.212365	4661.484385
444.587612	4667.251465
444.962800	4635.978668
445.337927	4681.107077
445.712995	4563.665836
446.088002	4758.088017
446.462949	4778.298002
446.837837	4794.676711
447.212664	4783.540802
447.587431	5008.159494
447.962139	5302.956089
448.336786	5640.547038
448.711374	5633.411285
449.085901	5275.670844
449.460369	5211.081060
449.834776	5147.968334
450.209124	5381.217482
450.583412	5388.149068
450.957640	5514.243449
451.331808	5377.529878
451.705917	5225.420622
452.079965	5217.074992
452.453954	5257.074027
452.827883	5220.931475
453.201752	5226.564964
453.575562	5260.073514
453.949311	5394.024533
454.323001	5399.083331
454.696632	5393.437239
455.070202	5546.257297
455.443713	5576.358027
455.817164	5668.263302
456.190556	5737.317028
456.563888	5713.507658
456.937160	5795.065966
457.310373	5631.999762
457.683526	5692.763310
458.056619	5680.357030
458.429653	5659.743752
458.802628	5709.179827
459.175542	5742.111165
459.548398	5877.004880
459.921194	6060.863323
460.293930	6123.799608
460.666607	6378.604729
461.039224	6587.716832
461.411782	6716.543518
461.784280	6634.980170
462.156719	6633.205683
462.529099	6600.806188
462.901419	6452.334125
463.273680	6332.505898
463.645882	6316.260779
464.018024	6316.331356
464.390106	6386.925153
464.762130	6646.650441
465.134094	7023.620364
465.505999	7658.352044
465.877845	8362.951597
466.249631	8720.618942
466.621358	8644.255543
466.993026	8455.726472
467.364634	8234.104746
467.736184	7956.621994
468.107674	7802.629867
468.479105	7719.213895
468.850477	7647.919377
469.221790	7474.526369
469.593043	7254.744665
469.964238	7154.135837
470.335373	7129.252701
470.706449	7281.424971
471.077467	7465.399360
471.448425	8121.137529
471.819324	8701.901137
472.190164	8753.265454
472.560945	8272.402392
472.931667	7799.544681
473.302330	7606.793643
473.672934	7481.175651
474.043479	7559.205151
474.413965	7462.954401
474.784393	7414.357678
475.154761	7568.029691
475.525070	7578.827843
475.895321	7527.193824
476.265513	7622.355685
476.635645	7787.627394
477.005719	7777.040971
477.375734	7869.125207
477.745691	7974.991959
478.115588	8173.794902
478.485427	8411.654184
478.855207	8883.165906
479.224928	9312.052152
479.594591	9696.545997
479.964194	9706.303150
480.333739	9791.833887
480.703226	9792.527046
481.072653	9892.704855
481.442022	10008.578297
481.811333	10164.072687
482.180584	9997.422223
482.549777	9942.294685
482.918912	9879.484429
483.287988	9862.999856
483.657005	9772.662379
484.025964	9690.186582
484.394864	9751.802084
484.763706	9711.339263
485.132489	9623.514801
485.501213	9613.586249
485.869879	9673.369292
486.238487	9611.504252
486.607036	9681.757772
486.975527	9633.660123
487.343959	9682.947485
487.712333	9741.311443
488.080648	9774.981310
488.448905	9880.107012
488.817104	9884.570953
489.185244	10042.613647
489.553326	10253.858158
489.921350	10725.611855
490.289315	11341.444250
490.657222	11647.603606
491.025070	11824.101963
491.392861	11735.962430
491.760593	11579.245559
492.128267	11327.646612
492.495883	11088.143913
492.863440	10857.276711
493.230939	10633.363781
493.598380	10449.452406
493.965763	10431.982288
494.333088	10294.089086
494.700354	10221.846831
495.067563	10199.827071
495.434713	10209.682527
495.801805	10244.423638
496.168839	10206.942659
496.535815	10171.778091
496.902733	10220.425225
497.269593	10174.795221
497.636395	10181.739411
498.003139	10290.986256
498.369825	10216.556140
498.736453	10312.070882
499.103023	10255.741029
499.469535	10263.942986
499.835989	10313.111880
500.202385	10287.641450
500.568723	10308.615171
500.935003	10363.714982
501.301226	10342.849647
501.667390	10499.803451
502.033497	10606.605336
502.399546	10525.309169
502.765537	10439.874214
503.131470	10543.870697
503.497345	10626.371701
503.863163	10401.747967
504.228923	10534.663030
504.594625	10651.343056
504.960269	10554.182377
505.325856	10706.750378
505.691385	10584.809908
506.056856	10654.307255
506.422270	10755.649570
506.787625	10684.415546
507.152924	10743.523075
507.518164	10805.078084
507.883347	10677.327684
508.248472	10746.731769
508.613540	10859.807371
508.978550	10930.249934
509.343503	10912.109342
509.708398	10960.993411
510.073236	11089.048801
510.438016	11102.460790
510.802738	11012.365289
511.167403	11141.774229
511.532010	11202.731861
511.896561	11299.953033
512.261053	11496.656336
512.625488	11406.964127
512.989866	11396.934751
513.354186	11375.708973
513.718449	11383.550488
514.082655	11525.824452
514.446803	11478.959365
514.810894	11593.350708
515.174927	11586.177146
515.538904	11569.906822
515.902822	11731.304403
516.266684	11600.388159
516.630488	11699.930783
516.994235	11690.614730
517.357925	11800.990794
517.721558	11866.392203
518.085133	11925.189701
518.448651	11955.955863
518.812112	11920.516551
519.175516	11922.137282
519.538863	12013.525840
519.902152	12016.976510
520.265385	12124.630350
520.628560	12142.657516
520.991678	12098.623037
521.354739	12144.295891
521.717743	12219.214999
522.080690	12193.142151
522.443580	12325.129641
522.806413	12343.101355
523.169189	12326.679796
523.531908	12387.642470
523.894569	12350.753826
524.257174	12360.712626
524.619722	12466.246661
524.982213	12445.008280
525.344647	12433.461517
525.707025	12442.477621
526.069345	12546.579968
526.431608	12526.561546
526.793815	12604.172630
527.155964	12503.299142
527.518057	12529.515662
527.880093	12487.837923
528.242072	12605.354781
528.603995	12530.380220
528.965860	12542.526880
529.327669	12572.844380
529.689421	12520.605423
530.051117	12533.082279
530.412755	12570.543093
530.774337	12581.419382
531.135862	12528.227648
531.497331	12590.228799
531.858743	12557.705795
532.220098	12644.665698
532.581396	12561.811814
532.942638	12477.682518
533.303824	12553.375443
533.664953	12546.645503
534.026025	12489.113335
534.387040	12591.239550
534.747999	12570.409502
535.108902	12613.029938
535.469748	12486.101245
535.830537	12515.768436
536.191270	12559.644118
536.551947	12484.737613
536.912567	12542.448743
537.273131	12578.656830
537.633638	12459.438583
537.994089	12511.546469
538.354483	12436.176178
538.714821	12561.927761
539.075103	12642.044298
539.435328	12583.506420
539.795497	12548.379660
540.155609	12553.564487
540.515665	12658.947287
540.875665	12517.553004
541.235609	12615.608488
541.595496	12571.243813
541.955328	12742.275040
542.315102	12591.174015
542.674821	12532.797453
543.034483	12539.658464
543.394090	12543.948486
543.753640	12510.858352
544.113134	12750.066143
544.472571	12520.832275
544.831953	12797.470633
545.191278	12616.291564
545.550548	12550.247408
545.909761	12665.470540
546.268918	12711.408055
546.628019	12769.784616
546.987064	12657.790342
547.346053	12517.066533
547.704986	12711.216491
548.063863	12591.615116
548.422684	12647.700473
548.781449	12598.045108
549.140158	12691.984489
549.498811	12649.563179
549.857408	12517.827747
550.215949	12719.380640
550.574434	12677.304649
550.932864	12630.316054
551.291237	12823.309067
551.649555	12719.536915
552.007817	12777.137139
552.366022	12697.338194
552.724173	12736.013927
553.082267	12815.175166
553.440305	12908.650761
553.798288	12737.007034
554.156215	12810.489413
554.514086	12851.993233
554.871902	12797.697485
555.229661	12817.617605
555.587365	12770.210594
555.945014	12775.730657
556.302606	12766.517949
556.660143	12822.424345
557.017625	12862.136034
557.375050	12818.522492
557.732421	12921.115014
558.089735	12910.352150
558.446994	12879.679250
558.804197	12994.567146
559.161345	12988.210251
559.518437	12801.816108
559.875474	12900.658011
560.232455	12933.324688
560.589381	12978.987460
560.946251	12907.468610
561.303065	13089.565169
561.659825	13046.193602
562.016528	12958.525416
562.373177	12895.130386
562.729770	13014.404086
563.086307	12895.437897
563.442789	13008.878982
563.799216	13043.126060
564.155587	12989.301661
564.511904	13009.526770
564.868164	13015.104807
565.224370	13083.694746
565.580520	13025.338349
565.936615	13090.286054
566.292654	13010.217408
566.648638	13093.114142
567.004567	13088.783791
567.360441	13092.534409
567.716260	13054.745920
568.072023	13140.415288
568.427732	13109.081997
568.783385	13014.378880
569.138982	13128.364410
569.494525	13130.096046
569.850013	13071.893405
570.205445	13066.325450
570.560823	13073.627562
570.916145	13029.000747
571.271412	13046.521277
571.626625	12997.669976
571.981782	12989.699912
572.336884	12930.915017
572.691931	13024.912371
573.046923	12917.092173
573.401860	12887.969427
573.756743	12877.453580
574.111570	12905.835276
574.466342	12888.261814
574.821059	12933.654884
575.175722	12805.811222
575.530330	12823.455261
575.884882	12757.123758
576.239380	12744.573806
576.593823	12723.431207
576.948211	12722.488511
577.302544	12600.023761
577.656823	12611.232766
578.011047	12666.476251
578.365216	12602.493926
578.719330	12543.784648
579.073389	12515.876821
579.427394	12525.016432
579.781344	12509.330882
580.135239	12438.974019
580.489080	12456.398767
580.842866	12337.603977
581.196597	12417.334866
581.550273	12410.151222
581.903895	12370.527752
582.257463	12477.380049
582.610975	12327.564519
582.964434	12392.731514
583.317837	12312.874596
583.671186	12263.307451
584.024481	12308.902167
584.377721	12198.309334
584.730906	12259.035073
585.084037	12269.195519
585.437113	12179.838546
585.790135	12207.385932
586.143103	12113.907816
586.496016	12123.402829
586.848874	12129.752162
587.201679	12129.237965
587.554428	12005.328924
587.907124	12041.330324
588.259765	11976.216260
588.612352	12033.748428
588.964884	11895.759445
589.317362	11942.816095
589.669786	11934.266298
590.022155	11872.759180
590.374470	11973.282309
590.726731	11860.012623
591.078937	11732.884805
591.431090	11756.144689
591.783188	11689.649349
592.135232	11605.431833
592.487222	11656.607106
592.839157	11661.441573
593.191038	11589.022877
593.542866	11531.803261
593.894639	11390.053576
594.246358	11446.978285
594.598022	11445.612133
594.949633	11341.779487
595.301190	11325.743577
595.652692	11277.333376
596.004141	11356.240037
596.355535	11139.823302
596.706876	11118.680703
597.058162	11081.754251
597.409395	11154.974490
597.760573	11177.959631
598.111698	11072.357540
598.462768	11057.677700
598.813785	11060.904039
599.164748	10931.792527
599.515657	10994.854841
599.866511	10866.421364
600.217312	10978.680299
600.568060	10748.176060
600.918753	10895.592001
601.269392	10878.104238
601.619978	10781.916503
601.970510	10810.305760
602.320988	10846.806235
602.671412	10905.855790
603.021783	10823.125415
603.372100	10744.140616
603.722363	10749.406101
604.072572	10743.119783
604.422728	10739.792621
604.772830	10679.114773
605.122878	10664.891157
605.472872	10628.395724
605.822813	10670.791828
606.172701	10628.720878
606.522534	10659.519808
606.872314	10689.441576
607.222041	10615.959197
607.571714	10673.534215
607.921333	10538.925325
608.270899	10572.660727
608.620411	10614.504824
608.969870	10552.985103
609.319276	10527.507112
609.668627	10517.959167
610.017926	10578.082488
610.367171	10595.681156
610.716362	10570.916488
611.065500	10535.388956
611.414585	10529.642041
611.763616	10584.928375
612.112594	10528.719509
612.461518	10535.101610
612.810389	10555.309075
613.159207	10495.281536
613.507971	10472.906375
613.856682	10543.386747
614.205340	10481.022632
614.553945	10589.903994
614.902496	10471.144491
615.250994	10505.527681
615.599439	10474.607764
615.947830	10488.826338
616.296169	10444.018042
616.644454	10424.687738
616.992686	10418.401419
617.340864	10472.399739
617.688990	10355.288694
618.037063	10453.752511
618.385082	10401.135467
618.733048	10418.497201
619.080961	10385.870853
619.428821	10347.893321
619.776628	10338.534419
620.124382	10270.226784
620.472083	10263.665722
620.819731	10264.968861
621.167326	10178.117342
621.514868	10145.871601
621.862357	10042.984172
622.209793	10016.457620
622.557176	9925.263147
622.904506	9866.551349
623.251783	9776.128172
623.599007	9714.764727
623.946179	9653.882712
624.293297	9618.559347
624.640363	9485.384665
624.987376	9453.706055
625.334336	9381.317606
625.681243	9291.554821
626.028097	9243.673941
626.374899	9194.648720
626.721647	9156.971136
627.068343	9096.371426
627.414987	9027.773925
627.761577	8947.271739
628.108115	8970.647570
628.454600	8849.866565
628.801032	8845.377417
629.147412	8808.284607
629.493739	8762.425231
629.840014	8678.366511
630.186236	8692.695991
630.532405	8587.688756
630.878521	8588.455011
631.224585	8531.608440
631.570597	8446.390255
631.916556	8431.050024
632.262462	8400.888800
632.608316	8359.143005
632.954117	8311.259605
633.299866	8282.638454
633.645562	8241.230417
633.991206	8150.098958
634.336797	8061.888848
634.682336	8022.633383
635.027823	7966.109446
635.373257	7916.963237
635.718639	7835.593972
636.063968	7802.541647
636.409245	7698.560288
636.754470	7669.533324
637.099642	7606.932275
637.444762	7516.826691
637.789829	7502.512335
638.134845	7426.733710
638.479808	7387.082515
638.824719	7353.019438
