Dividing Wavelength (nm)	Counts (n)	Blue Motor Position (mm): 0.000000	Red Motor Position (mm): 2.100000	
326.493990	2128.407921
326.888308	2128.407921
327.282561	2128.407921
327.676750	2093.412231
328.070874	2094.332242
328.464933	2095.842068
328.858929	2101.263828
329.252859	2111.189860
329.646726	2122.776953
330.040528	2137.245064
330.434265	2151.693011
330.827938	2170.549447
331.221547	2190.005780
331.615091	2210.286342
332.008571	2225.636656
332.401986	2248.944430
332.795338	2268.831782
333.188625	2285.661674
333.581847	2306.206897
333.975006	2321.685760
334.368100	2340.600169
334.761129	2357.437623
335.154095	2373.793647
335.546996	2392.571945
335.939833	2407.042577
336.332606	2420.177303
336.725315	2432.926381
337.117960	2443.348967
337.510540	2450.008331
337.903056	2462.734724
338.295508	2469.726804
338.687896	2476.660911
339.080220	2489.848570
339.472480	2492.787563
339.864676	2500.830723
340.256807	2503.799963
340.648875	2505.491270
341.040879	2508.732732
341.432818	2509.720798
341.824694	2511.341529
342.216506	2511.724657
342.608253	2512.594256
342.999937	2511.064266
343.391557	2512.785820
343.783113	2509.801457
344.174605	2507.290962
344.566033	2508.347084
344.957397	2506.290293
345.348697	2502.111177
345.739934	2503.094202
346.131106	2501.478512
346.522215	2498.269817
346.913260	2498.151350
347.304241	2495.633294
347.695159	2493.130361
348.086012	2491.023159
348.476802	2490.690442
348.867528	2487.822026
349.258191	2486.034937
349.648789	2484.656181
350.039324	2485.019144
350.429796	2484.767087
350.820203	2483.920173
351.210548	2481.921355
351.600828	2482.480923
351.991045	2477.936323
352.381198	2480.877837
352.771288	2477.689307
353.161314	2478.793319
353.551276	2479.120994
353.941175	2479.488999
354.331010	2477.006230
354.720782	2478.299286
355.110490	2476.668473
355.500135	2480.003196
355.889717	2477.714513
356.279235	2480.527476
356.668689	2479.960347
357.058080	2481.938999
357.447408	2476.794502
357.836672	2475.642598
358.225873	2479.123515
358.615010	2473.064048
359.004084	2482.140646
359.393095	2481.079483
359.782043	2483.279946
360.170927	2482.256592
360.559748	2483.156438
360.948505	2484.391521
361.337199	2484.666264
361.725830	2484.663743
362.114398	2486.778507
362.502903	2485.450163
362.891344	2485.941676
363.279722	2485.142653
363.668037	2488.679022
364.056289	2488.603405
364.444478	2487.794300
364.832603	2488.875627
365.220665	2489.193220
365.608665	2484.457056
365.996601	2490.050216
366.384474	2489.223467
366.772284	2492.414517
367.160031	2490.450988
367.547715	2488.868065
367.935336	2492.427120
368.322893	2492.464929
368.710388	2494.151195
369.097820	2494.700680
369.485189	2494.940135
369.872495	2493.208499
370.259738	2491.988540
370.646918	2492.802686
371.034035	2492.293529
371.421090	2494.698160
371.808081	2491.199599
372.195010	2495.701349
372.581875	2493.526092
372.968678	2494.675475
373.355418	2494.761174
373.742096	2496.560866
374.128710	2492.618684
374.515262	2497.780825
374.901751	2492.578355
375.288177	2493.422748
375.674540	2495.625732
376.060841	2493.241266
376.447079	2495.348469
376.833254	2497.551453
377.219367	2492.326297
377.605417	2494.342758
377.991404	2491.549959
378.377329	2494.594816
378.763191	2492.396873
379.148991	2501.118069
379.534727	2496.865856
379.920402	2497.107831
380.306013	2498.642863
380.691563	2497.932060
381.077049	2497.979951
381.462474	2498.302585
381.847835	2498.121103
382.233134	2499.540188
382.618371	2498.542040
383.003545	2500.286279
383.388657	2499.716628
383.773706	2500.480363
384.158693	2498.529437
384.543618	2500.374499
384.928480	2500.250991
385.313280	2502.020436
385.698017	2498.574807
386.082692	2503.525220
386.467305	2497.294354
386.851856	2500.911382
387.236344	2501.687720
387.620770	2502.736280
388.005133	2499.830054
388.389435	2501.584376
388.773674	2501.516320
389.157851	2503.031187
389.541965	2502.776609
389.926018	2502.683348
390.310008	2503.585714
390.693936	2502.970693
391.077802	2503.520179
391.461606	2505.909686
391.845348	2505.030005
392.229027	2503.540344
392.612645	2509.241889
392.996200	2502.496825
393.379694	2504.483039
393.763125	2505.067813
394.146494	2505.277021
394.529801	2503.757113
394.913047	2506.696106
395.296230	2506.232320
395.679351	2504.699809
396.062410	2505.002278
396.445408	2505.551764
396.828343	2507.512773
397.211217	2501.556650
397.594028	2504.500683
397.976778	2503.701661
398.359466	2504.709891
398.742092	2504.475478
399.124656	2507.931189
399.507158	2505.045128
399.889598	2508.120232
400.271977	2508.485716
400.654294	2510.353463
401.036549	2509.249450
401.418742	2506.801970
401.800874	2507.792557
402.182944	2509.405726
402.564952	2509.458658
402.946898	2509.370438
403.328783	2508.594100
403.710606	2511.273474
404.092367	2507.606034
404.474067	2511.523011
404.855705	2513.458814
405.237282	2508.780623
405.618797	2508.722650
406.000250	2512.604338
406.381642	2507.853051
406.762972	2510.582836
407.144240	2511.265912
407.525447	2513.136180
407.906593	2511.293638
408.287677	2511.170130
408.668700	2509.466220
409.049661	2513.670542
409.430560	2513.660460
409.811399	2513.731036
410.192176	2509.975377
410.572891	2515.404699
410.953545	2513.030316
411.334138	2514.537621
411.714669	2511.185253
412.095139	2513.237003
412.475547	2512.843793
412.855894	2511.951509
413.236180	2514.101561
413.616405	2512.546365
413.996568	2515.029133
414.376670	2515.442508
414.756711	2513.922600
415.136691	2513.579802
415.516609	2514.877899
415.896466	2514.668691
416.276262	2515.460152
416.655997	2511.719616
417.035670	2511.064266
417.415283	2514.595594
417.794834	2509.693072
418.174324	2514.270440
418.553753	2514.164575
418.933121	2513.569719
419.312428	2516.241531
419.691674	2513.463855
420.070859	2516.533918
420.449983	2514.905625
420.829045	2515.838238
421.208047	2516.599453
421.586988	2518.714217
421.965867	2515.056860
422.344686	2519.112468
422.723444	2516.715399
423.102141	2515.419823
423.480777	2516.183557
423.859352	2515.868485
424.237866	2519.603980
424.616319	2517.043074
424.994712	2520.282016
425.373044	2516.917045
425.751314	2519.525842
426.129524	2516.024761
426.507673	2515.167765
426.885762	2516.672549
427.263789	2518.878054
427.641756	2516.554082
428.019662	2520.919722
428.397508	2517.300173
428.775292	2518.923425
429.153016	2520.622293
429.530679	2518.691532
429.908282	2520.191275
430.285824	2519.533404
430.663305	2517.821932
431.040726	2519.535925
431.418086	2519.820750
431.795385	2520.748322
432.172624	2519.019207
432.549802	2521.479290
432.926920	2518.835204
433.303977	2521.607839
433.680974	2520.571882
434.057910	2521.078518
434.434786	2521.209588
434.811601	2518.338651
435.188355	2520.082890
435.565050	2519.407375
435.941683	2522.290915
436.318257	2519.087262
436.694770	2518.162210
437.071222	2518.842766
437.447614	2519.694721
437.823946	2518.041223
438.200218	2520.841584
438.576429	2523.309228
438.952580	2522.389218
439.328670	2521.252438
439.704700	2523.838550
440.080670	2521.265041
440.456580	2522.525329
440.832429	2521.403672
441.208218	2520.987777
441.583947	2522.006090
441.959616	2522.427027
442.335224	2525.698735
442.710773	2521.000380
443.086261	2522.381656
443.461689	2521.391069
443.837057	2522.454753
444.212365	2522.936183
444.587612	2521.844773
444.962800	2524.393077
445.337927	2524.624970
445.712995	2521.537263
446.088002	2523.016842
446.462949	2524.148581
446.837837	2521.953158
447.212664	2522.792510
447.587431	2527.450536
447.962139	2520.657582
448.336786	2527.619415
448.711374	2524.415762
449.085901	2526.318797
449.460369	2523.677233
449.834776	2525.663447
450.209124	2524.216636
450.583412	2524.975330
450.957640	2523.624301
451.331808	2522.356450
451.705917	2525.217305
452.079965	2525.423993
452.453954	2522.472397
452.827883	2523.576410
453.201752	2525.232429
453.575562	2524.791328
453.949311	2526.641431
454.323001	2525.315608
454.696632	2527.057326
455.070202	2526.563293
455.443713	2528.126051
455.817164	2522.729496
456.190556	2524.292253
456.563888	2523.689836
456.937160	2522.598426
457.310373	2524.750998
457.683526	2526.374250
458.056619	2527.768129
458.429653	2524.292253
458.802628	2526.800228
459.175542	2525.862573
459.548398	2526.853160
459.921194	2526.066740
460.293930	2526.303674
460.666607	2525.814682
461.039224	2527.884076
461.411782	2526.575896
461.784280	2527.059847
462.156719	2527.805938
462.529099	2526.795186
462.901419	2526.205371
463.273680	2528.302491
463.645882	2525.529857
464.018024	2528.922553
464.390106	2527.758047
464.762130	2525.305525
465.134094	2530.608819
465.505999	2526.172604
465.877845	2527.753006
466.249631	2529.139323
466.621358	2528.627646
466.993026	2529.361134
467.364634	2531.990095
467.736184	2528.753675
468.107674	2530.621422
468.479105	2525.650844
468.850477	2529.217461
469.221790	2528.796524
469.593043	2528.930115
469.964238	2528.662934
470.335373	2527.712676
470.706449	2528.000022
471.077467	2528.620084
471.448425	2527.884076
471.819324	2529.656041
472.190164	2528.839374
472.560945	2529.822399
472.931667	2528.569673
473.302330	2529.663603
473.672934	2529.235105
474.043479	2528.640249
474.413965	2528.559590
474.784393	2525.991122
475.154761	2525.466842
475.525070	2526.462470
475.895321	2527.200999
476.265513	2523.702438
476.635645	2529.532533
477.005719	2529.177132
477.375734	2531.380116
477.745691	2529.129241
478.115588	2530.790301
478.485427	2530.034128
478.855207	2529.804755
479.224928	2529.754344
479.594591	2529.615712
479.964194	2528.660413
480.333739	2534.094777
480.703226	2530.883562
481.072653	2527.561442
481.442022	2526.754857
481.811333	2529.593027
482.180584	2530.175280
482.549777	2530.770136
482.918912	2531.105373
483.287988	2528.373068
483.657005	2530.442461
484.025964	2532.171577
484.394864	2531.203675
484.763706	2530.336597
485.132489	2528.960362
485.501213	2530.850795
485.869879	2532.322812
486.238487	2528.844415
486.607036	2532.474046
486.975527	2530.961700
487.343959	2531.367513
487.712333	2532.927750
488.080648	2529.580424
488.448905	2532.151412
488.817104	2534.477905
489.185244	2531.601927
489.553326	2530.502955
489.921350	2530.906247
490.289315	2530.823068
490.657222	2530.429858
491.025070	2530.709642
491.392861	2531.644776
491.760593	2532.010260
492.128267	2533.862884
492.495883	2530.903727
492.863440	2529.686288
493.230939	2531.173428
493.598380	2534.651825
493.965763	2526.157480
494.333088	2527.372398
494.700354	2529.494724
495.067563	2528.955321
495.434713	2528.090763
495.801805	2531.985054
496.168839	2531.924560
496.535815	2534.331711
496.902733	2532.879859
497.269593	2533.567977
497.636395	2532.534540
498.003139	2532.259797
498.369825	2532.879859
498.736453	2533.207534
499.103023	2533.013450
499.469535	2533.084026
499.835989	2532.758871
500.202385	2530.944056
500.568723	2533.527647
500.935003	2533.245343
501.301226	2531.170908
501.667390	2532.133768
502.033497	2536.764068
502.399546	2534.424973
502.765537	2531.077647
503.131470	2531.380116
503.497345	2532.587472
503.863163	2534.485467
504.228923	2530.573531
504.594625	2533.199972
504.960269	2532.940353
505.325856	2530.356762
505.691385	2533.615868
506.056856	2531.879190
506.422270	2533.036135
506.787625	2533.499921
507.152924	2529.527492
507.518164	2532.748789
507.883347	2533.270548
508.248472	2533.676361
508.613540	2534.329191
508.978550	2532.007739
509.343503	2532.020342
509.708398	2533.439427
510.073236	2532.791639
510.438016	2535.733152
510.802738	2535.748276
511.167403	2534.485467
511.532010	2536.474202
511.896561	2532.670651
512.261053	2532.615198
512.625488	2531.342307
512.989866	2531.735517
513.354186	2531.818696
513.718449	2531.932122
514.082655	2533.686444
514.446803	2533.878007
514.810894	2534.858512
515.174927	2534.543440
515.538904	2533.058820
515.902822	2535.718029
516.266684	2534.193080
516.630488	2534.845909
516.994235	2534.503111
517.357925	2533.308357
517.721558	2535.007226
518.085133	2534.840868
518.448651	2533.474715
518.812112	2534.298944
519.175516	2533.184849
519.538863	2535.755837
519.902152	2533.333563
520.265385	2533.391536
520.628560	2535.100487
520.991678	2533.610826
521.354739	2535.322298
521.717743	2533.346166
522.080690	2536.350693
522.443580	2534.659386
522.806413	2532.985723
523.169189	2534.480425
523.531908	2536.277597
523.894569	2536.675848
524.257174	2535.395395
524.619722	2533.575538
524.982213	2536.663245
525.344647	2533.217616
525.707025	2535.322298
526.069345	2533.799870
526.431608	2534.545960
526.793815	2533.242822
527.155964	2533.237781
527.518057	2533.807431
527.880093	2533.711649
528.242072	2532.867256
528.603995	2532.171577
528.965860	2534.707277
529.327669	2533.799870
529.689421	2533.623429
530.051117	2535.566794
530.412755	2533.686444
530.774337	2533.757020
531.135862	2531.480939
531.497331	2532.882380
531.858743	2530.835671
532.220098	2530.898686
532.581396	2532.020342
532.942638	2533.535209
533.303824	2534.107380
533.664953	2534.709798
534.026025	2532.731145
534.387040	2537.104346
534.747999	2532.123686
535.108902	2537.457227
535.469748	2533.303316
535.830537	2537.958822
536.191270	2534.619057
536.551947	2536.630478
536.912567	2533.570497
537.273131	2535.014788
537.633638	2533.865405
537.994089	2534.840868
538.354483	2532.834489
538.714821	2535.854140
539.075103	2538.394881
539.435328	2533.963707
539.795497	2535.355066
540.155609	2535.884387
540.515665	2535.816331
540.875665	2535.803728
541.235609	2535.108049
541.595496	2535.965045
541.955328	2535.597041
542.315102	2535.536547
542.674821	2534.641742
543.034483	2536.968235
543.394090	2535.705426
543.753640	2535.496218
544.113134	2535.241640
544.472571	2537.384130
544.831953	2536.433873
545.191278	2537.280786
545.550548	2533.540250
545.909761	2536.728780
546.268918	2535.556712
546.628019	2535.138296
546.987064	2534.500590
547.346053	2535.836496
547.704986	2538.236085
548.063863	2533.411701
548.422684	2535.072761
548.781449	2536.890097
549.140158	2534.263656
549.498811	2537.598379
549.857408	2535.725590
550.215949	2532.907585
550.574434	2531.054961
550.932864	2535.014788
551.291237	2529.411545
551.649555	2535.370189
552.007817	2536.408667
552.366022	2531.435568
552.724173	2536.184335
553.082267	2537.295910
553.440305	2534.871115
553.798288	2534.326670
554.156215	2537.394212
554.514086	2537.812628
554.871902	2536.209541
555.229661	2534.084695
555.587365	2533.525127
555.945014	2538.079809
556.302606	2536.131403
556.660143	2537.167360
557.017625	2535.760878
557.375050	2533.870446
557.732421	2535.866743
558.089735	2536.824562
558.446994	2536.290200
558.804197	2536.118800
559.161345	2535.808769
559.518437	2538.004192
559.875474	2533.883049
560.232455	2534.921526
560.589381	2536.282638
560.946251	2539.466127
561.303065	2534.291382
561.659825	2535.460930
562.016528	2536.716177
562.373177	2534.619057
562.729770	2537.064017
563.086307	2536.479243
563.442789	2537.699202
563.799216	2533.779705
564.155587	2533.850281
564.511904	2536.509490
564.868164	2537.076620
565.224370	2535.854140
565.580520	2534.833306
565.936615	2535.544109
566.292654	2536.542257
566.648638	2537.258101
567.004567	2536.060827
567.360441	2534.455220
567.716260	2535.934798
568.072023	2534.470343
568.427732	2531.463295
568.783385	2534.770292
569.138982	2531.808614
569.494525	2533.759540
569.850013	2532.083357
570.205445	2537.328677
570.560823	2534.979500
570.916145	2535.347504
571.271412	2535.609644
571.626625	2537.608461
571.981782	2536.171733
572.336884	2535.549150
572.691931	2536.501928
573.046923	2535.980169
573.401860	2535.496218
573.756743	2538.185673
574.111570	2537.588297
574.466342	2534.551002
574.821059	2535.778522
575.175722	2537.621064
575.530330	2536.282638
575.884882	2537.033770
576.239380	2536.111239
576.593823	2535.216434
576.948211	2534.298944
577.302544	2537.588297
577.656823	2536.285158
578.011047	2536.733821
578.365216	2534.863553
578.719330	2537.064017
579.073389	2536.658204
579.427394	2537.290869
579.781344	2535.516383
580.135239	2536.385982
580.489080	2537.235416
580.842866	2538.629295
581.196597	2542.296734
581.550273	2539.798843
581.903895	2535.402957
582.257463	2537.709284
582.610975	2536.640560
582.964434	2534.372041
583.317837	2537.437062
583.671186	2538.674665
584.024481	2537.149716
584.377721	2535.254243
584.730906	2537.865560
585.084037	2533.255425
585.437113	2535.453368
585.790135	2538.916641
586.143103	2538.833462
586.496016	2536.217103
586.848874	2531.254087
587.201679	2533.026052
587.554428	2532.216947
587.907124	2535.896990
588.259765	2530.341638
588.612352	2535.647452
588.964884	2538.198276
589.317362	2538.278935
589.669786	2538.760365
590.022155	2537.888245
590.374470	2539.025026
590.726731	2533.918337
591.078937	2539.970242
591.431090	2534.321629
591.783188	2537.978986
592.135232	2537.792463
592.487222	2536.433872
592.839157	2535.763399
593.191038	2535.602082
593.542866	2537.618544
593.894639	2537.048893
594.246358	2536.801877
594.598022	2537.414377
594.949633	2534.692154
595.301190	2537.991589
595.652692	2537.540406
596.004141	2535.395395
596.355535	2538.722556
596.706876	2532.809283
597.058162	2537.003523
597.409395	2535.617206
597.760573	2536.005374
598.111698	2536.597710
598.462768	2539.241795
598.813785	2536.532175
599.164748	2534.803059
599.515657	2535.511341
599.866511	2535.347504
600.217312	2538.397402
600.568060	2537.275745
600.918753	2538.198276
601.269392	2537.968904
601.619978	2539.430838
601.970510	2537.555529
602.320988	2534.447658
602.671412	2534.049407
603.021783	2535.660055
603.372100	2536.234747
603.722363	2534.936650
604.072572	2534.964376
604.422728	2540.940664
604.772830	2532.716022
605.122878	2533.789787
605.472872	2534.056968
605.822813	2529.739220
606.172701	2536.169212
606.522534	2535.113090
606.872314	2537.873122
607.222041	2538.367155
607.571714	2538.346990
607.921333	2536.960673
608.270899	2537.026208
608.620411	2538.173071
608.969870	2537.822710
609.319276	2537.069058
609.668627	2541.888401
610.017926	2541.122146
610.367171	2543.093237
610.716362	2543.085675
611.065500	2544.661036
611.414585	2541.018802
611.763616	2541.401930
612.112594	2538.727597
612.461518	2541.611137
612.810389	2537.278266
613.159207	2537.845396
613.507971	2538.495704
613.856682	2539.037628
614.205340	2537.593338
614.553945	2537.961342
614.902496	2536.108718
615.250994	2535.995292
615.599439	2535.024870
615.947830	2538.266332
616.296169	2537.467309
616.644454	2535.614685
616.992686	2533.439427
617.340864	2535.982689
617.688990	2533.520086
618.037063	2538.629295
618.385082	2538.566281
618.733048	2537.323636
619.080961	2534.704757
619.428821	2538.709953
619.776628	2534.359438
620.124382	2535.319778
620.472083	2535.997813
620.819731	2536.940508
621.167326	2538.825900
621.514868	2537.369007
621.862357	2535.932278
622.209793	2538.830941
622.557176	2540.923020
622.904506	2536.421270
623.251783	2530.923891
623.599007	2535.433203
623.946179	2534.782895
624.293297	2532.721063
624.640363	2533.429345
624.987376	2538.490663
625.334336	2535.970086
625.681243	2533.036135
626.028097	2535.445806
626.374899	2536.247350
626.721647	2537.109387
627.068343	2536.650642
627.414987	2539.561908
627.761577	2537.500077
628.108115	2536.577545
628.454600	2537.263142
628.801032	2537.689120
629.147412	2534.949253
629.493739	2535.856660
629.840014	2535.372710
630.186236	2537.706764
630.532405	2537.384130
630.878521	2538.102494
631.224585	2537.958822
631.570597	2535.024870
631.916556	2536.620395
632.262462	2537.658873
632.608316	2537.487474
632.954117	2537.457227
633.299866	2535.660055
633.645562	2534.798018
633.991206	2536.784233
634.336797	2534.798018
634.682336	2538.962011
635.027823	2533.429345
635.373257	2536.307844
635.718639	2535.481094
636.063968	2537.177443
636.409245	2536.272556
636.754470	2536.501928
637.099642	2537.389171
637.444762	2537.532844
637.789829	2536.955632
638.134845	2535.377751
638.479808	2537.921013
638.824719	2537.651311
639.169577	2539.395550
639.514383	2534.213244
639.859137	2534.891279
640.203839	2538.243647
640.548489	2536.930426
640.893086	2533.071423
641.237632	2531.478418
641.582125	2533.147040
641.926566	2531.259128
642.270955	2535.473533
642.615292	2535.138296
642.959576	2537.341280
643.303809	2535.506300
643.647990	2536.418749
643.992118	2535.458409
644.336195	2532.506814
