Dividing Wavelength (nm)	Counts (n)	Blue Motor Position (mm): 0.000000	Red Motor Position (mm): 26.000000	
326.493990	2082.130129
326.888308	2082.130129
327.282561	2082.130129
327.676750	2055.759853
328.070874	2060.770760
328.464933	2068.335012
328.858929	2075.621999
329.252859	2089.364185
329.646726	2104.666607
330.040528	2116.737650
330.434265	2138.296145
330.827938	2157.843219
331.221547	2176.467762
331.615091	2196.962573
332.008571	2217.767414
332.401986	2239.401526
332.795338	2261.282654
333.188625	2275.576846
333.581847	2297.899075
333.975006	2315.684266
334.368100	2335.317040
334.761129	2349.102075
335.154095	2365.274097
335.546996	2386.635986
335.939833	2409.142217
336.332606	2427.018149
336.725315	2435.094077
337.117960	2445.282249
337.510540	2451.886161
337.903056	2465.623305
338.295508	2470.351907
338.687896	2477.384317
339.080220	2485.714824
339.472480	2489.485607
339.864676	2491.300422
340.256807	2492.485093
340.648875	2497.165805
341.040879	2498.158912
341.432818	2497.871566
341.824694	2500.838285
342.216506	2498.572287
342.608253	2499.472133
342.999937	2500.555981
343.391557	2497.891731
343.783113	2497.054899
344.174605	2496.727224
344.566033	2492.225474
344.957397	2490.002325
345.348697	2489.707418
345.739934	2489.442757
346.131106	2485.883702
346.522215	2486.599546
346.913260	2481.886067
347.304241	2482.329689
347.695159	2478.228710
348.086012	2477.442290
348.476802	2477.270891
348.867528	2474.833493
349.258191	2474.871302
349.648789	2476.857516
350.039324	2470.510704
350.429796	2475.249388
350.820203	2472.963225
351.210548	2472.708647
351.600828	2471.934830
351.991045	2472.499439
352.381198	2471.952474
352.771288	2473.056486
353.161314	2471.823924
353.551276	2469.928450
353.941175	2473.419449
354.331010	2472.222175
354.720782	2470.331743
355.110490	2473.500108
355.500135	2473.568163
355.889717	2472.081023
356.279235	2472.673359
356.668689	2475.360294
357.058080	2474.457927
357.447408	2471.271918
357.836672	2469.570528
358.225873	2474.687300
358.615010	2472.633029
359.004084	2478.170737
359.393095	2479.156283
359.782043	2479.930100
360.170927	2481.021509
360.559748	2484.018475
360.948505	2483.993270
361.337199	2482.659884
361.725830	2480.882878
362.114398	2484.358753
362.502903	2486.221460
362.891344	2487.194402
363.279722	2485.540904
363.668037	2488.953765
364.056289	2488.827736
364.444478	2488.106851
364.832603	2488.222798
365.220665	2490.382932
365.608665	2492.162459
365.996601	2492.159939
366.384474	2493.266472
366.772284	2490.801348
367.160031	2493.717655
367.547715	2495.083808
367.935336	2496.306288
368.322893	2494.894765
368.710388	2499.124293
369.097820	2501.886845
369.485189	2496.656648
369.872495	2501.985148
370.259738	2500.205620
370.646918	2506.081085
371.034035	2506.413801
371.421090	2508.931858
371.808081	2510.159379
372.195010	2513.181550
372.581875	2521.312932
372.968678	2525.411390
373.355418	2534.152750
373.742096	2542.382434
374.128710	2550.594474
374.515262	2557.589075
374.901751	2575.202866
375.288177	2589.423961
375.674540	2604.769233
376.060841	2625.006946
376.447079	2645.345481
376.833254	2668.219716
377.219367	2689.251410
377.605417	2721.991184
377.991404	2746.695358
378.377329	2784.438477
378.763191	2814.574495
379.148991	2858.538397
379.534727	2907.170409
379.920402	2949.805967
380.306013	2994.510920
380.691563	3055.082904
381.077049	3108.294803
381.462474	3160.972340
381.847835	3227.855849
382.233134	3295.364461
382.618371	3351.966536
383.003545	3433.136675
383.388657	3510.430166
383.773706	3596.447374
384.158693	3664.550842
384.543618	3754.497629
384.928480	3827.052436
385.313280	3924.928959
385.698017	4025.462169
386.082692	4138.454592
386.467305	4200.470866
386.851856	4317.773475
387.236344	4464.287050
387.620770	4525.872306
388.005133	4636.676867
388.389435	4775.583341
388.773674	4855.888922
389.157851	4986.865660
389.541965	5112.163539
389.926018	5138.743023
390.310008	5306.734434
390.693936	5422.328091
391.077802	5532.237848
391.461606	5663.494371
391.845348	5769.998828
392.229027	5886.157095
392.612645	6102.886381
392.996200	6215.611622
393.379694	6384.704525
393.763125	6598.711588
394.146494	6688.938160
394.529801	6819.864487
394.913047	7048.735392
395.296230	7054.651186
395.679351	7106.350739
396.062410	7355.078750
396.445408	7258.802793
396.828343	7406.614465
397.211217	7541.004065
397.594028	7427.978875
397.976778	7628.705019
398.359466	7791.491438
398.742092	7769.060824
399.124656	7915.607166
399.507158	8105.003316
399.889598	8129.029456
400.271977	8332.989499
400.654294	8360.990588
401.036549	8565.822751
401.418742	8594.723686
401.800874	8881.835042
402.182944	8969.006674
402.564952	9321.262340
402.946898	9162.576899
403.328783	9212.703613
403.710606	9404.401049
404.092367	9657.658536
404.474067	10015.439307
404.855705	9821.690121
405.237282	9770.787070
405.618797	10193.321462
406.000250	10437.245252
406.381642	10791.686259
406.762972	10738.749102
407.144240	10560.075486
407.525447	10811.223250
407.906593	10753.186967
408.287677	11011.115083
408.668700	11158.210911
409.049661	11148.650362
409.430560	11311.938377
409.811399	11282.059458
410.192176	11448.104983
410.572891	11518.585355
410.953545	11996.148983
411.334138	11495.141469
411.714669	12057.378837
412.095139	11414.830847
412.475547	11890.080585
412.855894	11755.564956
413.236180	12077.235942
413.616405	11772.777976
413.996568	12043.397197
414.376670	12021.306861
414.756711	11908.773183
415.136691	12183.632015
415.516609	12354.287675
415.896466	12438.328751
416.276262	12730.808935
416.655997	13181.818285
417.035670	13232.670924
417.415283	13842.721116
417.794834	13931.528603
418.174324	13683.231611
418.553753	13591.928753
418.933121	14075.637547
419.312428	13910.554882
419.691674	13813.696673
420.070859	14276.189770
420.449983	13940.446404
420.829045	14485.342202
421.208047	14250.555503
421.586988	14691.699314
421.965867	14939.308188
422.344686	14945.990238
422.723444	15514.042577
423.102141	14219.002921
423.480777	15395.593105
423.859352	14898.331169
424.237866	16003.427710
424.616319	15719.386417
424.994712	16360.510281
425.373044	16159.083417
425.751314	16844.773602
426.129524	15981.178577
426.507673	17053.691620
426.885762	16777.998478
427.263789	16956.694779
427.641756	17146.524468
428.019662	17206.055454
428.397508	17246.609016
428.775292	17539.205147
429.153016	17512.124068
429.530679	17591.156758
429.908282	17621.499463
430.285824	17363.770472
430.663305	18068.112926
431.040726	17681.937856
431.418086	17528.596038
431.795385	18155.823962
432.172624	18590.086598
432.549802	18150.883631
432.926920	18359.826855
433.303977	18235.297752
433.680974	18502.662908
434.057910	18807.405699
434.434786	18841.418364
434.811601	18767.777189
435.188355	19803.855292
435.565050	19471.484457
435.941683	19432.523900
436.318257	20331.273410
436.694770	20123.759353
437.071222	20723.366795
437.447614	19791.680905
437.823946	19822.381532
438.200218	20008.180819
438.576429	19781.933834
438.952580	20079.518187
439.328670	20037.820283
439.704700	20467.679472
440.080670	20032.814417
440.456580	20650.365846
440.832429	20803.805966
441.208218	19818.633434
441.583947	20263.782443
441.959616	20379.512211
442.335224	20617.870568
442.710773	20756.076321
443.086261	21299.691667
443.461689	20638.246912
443.837057	20796.723145
444.212365	21448.783792
444.587612	21442.671393
444.962800	21040.541071
445.337927	21456.607663
445.712995	20175.411016
446.088002	22052.545144
446.462949	22251.080906
446.837837	22434.962034
447.212664	22429.124378
447.587431	25364.179929
447.962139	28296.977043
448.336786	30569.791337
448.711374	28898.979032
449.085901	25178.831825
449.460369	25173.997359
449.834776	25157.754761
450.209124	27656.435432
450.583412	27119.575233
450.957640	27573.906703
451.331808	26219.683901
451.705917	24825.056251
452.079965	24838.667367
452.453954	25187.122003
452.827883	25072.292080
453.201752	24831.395502
453.575562	24947.420178
453.949311	26007.161458
454.323001	26023.512440
454.696632	25761.725321
455.070202	27245.571312
455.443713	27366.246452
455.817164	27859.951854
456.190556	28323.788420
456.563888	27689.182768
456.937160	28016.981276
457.310373	26324.789438
457.683526	26659.380901
458.056619	26562.331128
458.429653	26459.108462
458.802628	26939.643849
459.175542	26951.155324
459.548398	28127.185940
459.921194	29532.911690
460.293930	30060.173533
460.666607	31842.919617
461.039224	33340.853112
461.411782	33509.454502
461.784280	32205.184494
462.156719	31545.960368
462.529099	30890.421324
462.901419	29552.647807
463.273680	28450.356669
463.645882	28421.932123
464.018024	28251.576411
464.390106	28895.349402
464.762130	31220.858877
465.134094	34729.464145
465.505999	39247.772199
465.877845	43057.271338
466.249631	43742.666615
466.621358	41817.689416
466.993026	39602.135068
467.364634	37489.770618
467.736184	35568.123102
468.107674	34242.629836
468.479105	33334.133254
468.850477	32490.100427
469.221790	31063.952963
469.593043	29431.629868
469.964238	28452.869684
470.335373	28172.493310
470.706449	29350.734473
471.077467	31189.555832
471.448425	34507.648334
471.819324	36393.891828
472.190164	34551.045107
472.560945	31499.725425
472.931667	28867.973416
473.302330	27763.670857
473.672934	26901.991471
474.043479	26997.450760
474.413965	26181.063621
474.784393	25660.211606
475.154761	26018.806523
475.525070	25769.919717
475.895321	25181.770818
476.265513	25318.446581
476.635645	25694.899786
477.005719	25313.140767
477.375734	25339.861403
477.745691	25503.908110
478.115588	26058.301443
478.485427	27078.830107
478.855207	28936.959085
479.224928	30287.479160
479.594591	30931.292479
479.964194	29841.700007
480.333739	29546.391736
480.703226	29205.423213
481.072653	29217.922754
481.442022	29145.975406
481.811333	28883.290962
482.180584	27703.189614
482.549777	27015.576229
482.918912	26354.993511
483.287988	25805.147300
483.657005	24990.590099
484.025964	24278.685915
484.394864	23917.575462
484.763706	23330.971677
485.132489	22542.545298
485.501213	22120.613324
485.869879	21858.979960
486.238487	21343.113646
486.607036	21093.117785
486.975527	20516.145125
487.343959	20309.425049
487.712333	20002.307875
488.080648	19648.265120
488.448905	19514.309059
488.817104	19109.053222
489.185244	19200.056131
489.553326	19592.653631
489.921350	20392.946886
490.289315	21300.026904
490.657222	21178.772030
491.025070	20921.078328
491.392861	20151.934362
491.760593	19256.290202
492.128267	18250.960617
492.495883	17350.061054
492.863440	16536.996036
493.230939	15784.813032
493.598380	15161.212219
493.965763	14780.532007
494.333088	14263.763326
494.700354	13869.633316
495.067563	13525.065409
495.434713	13232.847365
495.801805	12994.572187
496.168839	12646.616625
496.535815	12316.158908
496.902733	12082.917323
497.269593	11755.073444
497.636395	11501.921821
498.003139	11369.326872
498.369825	11024.824501
498.736453	10876.198682
499.103023	10563.475745
499.469535	10328.321041
499.835989	10142.289861
500.202385	9873.558553
500.568723	9676.409108
500.935003	9514.457000
501.301226	9285.044170
501.667390	9201.517292
502.033497	9054.134118
502.399546	8775.028115
502.765537	8476.059966
503.131470	8355.588992
503.497345	8234.820590
503.863163	7872.722071
504.228923	7784.022969
504.594625	7676.764859
504.960269	7420.086949
505.325856	7351.010538
505.691385	7121.522092
506.056856	6984.987481
506.422270	6889.465177
506.787625	6699.406116
507.152924	6581.879176
507.518164	6454.458971
507.883347	6240.401496
508.248472	6140.074973
508.613540	6052.706736
508.978550	5954.371468
509.343503	5813.524150
509.708398	5716.008070
510.073236	5642.790352
510.438016	5533.883785
510.802738	5386.210745
511.167403	5323.602134
511.532010	5240.140791
511.896561	5156.195497
512.261053	5116.564467
512.625488	4992.224407
512.989866	4893.679932
513.354186	4801.540242
513.718449	4716.533785
514.082655	4675.627342
514.446803	4583.676696
514.810894	4533.328172
515.174927	4460.556596
515.538904	4385.884505
515.902822	4349.308413
516.266684	4265.569806
516.630488	4221.636151
516.994235	4159.708096
517.357925	4127.031337
517.721558	4078.016198
518.085133	4034.901730
518.448651	3992.702231
518.812112	3936.188376
519.175516	3894.253537
519.538863	3861.801110
519.902152	3825.255265
520.265385	3799.081594
520.628560	3758.863269
520.991678	3717.924058
521.354739	3691.064791
521.717743	3668.498065
522.080690	3634.745020
522.443580	3619.891260
522.806413	3591.585181
523.169189	3566.283630
523.531908	3545.118346
523.894569	3522.055067
524.257174	3498.908609
524.619722	3485.536948
524.982213	3463.577682
525.344647	3445.868109
525.707025	3426.913370
526.069345	3418.726536
526.431608	3398.198958
526.793815	3387.705796
527.155964	3362.368957
527.518057	3351.260774
527.880093	3336.807786
528.242072	3329.223370
528.603995	3311.954898
528.965860	3300.977785
529.327669	3289.700724
529.689421	3277.100360
530.051117	3265.604009
530.412755	3258.564037
530.774337	3247.818818
531.135862	3234.502610
531.497331	3229.622773
531.858743	3215.784806
532.220098	3211.053683
532.581396	3198.228988
532.942638	3184.093592
533.303824	3186.596525
533.664953	3177.298117
534.026025	3166.046262
534.387040	3165.567352
534.747999	3157.498985
535.108902	3152.246103
535.469748	3137.251191
535.830537	3131.935294
536.191270	3131.952938
536.551947	3119.939868
536.912567	3114.951647
537.273131	3112.720936
537.633638	3102.391612
537.994089	3099.361878
538.354483	3090.149170
538.714821	3090.370981
539.075103	3089.332503
539.435328	3081.410330
539.795497	3075.297931
540.155609	3072.036304
540.515665	3070.559246
540.875665	3058.586506
541.235609	3057.835374
541.595496	3054.430074
541.955328	3060.413924
542.315102	3048.499157
542.674821	3041.118908
543.034483	3040.075389
543.394090	3032.375026
543.753640	3029.451157
544.113134	3036.143289
544.472571	3022.640558
544.831953	3031.376878
545.191278	3021.460928
545.550548	3012.517921
545.909761	3015.736698
546.268918	3013.821059
546.628019	3014.546986
546.987064	3008.043897
547.346053	2995.713235
547.704986	3006.100532
548.063863	2996.396311
548.422684	2998.480828
548.781449	2993.396825
549.140158	2992.197030
549.498811	2991.292143
549.857408	2980.867037
550.215949	2985.482213
550.574434	2981.144300
550.932864	2976.445945
551.291237	2976.113229
551.649555	2978.139773
552.007817	2977.471820
552.366022	2974.966366
552.724173	2969.950418
553.082267	2976.582056
553.440305	2974.850420
553.798288	2966.303143
554.156215	2965.496559
554.514086	2969.504276
554.871902	2960.397432
555.229661	2962.207206
555.587365	2960.480611
555.945014	2960.193265
556.302606	2956.989612
556.660143	2957.478603
557.017625	2958.512040
557.375050	2954.166565
557.732421	2956.246041
558.089735	2953.783438
558.446994	2948.727160
558.804197	2955.648665
559.161345	2954.411061
559.518437	2944.658949
559.875474	2944.379165
560.232455	2947.847479
560.589381	2946.355298
560.946251	2944.631223
561.303065	2944.265739
561.659825	2946.814043
562.016528	2943.691048
562.373177	2937.119904
562.729770	2941.530913
563.086307	2939.610234
563.442789	2939.784153
563.799216	2938.506221
564.155587	2937.258535
564.511904	2938.627209
564.868164	2934.745520
565.224370	2939.713577
565.580520	2934.296858
565.936615	2934.969852
566.292654	2935.801642
566.648638	2934.982454
567.004567	2932.940787
567.360441	2930.357196
567.716260	2930.299223
568.072023	2932.676127
568.427732	2926.316711
568.783385	2925.769746
569.138982	2927.234201
569.494525	2925.694128
569.850013	2922.228335
570.205445	2924.643048
570.560823	2921.237748
570.916145	2923.332348
571.271412	2920.781524
571.626625	2921.787234
571.981782	2919.435536
572.336884	2919.909404
572.691931	2918.747418
573.046923	2913.323137
573.401860	2910.242992
573.756743	2910.547982
574.111570	2913.600400
574.466342	2909.290214
574.821059	2908.254257
575.175722	2904.853998
575.530330	2903.240829
575.884882	2903.011457
576.239380	2900.889131
576.593823	2902.401477
576.948211	2903.137486
577.302544	2896.866290
577.656823	2892.500651
578.011047	2898.295457
578.365216	2893.385373
578.719330	2892.230949
579.073389	2892.014180
579.427394	2887.769528
579.781344	2886.751215
580.135239	2886.529404
580.489080	2886.640310
580.842866	2884.364229
581.196597	2884.041595
581.550273	2884.071842
581.903895	2881.337016
582.257463	2884.175185
582.610975	2880.258209
582.964434	2880.797612
583.317837	2882.269629
583.671186	2875.232178
584.024481	2878.002293
584.377721	2873.465254
584.730906	2874.173536
585.084037	2874.178577
585.437113	2872.666231
585.790135	2871.322764
586.143103	2867.037783
586.496016	2868.595499
586.848874	2866.732793
587.201679	2867.458719
587.554428	2861.661392
587.907124	2863.007380
588.259765	2856.373222
588.612352	2867.204141
588.964884	2860.317925
589.317362	2858.583768
589.669786	2857.570496
590.022155	2856.955475
590.374470	2862.949407
590.726731	2856.272399
591.078937	2853.726616
591.431090	2854.145032
591.783188	2849.897860
592.135232	2848.773682
592.487222	2848.398117
592.839157	2849.575226
593.191038	2847.926769
593.542866	2845.073476
593.894639	2837.854543
594.246358	2843.777899
594.598022	2844.347549
594.949633	2839.820593
595.301190	2835.278514
595.652692	2835.296158
596.004141	2838.502332
596.355535	2829.299705
596.706876	2826.128819
597.058162	2827.147132
597.409395	2829.871876
597.760573	2828.283913
598.111698	2827.300888
598.462768	2825.407934
598.813785	2827.353820
599.164748	2824.213181
599.515657	2825.912050
599.866511	2820.775114
600.217312	2825.924653
600.568060	2816.764876
600.918753	2822.204281
601.269392	2819.489620
601.619978	2816.618683
601.970510	2819.557675
602.320988	2821.785865
602.671412	2823.837615
603.021783	2820.959116
603.372100	2816.026347
603.722363	2814.846717
604.072572	2815.917962
604.422728	2819.353509
604.772830	2811.201963
605.122878	2809.961839
605.472872	2813.430153
605.822813	2809.256077
606.172701	2811.978301
606.522534	2814.256902
606.872314	2816.459886
607.222041	2814.808908
607.571714	2817.148004
607.921333	2810.319761
608.270899	2811.237251
608.620411	2814.705565
608.969870	2811.711119
609.319276	2813.750266
609.668627	2808.915800
610.017926	2811.958136
610.367171	2813.604073
610.716362	2810.564257
611.065500	2812.855461
611.414585	2809.780357
611.763616	2812.651295
612.112594	2811.612817
612.461518	2811.688434
612.810389	2815.376038
613.159207	2812.973928
613.507971	2811.335553
613.856682	2814.627427
614.205340	2815.313024
614.553945	2816.870740
614.902496	2807.950419
615.250994	2815.426450
615.599439	2812.404278
615.947830	2814.503919
616.296169	2815.078610
616.644454	2814.355205
616.992686	2814.544248
617.340864	2818.320072
617.688990	2814.314875
618.037063	2817.526090
618.385082	2812.464772
618.733048	2821.337203
619.080961	2813.047025
619.428821	2814.637509
619.776628	2814.675318
620.124382	2812.285811
620.472083	2814.090544
620.819731	2812.207673
621.167326	2811.602735
621.514868	2809.356901
621.862357	2807.927733
622.209793	2804.429173
622.557176	2805.172743
622.904506	2797.469860
623.251783	2794.099848
623.599007	2794.009108
623.946179	2790.823098
624.293297	2787.405196
624.640363	2785.676080
624.987376	2787.092645
625.334336	2786.235648
625.681243	2780.188784
626.028097	2780.224072
626.374899	2778.522683
626.721647	2780.208949
627.068343	2776.198711
627.414987	2775.213166
627.761577	2774.535130
628.108115	2773.161416
628.454600	2766.839809
628.801032	2771.860798
629.147412	2771.328957
629.493739	2767.971548
629.840014	2768.415170
630.186236	2767.704367
630.532405	2765.685385
630.878521	2763.273193
631.224585	2764.369644
631.570597	2758.627769
631.916556	2762.476690
632.262462	2760.888727
632.608316	2759.704056
632.954117	2756.780187
633.299866	2756.364291
633.645562	2757.261617
633.991206	2754.859507
634.336797	2749.515884
634.682336	2752.089393
635.027823	2746.705441
635.373257	2745.445152
635.718639	2742.985069
636.063968	2742.009606
636.409245	2738.407701
636.754470	2737.243195
637.099642	2738.432907
637.444762	2736.764285
637.789829	2734.024418
638.134845	2731.037534
638.479808	2728.363202
638.824719	2731.314798
639.169577	2726.835733
639.514383	2727.526371
639.859137	2725.199878
640.203839	2727.276834
640.548489	2720.816595
