Dividing Wavelength (nm)	Counts (n)	Blue Motor Position (mm): 0.000000	Red Motor Position (mm): 39.400000	
326.493990	2130.149640
326.888308	2130.149640
327.282561	2130.149640
327.676750	2095.892479
328.070874	2096.802407
328.464933	2097.417428
328.858929	2103.136617
329.252859	2113.465941
329.646726	2124.362395
330.040528	2139.879067
330.434265	2155.322642
330.827938	2172.666732
331.221547	2191.114834
331.615091	2211.002186
332.008571	2225.987016
332.401986	2247.416961
332.795338	2268.156268
333.188625	2285.719648
333.581847	2307.734367
333.975006	2324.387818
334.368100	2341.379027
334.761129	2360.888293
335.154095	2376.331868
335.546996	2397.971020
335.939833	2415.075655
336.332606	2431.991247
336.725315	2444.137907
337.117960	2452.551593
337.510540	2463.042234
337.903056	2473.127063
338.295508	2479.355408
338.687896	2487.937973
339.080220	2497.095228
339.472480	2504.208297
339.864676	2508.541168
340.256807	2512.652229
340.648875	2514.885460
341.040879	2521.078518
341.432818	2521.068436
341.824694	2524.922398
342.216506	2524.856863
342.608253	2522.868127
342.999937	2523.284023
343.391557	2525.527336
343.783113	2522.059022
344.174605	2521.746471
344.566033	2520.017355
344.957397	2518.172293
345.348697	2516.992663
345.739934	2512.253978
346.131106	2514.530059
346.522215	2511.293638
346.913260	2509.234327
347.304241	2509.136024
347.695159	2503.409274
348.086012	2505.110663
348.476802	2501.657473
348.867528	2502.746362
349.258191	2497.841319
349.648789	2499.983810
350.039324	2494.930053
350.429796	2497.725373
350.820203	2493.901658
351.210548	2496.328973
351.600828	2491.444095
351.991045	2492.603560
352.381198	2491.955772
352.771288	2492.739672
353.161314	2490.763539
353.551276	2492.296050
353.941175	2491.071050
354.331010	2492.734630
354.720782	2493.256390
355.110490	2492.359064
355.500135	2489.372181
355.889717	2491.741523
356.279235	2489.483086
356.668689	2494.428458
357.058080	2494.133551
357.447408	2492.626246
357.836672	2488.605925
358.225873	2491.247490
358.615010	2487.504433
359.004084	2493.485762
359.393095	2493.846205
359.782043	2495.434168
360.170927	2494.206647
360.559748	2498.736124
360.948505	2498.942811
361.337199	2499.056237
361.725830	2500.084633
362.114398	2499.714108
362.502903	2498.652945
362.891344	2499.625888
363.279722	2502.516989
363.668037	2503.121928
364.056289	2502.998420
364.444478	2502.103615
364.832603	2503.036228
365.220665	2505.282062
365.608665	2505.052690
365.996601	2508.490757
366.384474	2508.064779
366.772284	2511.913700
367.160031	2510.131652
367.547715	2510.963443
367.935336	2513.184071
368.322893	2519.019207
368.710388	2518.691532
369.097820	2527.604292
369.485189	2531.163346
369.872495	2536.890097
370.259738	2541.565767
370.646918	2549.109854
371.034035	2557.669733
371.421090	2569.254305
371.808081	2580.909452
372.195010	2588.519074
372.581875	2600.539705
372.968678	2612.588063
373.355418	2622.327572
373.742096	2643.586118
374.128710	2657.847542
374.515262	2668.736435
374.901751	2688.492717
375.288177	2699.058975
375.674540	2720.224259
376.060841	2739.887280
376.447079	2761.992740
376.833254	2780.554268
377.219367	2795.647483
377.605417	2833.756085
377.991404	2838.774554
378.377329	2861.913450
378.763191	2879.776779
379.148991	2917.915628
379.534727	2942.990327
379.920402	2971.424956
380.306013	2985.255361
380.691563	3034.721683
381.077049	3057.792524
381.462474	3070.183680
381.847835	3111.901749
382.233134	3134.781025
382.618371	3135.239770
383.003545	3201.788042
383.388657	3207.555122
383.773706	3241.960997
384.158693	3256.860128
384.543618	3285.274591
384.928480	3319.342709
385.313280	3365.194524
385.698017	3365.403732
386.082692	3419.810384
386.467305	3423.059408
386.851856	3456.078966
387.236344	3479.827842
387.620770	3511.037625
388.005133	3535.618291
388.389435	3565.643403
388.773674	3578.140424
389.157851	3616.914459
389.541965	3632.259731
389.926018	3597.533743
390.310008	3670.146523
390.693936	3686.565561
391.077802	3728.170203
391.461606	3717.460272
391.845348	3782.473513
392.229027	3781.162813
392.612645	3790.194040
392.996200	3872.513562
393.379694	3908.739293
393.763125	3975.030466
394.146494	3942.933440
394.529801	4003.505424
394.913047	4049.405129
395.296230	4018.545706
395.679351	4074.888162
396.062410	4097.585957
396.445408	4077.486877
396.828343	4114.478864
397.211217	4132.213643
397.594028	4054.516859
397.976778	4119.169658
398.359466	4148.920027
398.742092	4180.656611
399.124656	4102.241463
399.507158	4181.460675
399.889598	4203.215774
400.271977	4266.454529
400.654294	4240.416969
401.036549	4248.387033
401.418742	4216.053073
401.800874	4318.358249
402.182944	4335.752750
402.564952	4403.710025
402.946898	4393.075711
403.328783	4390.827356
403.710606	4301.591371
404.092367	4497.803161
404.474067	4460.012151
404.855705	4467.762925
405.237282	4394.547728
405.618797	4504.417155
406.000250	4538.215571
406.381642	4620.230103
406.762972	4578.975820
407.144240	4590.000824
407.525447	4590.429322
407.906593	4655.072038
408.287677	4693.732647
408.668700	4621.082058
409.049661	4672.176673
409.430560	4713.062951
409.811399	4640.523268
410.192176	4803.095438
410.572891	4742.135285
410.953545	4849.564794
411.334138	4731.584150
411.714669	4793.406340
412.095139	4687.688303
412.475547	4825.984797
412.855894	4809.568280
413.236180	4819.065813
413.616405	4771.575624
413.996568	4862.881002
414.376670	4801.172238
414.756711	4755.189353
415.136691	4789.156648
415.516609	4869.878124
415.896466	4904.893978
416.276262	4938.798258
416.655997	4921.507101
417.035670	5097.783648
417.415283	5190.830745
417.794834	5141.586234
418.174324	5089.465744
418.553753	4993.610724
418.933121	5179.967058
419.312428	5249.585393
419.691674	5186.397050
420.070859	5314.568387
420.449983	5228.422629
420.829045	5342.453529
421.208047	5245.587758
421.586988	5323.322350
421.965867	5331.972970
422.344686	5463.232014
422.723444	5320.421166
423.102141	5138.299401
423.480777	5440.486327
423.859352	5205.162745
424.237866	5461.780161
424.616319	5459.998113
424.994712	5569.398714
425.373044	5443.105207
425.751314	5585.941260
426.129524	5386.903903
426.507673	5584.070992
426.885762	5666.589639
427.263789	5594.266726
427.641756	5480.210620
428.019662	5601.752839
428.397508	5608.200475
428.775292	5547.966248
429.153016	5652.527341
429.530679	5576.889868
429.908282	5660.555378
430.285824	5538.761101
430.663305	5810.360826
431.040726	5545.120517
431.418086	5538.909815
431.795385	5651.108256
432.172624	5660.749462
432.549802	5653.089429
432.926920	5666.919835
433.303977	5678.721176
433.680974	5720.300613
434.057910	5732.946347
434.434786	5742.343058
434.811601	5709.741916
435.188355	5943.041475
435.565050	5822.275593
435.941683	5801.513601
436.318257	6017.436303
436.694770	5996.870916
437.071222	6029.741759
437.447614	5959.672242
437.823946	5878.257607
438.200218	6029.698910
438.576429	5894.210338
438.952580	5996.543241
439.328670	6038.709972
439.704700	5944.016938
440.080670	5933.370021
440.456580	6204.279108
440.832429	6086.374082
441.208218	5933.133087
441.583947	6086.316108
441.959616	6090.880873
442.335224	6024.327560
442.710773	6156.748589
443.086261	6185.750348
443.461689	5981.812989
443.837057	6129.201204
444.212365	6283.629391
444.587612	6174.463204
444.962800	6327.489950
445.337927	6313.510830
445.712995	5915.725983
446.088002	6497.119735
446.462949	6325.329815
446.837837	6258.287510
447.212664	6436.540190
447.587431	6570.667649
447.962139	7112.543797
448.336786	8041.429325
448.711374	7779.808564
449.085901	6855.757502
449.460369	6777.347395
449.834776	6712.215688
450.209124	7100.787826
450.583412	7259.211127
450.957640	7398.127683
451.331808	7162.259656
451.705917	6719.054013
452.079965	6641.541231
452.453954	6855.898655
452.827883	6730.880560
453.201752	6820.595454
453.575562	6625.102029
453.949311	6828.752041
454.323001	6713.077725
454.696632	6785.834178
455.070202	6927.740138
455.443713	7081.550783
455.817164	7182.338572
456.190556	7265.177332
456.563888	7335.042684
456.937160	7386.782566
457.310373	7039.608383
457.683526	7066.157620
458.056619	6953.886082
458.429653	6942.435102
458.802628	6878.931687
459.175542	6983.099569
459.548398	7342.501071
459.921194	7500.740369
460.293930	7503.081985
460.666607	8034.706947
461.039224	8344.621962
461.411782	8471.182649
461.784280	8484.526584
462.156719	8380.038588
462.529099	8257.984692
462.901419	7844.579829
463.273680	7738.997903
463.645882	7757.443485
464.018024	7619.222608
464.390106	7787.324924
464.762130	8171.007144
465.134094	8637.689440
465.505999	9660.804216
465.877845	10889.340970
466.249631	11536.380628
466.621358	11153.139510
466.993026	10519.831955
467.364634	10262.886864
467.736184	9902.454447
468.107674	9578.693902
468.479105	9601.111914
468.850477	9366.670533
469.221790	9140.446234
469.593043	8811.692427
469.964238	8673.095984
470.335373	8685.472017
470.706449	8742.139627
471.077467	8722.075835
471.448425	10037.685919
471.819324	11111.625608
472.190164	11137.993363
472.560945	9885.680007
472.931667	9092.756919
473.302330	8961.697001
473.672934	8604.901776
474.043479	8960.083832
474.413965	8902.513855
474.784393	8779.136656
475.154761	8936.773536
475.525070	9029.898771
475.895321	8853.218932
476.265513	9034.987816
476.635645	9196.518988
477.005719	9201.406387
477.375734	9309.796236
477.745691	9549.311537
478.115588	9687.910501
478.485427	9928.849928
478.855207	10463.655857
479.224928	11285.918461
479.594591	11909.599933
479.964194	11719.934081
480.333739	11664.942654
480.703226	11578.562483
481.072653	11673.384066
481.442022	11909.443657
481.811333	12092.777819
482.180584	11907.119685
482.549777	11613.558173
482.918912	11433.374732
483.287988	11460.604524
483.657005	11473.933335
484.025964	11154.735035
484.394864	11280.577359
484.763706	11252.838410
485.132489	11012.511482
485.501213	10975.680812
485.869879	11047.630681
486.238487	10885.194621
486.607036	10996.732671
486.975527	10777.689495
487.343959	10967.471293
487.712333	11020.965497
488.080648	10943.470360
488.448905	10989.160858
488.817104	10924.644171
489.185244	11195.384379
489.553326	11351.750889
489.921350	11883.312836
490.289315	12946.814816
490.657222	13294.137713
491.025070	13202.509701
491.392861	13073.269640
491.760593	12695.455323
492.128267	12351.764578
492.495883	12019.343331
492.863440	11682.077536
493.230939	11342.160094
493.598380	11278.606267
493.965763	11146.386884
494.333088	11056.372041
494.700354	10970.967333
495.067563	11035.118537
495.434713	10857.939623
495.801805	10989.740590
496.168839	10909.997098
496.535815	10850.713129
496.902733	10847.317912
497.269593	10776.023394
497.636395	10875.261028
498.003139	10866.824657
498.369825	10733.823895
498.736453	10887.369879
499.103023	10818.600979
499.469535	10845.924033
499.835989	10834.830974
500.202385	10796.089707
500.568723	10646.163271
500.935003	10874.162056
501.301226	10674.252580
501.667390	10935.250758
502.033497	11030.556293
502.399546	10893.021013
502.765537	10798.270006
503.131470	10871.379339
503.497345	11042.211440
503.863163	10658.123408
504.228923	10970.836263
504.594625	11032.038392
504.960269	10782.473550
505.325856	11002.540080
505.691385	10798.718668
506.056856	10950.417070
506.422270	10978.246760
506.787625	10863.429440
507.152924	10981.967131
507.518164	10960.355705
507.883347	10880.765968
508.248472	10797.019799
508.613540	11036.956037
508.978550	10919.406412
509.343503	10886.691844
509.708398	11013.179435
510.073236	11120.314037
510.438016	11127.180088
510.802738	11076.042624
511.167403	11130.361056
511.532010	11022.308965
511.896561	11258.199677
512.261053	11328.637199
512.625488	11197.047960
512.989866	11178.632625
513.354186	11166.322127
513.718449	11066.441746
514.082655	11260.039698
514.446803	11163.035295
514.810894	11282.770261
515.174927	11151.246557
515.538904	11172.064002
515.902822	11328.213742
516.266684	11207.389887
516.630488	11149.000723
516.994235	11204.957530
517.357925	11273.723910
517.721558	11362.133146
518.085133	11378.617719
518.448651	11387.532999
518.812112	11267.765266
519.175516	11282.767740
519.538863	11397.751418
519.902152	11318.081023
520.265385	11477.343676
520.628560	11385.030066
520.991678	11369.684794
521.354739	11422.558936
521.717743	11357.119718
522.080690	11337.446615
522.443580	11474.019035
522.806413	11421.749831
523.169189	11455.311313
523.531908	11518.063596
523.894569	11332.667601
524.257174	11338.502737
524.619722	11456.652260
524.982213	11399.682180
525.344647	11458.025974
525.707025	11404.211657
526.069345	11498.703044
526.431608	11409.608212
526.793815	11530.311079
527.155964	11315.366361
527.518057	11364.600790
527.880093	11318.469192
528.242072	11391.452496
528.603995	11291.612444
528.965860	11211.216123
529.327669	11261.622620
529.689421	11212.728469
530.051117	11176.676657
530.412755	11282.929057
530.774337	11179.960969
531.135862	11156.570015
531.497331	11178.078098
531.858743	11032.439163
532.220098	11201.685822
532.581396	11070.756974
532.942638	11053.307020
533.303824	11015.659683
533.664953	11030.097547
534.026025	10944.382809
534.387040	11039.544670
534.747999	11041.634228
535.108902	11098.503485
535.469748	10849.697337
535.830537	10965.656478
536.191270	10943.442633
536.551947	10963.599687
536.912567	10960.701024
537.273131	10886.467513
537.633638	10858.584891
537.994089	10852.013747
538.354483	10797.715479
538.714821	10943.447675
539.075103	10944.791142
539.435328	10916.386761
539.795497	10744.677499
540.155609	10900.751622
540.515665	10992.614048
540.875665	10728.717206
541.235609	10791.787082
541.595496	10783.156626
541.955328	10944.592017
542.315102	10827.249078
542.674821	10774.405183
543.034483	10784.588314
543.394090	10785.979672
543.753640	10708.522344
544.113134	10925.511249
544.472571	10788.167533
544.831953	10930.426374
545.191278	10737.597198
545.550548	10758.212997
545.909761	10896.605273
546.268918	10875.102231
546.628019	10952.148706
546.987064	10815.236009
547.346053	10739.661551
547.704986	10836.436581
548.063863	10820.806484
548.422684	10813.738786
548.781449	10732.188040
549.140158	10824.037863
549.498811	10699.619666
549.857408	10560.060363
550.215949	10785.934302
550.574434	10637.489965
550.932864	10731.036137
551.291237	10793.884202
551.649555	10743.016439
552.007817	10752.264436
552.366022	10716.328570
552.724173	10702.377177
553.082267	10692.030209
553.440305	10818.971504
553.798288	10620.561771
554.156215	10775.252097
554.514086	10749.733776
554.871902	10597.871537
555.229661	10635.382763
555.587365	10614.862746
555.945014	10509.585810
556.302606	10632.032916
556.660143	10522.458396
557.017625	10673.060347
557.375050	10565.010776
557.732421	10704.756602
558.089735	10611.172622
558.446994	10607.129616
558.804197	10639.753443
559.161345	10644.633280
559.518437	10489.859775
559.875474	10578.246325
560.232455	10602.264903
560.589381	10552.453262
560.946251	10542.335666
561.303065	10648.520010
561.659825	10581.772613
562.016528	10505.293267
562.373177	10383.347756
562.729770	10501.827474
563.086307	10409.476056
563.442789	10499.397638
563.799216	10374.286282
564.155587	10415.202807
564.511904	10367.435354
564.868164	10353.914979
565.224370	10365.534839
565.580520	10290.114136
565.936615	10287.772520
566.292654	10152.707406
566.648638	10275.109142
567.004567	10227.253468
567.360441	10206.176404
567.716260	10116.970666
568.072023	10205.480725
568.427732	10147.769596
568.783385	10057.195184
569.138982	10113.081416
569.494525	10130.743098
569.850013	10001.039251
570.205445	10069.006608
570.560823	9964.805958
570.916145	9876.613492
571.271412	9942.040107
571.626625	9881.301765
571.981782	9842.646197
572.336884	9814.879522
572.691931	9813.493205
573.046923	9758.587477
573.401860	9709.842040
573.756743	9634.166759
574.111570	9666.462912
574.466342	9648.720571
574.821059	9663.891923
575.175722	9555.923011
575.530330	9552.142145
575.884882	9538.770485
576.239380	9453.917783
576.593823	9432.379453
576.948211	9431.782077
577.302544	9311.790012
577.656823	9310.166761
578.011047	9306.307757
578.365216	9262.875696
578.719330	9186.655971
579.073389	9178.151544
579.427394	9126.391497
579.781344	9090.621990
580.135239	9027.514306
580.489080	9026.125468
580.842866	8919.421885
581.196597	8911.655987
581.550273	8943.044732
581.903895	8891.307370
582.257463	8940.690513
582.610975	8807.851068
582.964434	8825.716917
583.317837	8735.245850
583.671186	8712.111995
584.024481	8692.176752
584.377721	8602.991178
584.730906	8570.460613
585.084037	8577.278773
585.437113	8511.791664
585.790135	8509.896190
586.143103	8403.653873
586.496016	8369.613482
586.848874	8403.351404
587.201679	8377.434832
587.554428	8255.489320
587.907124	8282.537631
588.259765	8243.382989
588.612352	8224.584527
588.964884	8100.864529
589.317362	8095.021832
589.669786	8074.315292
590.022155	8109.167309
590.374470	8096.879497
590.726731	8031.420114
591.078937	7881.423102
591.431090	7958.159546
591.783188	7830.262952
592.135232	7804.578273
592.487222	7801.472923
592.839157	7821.309863
593.191038	7744.649037
593.542866	7677.163110
593.894639	7569.098416
594.246358	7598.846264
594.598022	7589.603309
594.949633	7488.780232
595.301190	7450.192720
595.652692	7454.150026
596.004141	7526.692229
596.355535	7324.748647
596.706876	7286.937473
597.058162	7214.445681
597.409395	7260.983092
597.760573	7293.586755
598.111698	7201.164761
598.462768	7170.784247
598.813785	7129.845037
599.164748	7076.774290
599.515657	7055.397277
599.866511	6955.695857
600.217312	7043.099382
600.568060	6909.672643
600.918753	6975.031202
601.269392	6923.651762
601.619978	6838.025244
601.970510	6867.389965
602.320988	6846.754002
602.671412	6862.626074
603.021783	6795.490508
603.372100	6760.804849
603.722363	6730.724284
604.072572	6698.443255
604.422728	6685.731986
604.772830	6611.455625
605.122878	6596.148162
605.472872	6573.422640
605.822813	6570.239151
606.172701	6510.496437
606.522534	6541.698659
606.872314	6528.894128
607.222041	6475.478062
607.571714	6496.280383
607.921333	6443.638134
608.270899	6428.696154
608.620411	6469.108564
608.969870	6383.182097
609.319276	6353.252766
609.668627	6345.479307
610.017926	6351.904258
610.367171	6353.028435
610.716362	6315.600388
611.065500	6287.828672
611.414585	6272.450632
611.763616	6254.453713
612.112594	6213.030552
612.461518	6201.360280
612.810389	6220.723352
613.159207	6155.226161
613.507971	6098.394713
613.856682	6150.220295
614.205340	6096.010247
614.553945	6125.261542
614.902496	6033.371390
615.250994	6044.834974
615.599439	6010.371126
615.947830	5995.696327
616.296169	5951.767712
616.644454	5935.663746
616.992686	5913.104583
617.340864	5920.578093
617.688990	5842.835939
618.037063	5875.482452
618.385082	5822.048742
618.733048	5837.275547
619.080961	5789.432476
619.428821	5780.673471
619.776628	5749.302371
620.124382	5702.205391
620.472083	5669.508467
620.819731	5661.717364
621.167326	5572.093210
621.514868	5561.600049
621.862357	5483.729345
622.209793	5473.092511
622.557176	5412.379374
622.904506	5374.064084
623.251783	5324.948122
623.599007	5272.973826
623.946179	5259.902114
624.293297	5212.227923
624.640363	5152.707019
624.987376	5118.102018
625.334336	5080.989044
625.681243	5024.548285
626.028097	5003.067929
626.374899	4978.361234
626.721647	4944.235143
627.068343	4894.932658
627.414987	4865.323441
627.761577	4820.946164
628.108115	4824.427081
628.454600	4754.649950
628.801032	4750.622068
629.147412	4725.202049
629.493739	4695.265157
629.840014	4652.992562
630.186236	4656.355011
630.532405	4590.948561
630.878521	4596.695476
631.224585	4556.272984
631.570597	4508.782794
631.916556	4506.010160
632.262462	4487.892253
632.608316	4454.330771
632.954117	4424.446811
633.299866	4407.276641
633.645562	4384.286459
633.991206	4337.791897
634.336797	4300.363850
634.682336	4263.573509
635.027823	4228.010690
635.373257	4211.931929
635.718639	4164.638345
636.063968	4156.592663
636.409245	4099.088221
636.754470	4081.398812
637.099642	4052.039132
637.444762	4014.721991
637.789829	4001.541894
638.134845	3969.525526
638.479808	3944.468471
638.824719	3935.462450
639.169577	3894.850914
639.514383	3887.289183
639.859137	3851.197042
640.203839	3845.051876
640.548489	3819.770489
