Dividing Wavelength (nm)	Counts (n)	Blue Motor Position (mm): 0.000000	Red Motor Position (mm): 35.400000	
326.493990	2127.523199
326.888308	2127.523199
327.282561	2127.523199
327.676750	2092.005749
328.070874	2093.316449
328.464933	2098.004723
328.858929	2102.728284
329.252859	2112.792947
329.646726	2127.394649
330.040528	2137.192132
330.434265	2153.709473
330.827938	2171.169509
331.221547	2190.772036
331.615091	2209.946064
332.008571	2228.063971
332.401986	2248.715058
332.795338	2267.836154
333.188625	2287.289967
333.581847	2307.683955
333.975006	2323.954279
334.368100	2340.484223
334.761129	2359.015504
335.154095	2375.464789
335.546996	2395.760474
335.939833	2414.851324
336.332606	2431.104004
336.725315	2442.877619
337.117960	2452.115533
337.510540	2458.853035
337.903056	2471.584469
338.295508	2475.599748
338.687896	2486.677684
339.080220	2494.078098
339.472480	2503.227792
339.864676	2504.684686
340.256807	2511.681807
340.648875	2511.472599
341.040879	2516.775893
341.432818	2518.739423
341.824694	2520.004752
342.216506	2518.336130
342.608253	2519.987108
342.999937	2519.735050
343.391557	2518.265554
343.783113	2517.769000
344.174605	2516.266737
344.566033	2514.749349
344.957397	2512.541324
345.348697	2514.363701
345.739934	2512.793382
346.131106	2509.967815
346.522215	2512.276663
346.913260	2507.144769
347.304241	2506.413801
347.695159	2500.840806
348.086012	2500.258553
348.476802	2497.685043
348.867528	2498.350476
349.258191	2498.186638
349.648789	2496.276041
350.039324	2493.480721
350.429796	2494.683036
350.820203	2490.564414
351.210548	2492.908550
351.600828	2489.193220
351.991045	2487.345637
352.381198	2488.258086
352.771288	2488.353868
353.161314	2486.113075
353.551276	2491.181955
353.941175	2486.682725
354.331010	2488.162304
354.720782	2488.517705
355.110490	2490.370329
355.500135	2489.087356
355.889717	2488.011069
356.279235	2488.497541
356.668689	2488.868065
357.058080	2490.503920
357.447408	2486.559217
357.836672	2485.964361
358.225873	2486.743219
358.615010	2486.876810
359.004084	2490.501399
359.393095	2493.662203
359.782043	2493.599188
360.170927	2495.683705
360.559748	2495.776967
360.948505	2493.170690
361.337199	2499.230157
361.725830	2496.543222
362.114398	2499.404077
362.502903	2498.605054
362.891344	2500.450116
363.279722	2497.743017
363.668037	2500.344252
364.056289	2496.941473
364.444478	2499.648573
364.832603	2500.107318
365.220665	2501.281907
365.608665	2502.854747
365.996601	2506.413801
366.384474	2506.300375
366.772284	2506.159223
367.160031	2509.587208
367.547715	2507.288442
367.935336	2510.799605
368.322893	2513.804133
368.710388	2516.730523
369.097820	2524.249404
369.485189	2527.372398
369.872495	2534.170394
370.259738	2542.667259
370.646918	2548.603218
371.034035	2554.937428
371.421090	2565.846485
371.808081	2574.020716
372.195010	2583.747622
372.581875	2600.131372
372.968678	2607.909872
373.355418	2622.236832
373.742096	2640.798360
374.128710	2654.525422
374.515262	2667.496311
374.901751	2685.914166
375.288177	2695.578058
375.674540	2721.171996
376.060841	2736.645818
376.447079	2753.999990
376.833254	2776.231479
377.219367	2787.374949
377.605417	2827.865497
377.991404	2836.629543
378.377329	2859.017307
378.763191	2875.370810
379.148991	2911.077303
379.534727	2938.728032
379.920402	2966.729121
380.306013	2978.938795
380.691563	3027.832947
381.077049	3049.615772
381.462474	3068.855336
381.847835	3106.474947
382.233134	3129.583596
382.618371	3126.160652
383.003545	3199.574976
383.388657	3206.776264
383.773706	3236.710636
384.158693	3252.524735
384.543618	3279.681431
384.928480	3315.748366
385.313280	3360.246631
385.698017	3357.695807
386.082692	3412.157913
386.467305	3419.081938
386.851856	3453.187864
387.236344	3472.606389
387.620770	3505.618385
388.005133	3532.598640
388.389435	3557.030592
388.773674	3569.598189
389.157851	3607.568159
389.541965	3628.506592
389.926018	3590.554265
390.310008	3664.888599
390.693936	3683.198070
391.077802	3721.624265
391.461606	3711.373079
391.845348	3774.263994
392.229027	3771.405659
392.612645	3786.272022
392.996200	3864.125082
393.379694	3905.293664
393.763125	3965.278354
394.146494	3938.474539
394.529801	3997.047706
394.913047	4047.295407
395.296230	4011.914068
395.679351	4065.851894
396.062410	4089.061366
396.445408	4071.455136
396.828343	4108.348821
397.211217	4128.722644
397.594028	4045.962021
397.976778	4112.958956
398.359466	4140.218995
398.742092	4171.360723
399.124656	4091.420626
399.507158	4174.735776
399.889598	4201.106052
400.271977	4258.295421
400.654294	4226.760483
401.036549	4240.611054
401.418742	4209.718863
401.800874	4311.804749
402.182944	4331.621525
402.564952	4396.503695
402.946898	4383.898290
403.328783	4378.678175
403.710606	4290.702479
404.092367	4484.965863
404.474067	4449.398002
404.855705	4461.330413
405.237282	4385.803846
405.618797	4497.089838
406.000250	4528.443294
406.381642	4612.088639
406.762972	4570.473914
407.144240	4583.286007
407.525447	4582.638219
407.906593	4640.896313
408.287677	4684.913148
408.668700	4615.430924
409.049661	4668.476466
409.430560	4710.749061
409.811399	4634.388183
410.192176	4792.579591
410.572891	4730.152462
410.953545	4836.210778
411.334138	4720.803643
411.714669	4788.115649
412.095139	4678.168084
412.475547	4822.425742
412.855894	4805.850429
413.236180	4815.526923
413.616405	4764.210498
413.996568	4850.121842
414.376670	4794.843069
414.756711	4751.274897
415.136691	4782.174650
415.516609	4856.546792
415.896466	4895.913163
416.276262	4934.253658
416.655997	4908.841202
417.035670	5089.957257
417.415283	5181.560063
417.794834	5127.357577
418.174324	5081.087346
418.553753	4992.158872
418.933121	5171.225698
419.312428	5240.597016
419.691674	5179.841030
420.070859	5308.430782
420.449983	5218.383171
420.829045	5335.796686
421.208047	5238.131892
421.586988	5308.887006
421.965867	5326.594059
422.344686	5453.938647
422.723444	5308.269465
423.102141	5131.345130
423.480777	5426.779430
423.859352	5196.128998
424.237866	5454.248677
424.616319	5447.075116
424.994712	5556.085026
425.373044	5432.942241
425.751314	5578.966824
426.129524	5380.491556
426.507673	5572.156225
426.885762	5660.968753
427.263789	5587.080561
427.641756	5469.241069
428.019662	5593.684472
428.397508	5599.592705
428.775292	5541.939549
429.153016	5645.343696
429.530679	5573.051030
429.908282	5655.791488
430.285824	5523.277197
430.663305	5797.402540
431.040726	5534.236666
431.418086	5533.790523
431.795385	5643.296988
432.172624	5655.171426
432.549802	5642.954189
432.926920	5658.362476
433.303977	5669.909239
433.680974	5707.662440
434.057910	5721.618875
434.434786	5731.418878
434.811601	5698.694228
435.188355	5937.735661
435.565050	5813.667823
435.941683	5792.416839
436.318257	6004.110013
436.694770	5987.736345
437.071222	6022.807652
437.447614	5955.167971
437.823946	5863.829825
438.200218	6018.605851
438.576429	5885.874790
438.952580	5981.011446
439.328670	6025.134145
439.704700	5938.103665
440.080670	5923.544813
440.456580	6195.212593
440.832429	6078.288071
441.208218	5920.610861
441.583947	6078.772022
441.959616	6083.044400
442.335224	6012.916908
442.710773	6151.369678
443.086261	6171.743502
443.461689	5965.961081
443.837057	6112.396518
444.212365	6267.175064
444.587612	6163.604559
444.962800	6317.137940
445.337927	6290.971831
445.712995	5904.438839
446.088002	6484.320246
446.462949	6314.158618
446.837837	6242.604481
447.212664	6416.930101
447.587431	6563.118522
447.962139	7101.274297
448.336786	8030.268211
448.711374	7773.726412
449.085901	6844.334248
449.460369	6769.185767
449.834776	6700.333688
450.209124	7092.522854
450.583412	7240.470637
450.957640	7384.362812
451.331808	7155.615415
451.705917	6706.562034
452.079965	6631.537062
452.453954	6841.312076
452.827883	6715.250462
453.201752	6810.669422
453.575562	6611.072498
453.949311	6809.192364
454.323001	6699.489295
454.696632	6775.530059
455.070202	6910.050729
455.443713	7071.700368
455.817164	7168.795512
456.190556	7255.727690
456.563888	7320.630025
456.937160	7370.066100
457.310373	7033.072527
457.683526	7047.923766
458.056619	6940.983249
458.429653	6926.497494
458.802628	6863.795622
459.175542	6966.829245
459.548398	7329.310892
459.921194	7490.111097
460.293930	7492.238463
460.666607	8017.352774
461.039224	8328.825506
461.411782	8457.821071
461.784280	8478.096592
462.156719	8369.006023
462.529099	8241.154799
462.901419	7835.813263
463.273680	7729.132365
463.645882	7738.980259
464.018024	7604.268025
464.390106	7775.833614
464.762130	8156.881831
465.134094	8623.163356
465.505999	9652.178802
465.877845	10865.748370
466.249631	11521.153823
466.621358	11138.000925
466.993026	10503.763277
467.364634	10251.645091
467.736184	9889.780986
468.107674	9551.885046
468.479105	9588.153628
468.850477	9350.311989
469.221790	9126.230180
469.593043	8796.642062
469.964238	8654.191657
470.335373	8666.053492
470.706449	8722.650527
471.077467	8708.643681
471.448425	10019.197487
471.819324	11097.706982
472.190164	11117.881680
472.560945	9869.455053
472.931667	9079.783509
473.302330	8941.507180
473.672934	8586.776307
474.043479	8946.568498
474.413965	8882.782779
474.784393	8765.303729
475.154761	8921.506402
475.525070	9016.300259
475.895321	8841.452879
476.265513	9017.316051
476.635645	9184.150517
477.005719	9181.725722
477.375734	9295.217219
477.745691	9534.687150
478.115588	9669.832923
478.485427	9910.303523
478.855207	10448.832344
479.224928	11262.565316
479.594591	11889.674772
479.964194	11707.376567
480.333739	11640.518264
480.703226	11560.121942
481.072653	11655.717343
481.442022	11881.155222
481.811333	12076.751991
482.180584	11884.300902
482.549777	11597.290370
482.918912	11414.961917
483.287988	11437.387490
483.657005	11453.378030
484.025964	11137.121244
484.394864	11260.977352
484.763706	11231.181613
485.132489	10987.063738
485.501213	10950.134765
485.869879	11037.893692
486.238487	10870.539987
486.607036	10983.156843
486.975527	10758.318861
487.343959	10949.058479
487.712333	10997.849286
488.080648	10930.834708
488.448905	10970.995060
488.817104	10909.069526
489.185244	11175.776811
489.553326	11330.963691
489.921350	11860.184022
490.289315	12925.410077
490.657222	13264.962035
491.025070	13179.010362
491.392861	13056.895972
491.760593	12667.217300
492.128267	12319.453302
492.495883	11994.341729
492.863440	11659.072231
493.230939	11327.586118
493.598380	11252.903945
493.965763	11115.845054
494.333088	11022.767710
494.700354	10946.737028
495.067563	11006.842705
495.434713	10834.122692
495.801805	10960.327978
496.168839	10886.293593
496.535815	10827.947278
496.902733	10823.120373
497.269593	10753.585218
497.636395	10855.298058
498.003139	10847.005360
498.369825	10705.202744
498.736453	10870.093845
499.103023	10789.813470
499.469535	10815.979579
499.835989	10808.284258
500.202385	10769.104410
500.568723	10620.012285
500.935003	10846.637356
501.301226	10648.157047
501.667390	10907.741182
502.033497	10998.091262
502.399546	10856.664211
502.765537	10766.661971
503.131470	10841.729793
503.497345	11014.527944
503.863163	10628.360436
504.228923	10932.931828
504.594625	10999.565799
504.960269	10747.445092
505.325856	10962.367125
505.691385	10749.980793
506.056856	10911.748899
506.422270	10931.583319
506.787625	10821.905455
507.152924	10937.675553
507.518164	10911.877449
507.883347	10831.589512
508.248472	10742.356048
508.613540	10978.879424
508.978550	10863.903308
509.343503	10834.967085
509.708398	10949.124014
510.073236	11059.361446
510.438016	11058.108719
510.802738	10996.483134
511.167403	11042.551718
511.532010	10942.242839
511.896561	11168.497385
512.261053	11238.135884
512.625488	11103.645462
512.989866	11072.695298
513.354186	11058.365818
513.718449	10956.995776
514.082655	11135.790379
514.446803	11033.369256
514.810894	11143.785649
515.174927	11009.103662
515.538904	11029.772393
515.902822	11168.928404
516.266684	11042.859228
516.630488	10983.484518
516.994235	11030.165603
517.357925	11082.049158
517.721558	11158.087403
518.085133	11170.806234
518.448651	11166.241469
518.812112	11046.803931
519.175516	11040.321007
519.538863	11148.380661
519.902152	11058.824563
520.265385	11198.547703
520.628560	11107.068405
520.991678	11067.979298
521.354739	11117.022163
521.717743	11036.252796
522.080690	11010.484938
522.443580	11117.208686
522.806413	11058.708616
523.169189	11078.981616
523.531908	11108.537901
523.894569	10919.686196
524.257174	10906.163301
524.619722	11004.148208
524.982213	10941.471542
525.344647	10964.000459
525.707025	10903.922508
526.069345	10968.726541
526.431608	10869.438495
526.793815	10956.368152
527.155964	10725.412730
527.518057	10754.616134
527.880093	10693.293018
528.242072	10732.092258
528.603995	10614.910637
528.965860	10523.655670
529.327669	10539.636128
529.689421	10471.658689
530.051117	10421.637840
530.412755	10488.327264
530.774337	10365.844870
531.135862	10309.832609
531.497331	10309.396550
531.858743	10141.246343
532.220098	10263.388459
532.581396	10121.696748
532.942638	10077.450541
533.303824	10018.012816
533.664953	9982.964194
534.026025	9879.575170
534.387040	9932.998798
534.747999	9902.966124
535.108902	9926.548641
535.469748	9671.020115
535.830537	9733.543025
536.191270	9678.622175
536.551947	9660.171552
536.912567	9614.289490
537.273131	9529.247745
537.633638	9469.053848
537.994089	9417.298842
538.354483	9340.058282
538.714821	9422.748329
539.075103	9394.228001
539.435328	9321.022885
539.795497	9146.362028
540.155609	9222.034788
540.515665	9266.091953
540.875665	9005.073609
541.235609	9017.598356
541.595496	8979.751893
541.955328	9048.452738
542.315102	8922.696114
542.674821	8837.631684
543.034483	8801.108525
543.394090	8754.508098
543.753640	8661.327411
544.113134	8777.977190
544.472571	8623.105382
544.831953	8680.554372
545.191278	8494.581165
545.550548	8475.144996
545.909761	8530.794294
546.268918	8460.785270
546.628019	8475.084503
546.987064	8321.500709
547.346053	8234.316474
547.704986	8244.686128
548.063863	8191.035648
548.422684	8152.430492
548.781449	8037.560240
549.140158	8057.903816
549.498811	7926.924557
549.857408	7792.358517
550.215949	7879.099130
550.574434	7741.684838
550.932864	7744.402020
551.291237	7747.653564
551.649555	7652.098493
552.007817	7616.092052
552.366022	7544.958850
552.724173	7487.993812
553.082267	7439.586132
553.440305	7451.074922
553.798288	7301.135883
554.156215	7324.539440
554.514086	7267.065245
554.871902	7142.856255
555.229661	7105.158507
555.587365	7046.718931
555.945014	6948.832326
556.302606	6951.098324
556.660143	6861.383430
557.017625	6878.851028
557.375050	6782.307891
557.732421	6803.999976
558.089735	6705.606735
558.446994	6652.969527
558.804197	6632.504963
559.161345	6580.618887
559.518437	6472.987732
559.875474	6444.442198
560.232455	6414.253248
560.589381	6352.287385
560.946251	6288.698271
561.303065	6308.946065
561.659825	6215.961983
562.016528	6139.679243
562.373177	6056.711932
562.729770	6040.156783
563.086307	5968.837059
563.442789	5968.395958
563.799216	5853.349266
564.155587	5837.411658
564.511904	5770.424806
564.868164	5727.179267
565.224370	5693.637950
565.580520	5605.778200
565.936615	5585.744655
566.292654	5476.465042
566.648638	5487.069110
567.004567	5426.648360
567.360441	5382.598758
567.716260	5297.751097
568.072023	5297.751097
568.427732	5228.215942
568.783385	5171.208054
569.138982	5137.886027
569.494525	5110.134475
569.850013	5028.719840
570.205445	5009.349207
570.560823	4951.950629
570.916145	4880.913209
571.271412	4859.072410
571.626625	4810.573990
571.981782	4765.591774
572.336884	4714.240060
572.691931	4691.196946
573.046923	4625.435094
573.401860	4583.222992
573.756743	4529.481772
574.111570	4505.203575
574.466342	4474.507989
574.821059	4436.565745
575.175722	4381.801170
575.530330	4344.660469
575.884882	4317.087878
576.239380	4265.191720
576.593823	4227.234352
576.948211	4199.215619
577.302544	4150.485305
577.656823	4110.939974
578.011047	4092.668312
578.365216	4054.385789
578.719330	4011.170498
579.073389	3982.153617
579.427394	3948.214048
579.781344	3921.019544
580.135239	3883.820870
580.489080	3856.606201
580.842866	3813.524500
581.196597	3789.760501
581.550273	3775.819190
581.903895	3742.114035
582.257463	3733.097931
582.610975	3688.357691
582.964434	3674.663397
583.317837	3634.321563
583.671186	3618.774644
584.024481	3589.122577
584.377721	3558.270716
584.730906	3533.717776
585.084037	3513.800177
585.437113	3488.906960
585.790135	3467.378712
586.143103	3434.896037
586.496016	3415.860640
586.848874	3400.906058
587.201679	3383.446021
587.554428	3347.225331
587.907124	3338.115966
588.259765	3318.909170
588.612352	3301.358393
588.964884	3279.116822
589.317362	3260.877927
589.669786	3247.453334
590.022155	3241.149372
590.374470	3222.595405
590.726731	3205.624360
591.078937	3173.910462
591.431090	3165.794204
591.783188	3143.494660
592.135232	3123.272071
592.487222	3117.794858
592.839157	3105.106273
593.191038	3087.870568
593.542866	3069.480439
593.894639	3048.627706
594.246358	3039.664535
594.598022	3030.479552
594.949633	3010.793847
595.301190	2996.613081
595.652692	2991.639983
596.004141	2983.984990
596.355535	2961.715693
596.706876	2945.941923
597.058162	2930.788214
597.409395	2928.713780
597.760573	2924.199426
598.111698	2906.215110
598.462768	2899.966600
598.813785	2887.285577
599.164748	2879.544886
599.515657	2869.467619
599.866511	2854.689477
600.217312	2854.278622
600.568060	2840.811180
600.918753	2841.247240
601.269392	2833.219202
601.619978	2819.555155
601.970510	2817.639516
602.320988	2810.849082
602.671412	2808.537713
603.021783	2795.939870
603.372100	2789.716565
603.722363	2784.158693
604.072572	2778.510080
604.422728	2773.542023
604.772830	2762.620363
605.122878	2755.270361
605.472872	2751.733992
605.822813	2747.980852
606.172701	2744.467168
606.522534	2741.235789
606.872314	2740.353587
607.222041	2731.639952
607.571714	2731.599623
607.921333	2725.565362
608.270899	2723.440516
608.620411	2720.728375
608.969870	2716.483723
609.319276	2713.181767
609.668627	2713.743856
610.017926	2711.654298
610.367171	2709.486602
610.716362	2706.779502
611.065500	2700.112576
611.414585	2698.585107
611.763616	2692.739889
612.112594	2691.595547
612.461518	2687.466842
612.810389	2686.763601
613.159207	2684.142201
613.507971	2679.085923
613.856682	2678.133145
614.205340	2674.238854
614.553945	2676.731705
614.902496	2670.457989
615.250994	2670.306754
615.599439	2667.342556
615.947830	2667.539161
616.296169	2665.472287
616.644454	2663.249139
616.992686	2659.627070
617.340864	2661.177224
617.688990	2654.545587
618.037063	2656.340237
618.385082	2654.754794
618.733048	2654.996770
619.080961	2651.861172
619.428821	2649.358239
619.776628	2649.446459
620.124382	2648.690286
620.472083	2645.378248
620.819731	2647.233393
621.167326	2640.352218
621.514868	2644.312044
621.862357	2640.780716
622.209793	2636.442803
622.557176	2634.302833
622.904506	2630.711011
623.251783	2629.302009
623.599007	2627.494755
623.946179	2625.322018
624.293297	2621.415123
624.640363	2623.842439
624.987376	2623.471914
625.334336	2622.446039
625.681243	2621.707510
626.028097	2620.739609
626.374899	2618.871861
626.721647	2619.270113
627.068343	2615.746346
627.414987	2616.409258
627.761577	2614.589401
628.108115	2614.208794
628.454600	2613.182919
628.801032	2611.625203
629.147412	2615.741305
629.493739	2612.018413
629.840014	2610.619492
630.186236	2611.204266
630.532405	2608.255191
630.878521	2611.390789
631.224585	2609.364245
631.570597	2606.488267
631.916556	2605.215376
632.262462	2605.185129
632.608316	2605.585900
632.954117	2600.214551
633.299866	2604.328132
633.645562	2602.964500
633.991206	2602.263780
634.336797	2599.786053
634.682336	2601.686568
635.027823	2596.070722
635.373257	2598.545929
635.718639	2597.388984
636.063968	2594.051740
636.409245	2595.957297
636.754470	2593.194744
637.099642	2593.527460
637.444762	2594.114755
637.789829	2593.421596
638.134845	2591.463108
638.479808	2592.181472
638.824719	2588.037644
639.169577	2593.605598
639.514383	2591.964703
639.859137	2588.254413
640.203839	2594.409662
640.548489	2587.720051
640.893086	2586.560586
641.237632	2584.544124
641.582125	2586.553024
641.926566	2585.633013
642.270955	2586.174937
