Dividing Wavelength (nm)	Counts (n)	Blue Motor Position (mm): 0.000000	Red Motor Position (mm): 24.200000	
326.493990	2129.058230
326.888308	2129.058230
327.282561	2129.058230
327.676750	2096.888107
328.070874	2093.598754
328.464933	2096.678899
328.858929	2103.925558
329.252859	2112.669439
329.646726	2123.149998
330.040528	2138.699437
330.434265	2156.159473
330.827938	2171.230003
331.221547	2189.340348
331.615091	2209.608307
332.008571	2227.864846
332.401986	2246.842269
332.795338	2264.997985
333.188625	2288.061264
333.581847	2304.757565
333.975006	2320.755667
334.368100	2343.501353
334.761129	2357.235977
335.154095	2374.920344
335.546996	2393.557490
335.939833	2410.604152
336.332606	2425.649476
336.725315	2436.203131
337.117960	2443.185129
337.510540	2455.399845
337.903056	2466.661783
338.295508	2472.786785
338.687896	2482.460759
339.080220	2491.539877
339.472480	2494.189003
339.864676	2501.407936
340.256807	2504.775426
340.648875	2509.287259
341.040879	2509.070489
341.432818	2513.063083
341.824694	2514.824967
342.216506	2512.962260
342.608253	2515.442508
342.999937	2515.049298
343.391557	2514.850172
343.783113	2515.976870
344.174605	2510.350943
344.566033	2512.629544
344.957397	2508.901611
345.348697	2506.580159
345.739934	2506.658297
346.131106	2504.180570
346.522215	2503.729387
346.913260	2499.454488
347.304241	2502.479181
347.695159	2495.703870
348.086012	2496.003819
348.476802	2494.617501
348.867528	2493.417707
349.258191	2491.207161
349.648789	2491.091214
350.039324	2489.059629
350.429796	2489.314208
350.820203	2486.292036
351.210548	2485.082159
351.600828	2484.555358
351.991045	2481.525625
352.381198	2484.562920
352.771288	2482.491006
353.161314	2482.886736
353.551276	2484.741881
353.941175	2482.117960
354.331010	2483.476551
354.720782	2480.497229
355.110490	2483.305152
355.500135	2482.717858
355.889717	2480.154431
356.279235	2485.777838
356.668689	2484.661223
357.058080	2483.652992
357.447408	2483.844556
357.836672	2478.959677
358.225873	2483.804226
358.615010	2480.915645
359.004084	2487.075935
359.393095	2485.082159
359.782043	2489.054588
360.170927	2488.011069
360.559748	2488.815133
360.948505	2487.678353
361.337199	2490.937459
361.725830	2490.612305
362.114398	2492.928715
362.502903	2492.003663
362.891344	2492.754795
363.279722	2493.324445
363.668037	2495.257728
364.056289	2494.476349
364.444478	2496.056751
364.832603	2496.699498
365.220665	2498.731083
365.608665	2499.404077
365.996601	2495.545074
366.384474	2499.540188
366.772284	2499.928357
367.160031	2501.254180
367.547715	2504.631753
367.935336	2505.602176
368.322893	2509.645181
368.710388	2510.592918
369.097820	2519.117509
369.485189	2517.622807
369.872495	2529.209899
370.259738	2536.353214
370.646918	2542.316899
371.034035	2551.476676
371.421090	2562.413459
371.808081	2567.583162
372.195010	2578.391396
372.581875	2590.394383
372.968678	2604.476847
373.355418	2615.179216
373.742096	2636.120169
374.128710	2649.872437
374.515262	2663.876762
374.901751	2680.525173
375.288177	2692.767615
375.674540	2715.273846
376.060841	2734.014336
376.447079	2750.204001
376.833254	2773.761313
377.219367	2783.556275
377.605417	2820.384425
377.991404	2829.400528
378.377329	2854.755012
378.763191	2869.202958
379.148991	2907.114956
379.534727	2933.795263
379.920402	2961.055302
380.306013	2973.932930
380.691563	3023.658871
381.077049	3046.119732
381.462474	3062.054819
381.847835	3100.654934
382.233134	3123.894654
382.618371	3122.465487
383.003545	3189.865713
383.388657	3199.310315
383.773706	3231.530850
384.158693	3248.658170
384.543618	3272.850668
384.928480	3310.649239
385.313280	3357.131198
385.698017	3352.163141
386.082692	3409.415525
386.467305	3410.753952
386.851856	3445.016154
387.236344	3467.008187
387.620770	3500.788959
388.005133	3524.326107
388.389435	3552.780899
388.773674	3560.322466
389.157851	3603.668827
389.541965	3619.392186
389.926018	3584.918255
390.310008	3657.218484
390.693936	3675.480063
391.077802	3717.263667
391.461606	3706.016853
391.845348	3768.655710
392.229027	3768.242335
392.612645	3780.076444
392.996200	3854.541848
393.379694	3897.661357
393.763125	3962.036892
394.146494	3930.875000
394.529801	3989.725430
394.913047	4035.821740
395.296230	4005.751258
395.679351	4061.201429
396.062410	4083.934513
396.445408	4065.284764
396.828343	4099.630145
397.211217	4121.932210
397.594028	4038.417935
397.976778	4107.459057
398.359466	4132.480824
398.742092	4164.469466
399.124656	4085.366200
399.507158	4165.636493
399.889598	4189.929813
400.271977	4250.590018
400.654294	4222.714958
401.036549	4232.709045
401.418742	4199.870969
401.800874	4305.974654
402.182944	4329.559693
402.564952	4389.120925
402.946898	4374.831775
403.328783	4372.734655
403.710606	4289.175009
404.092367	4481.230368
404.474067	4444.185449
404.855705	4449.481181
405.237282	4379.058782
405.618797	4488.071214
406.000250	4519.921224
406.381642	4600.773770
406.762972	4563.960744
407.144240	4577.284513
407.525447	4577.859205
407.906593	4634.478924
408.287677	4679.609854
408.668700	4606.243422
409.049661	4657.282584
409.430560	4693.858675
409.811399	4624.270588
410.192176	4786.671359
410.572891	4722.255495
410.953545	4830.055529
411.334138	4710.212178
411.714669	4773.264410
412.095139	4671.541487
412.475547	4812.194721
412.855894	4790.162358
413.236180	4802.457732
413.616405	4754.944857
413.996568	4843.442313
414.376670	4785.456441
414.756711	4739.365171
415.136691	4771.270634
415.516609	4853.159137
415.896466	4888.490064
416.276262	4921.176905
416.655997	4902.133947
417.035670	5081.178087
417.415283	5179.016801
417.794834	5116.607316
418.174324	5073.381943
418.553753	4979.987006
418.933121	5159.318492
419.312428	5230.262650
419.691674	5167.515408
420.070859	5296.268998
420.449983	5204.124268
420.829045	5318.129962
421.208047	5225.307196
421.586988	5300.357374
421.965867	5307.616636
422.344686	5441.234939
422.723444	5294.877640
423.102141	5116.652687
423.480777	5415.633439
423.859352	5183.904200
424.237866	5440.395587
424.616319	5430.726654
424.994712	5539.794538
425.373044	5417.637298
425.751314	5559.308844
426.129524	5363.139904
426.507673	5557.239451
426.885762	5637.592922
427.263789	5568.980298
427.641756	5446.644097
428.019662	5563.566099
428.397508	5572.539352
428.775292	5518.409963
429.153016	5612.351865
429.530679	5535.749012
429.908282	5620.480726
430.285824	5489.587166
430.663305	5754.850161
431.040726	5486.927957
431.418086	5479.865301
431.795385	5580.332976
432.172624	5586.568884
432.549802	5571.901647
432.926920	5580.285085
433.303977	5579.130661
433.680974	5611.452019
434.057910	5610.973109
434.434786	5608.487821
434.811601	5563.697169
435.188355	5778.029386
435.565050	5646.747658
435.941683	5618.066013
436.318257	5805.491072
436.694770	5772.831957
437.071222	5791.786695
437.447614	5709.598243
437.823946	5611.308346
438.200218	5735.393828
438.576429	5595.617755
438.952580	5658.193597
439.328670	5680.984654
439.704700	5572.337706
440.080670	5536.369074
440.456580	5750.013174
440.832429	5624.309482
441.208218	5468.147139
441.583947	5568.566923
441.959616	5540.407038
442.335224	5457.152382
442.710773	5538.446029
443.086261	5526.647208
443.461689	5322.488039
443.837057	5408.898457
444.212365	5494.610676
444.587612	5374.482500
444.962800	5461.802847
445.337927	5402.833949
445.712995	5065.870623
446.088002	5457.709430
446.462949	5288.838337
446.837837	5195.030026
447.212664	5281.276607
447.587431	5322.283873
447.962139	5636.534280
448.336786	6199.217790
448.711374	5972.789324
449.085901	5318.923944
449.460369	5205.177869
449.834776	5111.472901
450.209124	5289.675169
450.583412	5309.953210
450.957640	5352.404767
451.331808	5148.270804
451.705917	4837.183720
452.079965	4741.306015
452.453954	4795.846259
452.827883	4678.140358
453.201752	4672.668185
453.575562	4516.563815
453.949311	4553.575967
454.323001	4460.559117
454.696632	4435.373512
455.070202	4436.860652
455.443713	4451.905976
455.817164	4431.564920
456.190556	4400.065270
456.563888	4370.456053
456.937160	4332.841484
457.310373	4151.382631
457.683526	4095.750977
458.056619	4003.891072
458.429653	3946.845375
458.802628	3877.448851
459.175542	3864.109958
459.548398	3911.758944
459.921194	3910.533944
460.293930	3867.144733
460.666607	3954.056746
461.039224	3990.627796
461.411782	3964.764156
461.784280	3903.065474
462.156719	3810.988799
462.529099	3721.639389
462.901419	3584.343564
463.273680	3510.616689
463.645882	3468.704536
464.018024	3395.607805
464.390106	3382.568860
464.762130	3407.033580
465.134094	3446.331895
465.505999	3584.474634
465.877845	3725.858834
466.249631	3753.713730
466.621358	3615.321454
466.993026	3466.488948
467.364634	3379.307234
467.736184	3289.453708
468.107674	3214.900083
468.479105	3174.848116
468.850477	3125.543111
469.221790	3068.237795
469.593043	3008.593383
469.964238	2962.252576
470.335373	2940.386571
470.706449	2917.194743
471.077467	2899.278482
471.448425	2952.865948
471.819324	2985.880464
472.190164	2961.708132
472.560945	2875.799308
472.931667	2816.384269
473.302330	2792.224539
473.672934	2764.122627
474.043479	2764.294026
474.413965	2745.586304
474.784393	2727.838922
475.154761	2719.901626
475.525070	2710.094061
475.895321	2698.023018
476.265513	2692.056812
476.635645	2689.067408
477.005719	2679.501819
477.375734	2675.289935
477.745691	2672.595438
478.115588	2664.685867
478.485427	2665.774757
478.855207	2669.505211
479.224928	2676.837569
479.594591	2681.377128
479.964194	2669.865653
480.333739	2666.210817
480.703226	2656.690597
481.072653	2653.504588
481.442022	2656.768735
481.811333	2654.636327
482.180584	2647.997128
482.549777	2641.441107
482.918912	2636.198307
483.287988	2633.589510
483.657005	2630.547174
484.025964	2627.582975
484.394864	2628.651700
484.763706	2624.172635
485.132489	2619.529732
485.501213	2619.741460
485.869879	2615.675770
486.238487	2613.636623
486.607036	2613.704679
486.975527	2611.237034
487.343959	2611.431118
487.712333	2613.031685
488.080648	2611.975563
488.448905	2609.003803
488.817104	2608.983638
489.185244	2609.636467
489.553326	2608.217383
489.921350	2613.503032
490.289315	2617.394803
490.657222	2621.649537
491.025070	2621.336986
491.392861	2618.904629
491.760593	2613.268619
492.128267	2610.732918
492.495883	2609.192846
492.863440	2603.950046
493.230939	2603.203955
493.598380	2600.753954
493.965763	2596.297574
494.333088	2596.511823
494.700354	2597.840167
495.067563	2596.761361
495.434713	2591.689960
495.801805	2597.759509
496.168839	2592.884713
496.535815	2595.717842
496.902733	2597.595672
497.269593	2593.507296
497.636395	2594.177769
498.003139	2592.541915
498.369825	2593.870259
498.736453	2591.347161
499.103023	2592.463777
499.469535	2594.346648
499.835989	2591.689960
500.202385	2589.129054
500.568723	2592.128540
500.935003	2592.294898
501.301226	2589.557552
501.667390	2592.680547
502.033497	2595.629622
502.399546	2590.338931
502.765537	2586.822726
503.131470	2588.183837
503.497345	2590.354054
503.863163	2589.489496
504.228923	2590.432192
504.594625	2589.832295
504.960269	2587.591502
505.325856	2589.592840
505.691385	2589.486976
506.056856	2588.488827
506.422270	2586.656368
506.787625	2590.258272
507.152924	2589.360947
507.518164	2590.555700
507.883347	2588.430854
508.248472	2587.737695
508.613540	2587.800710
508.978550	2586.001018
509.343503	2589.197109
509.708398	2590.560741
510.073236	2588.655185
510.438016	2590.391863
510.802738	2589.963365
511.167403	2589.474373
511.532010	2587.004207
511.896561	2588.829105
512.261053	2589.030751
512.625488	2587.833477
512.989866	2586.391707
513.354186	2585.459094
513.718449	2584.995307
514.082655	2587.150401
514.446803	2588.730802
514.810894	2590.749785
515.174927	2589.791965
515.538904	2590.379260
515.902822	2588.665267
516.266684	2589.555031
516.630488	2589.245000
516.994235	2591.253900
517.357925	2590.263313
517.721558	2589.643251
518.085133	2588.589650
518.448651	2591.516040
518.812112	2588.473704
519.175516	2590.197778
519.538863	2589.958323
519.902152	2590.159970
520.265385	2588.738364
520.628560	2591.659713
520.991678	2590.732141
521.354739	2592.894796
521.717743	2592.801534
522.080690	2592.294898
522.443580	2594.192893
522.806413	2591.896647
523.169189	2591.687439
523.531908	2591.294229
523.894569	2592.723396
524.257174	2591.274065
524.619722	2594.238263
524.982213	2595.833788
525.344647	2590.807758
525.707025	2591.384970
526.069345	2590.827922
526.431608	2593.555187
526.793815	2593.547625
527.155964	2593.961000
527.518057	2593.366143
527.880093	2592.239446
528.242072	2591.498396
528.603995	2593.303129
528.965860	2589.325659
529.327669	2591.972264
529.689421	2590.364136
530.051117	2590.926225
530.412755	2591.503437
530.774337	2591.674836
531.135862	2593.323294
531.497331	2588.319948
531.858743	2587.019331
532.220098	2592.322625
532.581396	2587.896492
532.942638	2588.556883
533.303824	2590.439754
533.664953	2591.989908
534.026025	2589.696183
534.387040	2590.291040
534.747999	2590.432192
535.108902	2592.194075
535.469748	2590.354054
535.830537	2592.698191
536.191270	2591.347161
536.551947	2591.175762
536.912567	2590.396904
537.273131	2591.979826
537.633638	2590.250710
537.994089	2588.937490
538.354483	2588.844228
538.714821	2592.771287
539.075103	2593.353541
539.435328	2590.979157
539.795497	2591.453026
540.155609	2592.168869
540.515665	2591.440423
540.875665	2592.050402
541.235609	2590.641400
541.595496	2589.116451
541.955328	2590.628797
542.315102	2589.265165
542.674821	2591.148036
543.034483	2592.511668
543.394090	2591.705083
543.753640	2591.125351
544.113134	2590.462439
544.472571	2593.119127
544.831953	2592.244487
545.191278	2590.243149
545.550548	2592.133581
545.909761	2590.359095
546.268918	2593.693818
546.628019	2592.226843
546.987064	2591.989908
547.346053	2592.093252
547.704986	2590.752305
548.063863	2592.524271
548.422684	2591.004363
548.781449	2590.631317
549.140158	2589.222315
549.498811	2589.363467
549.857408	2590.578385
550.215949	2589.025710
550.574434	2587.120154
550.932864	2587.389856
551.291237	2589.076122
551.649555	2590.288519
552.007817	2593.439240
552.366022	2592.052923
552.724173	2593.114086
553.082267	2591.936976
553.440305	2591.266503
553.798288	2592.050402
554.156215	2591.125351
554.514086	2592.960331
554.871902	2587.762901
555.229661	2591.447984
555.587365	2591.493355
555.945014	2592.126020
556.302606	2592.156267
556.660143	2591.576534
557.017625	2591.868921
557.375050	2591.669795
557.732421	2594.462594
558.089735	2593.219950
558.446994	2593.104003
558.804197	2591.916812
559.161345	2591.642069
559.518437	2592.678026
559.875474	2591.566452
560.232455	2596.000146
560.589381	2590.364136
560.946251	2594.006370
561.303065	2591.536205
561.659825	2594.248345
562.016528	2592.035279
562.373177	2591.984867
562.729770	2593.776997
563.086307	2591.884044
563.442789	2591.884044
563.799216	2591.856318
564.155587	2591.478231
564.511904	2591.069898
564.868164	2590.558221
565.224370	2591.745412
565.580520	2589.003025
565.936615	2592.241966
566.292654	2589.678539
566.648638	2593.300608
567.004567	2592.972933
567.360441	2590.747264
567.716260	2588.806420
568.072023	2592.577203
568.427732	2586.389187
568.783385	2588.057808
569.138982	2588.277099
569.494525	2587.163004
569.850013	2587.689804
570.205445	2590.895978
570.560823	2590.938828
570.916145	2589.706266
571.271412	2586.706779
571.626625	2588.879517
571.981782	2588.619897
572.336884	2589.905391
572.691931	2589.507140
573.046923	2588.526636
573.401860	2589.862542
573.756743	2588.269537
574.111570	2588.299784
574.466342	2592.425968
574.821059	2589.408838
575.175722	2587.896492
575.530330	2585.086048
575.884882	2588.060329
576.239380	2589.371029
576.593823	2587.868765
576.948211	2584.130750
577.302544	2587.283991
577.656823	2585.088569
578.011047	2586.910946
578.365216	2587.120154
578.719330	2585.683425
579.073389	2585.451532
579.427394	2585.897674
579.781344	2585.605287
580.135239	2589.804568
580.489080	2588.020000
580.842866	2588.216605
581.196597	2589.774321
581.550273	2586.351378
581.903895	2586.086717
582.257463	2584.501274
582.610975	2584.927252
582.964434	2586.384145
583.317837	2584.665112
583.671186	2586.240472
584.024481	2585.101172
584.377721	2583.672005
584.730906	2584.183682
585.084037	2587.130236
585.437113	2583.790472
585.790135	2585.721234
586.143103	2585.569999
586.496016	2584.508836
586.848874	2580.775862
587.201679	2583.462797
587.554428	2578.819894
587.907124	2580.826273
588.259765	2580.531366
588.612352	2585.290215
588.964884	2582.870461
589.317362	2580.370049
589.669786	2581.592529
590.022155	2584.881882
590.374470	2581.930286
590.726731	2584.932293
591.078937	2582.202508
591.431090	2581.264854
591.783188	2583.548496
592.135232	2581.121181
592.487222	2581.559761
592.839157	2582.343661
593.191038	2584.198805
593.542866	2580.667477
593.894639	2579.571026
594.246358	2582.278126
594.598022	2581.524473
594.949633	2579.024061
595.301190	2580.307034
595.652692	2580.576736
596.004141	2580.261664
596.355535	2580.402816
596.706876	2577.932651
597.058162	2577.380645
597.409395	2580.453228
597.760573	2579.800398
598.111698	2578.018351
598.462768	2580.675039
598.813785	2578.280491
599.164748	2581.443815
599.515657	2577.403330
599.866511	2579.434915
600.217312	2581.869792
600.568060	2579.407188
600.918753	2580.226376
601.269392	2577.617579
601.619978	2577.799060
601.970510	2581.252251
602.320988	2579.896180
602.671412	2575.281004
603.021783	2577.617579
603.372100	2580.622107
603.722363	2580.750656
604.072572	2578.580439
604.422728	2577.811663
604.772830	2574.892835
605.122878	2574.970973
605.472872	2575.144893
605.822813	2570.522155
606.172701	2577.178998
606.522534	2578.386355
606.872314	2578.114132
607.222041	2574.628175
607.571714	2581.111098
607.921333	2578.668659
608.270899	2578.305696
608.620411	2577.920048
608.969870	2579.631520
609.319276	2579.528176
609.668627	2582.479772
610.017926	2586.923549
610.367171	2586.164855
610.716362	2583.394741
611.065500	2584.649988
611.414585	2580.662436
611.763616	2581.791654
612.112594	2580.639751
612.461518	2583.062025
612.810389	2579.311407
613.159207	2580.062538
613.507971	2578.197312
613.856682	2581.605132
614.205340	2580.218814
614.553945	2580.843917
614.902496	2578.041036
615.250994	2579.616396
615.599439	2576.775706
615.947830	2578.451890
616.296169	2580.269226
616.644454	2579.276118
616.992686	2579.621437
617.340864	2580.443146
617.688990	2577.312589
618.037063	2580.412899
618.385082	2578.083886
618.733048	2580.995152
619.080961	2577.660429
619.428821	2578.419122
619.776628	2579.223186
620.124382	2578.736715
620.472083	2578.535069
620.819731	2579.303845
621.167326	2576.911817
621.514868	2579.230748
621.862357	2577.108422
622.209793	2578.232600
622.557176	2577.340315
622.904506	2573.834193
623.251783	2569.697926
623.599007	2574.252609
623.946179	2569.907134
624.293297	2574.103895
624.640363	2574.159347
624.987376	2573.698082
625.334336	2575.265881
625.681243	2574.335788
626.028097	2574.789492
626.374899	2573.768658
626.721647	2572.117680
627.068343	2572.800756
627.414987	2572.679769
627.761577	2573.153637
628.108115	2571.588359
628.454600	2573.135993
628.801032	2572.823442
629.147412	2574.608010
629.493739	2574.514749
629.840014	2573.236816
630.186236	2573.125911
630.532405	2572.034501
630.878521	2569.884449
631.224585	2572.316806
631.570597	2569.329922
631.916556	2571.260684
632.262462	2570.784295
632.608316	2571.462330
632.954117	2570.295303
633.299866	2569.203893
633.645562	2571.621126
633.991206	2570.423852
634.336797	2570.786815
634.682336	2571.298492
635.027823	2568.619119
635.373257	2567.346228
635.718639	2567.240364
636.063968	2568.011660
636.409245	2567.305899
636.754470	2567.560477
637.099642	2567.492421
637.444762	2564.429920
637.789829	2564.722307
638.134845	2564.616443
638.479808	2565.448233
638.824719	2564.210630
639.169577	2566.025446
639.514383	2562.484035
639.859137	2566.249777
640.203839	2564.470250
640.548489	2564.533264
640.893086	2562.597461
641.237632	2563.993861
641.582125	2563.761967
641.926566	2559.746688
642.270955	2562.852039
642.615292	2564.021587
642.959576	2565.617112
643.303809	2565.256670
643.647990	2563.459498
643.992118	2562.473953
644.336195	2563.535116
