Dividing Wavelength (nm)	Counts (n)	Blue Motor Position (mm): 0.000000	Red Motor Position (mm): 17.500000	
326.493990	2083.397979
326.888308	2083.397979
327.282561	2083.397979
327.676750	2056.576520
328.070874	2060.392674
328.464933	2065.827038
328.858929	2077.393965
329.252859	2087.277147
329.646726	2103.665938
330.040528	2118.618001
330.434265	2136.854375
330.827938	2157.742396
331.221547	2178.726198
331.615091	2198.921061
332.008571	2219.914946
332.401986	2239.701475
332.795338	2259.011615
333.188625	2280.741508
333.581847	2295.743982
333.975006	2316.009421
334.368100	2333.464416
334.761129	2349.570902
335.154095	2365.261494
335.546996	2384.306973
335.939833	2401.560322
336.332606	2415.007600
336.725315	2423.897675
337.117960	2431.086360
337.510540	2440.798143
337.903056	2450.308280
338.295508	2458.243056
338.687896	2463.150619
339.080220	2471.680251
339.472480	2476.532362
339.864676	2481.913794
340.256807	2480.484627
340.648875	2483.524442
341.040879	2486.274392
341.432818	2488.358909
341.824694	2488.454691
342.216506	2488.570637
342.608253	2487.852273
342.999937	2485.971922
343.391557	2484.751963
343.783113	2485.918990
344.174605	2483.330358
344.566033	2482.153248
344.957397	2480.323310
345.348697	2478.485809
345.739934	2475.645119
346.131106	2472.635550
346.522215	2472.852320
346.913260	2470.790488
347.304241	2470.785447
347.695159	2466.815538
348.086012	2467.831330
348.476802	2466.878552
348.867528	2465.212451
349.258191	2463.379992
349.648789	2465.003243
350.039324	2460.113324
350.429796	2460.924950
350.820203	2460.761112
351.210548	2459.026955
351.600828	2457.590226
351.991045	2460.352779
352.381198	2459.243725
352.771288	2457.023097
353.161314	2457.882613
353.551276	2459.599126
353.941175	2456.992850
354.331010	2459.195834
354.720782	2460.622480
355.110490	2460.292285
355.500135	2459.967130
355.889717	2460.647686
356.279235	2461.366051
356.668689	2460.355299
357.058080	2459.447892
357.447408	2459.342027
357.836672	2460.314970
358.225873	2460.461163
358.615010	2460.110803
359.004084	2466.097173
359.393095	2464.592389
359.782043	2468.156485
360.170927	2465.363686
360.559748	2468.350569
360.948505	2471.571867
361.337199	2471.468523
361.725830	2470.775364
362.114398	2471.458441
362.502903	2471.960035
362.891344	2472.668317
363.279722	2472.484315
363.668037	2472.955663
364.056289	2475.070427
364.444478	2474.737711
364.832603	2474.399954
365.220665	2475.599748
365.608665	2478.004379
365.996601	2477.719554
366.384474	2476.658391
366.772284	2480.091417
367.160031	2479.569657
367.547715	2479.390696
367.935336	2479.700727
368.322893	2482.264154
368.710388	2481.938999
369.097820	2485.573671
369.485189	2484.772128
369.872495	2487.970740
370.259738	2486.735657
370.646918	2489.727582
371.034035	2491.194558
371.421090	2497.052379
371.808081	2494.148674
372.195010	2500.223264
372.581875	2502.995899
372.968678	2509.914883
373.355418	2515.538290
373.742096	2527.780732
374.128710	2536.234747
374.515262	2544.429142
374.901751	2557.266441
375.288177	2572.541137
375.674540	2588.566965
376.060841	2609.134873
376.447079	2630.562297
376.833254	2656.468787
377.219367	2673.820438
377.605417	2707.200438
377.991404	2728.874879
378.377329	2764.904006
378.763191	2798.760395
379.148991	2842.515090
379.534727	2888.543345
379.920402	2930.435334
380.306013	2977.497025
380.691563	3036.786036
381.077049	3090.358378
381.462474	3142.047849
381.847835	3209.133003
382.233134	3278.859723
382.618371	3333.069771
383.003545	3414.217224
383.388657	3490.923421
383.773706	3575.488777
384.158693	3644.918068
384.543618	3733.518868
384.928480	3805.987975
385.313280	3904.048499
385.698017	4001.660361
386.082692	4117.178402
386.467305	4179.781971
386.851856	4295.481493
387.236344	4440.099594
387.620770	4502.539325
388.005133	4611.869349
388.389435	4754.876802
388.773674	4834.758925
389.157851	4957.195949
389.541965	5088.346608
389.926018	5108.208754
390.310008	5280.296102
390.693936	5397.697014
391.077802	5511.944683
391.461606	5638.681812
391.845348	5743.605867
392.229027	5859.701120
392.612645	6076.518626
392.996200	6187.300502
393.379694	6359.287027
393.763125	6570.997845
394.146494	6656.115207
394.529801	6787.661596
394.913047	7021.729931
395.296230	7019.335383
395.679351	7071.407982
396.062410	7322.928791
396.445408	7220.429530
396.828343	7367.805143
397.211217	7500.896645
397.594028	7391.811117
397.976778	7587.912002
398.359466	7750.600119
398.742092	7734.806184
399.124656	7877.927062
399.507158	8061.273827
399.889598	8082.048422
400.271977	8293.797048
400.654294	8316.565420
401.036549	8517.223507
401.418742	8544.959936
401.800874	8837.775357
402.182944	8915.570443
402.564952	9273.078992
402.946898	9107.184701
403.328783	9162.723093
403.710606	9350.286783
404.092367	9601.910937
404.474067	9950.375655
404.855705	9767.313715
405.237282	9713.186846
405.618797	10128.484662
406.000250	10363.289005
406.381642	10721.606658
406.762972	10664.606332
407.144240	10484.017078
407.525447	10728.444984
407.906593	10667.910808
408.287677	10923.814901
408.668700	11062.917980
409.049661	11047.514734
409.430560	11199.071983
409.811399	11168.094093
410.192176	11314.244705
410.572891	11379.124355
410.953545	11840.707524
411.334138	11316.205713
411.714669	11878.042310
412.095139	11225.739687
412.475547	11665.172027
412.855894	11517.264573
413.236180	11803.138325
413.616405	11479.440796
413.996568	11718.646066
414.376670	11660.748414
414.756711	11517.486384
415.136691	11745.439799
415.516609	11863.460772
415.896466	11885.954401
416.276262	12105.305087
416.655997	12469.599028
417.035670	12443.233794
417.415283	12962.565901
417.794834	12966.523207
418.174324	12654.629539
418.553753	12481.329793
418.933121	12843.330010
419.312428	12595.007812
419.691674	12411.466963
420.070859	12733.969739
420.449983	12313.832416
420.829045	12691.828213
421.208047	12361.899818
421.586988	12627.399747
421.965867	12701.061087
422.344686	12576.980646
422.723444	12905.890729
423.102141	11734.440001
423.480777	12523.849405
423.859352	12001.386741
424.237866	12684.571472
424.616319	12310.943834
424.994712	12638.081952
425.373044	12310.724544
425.751314	12622.245167
426.129524	11858.832993
426.507673	12399.952967
426.885762	12051.052189
427.263789	11971.845580
427.641756	11904.936865
428.019662	11754.939853
428.397508	11597.912952
428.775292	11575.552914
429.153016	11360.535100
429.530679	11213.076309
429.908282	11032.381190
430.285824	10700.784173
430.663305	10860.898780
431.040726	10471.053751
431.418086	10202.100631
431.795385	10307.639707
432.172624	10306.195417
432.549802	9908.977700
432.926920	9792.857241
433.303977	9548.986383
433.680974	9455.898957
434.057910	9383.795333
434.434786	9200.183907
434.811601	8971.751582
435.188355	9162.302157
435.565050	8845.652160
435.941683	8631.090570
436.318257	8740.539061
436.694770	8475.066858
437.071222	8467.242988
437.447614	7978.402299
437.823946	7794.934546
438.200218	7660.933115
438.576429	7410.612100
438.952580	7315.609036
439.328670	7133.721684
439.704700	7062.885911
440.080670	6796.793646
440.456580	6764.631085
440.832429	6636.941178
441.208218	6271.089520
441.583947	6196.240989
441.959616	6074.887813
442.335224	5968.723633
442.710773	5845.938770
443.086261	5793.248630
443.461689	5549.191248
443.837057	5439.659578
444.212365	5399.867230
444.587612	5268.257827
444.962800	5091.217545
445.337927	5017.052090
445.712995	4750.914455
446.088002	4849.469012
446.462949	4757.147841
446.837837	4665.587885
447.212664	4553.475144
447.587431	4720.357501
447.962139	4879.002612
448.336786	4972.503413
448.711374	4721.854723
449.085901	4320.609124
449.460369	4200.685115
449.834776	4110.466105
450.209124	4176.595962
450.583412	4063.933735
450.957640	4010.482381
451.331808	3855.570243
451.705917	3704.796894
452.079965	3637.603354
452.453954	3583.005137
452.827883	3517.641537
453.201752	3451.488995
453.575562	3404.991913
453.949311	3393.130078
454.323001	3345.939837
454.696632	3294.033596
455.070202	3294.903195
455.443713	3257.646548
455.817164	3231.470356
456.190556	3206.690564
456.563888	3156.944458
456.937160	3131.080818
457.310373	3064.250242
457.683526	3047.561502
458.056619	3020.379601
458.429653	2996.862618
458.802628	2981.706389
459.175542	2964.745427
459.548398	2968.009574
459.921194	2973.675831
460.293930	2969.184163
460.666607	2984.605052
461.039224	2992.265086
461.411782	2982.054228
461.784280	2949.241358
462.156719	2925.961310
462.529099	2910.482447
462.901419	2880.316182
463.273680	2858.283819
463.645882	2851.747963
464.018024	2843.979545
464.390106	2846.585822
464.762130	2869.838144
465.134094	2905.675707
465.505999	2954.244703
465.877845	2994.021928
466.249631	2997.709532
466.621358	2972.181129
466.993026	2947.575257
467.364634	2924.423758
467.736184	2895.963924
468.107674	2882.985473
468.479105	2868.560211
468.850477	2857.401617
469.221790	2844.821418
469.593043	2824.346772
469.964238	2817.803354
470.335373	2811.872436
470.706449	2827.525219
471.077467	2849.953312
471.448425	2885.879095
471.819324	2908.927251
472.190164	2892.523336
472.560945	2862.959489
472.931667	2832.883966
473.302330	2823.078921
473.672934	2814.879485
474.043479	2819.008190
474.413965	2810.808753
474.784393	2802.669810
475.154761	2812.618527
475.525070	2813.415029
475.895321	2809.666932
476.265513	2809.170378
476.635645	2822.720999
477.005719	2824.762667
477.375734	2828.094869
477.745691	2832.586538
478.115588	2846.245544
478.485427	2861.777339
478.855207	2891.104251
479.224928	2915.700041
479.594591	2927.133378
479.964194	2922.959303
480.333739	2924.879982
480.703226	2927.385436
481.072653	2933.908689
481.442022	2937.402208
481.811333	2937.639143
482.180584	2927.521547
482.549777	2920.894950
482.918912	2923.097934
483.287988	2917.202305
483.657005	2911.094947
484.025964	2907.692168
484.394864	2907.082188
484.763706	2902.519944
485.132489	2894.658265
485.501213	2891.893192
485.869879	2894.902761
486.238487	2889.798593
486.607036	2891.326062
486.975527	2886.685680
487.343959	2885.548900
487.712333	2887.197357
488.080648	2881.397510
488.448905	2885.324568
488.817104	2884.765000
489.185244	2889.493603
489.553326	2901.541960
489.921350	2920.169024
490.289315	2948.107098
490.657222	2951.875361
491.025070	2952.984415
491.392861	2939.814400
491.760593	2925.971392
492.128267	2911.059659
492.495883	2894.718759
492.863440	2882.350288
493.230939	2868.590458
493.598380	2858.102338
493.965763	2848.262005
494.333088	2841.763958
494.700354	2833.534274
495.067563	2832.740293
495.434713	2823.651092
495.801805	2823.444405
496.168839	2823.877944
496.535815	2816.913590
496.902733	2816.817808
497.269593	2810.166006
497.636395	2809.787919
498.003139	2810.433187
498.369825	2805.754996
498.736453	2808.031077
499.103023	2799.193934
499.469535	2803.184008
499.835989	2799.647638
500.202385	2797.928605
500.568723	2794.974489
500.935003	2795.597071
501.301226	2793.124385
501.667390	2797.510189
502.033497	2797.598409
502.399546	2794.490538
502.765537	2785.693724
503.131470	2791.599436
503.497345	2791.801082
503.863163	2783.556275
504.228923	2783.856224
504.594625	2788.874692
504.960269	2782.663991
505.325856	2786.946451
505.691385	2783.531069
506.056856	2780.748352
506.422270	2786.533077
506.787625	2782.230452
507.152924	2783.233641
507.518164	2782.081738
507.883347	2773.945315
508.248472	2778.885646
508.613540	2781.116357
508.978550	2783.616769
509.343503	2780.831532
509.708398	2780.367745
510.073236	2785.010648
510.438016	2782.550565
510.802738	2779.142745
511.167403	2780.897067
511.532010	2782.371604
511.896561	2783.352108
512.261053	2791.796041
512.625488	2783.611728
512.989866	2779.334309
513.354186	2779.208280
513.718449	2775.810542
514.082655	2779.273815
514.446803	2779.959412
514.810894	2785.257665
515.174927	2782.096861
515.538904	2779.394803
515.902822	2783.289094
516.266684	2782.366563
516.630488	2781.338167
516.994235	2779.009154
517.357925	2782.006120
517.721558	2781.146604
518.085133	2781.786830
518.448651	2781.880092
518.812112	2780.302210
519.175516	2778.915893
519.538863	2778.268105
519.902152	2777.494288
520.265385	2781.693569
520.628560	2780.408075
520.991678	2777.227107
521.354739	2777.338012
521.717743	2775.984462
522.080690	2776.843979
522.443580	2775.911365
522.806413	2777.660646
523.169189	2773.753752
523.531908	2775.563526
523.894569	2772.551436
524.257174	2770.086312
524.619722	2773.216869
524.982213	2771.117228
525.344647	2770.242588
525.707025	2767.477515
526.069345	2768.858791
526.431608	2766.575148
526.793815	2766.033224
527.155964	2762.156577
527.518057	2760.341762
527.880093	2759.073912
528.242072	2760.787904
528.603995	2761.203799
528.965860	2757.783376
529.327669	2757.622059
529.689421	2755.482089
530.051117	2753.226173
530.412755	2751.834815
530.774337	2753.642068
531.135862	2749.268867
531.497331	2745.714854
531.858743	2741.891139
532.220098	2745.893815
532.581396	2739.920047
532.942638	2736.068606
533.303824	2740.956005
533.664953	2740.136817
534.026025	2736.358472
534.387040	2739.037846
534.747999	2736.900396
535.108902	2735.045252
535.469748	2732.000395
535.830537	2733.613564
536.191270	2732.272617
536.551947	2729.769684
536.912567	2729.789849
537.273131	2729.936042
537.633638	2726.966803
537.994089	2725.429251
538.354483	2722.918756
538.714821	2724.400855
539.075103	2725.464539
539.435328	2720.251986
539.795497	2719.485730
540.155609	2723.324569
540.515665	2721.660988
540.875665	2717.973384
541.235609	2717.960781
541.595496	2717.565051
541.955328	2720.456152
542.315102	2713.922817
542.674821	2709.156406
543.034483	2713.862323
543.394090	2710.240254
543.753640	2707.719677
544.113134	2712.302086
544.472571	2708.680017
544.831953	2711.603886
545.191278	2709.113556
545.550548	2703.585931
545.909761	2703.086857
546.268918	2707.018957
546.628019	2706.817311
546.987064	2701.680375
547.346053	2701.211548
547.704986	2700.999819
548.063863	2699.636187
548.422684	2699.137113
548.781449	2699.215251
549.140158	2698.045703
549.498811	2698.753985
549.857408	2694.080836
550.215949	2694.945393
550.574434	2692.298788
550.932864	2690.998170
551.291237	2691.035979
551.649555	2695.651155
552.007817	2690.809127
552.366022	2691.217460
552.724173	2690.400793
553.082267	2691.020855
553.440305	2691.479600
553.798288	2690.325176
554.156215	2690.017666
554.514086	2690.715865
554.871902	2688.885927
555.229661	2686.894671
555.587365	2684.248065
555.945014	2687.663447
556.302606	2684.376614
556.660143	2683.824608
557.017625	2682.642457
557.375050	2683.209587
557.732421	2681.740091
558.089735	2684.611028
558.446994	2680.252951
558.804197	2682.027437
559.161345	2682.309741
559.518437	2678.995183
559.875474	2679.516942
560.232455	2678.304545
560.589381	2678.392765
560.946251	2678.294462
561.303065	2680.240348
561.659825	2677.744977
562.016528	2677.271108
562.373177	2674.536282
562.729770	2674.863957
563.086307	2674.954698
563.442789	2675.229441
563.799216	2676.698937
564.155587	2672.721467
564.511904	2670.747855
564.868164	2672.476971
565.224370	2674.773216
565.580520	2670.024449
565.936615	2671.955211
566.292654	2667.892041
566.648638	2670.394974
567.004567	2668.975889
567.360441	2669.590910
567.716260	2671.095695
568.072023	2666.929181
568.427732	2664.821979
568.783385	2665.578152
569.138982	2663.256700
569.494525	2664.529592
569.850013	2662.298881
570.205445	2664.519509
570.560823	2665.109324
570.916145	2661.646052
571.271412	2662.452636
571.626625	2662.802997
571.981782	2661.900630
572.336884	2661.275527
572.691931	2659.543891
573.046923	2658.896102
573.401860	2656.509116
573.756743	2658.823006
574.111570	2655.679846
574.466342	2657.204795
574.821059	2655.397542
575.175722	2654.580875
575.530330	2652.282108
575.884882	2654.958961
576.239380	2652.806388
576.593823	2652.430822
576.948211	2650.056439
577.302544	2650.931079
577.656823	2650.011069
578.011047	2652.516522
578.365216	2649.575009
578.719330	2647.762714
579.073389	2645.980666
579.427394	2644.627116
579.781344	2646.895636
580.135239	2643.260964
580.489080	2645.141314
580.842866	2646.192395
581.196597	2644.773310
581.550273	2642.834986
581.903895	2641.483957
582.257463	2643.364307
582.610975	2641.778864
582.964434	2642.109060
583.317837	2640.034625
583.671186	2639.684265
584.024481	2641.272228
584.377721	2638.794501
584.730906	2637.246867
585.084037	2638.862557
585.437113	2636.387350
585.790135	2636.750313
586.143103	2636.422638
586.496016	2636.725108
586.848874	2633.027421
587.201679	2633.365179
587.554428	2629.934673
587.907124	2632.901392
588.259765	2627.424179
588.612352	2636.233595
588.964884	2631.431896
589.317362	2633.284520
589.669786	2629.859056
590.022155	2631.767133
590.374470	2629.705301
590.726731	2631.552884
591.078937	2630.073305
591.431090	2628.525671
591.783188	2629.964920
592.135232	2627.867800
592.487222	2625.868983
592.839157	2626.980557
593.191038	2625.556431
593.542866	2623.313118
593.894639	2625.311935
594.246358	2623.653396
594.598022	2623.045937
594.949633	2619.179372
595.301190	2619.595267
595.652692	2620.487551
596.004141	2623.262706
596.355535	2619.295318
596.706876	2615.932869
597.058162	2618.604680
597.409395	2615.237189
597.760573	2616.552931
598.111698	2617.926645
598.462768	2619.010493
598.813785	2617.740122
599.164748	2615.290122
599.515657	2614.453290
599.866511	2615.413630
600.217312	2616.585698
600.568060	2614.009668
600.918753	2616.815071
601.269392	2614.528907
601.619978	2613.203084
601.970510	2615.267436
602.320988	2614.962447
602.671412	2613.840790
603.021783	2613.344236
603.372100	2611.607559
603.722363	2613.591253
604.072572	2609.575974
604.422728	2611.965481
604.772830	2609.205449
605.122878	2608.832403
605.472872	2610.974894
605.822813	2608.119080
606.172701	2609.323916
606.522534	2611.557147
606.872314	2609.220572
607.222041	2612.073865
607.571714	2612.162086
607.921333	2610.017075
608.270899	2611.554627
608.620411	2611.574791
608.969870	2610.743001
609.319276	2610.309462
609.668627	2610.692589
610.017926	2610.768207
610.367171	2609.122270
610.716362	2608.512290
611.065500	2609.202928
611.414585	2610.790892
611.763616	2609.661673
612.112594	2607.294852
612.461518	2608.202259
612.810389	2609.303751
613.159207	2609.157558
613.507971	2605.401898
613.856682	2607.327619
614.205340	2607.872064
614.553945	2610.427929
614.902496	2609.767537
615.250994	2609.351642
615.599439	2610.828700
615.947830	2610.743001
616.296169	2609.843155
616.644454	2611.352980
616.992686	2606.795777
617.340864	2609.664194
617.688990	2609.880963
618.037063	2611.194184
618.385082	2607.746035
618.733048	2609.016406
619.080961	2611.060593
619.428821	2610.208638
619.776628	2608.930706
620.124382	2610.377517
620.472083	2607.703185
620.819731	2609.772579
621.167326	2610.947167
621.514868	2610.133021
621.862357	2605.490118
622.209793	2608.177053
622.557176	2606.846189
622.904506	2602.770416
623.251783	2601.197576
623.599007	2599.972576
623.946179	2598.470312
624.293297	2599.838985
624.640363	2597.610795
624.987376	2599.962493
625.334336	2600.559870
625.681243	2597.149529
626.028097	2597.830085
626.374899	2594.961669
626.721647	2597.749427
627.068343	2595.218767
627.414987	2594.273551
627.761577	2596.297574
628.108115	2594.560897
628.454600	2593.996288
628.801032	2592.499065
629.147412	2595.256576
629.493739	2590.777511
629.840014	2593.328335
630.186236	2590.976637
630.532405	2593.061154
630.878521	2593.968561
631.224585	2592.194075
631.570597	2591.213571
631.916556	2592.804055
632.262462	2590.248190
632.608316	2590.215422
632.954117	2592.257090
633.299866	2589.849939
633.645562	2591.732810
633.991206	2589.466811
634.336797	2586.061512
634.682336	2585.728795
635.027823	2589.018148
635.373257	2584.776017
635.718639	2580.790985
636.063968	2582.799885
636.409245	2583.230904
636.754470	2584.231573
637.099642	2582.560430
637.444762	2582.278126
637.789829	2580.980028
638.134845	2579.321489
638.479808	2579.603793
638.824719	2581.844586
639.169577	2579.802919
639.514383	2577.335274
639.859137	2578.847620
640.203839	2582.063877
640.548489	2577.322671
640.893086	2575.979204
641.237632	2573.670355
641.582125	2575.079358
641.926566	2570.829665
642.270955	2576.241344
642.615292	2574.779409
642.959576	2576.629513
643.303809	2575.109605
