Dividing Wavelength (nm)	Counts (n)	Blue Motor Position (mm): 0.000000	Red Motor Position (mm): 14.000000	
326.493990	2084.111303
326.888308	2084.111303
327.282561	2084.111303
327.676750	2062.608261
328.070874	2061.799156
328.464933	2067.019270
328.858929	2076.514284
329.252859	2089.782601
329.646726	2104.659046
330.040528	2120.281581
330.434265	2141.056176
330.827938	2158.760709
331.221547	2181.876920
331.615091	2199.710001
332.008571	2221.316387
332.401986	2240.583677
332.795338	2260.261821
333.188625	2280.945675
333.581847	2300.941412
333.975006	2319.321459
334.368100	2337.220075
334.761129	2354.276819
335.154095	2367.419107
335.546996	2383.923845
335.939833	2400.718449
336.332606	2414.216139
336.725315	2426.771132
337.117960	2433.924530
337.510540	2442.738987
337.903056	2450.187292
338.295508	2455.936728
338.687896	2463.460650
339.080220	2470.296455
339.472480	2476.708802
339.864676	2477.890953
340.256807	2482.899339
340.648875	2483.645430
341.040879	2483.552169
341.432818	2487.237252
341.824694	2486.476038
342.216506	2487.905205
342.608253	2488.694146
342.999937	2486.080307
343.391557	2485.021665
343.783113	2482.642240
344.174605	2484.177272
344.566033	2481.792806
344.957397	2478.503453
345.348697	2476.489512
345.739934	2475.297279
346.131106	2475.962712
346.522215	2473.280818
346.913260	2470.455251
347.304241	2470.157823
347.695159	2467.170939
348.086012	2465.398974
348.476802	2464.637759
348.867528	2467.044910
349.258191	2463.581638
349.648789	2463.989971
350.039324	2463.206072
350.429796	2461.527368
350.820203	2460.856894
351.210548	2460.869497
351.600828	2461.965948
351.991045	2457.602829
352.381198	2456.521502
352.771288	2459.072326
353.161314	2458.890844
353.551276	2458.515278
353.941175	2460.173818
354.331010	2461.507203
354.720782	2459.185752
355.110490	2456.375308
355.500135	2457.847325
355.889717	2459.672223
356.279235	2460.753550
356.668689	2462.351596
357.058080	2455.414968
357.447408	2461.731534
357.836672	2455.961934
358.225873	2462.293623
358.615010	2458.190124
359.004084	2464.501648
359.393095	2464.995681
359.782043	2463.634570
360.170927	2464.720938
360.559748	2467.748151
360.948505	2465.872842
361.337199	2470.709829
361.725830	2466.255970
362.114398	2470.298975
362.502903	2470.455251
362.891344	2471.445838
363.279722	2470.649335
363.668037	2474.841055
364.056289	2468.320322
364.444478	2475.687969
364.832603	2472.275108
365.220665	2477.003710
365.608665	2474.432721
365.996601	2478.705099
366.384474	2476.227372
366.772284	2478.611838
367.160031	2477.976652
367.547715	2479.622589
367.935336	2480.247692
368.322893	2479.874647
368.710388	2480.587970
369.097820	2484.336068
369.485189	2482.738022
369.872495	2482.853969
370.259738	2486.337406
370.646918	2486.468476
371.034035	2489.238590
371.421090	2491.421410
371.808081	2494.491473
372.195010	2495.678664
372.581875	2501.153357
372.968678	2508.400016
373.355418	2513.408402
373.742096	2522.616070
374.128710	2531.370033
374.515262	2543.229348
374.901751	2553.929197
375.288177	2569.188770
375.674540	2584.612180
376.060841	2604.771754
376.447079	2628.127420
376.833254	2651.977119
377.219367	2672.741631
377.605417	2704.468133
377.991404	2728.277503
378.377329	2761.102976
378.763191	2794.316618
379.148991	2838.371262
379.534727	2884.107130
379.920402	2929.921136
380.306013	2972.539051
380.691563	3031.555839
381.077049	3083.867892
381.462474	3139.111377
381.847835	3206.224258
382.233134	3271.671037
382.618371	3324.799758
383.003545	3409.470978
383.388657	3482.865137
383.773706	3569.615833
384.158693	3641.164929
384.543618	3730.199268
384.928480	3801.259373
385.313280	3901.348962
385.698017	3999.364116
386.082692	4112.016260
386.467305	4171.098583
386.851856	4291.806492
387.236344	4435.963327
387.620770	4494.748222
388.005133	4608.582517
388.389435	4742.871294
388.773674	4828.228111
389.157851	4951.824600
389.541965	5078.433179
389.926018	5101.347744
390.310008	5267.937714
390.693936	5390.586466
391.077802	5496.952292
391.461606	5627.573629
391.845348	5729.699844
392.229027	5849.848184
392.612645	6059.741666
392.996200	6172.887843
393.379694	6343.835891
393.763125	6550.127468
394.146494	6639.539893
394.529801	6770.698113
394.913047	7001.701427
395.296230	6995.190777
395.679351	7048.962244
396.062410	7292.893596
396.445408	7198.233330
396.828343	7336.459248
397.211217	7462.896428
397.594028	7352.991712
397.976778	7544.598408
398.359466	7699.666821
398.742092	7671.630444
399.124656	7808.112122
399.507158	7986.916808
399.889598	7997.795618
400.271977	8186.974998
400.654294	8200.515538
401.036549	8372.454172
401.418742	8382.884319
401.800874	8644.293352
402.182944	8704.583031
402.564952	9011.730453
402.946898	8825.943769
403.328783	8845.029577
403.710606	8986.232297
404.092367	9182.479375
404.474067	9461.938259
404.855705	9227.287671
405.237282	9135.145461
405.618797	9453.645561
406.000250	9603.423283
406.381642	9845.438997
406.762972	9728.229649
407.144240	9489.586467
407.525447	9618.493812
407.906593	9496.303805
408.287677	9620.495150
408.668700	9647.558585
409.049661	9537.752172
409.430560	9562.665554
409.811399	9436.919012
410.192176	9448.548954
410.572891	9401.446933
410.953545	9638.048448
411.334138	9139.432962
411.714669	9435.078991
412.095139	8838.029935
412.475547	9048.850989
412.855894	8831.252104
413.236180	8899.519409
413.616405	8576.023526
413.996568	8618.381821
414.376670	8458.678067
414.756711	8258.549301
415.136691	8275.086806
415.516609	8230.391936
415.896466	8132.946432
416.276262	8137.004561
416.655997	8221.199392
417.035670	8089.506809
417.415283	8243.027588
417.794834	8119.249617
418.174324	7838.530445
418.553753	7623.983978
418.933121	7678.970364
419.312428	7441.678211
419.691674	7243.505412
420.070859	7264.869822
420.449983	6970.466437
420.829045	7020.026021
421.208047	6774.718434
421.586988	6772.379338
421.965867	6694.881680
422.344686	6542.684204
422.723444	6551.622170
423.102141	6015.218195
423.480777	6204.730292
423.859352	5923.217138
424.237866	6052.396705
424.616319	5837.343602
424.994712	5843.264438
425.373044	5652.187063
425.751314	5647.889479
426.129524	5334.924566
426.507673	5396.991252
426.885762	5214.413263
427.263789	5107.046768
427.641756	5011.907592
428.019662	4892.230600
428.397508	4775.575779
428.775292	4690.360115
429.153016	4573.647321
429.530679	4467.450374
429.908282	4361.258468
430.285824	4230.006987
430.663305	4199.432388
431.040726	4067.192841
431.418086	3954.704534
431.795385	3924.820574
432.172624	3870.214795
432.549802	3756.400665
432.926920	3687.142773
433.303977	3605.644959
433.680974	3550.023388
434.057910	3498.104545
434.434786	3435.657252
434.811601	3369.489587
435.188355	3357.915098
435.565050	3286.799540
435.941683	3236.546798
436.318257	3216.682131
436.694770	3159.028975
437.071222	3134.223978
437.447614	3061.394428
437.823946	3021.869262
438.200218	2995.801455
438.576429	2956.087245
438.952580	2935.695778
439.328670	2903.724780
439.704700	2886.801627
440.080670	2856.327852
440.456580	2843.432580
440.832429	2827.981443
441.208218	2792.595064
441.583947	2784.390586
441.959616	2768.861312
442.335224	2761.927205
442.710773	2749.001686
443.086261	2742.080182
443.461689	2726.765157
443.837057	2717.340719
444.212365	2717.799464
444.587612	2709.226982
444.962800	2696.122503
445.337927	2694.937832
445.712995	2676.827487
446.088002	2688.028930
446.462949	2683.958199
446.837837	2685.132787
447.212664	2679.443845
447.587431	2694.658048
447.962139	2713.249823
448.336786	2727.914540
448.711374	2712.332333
449.085901	2682.080369
449.460369	2679.597601
449.834776	2675.088288
450.209124	2687.008097
450.583412	2681.528362
450.957640	2683.602797
451.331808	2672.988648
451.705917	2663.942297
452.079965	2661.318377
452.453954	2660.794097
452.827883	2658.134888
453.201752	2654.137253
453.575562	2652.508960
453.949311	2657.746719
454.323001	2656.947696
454.696632	2655.886533
455.070202	2665.386588
455.443713	2662.394663
455.817164	2663.828871
456.190556	2661.888027
456.563888	2659.148160
456.937160	2660.282420
457.310373	2655.412665
457.683526	2656.872079
458.056619	2652.377890
458.429653	2652.385452
458.802628	2655.347130
459.175542	2656.471307
459.548398	2660.443737
459.921194	2669.994202
460.293930	2672.676096
460.666607	2683.900225
461.039224	2689.485824
461.411782	2692.543284
461.784280	2686.998014
462.156719	2682.881912
462.529099	2681.911490
462.901419	2674.135510
463.273680	2669.555622
463.645882	2669.943791
464.018024	2668.703667
464.390106	2675.330264
464.762130	2689.576565
465.134094	2709.869729
465.505999	2738.125397
465.877845	2764.021804
466.249631	2769.524223
466.621358	2758.582399
466.993026	2749.951944
467.364634	2740.552712
467.736184	2730.699777
468.107674	2727.937225
468.479105	2718.782489
468.850477	2720.488920
469.221790	2711.679504
469.593043	2705.647763
469.964238	2701.466126
470.335373	2698.247349
470.706449	2712.836448
471.077467	2727.201216
471.448425	2754.821698
471.819324	2771.389450
472.190164	2761.753285
472.560945	2744.013464
472.931667	2728.900085
473.302330	2723.064950
473.672934	2717.426419
474.043479	2721.711400
474.413965	2718.913559
474.784393	2713.305276
475.154761	2717.560010
475.525070	2720.987994
475.895321	2719.954558
476.265513	2720.226780
476.635645	2729.147102
477.005719	2731.329921
477.375734	2734.977196
477.745691	2736.345869
478.115588	2746.498753
478.485427	2757.004518
478.855207	2778.043773
479.224928	2791.680095
479.594591	2803.267187
479.964194	2797.890796
480.333739	2797.910961
480.703226	2798.616722
481.072653	2798.926753
481.442022	2801.704429
481.811333	2801.888431
482.180584	2794.387194
482.549777	2790.502985
482.918912	2787.846297
483.287988	2785.411420
483.657005	2773.433638
484.025964	2768.500869
484.394864	2767.805190
484.763706	2766.441558
485.132489	2757.816144
485.501213	2754.269692
485.869879	2757.632142
486.238487	2748.694176
486.607036	2750.133425
486.975527	2743.020357
487.343959	2746.750811
487.712333	2742.483474
488.080648	2742.004565
488.448905	2740.416601
488.817104	2739.960377
489.185244	2743.237127
489.553326	2747.713671
489.921350	2761.841505
490.289315	2777.965636
490.657222	2776.586880
491.025070	2775.616458
491.392861	2771.281066
491.760593	2766.207144
492.128267	2756.041657
492.495883	2746.024885
492.863440	2738.783267
493.230939	2728.224571
493.598380	2721.870196
493.965763	2716.977756
494.333088	2713.690924
494.700354	2710.459544
495.067563	2709.461396
495.434713	2706.371169
495.801805	2710.610779
496.168839	2705.993082
496.535815	2704.601724
496.902733	2700.659541
497.269593	2701.748431
497.636395	2700.709953
498.003139	2701.188862
498.369825	2697.097966
498.736453	2699.822710
499.103023	2696.177956
499.469535	2693.962368
499.835989	2698.454037
500.202385	2694.789118
500.568723	2693.644776
500.935003	2696.387163
501.301226	2690.922553
501.667390	2695.688964
502.033497	2695.709128
502.399546	2691.456915
502.765537	2689.528674
503.131470	2686.874506
503.497345	2691.295598
503.863163	2685.508353
504.228923	2689.223684
504.594625	2688.089424
504.960269	2680.719257
505.325856	2685.992304
505.691385	2684.258147
506.056856	2682.564320
506.422270	2683.897705
506.787625	2680.053825
507.152924	2681.460307
507.518164	2683.416275
507.883347	2680.036181
508.248472	2676.910666
508.613540	2678.612055
508.978550	2680.270595
509.343503	2676.953515
509.708398	2678.856551
510.073236	2676.915707
510.438016	2679.227076
510.802738	2676.162054
511.167403	2677.656756
511.532010	2677.991993
511.896561	2677.288752
512.261053	2682.922242
512.625488	2674.100222
512.989866	2669.810200
513.354186	2671.065448
513.718449	2670.132834
514.082655	2671.151147
514.446803	2671.950170
514.810894	2673.404543
515.174927	2671.912362
515.538904	2669.590910
515.902822	2674.148113
516.266684	2669.782474
516.630488	2668.428924
516.994235	2668.224757
517.357925	2667.786177
517.721558	2670.145437
518.085133	2670.372289
518.448651	2668.474295
518.812112	2663.682678
519.175516	2667.758451
519.538863	2665.605878
519.902152	2663.370126
520.265385	2662.956752
520.628560	2665.167298
520.991678	2661.777122
521.354739	2664.058244
521.717743	2659.874086
522.080690	2661.341062
522.443580	2660.627739
522.806413	2660.005156
523.169189	2657.161945
523.531908	2657.963489
523.894569	2658.157573
524.257174	2655.102634
524.619722	2656.957779
524.982213	2658.407110
525.344647	2653.396203
525.707025	2652.818991
526.069345	2652.302273
526.431608	2653.701193
526.793815	2654.359064
527.155964	2651.689773
527.518057	2650.905873
527.880093	2647.830770
528.242072	2648.206336
528.603995	2649.101140
528.965860	2645.123670
529.327669	2644.173412
529.689421	2644.493526
530.051117	2645.796664
530.412755	2642.298103
530.774337	2642.845068
531.135862	2639.583442
531.497331	2640.231230
531.858743	2637.191414
532.220098	2639.041518
532.581396	2635.558081
532.942638	2634.449027
533.303824	2637.166209
533.664953	2638.701240
534.026025	2635.605972
534.387040	2635.966414
534.747999	2635.472381
535.108902	2634.081022
535.469748	2632.432565
535.830537	2633.029942
536.191270	2633.755868
536.551947	2631.709160
536.912567	2631.583131
537.273131	2630.821917
537.633638	2629.294447
537.994089	2628.959210
538.354483	2628.049282
538.714821	2629.894344
539.075103	2629.735548
539.435328	2628.150105
539.795497	2624.739764
540.155609	2625.939559
540.515665	2630.726135
540.875665	2626.426030
541.235609	2627.232615
541.595496	2624.412089
541.955328	2625.879065
542.315102	2624.822943
542.674821	2624.593571
543.034483	2622.183899
543.394090	2619.806995
543.753640	2622.869496
544.113134	2623.393776
544.472571	2622.435957
544.831953	2622.181379
545.191278	2617.563682
545.550548	2618.249279
545.909761	2619.728858
546.268918	2620.941255
546.628019	2622.176338
546.987064	2616.631068
547.346053	2615.063270
547.704986	2618.997890
548.063863	2616.626027
548.422684	2617.306583
548.781449	2617.314145
549.140158	2616.326079
549.498811	2617.737602
549.857408	2612.761983
550.215949	2609.018926
550.574434	2609.331478
550.932864	2611.025305
551.291237	2614.165944
551.649555	2614.538990
552.007817	2614.342385
552.366022	2614.334823
552.724173	2610.659822
553.082267	2613.422374
553.440305	2614.289452
553.798288	2611.657970
554.156215	2610.727877
554.514086	2614.332302
554.871902	2613.639144
555.229661	2612.225100
555.587365	2611.673094
555.945014	2610.087651
556.302606	2610.934565
556.660143	2610.269132
557.017625	2612.041098
557.375050	2610.947167
557.732421	2609.825511
558.089735	2607.781323
558.446994	2605.749738
558.804197	2611.849534
559.161345	2608.787033
559.518437	2608.741663
559.875474	2609.487753
560.232455	2609.817949
560.589381	2610.352311
560.946251	2609.434821
561.303065	2607.078082
561.659825	2606.921806
562.016528	2604.862495
562.373177	2605.124635
562.729770	2606.820983
563.086307	2605.434666
563.442789	2603.995416
563.799216	2608.466920
564.155587	2603.065323
564.511904	2603.415684
564.868164	2604.433997
565.224370	2605.154882
565.580520	2605.177567
565.936615	2606.710078
566.292654	2604.749069
566.648638	2603.803852
567.004567	2605.260746
567.360441	2605.089347
567.716260	2602.392329
568.072023	2603.173708
568.427732	2600.270004
568.783385	2597.935949
569.138982	2598.697164
569.494525	2600.461567
569.850013	2597.504931
570.205445	2599.871752
570.560823	2599.778491
570.916145	2602.362082
571.271412	2600.272524
571.626625	2600.829572
571.981782	2598.019128
572.336884	2599.370158
572.691931	2599.607092
573.046923	2599.987699
573.401860	2598.172884
573.756743	2598.818151
574.111570	2597.320929
574.466342	2601.051382
574.821059	2597.835126
575.175722	2600.411156
575.530330	2597.101638
575.884882	2595.841350
576.239380	2596.521906
576.593823	2598.437544
576.948211	2594.283633
577.302544	2596.799169
577.656823	2593.847574
578.011047	2597.893100
578.365216	2594.230701
578.719330	2595.889241
579.073389	2591.911771
579.427394	2592.093252
579.781344	2591.574013
580.135239	2591.183324
580.489080	2592.819178
580.842866	2592.693149
581.196597	2590.439754
581.550273	2590.248190
581.903895	2589.035792
582.257463	2593.552666
582.610975	2588.990422
582.964434	2590.578385
583.317837	2590.338931
583.671186	2588.105699
584.024481	2589.996132
584.377721	2588.924887
584.730906	2587.105030
585.084037	2591.475711
585.437113	2583.850966
585.790135	2589.882706
586.143103	2587.843559
586.496016	2584.735688
586.848874	2582.918352
587.201679	2584.680235
587.554428	2583.878692
587.907124	2582.963722
588.259765	2580.531366
588.612352	2585.128898
588.964884	2584.057653
589.317362	2584.861717
589.669786	2586.815164
590.022155	2583.417426
590.374470	2584.627303
590.726731	2586.439598
591.078937	2582.378949
591.431090	2587.228539
591.783188	2583.175451
592.135232	2578.038515
592.487222	2581.753846
592.839157	2582.827611
593.191038	2580.049936
593.542866	2581.060687
593.894639	2580.554051
594.246358	2579.218145
594.598022	2580.629668
594.949633	2577.514235
595.301190	2579.013978
595.652692	2577.819225
596.004141	2579.281160
596.355535	2578.484657
596.706876	2576.982393
597.058162	2574.537434
597.409395	2577.650346
597.760573	2574.945767
598.111698	2576.359811
598.462768	2577.342836
598.813785	2577.506673
599.164748	2574.330747
599.515657	2576.450552
599.866511	2573.705643
600.217312	2574.774368
600.568060	2575.021385
600.918753	2576.417784
601.269392	2575.255798
601.619978	2572.309244
601.970510	2574.250088
602.320988	2575.220510
602.671412	2576.362332
603.021783	2571.132134
603.372100	2575.119687
603.722363	2574.560119
604.072572	2573.665314
604.422728	2573.433421
604.772830	2568.800601
605.122878	2568.677092
605.472872	2567.116855
605.822813	2569.282031
606.172701	2570.207083
606.522534	2574.602969
606.872314	2575.008782
607.222041	2571.618606
607.571714	2574.376117
607.921333	2569.455951
608.270899	2571.646332
608.620411	2572.178174
608.969870	2572.261353
609.319276	2571.371589
609.668627	2573.952660
610.017926	2571.079202
610.367171	2569.995354
610.716362	2572.629357
611.065500	2572.571384
611.414585	2571.963925
611.763616	2574.323185
612.112594	2573.486353
612.461518	2573.521641
612.810389	2571.167422
613.159207	2571.820252
613.507971	2571.742114
613.856682	2573.607341
614.205340	2574.164388
614.553945	2574.799574
614.902496	2572.536096
615.250994	2572.672207
615.599439	2572.281517
615.947830	2574.585325
616.296169	2574.194635
616.644454	2572.931826
616.992686	2573.299831
617.340864	2573.110787
617.688990	2574.388720
618.037063	2572.677248
618.385082	2573.138514
618.733048	2573.982907
619.080961	2571.792526
619.428821	2576.316961
619.776628	2572.624316
620.124382	2573.181363
620.472083	2572.662125
620.819731	2573.652711
621.167326	2574.184553
621.514868	2573.251940
621.862357	2570.348235
622.209793	2569.065261
622.557176	2569.685323
622.904506	2568.397308
623.251783	2566.050651
623.599007	2566.232133
623.946179	2564.535785
624.293297	2564.097204
624.640363	2565.665003
624.987376	2566.874880
625.334336	2564.651731
625.681243	2565.884293
626.028097	2562.915054
626.374899	2564.845816
626.721647	2565.339849
627.068343	2566.579973
627.414987	2563.887996
627.761577	2564.351782
628.108115	2562.080743
628.454600	2563.159550
628.801032	2562.166442
629.147412	2562.867163
629.493739	2565.057544
629.840014	2560.071843
630.186236	2563.913202
630.532405	2560.891030
630.878521	2560.114693
631.224585	2561.445557
631.570597	2560.220557
631.916556	2563.076371
632.262462	2562.365568
632.608316	2561.783315
632.954117	2558.935063
633.299866	2561.024621
633.645562	2557.858776
633.991206	2559.144271
634.336797	2558.803993
634.682336	2559.923129
635.027823	2557.911708
635.373257	2557.614280
635.718639	2558.771225
636.063968	2556.905998
636.409245	2558.020093
636.754470	2556.298539
637.099642	2554.884496
637.444762	2557.722665
637.789829	2554.087993
638.134845	2554.113199
638.479808	2558.544373
638.824719	2558.640155
639.169577	2554.534135
639.514383	2554.193858
639.859137	2552.167314
640.203839	2554.080432
640.548489	2555.827191
640.893086	2550.753270
641.237632	2549.011551
641.582125	2549.152704
641.926566	2547.297559
642.270955	2550.448280
642.615292	2552.681511
642.959576	2552.447098
643.303809	2552.283260
643.647990	2550.604556
643.992118	2552.283260
644.336195	2548.956099
