Dividing Wavelength (nm)	Counts (n)	Blue Motor Position (mm): 0.000000	Red Motor Position (mm): 28.000000	
326.493990	2077.454459
326.888308	2077.454459
327.282561	2077.454459
327.676750	2055.865718
328.070874	2056.458053
328.464933	2063.545915
328.858929	2073.839952
329.252859	2085.918556
329.646726	2103.532348
330.040528	2118.388628
330.434265	2138.573408
330.827938	2156.202323
331.221547	2176.283759
331.615091	2196.796214
332.008571	2216.618031
332.401986	2235.718963
332.795338	2258.220153
333.188625	2276.716147
333.581847	2296.958900
333.975006	2313.924903
334.368100	2332.872080
334.761129	2348.890347
335.154095	2363.592872
335.546996	2387.472818
335.939833	2413.979204
336.332606	2429.163160
336.725315	2439.177412
337.117960	2448.743001
337.510540	2457.373457
337.903056	2466.732359
338.295508	2472.645632
338.687896	2479.829277
339.080220	2485.989567
339.472480	2492.139774
339.864676	2493.992398
340.256807	2500.066989
340.648875	2499.371309
341.040879	2501.506238
341.432818	2501.473471
341.824694	2501.286948
342.216506	2504.268790
342.608253	2500.961793
342.999937	2502.033039
343.391557	2499.018429
343.783113	2499.577997
344.174605	2496.722183
344.566033	2495.141781
344.957397	2498.587410
345.348697	2492.666575
345.739934	2491.948210
346.131106	2491.267655
346.522215	2488.121975
346.913260	2485.921511
347.304241	2485.457725
347.695159	2484.850266
348.086012	2481.724750
348.476802	2481.651654
348.867528	2479.700727
349.258191	2478.289204
349.648789	2479.146200
350.039324	2476.673514
350.429796	2478.856334
350.820203	2477.959008
351.210548	2476.736529
351.600828	2478.266519
351.991045	2473.807618
352.381198	2474.659573
352.771288	2476.786940
353.161314	2474.289048
353.551276	2476.323154
353.941175	2476.998669
354.331010	2474.916672
354.720782	2477.555716
355.110490	2480.658546
355.500135	2478.500933
355.889717	2477.477578
356.279235	2478.508494
356.668689	2478.143011
357.058080	2480.177116
357.447408	2475.375417
357.836672	2476.217290
358.225873	2477.152424
358.615010	2478.616879
359.004084	2481.772641
359.393095	2483.506798
359.782043	2482.856489
360.170927	2484.204998
360.559748	2484.081490
360.948505	2485.924032
361.337199	2487.060812
361.725830	2488.457211
362.114398	2485.918990
362.502903	2489.639362
362.891344	2491.476862
363.279722	2492.338900
363.668037	2491.307984
364.056289	2491.817140
364.444478	2496.512975
364.832603	2495.051041
365.220665	2494.902327
365.608665	2493.972234
365.996601	2495.797131
366.384474	2498.688233
366.772284	2498.592451
367.160031	2499.857781
367.547715	2498.118583
367.935336	2504.009171
368.322893	2504.213338
368.710388	2501.705364
369.097820	2506.824655
369.485189	2503.434479
369.872495	2508.178205
370.259738	2505.458503
370.646918	2510.313134
371.034035	2513.859586
371.421090	2514.814884
371.808081	2515.871006
372.195010	2519.971985
372.581875	2524.244362
372.968678	2530.820548
373.355418	2537.507638
373.742096	2547.980635
374.128710	2555.875082
374.515262	2566.088460
374.901751	2578.454410
375.288177	2595.576689
375.674540	2610.634616
376.060841	2630.937863
376.447079	2651.190699
376.833254	2676.454441
377.219367	2697.150898
377.605417	2727.796072
377.991404	2751.040833
378.377329	2788.720937
378.763191	2822.894919
379.148991	2866.321939
379.534727	2911.659556
379.920402	2955.779735
380.306013	2999.635253
380.691563	3060.487021
381.077049	3118.490537
381.462474	3164.470901
381.847835	3236.332549
382.233134	3304.584731
382.618371	3355.588605
383.003545	3439.133127
383.388657	3515.867050
383.773706	3606.494394
384.158693	3671.590813
384.543618	3759.092641
384.928480	3836.686081
385.313280	3935.933797
385.698017	4031.458622
386.082692	4147.377434
386.467305	4206.124520
386.851856	4324.884023
387.236344	4473.582938
387.620770	4535.253893
388.005133	4647.716994
388.389435	4786.691523
388.773674	4865.283112
389.157851	4989.262729
389.541965	5120.796515
389.926018	5148.616123
390.310008	5316.068130
390.693936	5431.853352
391.077802	5544.414755
391.461606	5673.652296
391.845348	5784.842506
392.229027	5896.993055
392.612645	6107.005004
392.996200	6225.754424
393.379694	6396.606689
393.763125	6609.668536
394.146494	6701.415016
394.529801	6825.107287
394.913047	7060.267032
395.296230	7054.762092
395.679351	7109.325020
396.062410	7364.145265
396.445408	7266.336798
396.828343	7410.831391
397.211217	7542.095475
397.594028	7439.737367
397.976778	7635.687017
398.359466	7796.799773
398.742092	7783.755788
399.124656	7923.471366
399.507158	8110.699820
399.889598	8138.569839
400.271977	8340.152979
400.654294	8371.340077
401.036549	8568.560098
401.418742	8600.014377
401.800874	8896.436744
402.182944	8979.187284
402.564952	9326.288371
402.946898	9170.254577
403.328783	9223.350530
403.710606	9416.887987
404.092367	9669.777470
404.474067	10018.267394
404.855705	9819.081324
405.237282	9786.608731
405.618797	10199.461587
406.000250	10441.852867
406.381642	10800.818309
406.762972	10744.503579
407.144240	10561.136649
407.525447	10814.172325
407.906593	10763.435632
408.287677	11025.641168
408.668700	11174.640031
409.049661	11159.740901
409.430560	11319.926085
409.811399	11292.769389
410.192176	11453.279728
410.572891	11532.854341
410.953545	12000.396155
411.334138	11494.992755
411.714669	12076.870458
412.095139	11430.715523
412.475547	11889.863815
412.855894	11766.287491
413.236180	12087.255235
413.616405	11784.924636
413.996568	12062.029302
414.376670	12034.174406
414.756711	11925.348497
415.136691	12195.839169
415.516609	12367.059438
415.896466	12447.617077
416.276262	12735.792116
416.655997	13194.421169
417.035670	13244.144590
417.415283	13852.082538
417.794834	13943.390437
418.174324	13695.731152
418.553753	13605.547430
418.933121	14092.651441
419.312428	13920.738013
419.691674	13827.101101
420.070859	14293.092759
420.449983	13946.079893
420.829045	14498.597916
421.208047	14255.947017
421.586988	14708.665318
421.965867	14954.968533
422.344686	14948.324292
422.723444	15529.317273
423.102141	14226.189086
423.480777	15413.496763
423.859352	14915.203911
424.237866	16011.319636
424.616319	15733.783952
424.994712	16376.674741
425.373044	16171.633370
425.751314	16861.028802
426.129524	15996.186092
426.507673	17071.922953
426.885762	16795.503884
427.263789	16977.973489
427.641756	17161.831932
428.019662	17220.692444
428.397508	17267.227335
428.775292	17550.812403
429.153016	17549.612609
429.530679	17615.442516
429.908282	17642.505951
430.285824	17381.127165
430.663305	18086.727387
431.040726	17708.008183
431.418086	17545.191517
431.795385	18184.767747
432.172624	18613.517881
432.549802	18172.399276
432.926920	18387.439775
433.303977	18261.085775
433.680974	18519.328963
434.057910	18837.589608
434.434786	18873.487664
434.811601	18796.032856
435.188355	19837.222689
435.565050	19505.340846
435.941683	19474.254571
436.318257	20357.210147
436.694770	20166.916671
437.071222	20758.327197
437.447614	19831.768161
437.823946	19861.513489
438.200218	20040.209790
438.576429	19814.018258
438.952580	20126.375712
439.328670	20083.026830
439.704700	20508.608600
440.080670	20077.534493
440.456580	20690.037206
440.832429	20850.456804
441.208218	19868.061948
441.583947	20304.598145
441.959616	20436.220151
442.335224	20680.446411
442.710773	20834.214206
443.086261	21367.454857
443.461689	20696.731858
443.837057	20873.507480
444.212365	21523.775997
444.587612	21530.266482
444.962800	21124.108278
445.337927	21557.642468
445.712995	20266.928122
446.088002	22163.473214
446.462949	22354.840455
446.837837	22549.872615
447.212664	22559.995252
447.587431	25521.852098
447.962139	28490.151538
448.336786	30780.919901
448.711374	29112.376116
449.085901	25393.912654
449.460369	25403.475723
449.834776	25407.407823
450.209124	27939.092928
450.583412	27428.335824
450.957640	27914.101408
451.331808	26562.557980
451.705917	25193.909916
452.079965	25231.032973
452.453954	25604.277483
452.827883	25532.914910
453.201752	25321.861963
453.575562	25476.534645
453.949311	26617.735929
454.323001	26686.482144
454.696632	26463.164070
455.070202	28055.258757
455.443713	28231.419358
455.817164	28807.761874
456.190556	29369.212822
456.563888	28764.397869
456.937160	29205.161073
457.310373	27491.693045
457.683526	27919.140042
458.056619	27917.428570
458.429653	27888.789775
458.802628	28489.476023
459.175542	28623.122053
459.548398	29985.400618
459.921194	31582.339854
460.293930	32317.445949
460.666607	34389.559306
461.039224	36154.699160
461.411782	36476.723027
461.784280	35177.312691
462.156719	34619.488853
462.529099	34027.007083
462.901419	32688.701724
463.273680	31628.045476
463.645882	31754.318818
464.018024	31726.403428
464.390106	32629.390029
464.762130	35467.776414
465.134094	39701.733144
465.505999	45068.800107
465.877845	49515.949754
466.249631	50497.777480
466.621358	48602.651474
466.993026	46352.552619
467.364634	44194.487590
467.736184	42182.943697
468.107674	40874.779397
468.479105	40058.485520
468.850477	39293.747522
469.221790	37814.307500
469.593043	36016.798397
469.964238	35085.944298
470.335373	34972.593954
470.706449	36699.310134
471.077467	39283.740832
471.448425	43701.810583
471.819324	46302.680484
472.190164	44279.153769
472.560945	40685.826869
472.931667	37559.552791
473.302330	36414.787411
473.672934	35523.055186
474.043479	35913.416934
474.413965	35098.368222
474.784393	34627.400944
475.154761	35394.977111
475.525070	35334.105178
475.895321	34772.649189
476.265513	35241.501703
476.635645	36050.317029
477.005719	35769.103823
477.375734	36109.948837
477.745691	36638.675135
478.115588	37772.092878
478.485427	39548.300586
478.855207	42596.872839
479.224928	44891.190175
479.594591	46197.012858
479.964194	44979.793495
480.333739	44926.795844
480.703226	44804.416794
481.072653	45224.959930
481.442022	45446.097705
481.811333	45435.995233
482.180584	44013.177451
482.549777	43304.416426
482.918912	42601.498098
483.287988	42093.022115
483.657005	41123.714095
484.025964	40300.629783
484.394864	40073.999671
484.763706	39465.892844
485.132489	38459.098803
485.501213	38076.311389
485.869879	37968.619740
486.238487	37362.620116
486.607036	37267.538913
486.975527	36561.681592
487.343959	36509.724940
487.712333	36296.766437
488.080648	35948.838602
488.448905	36047.884672
488.817104	35615.139423
489.185244	36133.614534
489.553326	37222.113076
489.921350	39160.653499
490.289315	41299.022740
490.657222	41451.000926
491.025070	41307.000366
491.392861	40128.759204
491.760593	38695.685195
492.128267	36965.359548
492.495883	35421.788488
492.863440	34031.486148
493.230939	32679.378110
493.598380	31582.158373
493.965763	31028.826203
494.333088	30143.476079
494.700354	29474.003287
495.067563	28951.918709
495.434713	28543.993581
495.801805	28281.223437
496.168839	27696.900774
496.535815	27149.002968
496.902733	26845.961567
497.269593	26257.472390
497.636395	25909.889874
498.003139	25828.381978
498.369825	25178.703276
498.736453	25039.179261
499.103023	24443.783703
499.469535	24054.299116
499.835989	23773.262351
500.202385	23267.236369
500.568723	22961.563485
500.935003	22732.445563
501.301226	22310.843785
501.667390	22308.179535
502.033497	22114.737859
502.399546	21503.465188
502.765537	20840.860967
503.131470	20706.199145
503.497345	20559.806558
503.863163	19613.075345
504.228923	19600.563201
504.594625	19471.716350
504.960269	18825.700047
505.325856	18814.223860
505.691385	18233.850941
506.056856	17994.375969
506.422270	17857.095267
506.787625	17364.458590
507.152924	17147.409190
507.518164	16883.192235
507.883347	16293.888912
508.248472	16086.420226
508.613540	15987.636295
508.978550	15790.350740
509.343503	15422.175110
509.708398	15199.502303
510.073236	15094.273258
510.438016	14813.639785
510.802738	14360.634138
511.167403	14283.811995
511.532010	14067.969952
511.896561	13891.234660
512.261053	13865.421432
512.625488	13464.889156
512.989866	13161.497394
513.354186	12855.179242
513.718449	12585.709404
514.082655	12498.948626
514.446803	12168.064932
514.810894	12049.552446
515.174927	11785.978238
515.538904	11530.684124
515.902822	11433.347005
516.266684	11090.571229
516.630488	10948.448499
516.994235	10691.725219
517.357925	10584.883004
517.721558	10400.969109
518.085133	10244.456406
518.448651	10051.191170
518.812112	9803.022728
519.175516	9619.015572
519.538863	9471.695412
519.902152	9262.023741
520.265385	9147.561823
520.628560	8958.304304
520.991678	8739.772806
521.354739	8595.227802
521.717743	8457.808468
522.080690	8267.351155
522.443580	8168.332812
522.806413	8005.906835
523.169189	7835.288983
523.531908	7691.427055
523.894569	7513.935590
524.257174	7377.103551
524.619722	7261.885459
524.982213	7112.415247
525.344647	6958.092925
525.707025	6829.089798
526.069345	6731.026753
526.431608	6594.802173
526.793815	6492.496997
527.155964	6320.709598
527.518057	6213.186827
527.880093	6083.435089
528.242072	6011.727196
528.603995	5874.552359
528.965860	5770.646616
529.327669	5669.619373
529.689421	5562.857817
530.051117	5462.831242
530.412755	5373.592737
530.774337	5294.625582
531.135862	5191.057597
531.497331	5113.658241
531.858743	5023.701372
532.220098	4966.030572
532.581396	4871.090521
532.942638	4778.663486
533.303824	4726.782451
533.664953	4653.814270
534.026025	4575.809976
534.387040	4538.238256
534.747999	4473.645952
535.108902	4422.127880
535.469748	4344.380685
535.830537	4295.020227
536.191270	4247.041045
536.551947	4185.654915
536.912567	4149.020850
537.273131	4110.138430
537.633638	4045.974624
537.994089	4017.131662
538.354483	3961.636120
538.714821	3939.588634
539.075103	3913.518307
539.435328	3871.371740
539.795497	3832.605267
540.155609	3798.862304
540.515665	3784.316054
540.875665	3738.446596
541.235609	3711.877194
541.595496	3686.557999
541.955328	3677.357893
542.315102	3633.678816
542.674821	3607.371554
543.034483	3585.699634
543.394090	3559.064698
543.753640	3534.743651
544.113134	3537.702808
544.472571	3498.908609
544.831953	3503.009588
545.191278	3472.462716
545.550548	3446.788119
545.909761	3443.881894
546.268918	3430.258176
546.628019	3418.817277
546.987064	3397.296591
547.346053	3370.553270
547.704986	3373.000750
548.063863	3352.271526
548.422684	3344.961853
548.781449	3330.009790
549.140158	3322.498471
549.498811	3313.061431
549.857408	3288.445477
550.215949	3289.942700
550.574434	3279.915845
550.932864	3270.231788
551.291237	3268.255656
551.649555	3253.338882
552.007817	3249.759662
552.366022	3238.906058
552.724173	3232.347517
553.082267	3230.303329
553.440305	3227.870972
553.798288	3207.570246
554.156215	3206.002447
554.514086	3202.466077
554.871902	3191.332689
555.229661	3186.974612
555.587365	3178.394568
555.945014	3170.671520
556.302606	3167.520799
556.660143	3162.774553
557.017625	3157.466218
557.375050	3148.598828
557.732421	3146.027840
558.089735	3144.228148
558.446994	3133.626601
558.804197	3137.301602
559.161345	3134.786067
559.518437	3116.658077
559.875474	3116.249744
560.232455	3114.278653
560.589381	3110.205400
560.946251	3105.171808
561.303065	3107.473095
561.659825	3100.980089
562.016528	3093.864500
562.373177	3083.424271
562.729770	3087.510126
563.086307	3078.453693
563.442789	3079.887901
563.799216	3073.588979
564.155587	3069.755182
564.511904	3067.958011
564.868164	3065.956672
565.224370	3063.511713
565.580520	3058.110117
565.936615	3058.100034
566.292654	3051.440670
566.648638	3051.395300
567.004567	3049.867830
567.360441	3045.043446
567.716260	3041.176881
568.072023	3043.087478
568.427732	3037.834596
568.783385	3027.875796
569.138982	3028.594161
569.494525	3027.722041
569.850013	3021.506298
570.205445	3023.187523
570.560823	3020.669467
570.916145	3016.868437
571.271412	3016.185361
571.626625	3012.742253
571.981782	3008.381654
572.336884	3003.839575
572.691931	3006.256808
573.046923	3002.281858
573.401860	2996.882783
573.756743	2995.879593
574.111570	2994.513440
574.466342	2990.059581
574.821059	2991.546721
575.175722	2984.005155
575.530330	2980.486430
575.884882	2976.438383
576.239380	2975.162971
576.593823	2974.212714
576.948211	2972.208855
577.302544	2967.777681
577.656823	2963.308698
578.011047	2966.968576
578.365216	2962.408852
578.719330	2957.564303
579.073389	2957.518933
579.427394	2954.884930
579.781344	2954.194292
580.135239	2950.093313
580.489080	2950.267233
580.842866	2943.993517
581.196597	2946.791357
581.550273	2944.369083
581.903895	2948.454938
582.257463	2947.156841
582.610975	2938.259204
582.964434	2939.781633
583.317837	2935.605037
583.671186	2933.331477
584.024481	2935.670572
584.377721	2929.936259
584.730906	2929.212854
585.084037	2933.286106
585.437113	2927.786207
585.790135	2927.965168
586.143103	2921.877975
586.496016	2923.675146
586.848874	2918.820515
587.201679	2917.943354
587.554428	2915.246337
587.907124	2915.521080
588.259765	2912.713157
588.612352	2915.206008
588.964884	2909.093609
589.317362	2909.975811
589.669786	2910.817683
590.022155	2909.696027
590.374470	2911.599062
590.726731	2906.348701
591.078937	2902.361148
591.431090	2902.497259
591.783188	2898.292937
592.135232	2895.500138
592.487222	2895.956362
592.839157	2896.778070
593.191038	2893.886968
593.542866	2887.464538
593.894639	2885.657285
594.246358	2886.577295
594.598022	2887.396483
594.949633	2880.578322
595.301190	2881.755432
595.652692	2878.395503
596.004141	2881.389948
596.355535	2871.562218
596.706876	2873.487939
597.058162	2869.056765
597.409395	2872.522558
597.760573	2872.698999
598.111698	2869.535675
598.462768	2870.606920
598.813785	2867.408308
599.164748	2860.292719
599.515657	2867.176415
599.866511	2860.481762
600.217312	2865.802700
600.568060	2859.869262
600.918753	2863.965200
601.269392	2862.657020
601.619978	2856.227028
601.970510	2860.789273
602.320988	2858.614015
602.671412	2861.653831
603.021783	2860.091073
603.372100	2858.155270
603.722363	2857.386494
604.072572	2854.412213
604.422728	2860.212061
604.772830	2850.971626
605.122878	2850.800226
605.472872	2851.677387
605.822813	2850.863241
606.172701	2850.081862
606.522534	2853.225021
606.872314	2856.224508
607.222041	2851.087572
607.571714	2853.484641
607.921333	2848.130935
608.270899	2850.265864
608.620411	2851.508508
608.969870	2850.742253
609.319276	2851.072449
609.668627	2850.651512
610.017926	2851.624455
610.367171	2852.710824
610.716362	2854.031606
611.065500	2851.261492
611.414585	2855.528829
611.763616	2853.829960
612.112594	2853.615711
612.461518	2853.739219
612.810389	2856.234590
613.159207	2853.106554
613.507971	2851.490864
613.856682	2854.500433
614.205340	2850.112109
614.553945	2859.823892
614.902496	2851.445494
615.250994	2855.458253
615.599439	2854.666791
615.947830	2857.623428
616.296169	2858.697194
616.644454	2858.545959
616.992686	2858.107379
617.340864	2859.730630
617.688990	2855.062522
618.037063	2862.614170
618.385082	2857.358767
618.733048	2858.530836
619.080961	2860.229705
619.428821	2857.603263
619.776628	2858.954293
620.124382	2855.859024
620.472083	2858.122502
620.819731	2858.218284
621.167326	2852.899867
621.514868	2853.222501
621.862357	2846.169927
622.209793	2846.482478
622.557176	2843.251098
622.904506	2839.276149
623.251783	2833.940087
623.599007	2833.872032
623.946179	2831.462360
624.293297	2829.395487
624.640363	2828.556135
624.987376	2825.566731
625.334336	2822.335351
625.681243	2823.267965
626.028097	2821.793427
626.374899	2817.117757
626.721647	2817.652119
627.068343	2816.328816
627.414987	2813.563743
627.761577	2813.014258
628.108115	2810.191212
628.454600	2810.760862
628.801032	2811.597693
629.147412	2810.105512
629.493739	2808.204997
629.840014	2805.155099
630.186236	2804.414049
630.532405	2803.509162
630.878521	2805.422280
631.224585	2802.430355
631.570597	2797.240487
631.916556	2800.111424
632.262462	2798.871301
632.608316	2799.904737
632.954117	2798.921712
633.299866	2797.336269
633.645562	2794.288892
633.991206	2794.316618
634.336797	2787.354785
634.682336	2788.887295
635.027823	2782.389248
635.373257	2783.735236
635.718639	2781.212139
636.063968	2778.890687
636.409245	2774.136879
636.754470	2774.419184
637.099642	2771.066817
637.444762	2773.189142
637.789829	2768.712598
638.134845	2767.323760
638.479808	2767.074223
638.824719	2763.593306
639.169577	2760.432502
639.514383	2761.158429
639.859137	2757.425454
