Dividing Wavelength (nm)	Counts (n)	Blue Motor Position (mm): 0.000000	Red Motor Position (mm): 21.500000	
326.493990	2126.406583
326.888308	2126.406583
327.282561	2126.406583
327.676750	2096.114290
328.070874	2095.045565
328.464933	2097.361975
328.858929	2102.912286
329.252859	2114.668257
329.646726	2125.305091
330.040528	2138.434776
330.434265	2155.519247
330.827938	2172.646567
331.221547	2188.667354
331.615091	2210.830787
332.008571	2225.389639
332.401986	2245.947464
332.795338	2266.565784
333.188625	2285.114709
333.581847	2302.526855
333.975006	2323.356902
334.368100	2342.180571
334.761129	2359.910309
335.154095	2374.391023
335.546996	2390.280740
335.939833	2407.428225
336.332606	2423.065884
336.725315	2436.424942
337.117960	2445.451128
337.510540	2455.634259
337.903056	2463.856381
338.295508	2471.723101
338.687896	2483.673156
339.080220	2489.021821
339.472480	2497.841319
339.864676	2501.765858
340.256807	2504.838441
340.648875	2506.030674
341.040879	2508.929337
341.432818	2511.729698
341.824694	2514.751870
342.216506	2515.240862
342.608253	2511.984276
342.999937	2515.878568
343.391557	2515.041736
343.783113	2516.208763
344.174605	2514.681294
344.566033	2513.988135
344.957397	2510.290449
345.348697	2506.882629
345.739934	2505.037566
346.131106	2502.607730
346.522215	2499.925836
346.913260	2500.369458
347.304241	2496.737307
347.695159	2498.819303
348.086012	2495.794611
348.476802	2490.783704
348.867528	2491.920484
349.258191	2489.142808
349.648789	2491.151708
350.039324	2487.854793
350.429796	2488.994094
350.820203	2486.332365
351.210548	2484.525111
351.600828	2485.417396
351.991045	2484.358753
352.381198	2482.642240
352.771288	2482.836325
353.161314	2482.738022
353.551276	2483.181644
353.941175	2481.573516
354.331010	2484.378918
354.720782	2483.247179
355.110490	2482.838845
355.500135	2483.736171
355.889717	2482.750625
356.279235	2484.141984
356.668689	2484.615852
357.058080	2482.208701
357.447408	2481.681901
357.836672	2477.280973
358.225873	2482.677528
358.615010	2482.216263
359.004084	2487.207005
359.393095	2487.864876
359.782043	2486.586943
360.170927	2487.998466
360.559748	2489.682212
360.948505	2489.168014
361.337199	2489.145329
361.725830	2490.120792
362.114398	2489.382263
362.502903	2492.323776
362.891344	2492.313694
363.279722	2493.894096
363.668037	2493.006853
364.056289	2493.478201
364.444478	2496.724704
364.832603	2493.952069
365.220665	2494.420896
365.608665	2495.524909
365.996601	2497.836278
366.384474	2499.434324
366.772284	2499.923316
367.160031	2501.455827
367.547715	2502.499345
367.935336	2505.332474
368.322893	2506.295334
368.710388	2514.930831
369.097820	2519.046933
369.485189	2520.329907
369.872495	2526.936339
370.259738	2536.159130
370.646918	2541.631302
371.034035	2547.095913
371.421090	2558.269630
371.808081	2567.489901
372.195010	2575.845613
372.581875	2593.693818
372.968678	2601.973914
373.355418	2615.408589
373.742096	2635.545478
374.128710	2647.916469
374.515262	2662.331649
374.901751	2677.828156
375.288177	2690.541946
375.674540	2714.026161
376.060841	2730.026783
376.447079	2749.687283
376.833254	2772.669903
377.219367	2783.921759
377.605417	2822.806699
377.991404	2829.140909
378.377329	2852.534383
378.763191	2868.484594
379.148991	2909.181829
379.534727	2934.984975
379.920402	2961.103193
380.306013	2972.281952
380.691563	3022.121319
381.077049	3042.991696
381.462474	3061.182700
381.847835	3102.830192
382.233134	3123.675363
382.618371	3124.020682
383.003545	3190.455528
383.388657	3198.009697
383.773706	3232.491190
384.158693	3249.157244
384.543618	3273.808487
384.928480	3309.419198
385.313280	3357.499202
385.698017	3353.274715
386.082692	3410.544744
386.467305	3413.839138
386.851856	3444.592697
387.236344	3467.880307
387.620770	3498.139833
388.005133	3525.054553
388.389435	3553.839542
388.773674	3564.504103
389.157851	3604.535905
389.541965	3622.346302
389.926018	3586.997731
390.310008	3659.565141
390.693936	3675.596010
391.077802	3717.740056
391.461606	3710.823593
391.845348	3770.029424
392.229027	3771.887090
392.612645	3779.864716
392.996200	3859.421685
393.379694	3899.851739
393.763125	3963.801296
394.146494	3933.287192
394.529801	3990.194257
394.913047	4043.317936
395.296230	4003.656658
395.679351	4061.549269
396.062410	4082.807815
396.445408	4068.236360
396.828343	4097.986729
397.211217	4122.083444
397.594028	4043.451527
397.976778	4107.358234
398.359466	4134.668685
398.742092	4165.439888
399.124656	4089.787292
399.507158	4167.436185
399.889598	4193.675391
400.271977	4257.398096
400.654294	4225.555648
401.036549	4232.716607
401.418742	4201.290054
401.800874	4306.617402
402.182944	4325.299918
402.564952	4390.192171
402.946898	4379.063823
403.328783	4370.355230
403.710606	4287.738280
404.092367	4482.188187
404.474067	4445.281900
404.855705	4453.009989
405.237282	4379.336046
405.618797	4489.439887
406.000250	4521.141183
406.381642	4607.493628
406.762972	4561.782965
407.144240	4574.814348
407.525447	4576.427517
407.906593	4636.107217
408.287677	4679.148588
408.668700	4608.574955
409.049661	4659.210825
409.430560	4699.114078
409.811399	4625.122543
410.192176	4785.209424
410.572891	4726.180033
410.953545	4829.843800
411.334138	4708.019277
411.714669	4772.205768
412.095139	4669.199871
412.475547	4810.700019
412.855894	4791.505825
413.236180	4804.504441
413.616405	4750.927057
413.996568	4838.416282
414.376670	4780.011995
414.756711	4735.680088
415.136691	4765.541362
415.516609	4839.134647
415.896466	4878.760637
416.276262	4907.575872
416.655997	4884.043766
417.035670	5059.927103
417.415283	5152.099560
417.794834	5089.062452
418.174324	5037.526736
418.553753	4942.069967
418.933121	5119.049755
419.312428	5173.791645
419.691674	5105.650368
420.070859	5217.745465
420.449983	5129.663905
420.829045	5228.515891
421.208047	5125.686434
421.586988	5182.175084
421.965867	5182.588458
422.344686	5290.713647
422.723444	5142.564218
423.102141	4955.577739
423.480777	5220.140013
423.859352	4986.527903
424.237866	5205.805493
424.616319	5176.569321
424.994712	5259.836579
425.373044	5125.651146
425.751314	5228.430191
426.129524	5032.336868
426.507673	5176.642417
426.885762	5230.187033
427.263789	5133.706910
427.641756	5014.453375
428.019662	5083.892748
428.397508	5058.636568
428.775292	4975.263445
429.153016	5025.387638
429.530679	4937.555614
429.908282	4963.961178
430.285824	4829.861444
430.663305	5000.330582
431.040726	4762.904839
431.418086	4726.714396
431.795385	4763.257720
432.172624	4729.330754
432.549802	4681.074309
432.926920	4647.863188
433.303977	4608.448926
433.680974	4590.515022
434.057910	4552.250143
434.434786	4509.879245
434.811601	4446.937919
435.188355	4539.541394
435.565050	4414.228392
435.941683	4356.817212
436.318257	4416.111263
436.694770	4357.147407
437.071222	4319.865554
437.447614	4232.086463
437.823946	4141.481804
438.200218	4164.204805
438.576429	4049.402609
438.952580	4035.557080
439.328670	4007.671937
439.704700	3917.117691
440.080670	3869.299826
440.456580	3915.529727
440.832429	3824.569668
441.208218	3716.058831
441.583947	3724.051581
441.959616	3679.467616
442.335224	3608.042028
442.710773	3603.048765
443.086261	3562.643917
443.461689	3460.772280
443.837057	3453.250878
444.212365	3449.485137
444.587612	3386.195971
444.962800	3378.369579
445.337927	3331.668330
445.712995	3208.444886
446.088002	3285.667801
446.462949	3218.040722
446.837837	3168.130779
447.212664	3166.318484
447.587431	3148.513128
447.962139	3195.733617
448.336786	3294.404121
448.711374	3216.210783
449.085901	3059.861918
449.460369	3009.367200
449.834776	2972.476036
450.209124	2984.915083
450.583412	2968.916982
450.957640	2960.810806
451.331808	2909.874988
451.705917	2847.846110
452.079965	2822.204281
452.453954	2810.760862
452.827883	2785.209774
453.201752	2771.444903
453.575562	2745.361973
453.949311	2739.725963
454.323001	2720.594784
454.696632	2709.715974
455.070202	2702.325643
455.443713	2696.548480
455.817164	2684.585822
456.190556	2674.818587
456.563888	2667.072854
456.937160	2654.933755
457.310373	2642.918165
457.683526	2636.336939
458.056619	2623.723972
458.429653	2618.203908
458.802628	2610.732918
459.175542	2608.051025
459.548398	2608.996241
459.921194	2608.663525
460.293930	2606.402567
460.666607	2606.972218
461.039224	2606.079933
461.411782	2606.916765
461.784280	2603.856785
462.156719	2592.395721
462.529099	2592.756164
462.901419	2584.513877
463.273680	2580.475913
463.645882	2579.593711
464.018024	2580.112950
464.390106	2576.768144
464.762130	2580.309555
465.134094	2581.227045
465.505999	2590.180134
465.877845	2598.724890
466.249631	2596.834457
466.621358	2596.867225
466.993026	2592.398242
467.364634	2594.520568
467.736184	2586.618559
468.107674	2580.014647
468.479105	2578.887950
468.850477	2580.675039
469.221790	2576.445511
469.593043	2573.105746
469.964238	2572.425190
470.335373	2573.133472
470.706449	2573.740932
471.077467	2573.841755
471.448425	2581.027919
471.819324	2588.118302
472.190164	2588.037644
472.560945	2578.542631
472.931667	2573.977866
473.302330	2573.221693
473.672934	2572.664645
474.043479	2570.070972
474.413965	2574.315623
474.784393	2568.435117
475.154761	2571.028791
475.525070	2571.805128
475.895321	2569.466033
476.265513	2568.425035
476.635645	2572.888977
477.005719	2574.905438
477.375734	2574.028277
477.745691	2577.093299
478.115588	2577.972980
478.485427	2577.577250
478.855207	2581.968095
479.224928	2584.922211
479.594591	2590.986719
479.964194	2586.928590
480.333739	2589.736513
480.703226	2586.127047
481.072653	2589.923035
481.442022	2588.582088
481.811333	2592.574682
482.180584	2588.345154
482.549777	2589.706266
482.918912	2587.588981
483.287988	2589.640731
483.657005	2585.693507
484.025964	2584.904567
484.394864	2584.980184
484.763706	2586.752150
485.132489	2585.285174
485.501213	2587.006728
485.869879	2587.372212
486.238487	2583.256109
486.607036	2587.150401
486.975527	2584.100503
487.343959	2582.227714
487.712333	2587.170565
488.080648	2584.034968
488.448905	2583.510688
488.817104	2584.327355
489.185244	2585.123857
489.553326	2585.930442
489.921350	2589.207192
490.289315	2593.240115
490.657222	2594.510485
491.025070	2593.673654
491.392861	2594.848243
491.760593	2593.033427
492.128267	2593.479569
492.495883	2586.517736
492.863440	2586.313569
493.230939	2584.818867
493.598380	2586.041347
493.965763	2576.810994
494.333088	2581.955492
494.700354	2579.530697
495.067563	2579.659246
495.434713	2576.453072
495.801805	2580.808629
496.168839	2581.534555
496.535815	2580.579257
496.902733	2578.136818
497.269593	2578.489698
497.636395	2578.701427
498.003139	2580.828794
498.369825	2577.068093
498.736453	2578.272929
499.103023	2576.286714
499.469535	2577.572208
499.835989	2579.830645
500.202385	2575.195304
500.568723	2575.109605
500.935003	2575.666652
501.301226	2576.881570
501.667390	2580.221335
502.033497	2578.202353
502.399546	2580.067580
502.765537	2578.169585
503.131470	2577.834348
503.497345	2578.164544
503.863163	2577.599935
504.228923	2577.315110
504.594625	2579.979359
504.960269	2578.822415
505.325856	2580.359967
505.691385	2577.398289
506.056856	2577.027764
506.422270	2581.116140
506.787625	2580.944740
507.152924	2578.827456
507.518164	2578.156982
507.883347	2579.084555
508.248472	2578.653536
508.613540	2579.712178
508.978550	2576.105233
509.343503	2580.750656
509.708398	2578.998855
510.073236	2579.830645
510.438016	2580.133115
510.802738	2580.400296
511.167403	2582.557910
511.532010	2576.647157
511.896561	2581.050605
512.261053	2582.754515
512.625488	2576.049780
512.989866	2573.360324
513.354186	2579.976839
513.718449	2575.066755
514.082655	2581.463979
514.446803	2582.426840
514.810894	2582.212591
515.174927	2582.295770
515.538904	2580.561613
515.902822	2578.419122
516.266684	2579.707137
516.630488	2580.967426
516.994235	2580.128073
517.357925	2581.544638
517.721558	2582.147056
518.085133	2582.527663
518.448651	2582.837694
518.812112	2582.648650
519.175516	2586.172417
519.538863	2580.009606
519.902152	2583.399782
520.265385	2582.517580
520.628560	2584.743250
520.991678	2583.639237
521.354739	2584.821388
521.717743	2585.133939
522.080690	2580.821232
522.443580	2584.781058
522.806413	2586.104361
523.169189	2582.411716
523.531908	2585.688466
523.894569	2582.318455
524.257174	2584.365163
524.619722	2585.000349
524.982213	2587.483117
525.344647	2583.755184
525.707025	2583.359453
526.069345	2582.734350
526.431608	2585.650657
526.793815	2584.723085
527.155964	2584.433219
527.518057	2584.559248
527.880093	2582.542786
528.242072	2581.085893
528.603995	2583.661922
528.965860	2586.426995
529.327669	2585.330544
529.689421	2581.980697
530.051117	2583.157807
530.412755	2583.127560
530.774337	2582.867941
531.135862	2583.397262
531.497331	2581.136304
531.858743	2579.860892
532.220098	2583.729978
532.581396	2579.359297
532.942638	2582.126891
533.303824	2581.166551
533.664953	2582.953640
534.026025	2582.799885
534.387040	2582.628486
534.747999	2582.338619
535.108902	2583.137642
535.469748	2582.152097
535.830537	2583.765266
536.191270	2582.638568
536.551947	2584.791141
536.912567	2583.215780
537.273131	2584.856676
537.633638	2582.247879
537.994089	2582.565471
538.354483	2583.288877
538.714821	2583.152766
539.075103	2584.304669
539.435328	2582.406675
539.795497	2583.084710
540.155609	2583.586305
540.515665	2583.261151
540.875665	2583.896336
541.235609	2583.341809
541.595496	2584.614700
541.955328	2587.359609
542.315102	2583.823239
542.674821	2582.925914
543.034483	2582.411716
543.394090	2580.856520
543.753640	2585.713672
544.113134	2584.060173
544.472571	2584.491192
544.831953	2582.724268
545.191278	2584.266861
545.550548	2584.052612
545.909761	2584.549165
546.268918	2586.091758
546.628019	2586.215267
546.987064	2583.621593
547.346053	2582.240317
547.704986	2585.428847
548.063863	2588.362798
548.422684	2584.435739
548.781449	2581.716037
549.140158	2580.740574
549.498811	2585.776686
549.857408	2582.517580
550.215949	2579.616396
550.574434	2579.729822
550.932864	2582.973805
551.291237	2579.485326
551.649555	2585.496902
552.007817	2582.230235
552.366022	2587.594022
552.724173	2583.510688
553.082267	2585.522108
553.440305	2583.006572
553.798288	2585.310380
554.156215	2583.833322
554.514086	2583.157807
554.871902	2581.731160
555.229661	2584.897005
555.587365	2585.310380
555.945014	2585.887592
556.302606	2583.624114
556.660143	2584.269381
557.017625	2583.208218
557.375050	2582.426840
557.732421	2584.942375
558.089735	2586.006059
558.446994	2583.009093
558.804197	2584.975143
559.161345	2582.865420
559.518437	2584.760894
559.875474	2584.682756
560.232455	2584.022365
560.589381	2584.912128
560.946251	2585.380956
561.303065	2585.144022
561.659825	2583.026737
562.016528	2585.028075
562.373177	2584.816347
562.729770	2582.452045
563.086307	2584.155955
563.442789	2580.365008
563.799216	2584.037488
564.155587	2583.634196
564.511904	2584.476069
564.868164	2582.232755
565.224370	2581.093454
565.580520	2582.474731
565.936615	2582.729309
566.292654	2580.488516
566.648638	2583.553538
567.004567	2585.088569
567.360441	2585.539752
567.716260	2583.435070
568.072023	2583.513208
568.427732	2579.634040
568.783385	2580.624627
569.138982	2581.164031
569.494525	2579.795357
569.850013	2579.397106
570.205445	2581.302662
570.560823	2582.769638
570.916145	2580.410378
571.271412	2581.615214
571.626625	2582.661253
571.981782	2579.475244
572.336884	2582.021027
572.691931	2583.515729
573.046923	2579.709658
573.401860	2580.889288
573.756743	2581.713516
574.111570	2579.346695
574.466342	2582.457087
574.821059	2578.061200
575.175722	2580.082703
575.530330	2580.841397
575.884882	2582.515060
576.239380	2581.637899
576.593823	2580.841397
576.948211	2579.477765
577.302544	2579.775193
577.656823	2579.041705
578.011047	2579.984401
578.365216	2578.585480
578.719330	2580.057497
579.073389	2576.795871
579.427394	2574.817218
579.781344	2578.235120
580.135239	2577.741087
580.489080	2579.253433
580.842866	2574.696230
581.196597	2582.469689
581.550273	2578.033474
581.903895	2578.766962
582.257463	2578.217476
582.610975	2577.942733
582.964434	2577.526838
583.317837	2576.828638
583.671186	2579.515573
584.024481	2576.506004
584.377721	2579.366859
584.730906	2575.538103
585.084037	2578.013309
585.437113	2574.063565
585.790135	2573.758576
586.143103	2575.202866
586.496016	2576.465675
586.848874	2570.643142
587.201679	2574.303020
587.554428	2571.651373
587.907124	2574.378637
588.259765	2572.883935
588.612352	2576.352249
588.964884	2571.583318
589.317362	2572.677248
589.669786	2573.440983
590.022155	2577.050449
590.374470	2574.149265
590.726731	2574.693710
591.078937	2572.760427
591.431090	2574.108936
591.783188	2575.709502
592.135232	2574.766806
592.487222	2574.643298
592.839157	2575.354101
593.191038	2571.790005
593.542866	2574.925603
593.894639	2571.691702
594.246358	2572.251271
594.598022	2572.767989
594.949633	2572.604151
595.301190	2569.753379
595.652692	2574.355952
596.004141	2573.914851
596.355535	2573.980386
596.706876	2572.654563
597.058162	2569.062741
597.409395	2570.844789
597.760573	2572.150447
598.111698	2568.498132
598.462768	2572.039542
598.813785	2569.990313
599.164748	2571.835375
599.515657	2572.563822
599.866511	2569.834037
600.217312	2569.602144
600.568060	2571.903431
600.918753	2572.689851
601.269392	2568.462843
601.619978	2566.988306
601.970510	2570.880077
602.320988	2570.413770
602.671412	2567.747000
603.021783	2568.364541
603.372100	2568.377144
603.722363	2568.679613
604.072572	2573.017526
604.422728	2572.473081
604.772830	2564.709704
605.122878	2565.014694
605.472872	2567.908317
605.822813	2566.204407
606.172701	2566.471588
606.522534	2568.127607
606.872314	2570.302865
607.222041	2566.698440
607.571714	2568.740107
607.921333	2570.660787
608.270899	2567.535271
608.620411	2569.342525
608.969870	2568.054510
609.319276	2571.845458
609.668627	2572.838565
610.017926	2574.638257
610.367171	2577.327712
610.716362	2577.985583
611.065500	2576.145562
611.414585	2574.542475
611.763616	2572.667166
612.112594	2572.750345
612.461518	2570.673389
612.810389	2572.483164
613.159207	2573.824111
613.507971	2570.628019
613.856682	2570.121383
614.205340	2572.165571
614.553945	2569.708008
614.902496	2567.318502
615.250994	2570.880077
615.599439	2570.408729
615.947830	2569.566856
616.296169	2570.638101
616.644454	2571.558112
616.992686	2571.295972
617.340864	2571.167422
617.688990	2568.639284
618.037063	2569.337484
618.385082	2570.207083
618.733048	2568.780436
619.080961	2569.710529
619.428821	2569.425704
619.776628	2569.861764
620.124382	2570.890159
620.472083	2571.041394
620.819731	2570.791857
621.167326	2569.229099
621.514868	2569.261866
621.862357	2568.669531
622.209793	2568.924109
622.557176	2568.447720
622.904506	2565.579303
623.251783	2562.237018
623.599007	2563.673747
623.946179	2564.253480
624.293297	2564.651731
624.640363	2563.769529
624.987376	2566.965621
625.334336	2567.575600
625.681243	2569.211455
626.028097	2563.812379
626.374899	2565.871690
626.721647	2564.384550
627.068343	2563.053685
627.414987	2566.821948
627.761577	2564.601320
628.108115	2564.760116
628.454600	2562.395815
628.801032	2561.785835
629.147412	2566.547205
629.493739	2561.662327
629.840014	2564.744992
630.186236	2567.623491
630.532405	2563.577965
630.878521	2561.291802
631.224585	2567.883111
631.570597	2560.558314
631.916556	2563.477142
632.262462	2561.148129
632.608316	2559.771894
632.954117	2561.914385
633.299866	2566.615261
633.645562	2563.933367
633.991206	2562.615105
634.336797	2558.327604
634.682336	2563.676268
635.027823	2559.789538
635.373257	2558.541853
635.718639	2561.291802
636.063968	2561.173335
636.409245	2560.470094
636.754470	2560.596123
637.099642	2559.875238
637.444762	2559.731565
637.789829	2558.887172
638.134845	2561.662327
638.479808	2559.091338
638.824719	2558.125957
639.169577	2557.266441
639.514383	2560.787687
639.859137	2555.063457
640.203839	2557.785680
640.548489	2558.536812
640.893086	2557.687377
641.237632	2556.134702
641.582125	2554.851728
641.926566	2552.643703
642.270955	2557.195865
642.615292	2556.774928
642.959576	2561.503531
643.303809	2558.143602
643.647990	2559.764332
643.992118	2556.840463
644.336195	2557.513457
