Dividing Wavelength (nm)	Counts (n)	Blue Motor Position (mm): 0.000000	Red Motor Position (mm): 39.900000	
326.493990	2129.403549
326.888308	2129.403549
327.282561	2129.403549
327.676750	2095.158991
328.070874	2089.974164
328.464933	2096.719228
328.858929	2102.014960
329.252859	2113.488627
329.646726	2125.927674
330.040528	2139.916876
330.434265	2154.558907
330.827938	2170.791422
331.221547	2187.646520
331.615091	2206.896166
332.008571	2226.947356
332.401986	2248.062228
332.795338	2266.656524
333.188625	2287.395831
333.581847	2304.359314
333.975006	2322.099134
334.368100	2340.015395
334.761129	2361.195803
335.154095	2376.755324
335.546996	2396.297357
335.939833	2417.031623
336.332606	2434.070723
336.725315	2444.347115
337.117960	2451.450101
337.510540	2460.909826
337.903056	2474.861219
338.295508	2482.702734
338.687896	2487.131388
339.080220	2498.305105
339.472480	2500.949191
339.864676	2509.960253
340.256807	2515.036695
340.648875	2516.163393
341.040879	2521.869979
341.432818	2520.009793
341.824694	2520.476100
342.216506	2523.694877
342.608253	2521.665812
342.999937	2521.262520
343.391557	2520.755884
343.783113	2522.956348
344.174605	2517.635410
344.566033	2518.237828
344.957397	2517.423681
345.348697	2515.553413
345.739934	2512.569050
346.131106	2510.494615
346.522215	2508.347084
346.913260	2512.564009
347.304241	2505.854233
347.695159	2505.708040
348.086012	2502.859788
348.476802	2501.433141
348.867528	2500.195538
349.258191	2500.432472
349.648789	2498.715959
350.039324	2497.097749
350.429796	2497.450630
350.820203	2496.520537
351.210548	2492.303612
351.600828	2493.405104
351.991045	2492.205309
352.381198	2492.417038
352.771288	2490.932418
353.161314	2493.256390
353.551276	2490.327479
353.941175	2491.121461
354.331010	2490.045175
354.720782	2489.132726
355.110490	2489.510813
355.500135	2489.316728
355.889717	2490.473673
356.279235	2490.750936
356.668689	2494.766215
357.058080	2492.099445
357.447408	2490.902171
357.836672	2489.500730
358.225873	2493.173211
358.615010	2489.636841
359.004084	2494.173880
359.393095	2494.546925
359.782043	2495.028355
360.170927	2497.632111
360.559748	2494.942656
360.948505	2498.418531
361.337199	2500.843326
361.725830	2499.285610
362.114398	2499.094046
362.502903	2500.036742
362.891344	2502.781650
363.279722	2501.012205
363.668037	2501.352483
364.056289	2499.976248
364.444478	2504.878770
364.832603	2504.021774
365.220665	2505.287103
365.608665	2503.893224
365.996601	2508.004285
366.384474	2506.237361
366.772284	2509.733401
367.160031	2509.491426
367.547715	2512.742970
367.935336	2514.237672
368.322893	2517.433764
368.710388	2521.267561
369.097820	2527.178314
369.485189	2528.967924
369.872495	2538.901517
370.259738	2541.873278
370.646918	2549.326623
371.034035	2555.552448
371.421090	2566.489232
371.808081	2577.453741
372.195010	2587.316759
372.581875	2602.709922
372.968678	2610.778289
373.355418	2622.521657
373.742096	2641.189049
374.128710	2656.892244
374.515262	2669.537978
374.901751	2684.311079
375.288177	2696.540919
375.674540	2721.875237
376.060841	2738.977352
376.447079	2758.834457
376.833254	2779.503187
377.219367	2791.715383
377.605417	2830.058399
377.991404	2840.342353
378.377329	2860.663244
378.763191	2879.013044
379.148991	2919.964857
379.534727	2940.081582
379.920402	2970.504945
380.306013	2981.789568
380.691563	3032.072557
381.077049	3055.347564
381.462474	3070.816345
381.847835	3109.940740
382.233134	3132.714152
382.618371	3133.074595
383.003545	3199.784184
383.388657	3206.985472
383.773706	3240.695668
384.158693	3256.131681
384.543618	3282.945578
384.928480	3318.989828
385.313280	3364.760984
385.698017	3361.448946
386.082692	3414.164292
386.467305	3417.819129
386.851856	3454.344809
387.236344	3481.148624
387.620770	3506.366996
388.005133	3535.083929
388.389435	3561.580233
388.773674	3574.712439
389.157851	3612.687451
389.541965	3630.518012
389.926018	3597.301850
390.310008	3665.652334
390.693936	3684.367618
391.077802	3725.190882
391.461606	3713.061865
391.845348	3780.325981
392.229027	3774.808438
392.612645	3790.037764
392.996200	3867.285885
393.379694	3909.762647
393.763125	3972.502327
394.146494	3939.412194
394.529801	4000.677336
394.913047	4049.397568
395.296230	4016.824152
395.679351	4067.422213
396.062410	4093.593363
396.445408	4074.714242
396.828343	4103.121144
397.211217	4131.666678
397.594028	4048.696847
397.976778	4120.790388
398.359466	4141.106238
398.742092	4174.536650
399.124656	4096.169393
399.507158	4178.713246
399.889598	4205.287689
400.271977	4264.493520
400.654294	4230.574116
401.036549	4242.304881
401.418742	4216.239595
401.800874	4316.445131
402.182944	4337.539839
402.564952	4402.447216
402.946898	4387.601017
403.328783	4383.457189
403.710606	4299.958037
404.092367	4490.332171
404.474067	4453.672900
404.855705	4464.922235
405.237282	4389.869537
405.618797	4501.843646
406.000250	4537.487124
406.381642	4613.079226
406.762972	4575.968772
407.144240	4588.334723
407.525447	4591.669446
407.906593	4648.543743
408.287677	4685.308878
408.668700	4616.492087
409.049661	4672.128782
409.430560	4708.367116
409.811399	4634.453718
410.192176	4796.844407
410.572891	4735.329727
410.953545	4842.590358
411.334138	4716.780802
411.714669	4787.419970
412.095139	4683.118497
412.475547	4827.159386
412.855894	4809.278413
413.236180	4819.718643
413.616405	4767.920787
413.996568	4856.831617
414.376670	4801.358761
414.756711	4754.178602
415.136691	4784.407881
415.516609	4864.151373
415.896466	4897.919542
416.276262	4931.949851
416.655997	4915.924023
417.035670	5097.665181
417.415283	5187.153223
417.794834	5132.197085
418.174324	5086.191515
418.553753	4991.803471
418.933121	5174.908261
419.312428	5243.397377
419.691674	5181.958314
420.070859	5308.123272
420.449983	5221.793512
420.829045	5339.723744
421.208047	5246.802676
421.586988	5314.792718
421.965867	5327.854348
422.344686	5460.855110
422.723444	5312.166277
423.102141	5132.887723
423.480777	5429.587353
423.859352	5199.456159
424.237866	5457.596004
424.616319	5450.271207
424.994712	5561.365635
425.373044	5437.459115
425.751314	5579.085291
426.129524	5384.418614
426.507673	5576.433644
426.885762	5658.755686
427.263789	5593.500470
427.641756	5476.510413
428.019662	5596.373928
428.397508	5601.485658
428.775292	5549.944901
429.153016	5652.986086
429.530679	5575.259055
429.908282	5658.312065
430.285824	5531.645512
430.663305	5805.917049
431.040726	5542.289909
431.418086	5540.152460
431.795385	5644.527029
432.172624	5659.819370
432.549802	5650.546167
432.926920	5669.836142
433.303977	5672.659188
433.680974	5712.688471
434.057910	5729.268826
434.434786	5735.151852
434.811601	5701.217325
435.188355	5935.958654
435.565050	5810.363347
435.941683	5796.134690
436.318257	6006.759139
436.694770	5989.581407
437.071222	6023.210945
437.447614	5957.106294
437.823946	5872.982039
438.200218	6019.881263
438.576429	5888.072733
438.952580	5987.262477
439.328670	6033.872985
439.704700	5944.974758
440.080670	5928.212921
440.456580	6200.967070
440.832429	6085.224699
441.208218	5928.817859
441.583947	6079.117341
441.959616	6085.328042
442.335224	6014.366240
442.710773	6152.524103
443.086261	6176.540159
443.461689	5977.197813
443.837057	6119.433969
444.212365	6279.541015
444.587612	6166.629251
444.962800	6321.813610
445.337927	6304.081352
445.712995	5911.314973
446.088002	6488.728735
446.462949	6320.873435
446.837837	6248.822744
447.212664	6420.128713
447.587431	6563.786474
447.962139	7103.396623
448.336786	8029.985906
448.711374	7774.830425
449.085901	6847.963878
449.460369	6765.651918
449.834776	6702.309820
450.209124	7093.465550
450.583412	7248.009683
450.957640	7396.711119
451.331808	7161.879049
451.705917	6708.515481
452.079965	6633.276260
452.453954	6844.974474
452.827883	6722.192131
453.201752	6813.696635
453.575562	6616.171625
453.949311	6819.158725
454.323001	6708.336520
454.696632	6779.797396
455.070202	6922.792246
455.443713	7073.318579
455.817164	7172.578898
456.190556	7255.957062
456.563888	7336.310534
456.937160	7374.887964
457.310373	7029.992382
457.683526	7054.351237
458.056619	6945.580782
458.429653	6932.930006
458.802628	6870.230655
459.175542	6980.367264
459.548398	7330.271232
459.921194	7497.884556
460.293930	7502.635843
460.666607	8026.734362
461.039224	8336.656938
461.411782	8459.814848
461.784280	8484.740833
462.156719	8369.106846
462.529099	8245.870799
462.901419	7837.789395
463.273680	7731.509269
463.645882	7743.355981
464.018024	7608.946216
464.390106	7781.010879
464.762130	8166.129827
465.134094	8629.742061
465.505999	9653.355912
465.877845	10878.857891
466.249631	11522.613237
466.621358	11140.123251
466.993026	10510.495738
467.364634	10257.802861
467.736184	9890.484227
468.107674	9556.948885
468.479105	9593.698897
468.850477	9354.957412
469.221790	9131.510789
469.593043	8804.274369
469.964238	8669.879728
470.335373	8674.021036
470.706449	8725.241680
471.077467	8714.728353
471.448425	10021.791161
471.819324	11094.306724
472.190164	11120.825714
472.560945	9875.068378
472.931667	9082.135208
473.302330	8949.830125
473.672934	8592.888706
474.043479	8954.765414
474.413965	8895.342813
474.784393	8778.352756
475.154761	8930.882948
475.525070	9010.810442
475.895321	8842.750976
476.265513	9024.575313
476.635645	9187.717134
477.005719	9187.638996
477.375734	9300.545718
477.745691	9540.383654
478.115588	9669.275875
478.485427	9920.763917
478.855207	10453.283683
479.224928	11269.965730
479.594591	11900.392265
479.964194	11704.808099
480.333739	11644.652010
480.703226	11561.457848
481.072653	11651.830613
481.442022	11887.537323
481.811333	12085.145512
482.180584	11882.271838
482.549777	11595.362128
482.918912	11423.718402
483.287988	11448.039448
483.657005	11456.395161
484.025964	11138.709207
484.394864	11265.106057
484.763706	11239.582696
485.132489	10995.752166
485.501213	10955.478388
485.869879	11033.036540
486.238487	10866.212157
486.607036	10984.074333
486.975527	10764.418658
487.343959	10951.218613
487.712333	11006.762046
488.080648	10929.476117
488.448905	10977.735082
488.817104	10915.945660
489.185244	11177.977275
489.553326	11334.275729
489.921350	11871.138449
490.289315	12931.063731
490.657222	13282.492648
491.025070	13180.976412
491.392861	13061.924523
491.760593	12679.205164
492.128267	12333.634068
492.495883	12004.696259
492.863440	11669.925835
493.230939	11335.805720
493.598380	11266.131932
493.965763	11130.131684
494.333088	11031.957733
494.700354	10955.317071
495.067563	11018.278562
495.434713	10845.777839
495.801805	10973.298867
496.168839	10893.494881
496.535815	10834.609163
496.902733	10834.735192
497.269593	10760.073183
497.636395	10866.549914
498.003139	10851.834786
498.369825	10722.846782
498.736453	10875.969310
499.103023	10804.745368
499.469535	10843.000164
499.835989	10823.576598
500.202385	10785.871288
500.568723	10637.694132
500.935003	10854.607420
501.301226	10662.662967
501.667390	10916.870712
502.033497	11019.737976
502.399546	10882.139682
502.765537	10787.860023
503.131470	10851.300423
503.497345	11034.163238
503.863163	10646.427931
504.228923	10953.121649
504.594625	11020.136227
504.960269	10771.965265
505.325856	10993.009779
505.691385	10780.930957
506.056856	10939.016500
506.422270	10963.947527
506.787625	10852.507780
507.152924	10966.526077
507.518164	10945.259969
507.883347	10863.056394
508.248472	10788.427153
508.613540	11017.577842
508.978550	10903.912426
509.343503	10873.478980
509.708398	10992.430046
510.073236	11105.765267
510.438016	11108.938673
510.802738	11057.657536
511.167403	11111.522264
511.532010	11012.700526
511.896561	11242.108314
512.261053	11312.061885
512.625488	11184.845847
512.989866	11163.022692
513.354186	11153.993986
513.718449	11058.479244
514.082655	11248.530744
514.446803	11139.120061
514.810894	11270.656368
515.174927	11137.794238
515.538904	11162.339616
515.902822	11310.320166
516.266684	11191.416991
516.630488	11134.580502
516.994235	11198.078876
517.357925	11250.668193
517.721558	11344.352996
518.085133	11358.959739
518.448651	11369.644465
518.812112	11251.225240
519.175516	11270.396748
519.538863	11386.098791
519.902152	11302.765997
520.265385	11464.171141
520.628560	11373.130423
520.991678	11352.486898
521.354739	11413.013511
521.717743	11350.062103
522.080690	11331.480410
522.443580	11462.331119
522.806413	11413.943604
523.169189	11445.695312
523.531908	11503.529949
523.894569	11322.396250
524.257174	11327.170223
524.619722	11442.907554
524.982213	11395.119936
525.344647	11441.531319
525.707025	11388.233720
526.069345	11482.500776
526.431608	11400.962633
526.793815	11514.794407
527.155964	11301.767849
527.518057	11360.260357
527.880093	11305.750360
528.242072	11369.861234
528.603995	11279.170877
528.965860	11203.067098
529.327669	11252.067113
529.689421	11202.729340
530.051117	11172.381594
530.412755	11277.625763
530.774337	11173.848570
531.135862	11142.379167
531.497331	11172.474856
531.858743	11019.453151
532.220098	11184.906341
532.581396	11059.265664
532.942638	11041.104907
533.303824	10998.555048
533.664953	11020.146310
534.026025	10931.416961
534.387040	11030.319358
534.747999	11030.178206
535.108902	11086.719787
535.469748	10842.155770
535.830537	10951.203490
536.191270	10926.063256
536.551947	10950.306164
536.912567	10951.775661
537.273131	10876.271779
537.633638	10849.246153
537.994089	10846.329846
538.354483	10786.970259
538.714821	10925.919583
539.075103	10944.609661
539.435328	10909.200596
539.795497	10734.769111
540.155609	10893.958667
540.515665	10977.440175
540.875665	10712.325894
541.235609	10784.293407
541.595496	10777.528178
541.955328	10929.682804
542.315102	10815.619137
542.674821	10772.466860
543.034483	10771.161201
543.394090	10773.936356
543.753640	10698.613956
544.113134	10924.392113
544.472571	10771.945100
544.831953	10913.823334
545.191278	10723.723943
545.550548	10752.690413
545.909761	10892.471527
546.268918	10867.293484
546.628019	10941.458939
546.987064	10811.608899
547.346053	10739.903526
547.704986	10832.920377
548.063863	10821.615589
548.422684	10807.293671
548.781449	10726.708306
549.140158	10822.918727
549.498811	10707.370440
549.857408	10562.727133
550.215949	10783.093612
550.574434	10641.522888
550.932864	10737.821530
551.291237	10791.923193
551.649555	10744.090205
552.007817	10754.273335
552.366022	10714.811183
552.724173	10709.061747
553.082267	10687.397388
553.440305	10834.989770
553.798288	10635.017279
554.156215	10778.170925
554.514086	10758.460014
554.871902	10607.502662
555.229661	10645.681840
555.587365	10622.691658
555.945014	10521.256081
556.302606	10640.474328
556.660143	10538.718638
557.017625	10687.495691
557.375050	10588.457182
557.732421	10718.917203
558.089735	10626.495209
558.446994	10631.349840
558.804197	10666.501806
559.161345	10669.423154
559.518437	10522.405464
559.875474	10596.719634
560.232455	10628.236927
560.589381	10579.136089
560.946251	10572.448998
561.303065	10676.984885
561.659825	10610.973496
562.016528	10543.812724
562.373177	10423.568602
562.729770	10537.246621
563.086307	10448.061048
563.442789	10541.350120
563.799216	10413.690461
564.155587	10465.107710
564.511904	10416.352190
564.868164	10407.948587
565.224370	10419.765051
565.580520	10342.489204
565.936615	10345.342497
566.292654	10207.184635
566.648638	10340.064409
567.004567	10293.463983
567.360441	10272.651579
567.716260	10184.549854
568.072023	10274.753740
568.427732	10228.367563
568.783385	10136.553028
569.138982	10198.133243
569.494525	10211.635974
569.850013	10089.337581
570.205445	10165.232153
570.560823	10054.425070
570.916145	9976.826589
571.271412	10045.779492
571.626625	9981.083844
571.981782	9952.787847
572.336884	9926.130226
572.691931	9928.537377
573.046923	9869.502944
573.401860	9826.993415
573.756743	9760.359443
574.111570	9797.633735
574.466342	9773.824365
574.821059	9801.162542
575.175722	9689.105254
575.530330	9699.381646
575.884882	9680.162247
576.239380	9600.597716
576.593823	9578.706505
576.948211	9594.954144
577.302544	9475.040218
577.656823	9479.763779
578.011047	9473.787491
578.365216	9439.386657
578.719330	9359.509574
579.073389	9358.425726
579.427394	9308.780443
579.781344	9277.217779
580.135239	9219.678049
580.489080	9229.573834
580.842866	9122.603070
581.196597	9115.996638
581.550273	9149.139704
581.903895	9108.182849
582.257463	9168.729628
582.610975	9039.822283
582.964434	9065.388494
583.317837	8980.170309
583.671186	8955.904715
584.024481	8940.430893
584.377721	8851.479734
584.730906	8820.983274
585.084037	8842.609824
585.437113	8777.490719
585.790135	8780.704454
586.143103	8676.987755
586.496016	8643.479206
586.848874	8687.531328
587.201679	8671.374430
587.554428	8546.313486
587.907124	8585.604239
588.259765	8543.808032
588.612352	8532.064664
588.964884	8406.532372
589.317362	8413.441273
589.669786	8402.486846
590.022155	8438.601672
590.374470	8435.372813
590.726731	8368.668265
591.078937	8218.996408
591.431090	8312.103999
591.783188	8188.913322
592.135232	8165.545053
592.487222	8157.706059
592.839157	8190.143364
593.191038	8117.270964
593.542866	8057.820637
593.894639	7950.791900
594.246358	7986.924370
594.598022	7986.450501
594.949633	7878.453862
595.301190	7841.794592
595.652692	7859.869649
596.004141	7940.714633
596.355535	7731.771409
596.706876	7694.741613
597.058162	7618.088349
597.409395	7678.342740
597.760573	7718.926549
598.111698	7625.261911
598.462768	7594.072292
598.813785	7551.736682
599.164748	7505.544589
599.515657	7487.890468
599.866511	7388.980509
600.217312	7485.818554
600.568060	7345.485434
600.918753	7420.729696
601.269392	7381.237297
601.619978	7286.718183
601.970510	7330.309040
602.320988	7307.079403
602.671412	7336.928075
603.021783	7270.462982
603.372100	7232.142651
603.722363	7216.212605
604.072572	7177.922521
604.422728	7170.007910
604.772830	7100.432425
605.122878	7083.756288
605.472872	7067.851447
605.822813	7063.931950
606.172701	7010.155442
606.522534	7054.646145
606.872314	7033.483381
607.222041	6994.444686
607.571714	7019.738675
607.921333	6968.341591
608.270899	6952.651000
608.620411	7013.308683
608.969870	6913.536687
609.319276	6890.564149
609.668627	6884.882769
610.017926	6894.960035
610.367171	6899.479430
610.716362	6867.858792
611.065500	6837.251427
611.414585	6836.696900
611.763616	6809.293187
612.112594	6774.209277
612.461518	6759.799139
612.810389	6788.974817
613.159207	6722.335804
613.507971	6663.737432
613.856682	6726.739252
614.205340	6676.990625
614.553945	6714.131326
614.902496	6615.367561
615.250994	6637.059646
615.599439	6598.678821
615.947830	6589.456030
616.296169	6542.911056
616.644454	6535.616507
616.992686	6513.800913
617.340864	6522.156626
617.688990	6439.353153
618.037063	6483.420400
618.385082	6424.224651
618.733048	6454.161543
619.080961	6396.130300
619.428821	6393.269446
619.776628	6366.828594
620.124382	6315.633156
620.472083	6278.648731
620.819731	6281.227281
621.167326	6187.998702
621.514868	6174.347257
621.862357	6080.715387
622.209793	6076.760601
622.557176	6008.100086
622.904506	5970.888809
623.251783	5913.616260
623.599007	5862.352767
623.946179	5843.942473
624.293297	5794.743332
624.640363	5725.639195
624.987376	5700.869485
625.334336	5649.966434
625.681243	5596.162199
626.028097	5568.672787
626.374899	5537.891502
626.721647	5506.338920
627.068343	5459.299914
627.414987	5417.450775
627.761577	5372.907140
628.108115	5381.063727
628.454600	5295.285973
628.801032	5300.115399
629.147412	5272.300832
629.493739	5241.973251
629.840014	5188.980642
630.186236	5194.959450
630.532405	5117.305516
630.878521	5127.113081
631.224585	5087.025826
631.570597	5030.627917
631.916556	5026.199263
632.262462	5003.498948
632.608316	4962.683245
632.954117	4937.064102
633.299866	4918.437038
633.645562	4888.500146
633.991206	4836.730017
634.336797	4785.587511
634.682336	4749.301285
635.027823	4713.194021
635.373257	4696.296073
635.718639	4646.479391
636.063968	4637.914471
636.409245	4572.833174
636.754470	4550.115215
637.099642	4518.978528
637.444762	4472.362978
637.789829	4457.116008
638.134845	4423.380607
638.479808	4392.475813
638.824719	4383.321078
639.169577	4335.110003
639.514383	4331.591278
639.859137	4283.871715
640.203839	4281.083957
640.548489	4251.000872
