Dividing Wavelength (nm)	Counts (n)	Blue Motor Position (mm): 0.000000	Red Motor Position (mm): 3.700000	
326.493990	2127.230812
326.888308	2127.230812
327.282561	2127.230812
327.676750	2096.436924
328.070874	2093.429875
328.464933	2095.106059
328.858929	2103.998654
329.252859	2113.692793
329.646726	2124.853908
330.040528	2139.405198
330.434265	2153.109575
330.827938	2170.882163
331.221547	2190.540143
331.615091	2211.660057
332.008571	2230.541698
332.401986	2246.658267
332.795338	2267.430342
333.188625	2288.288116
333.581847	2307.121866
333.975006	2321.887406
334.368100	2343.289625
334.761129	2361.256297
335.154095	2377.556868
335.546996	2391.374671
335.939833	2407.682803
336.332606	2420.865421
336.725315	2434.652976
337.117960	2444.904163
337.510540	2453.680812
337.903056	2464.728500
338.295508	2471.516414
338.687896	2478.793319
339.080220	2485.883702
339.472480	2494.239415
339.864676	2498.761330
340.256807	2504.548574
340.648875	2502.557319
341.040879	2507.646363
341.432818	2509.335150
341.824694	2513.685666
342.216506	2512.274143
342.608253	2511.974194
342.999937	2514.005779
343.391557	2511.933865
343.783113	2513.020233
344.174605	2509.962774
344.566033	2507.548061
344.957397	2507.943792
345.348697	2505.483708
345.739934	2505.062772
346.131106	2502.542195
346.522215	2500.941629
346.913260	2497.543891
347.304241	2496.079436
347.695159	2494.738489
348.086012	2489.853611
348.476802	2493.621873
348.867528	2486.551655
349.258191	2487.804382
349.648789	2487.907726
350.039324	2486.324803
350.429796	2484.212560
350.820203	2482.037302
351.210548	2482.039822
351.600828	2480.406489
351.991045	2479.181488
352.381198	2479.514204
352.771288	2480.953454
353.161314	2480.217445
353.551276	2477.848103
353.941175	2479.983032
354.331010	2479.738536
354.720782	2477.321302
355.110490	2478.684935
355.500135	2478.853813
355.889717	2477.994297
356.279235	2479.751139
356.668689	2482.811119
357.058080	2481.127374
357.447408	2479.693165
357.836672	2477.341467
358.225873	2480.834987
358.615010	2476.108905
359.004084	2482.554020
359.393095	2480.058649
359.782043	2482.869092
360.170927	2483.826912
360.559748	2485.588795
360.948505	2484.643578
361.337199	2486.914618
361.725830	2485.160297
362.114398	2487.580051
362.502903	2486.173569
362.891344	2487.370843
363.279722	2487.953096
363.668037	2487.292705
364.056289	2487.741368
364.444478	2490.458549
364.832603	2487.227170
365.220665	2488.782366
365.608665	2488.074084
365.996601	2489.591471
366.384474	2493.616832
366.772284	2493.652120
367.160031	2493.072388
367.547715	2494.856956
367.935336	2493.238746
368.322893	2494.912409
368.710388	2498.095898
369.097820	2499.177225
369.485189	2498.340393
369.872495	2500.445075
370.259738	2500.321567
370.646918	2509.337671
371.034035	2505.569408
371.421090	2507.860613
371.808081	2510.907990
372.195010	2508.195849
372.581875	2513.063083
372.968678	2513.105933
373.355418	2513.841942
373.742096	2516.254134
374.128710	2515.182888
374.515262	2517.980729
374.901751	2517.955523
375.288177	2520.226563
375.674540	2519.712365
376.060841	2520.319824
376.447079	2521.610360
376.833254	2519.356964
377.219367	2516.541479
377.605417	2522.477438
377.991404	2516.785975
378.377329	2515.974350
378.763191	2517.688342
379.148991	2519.601460
379.534727	2520.720596
379.920402	2520.201357
380.306013	2520.569361
380.691563	2521.151615
381.077049	2520.113137
381.462474	2516.785975
381.847835	2517.133815
382.233134	2517.032992
382.618371	2515.087107
383.003545	2513.625172
383.388657	2512.054852
383.773706	2513.032836
384.158693	2508.707526
384.543618	2509.637619
384.928480	2508.168123
385.313280	2505.854233
385.698017	2508.193329
386.082692	2507.933709
386.467305	2508.624347
386.851856	2506.786847
387.236344	2508.331960
387.620770	2505.279542
388.005133	2504.785509
388.389435	2506.277690
388.773674	2505.937412
389.157851	2503.268121
389.541965	2506.756600
389.926018	2506.575118
390.310008	2505.861795
390.693936	2503.603358
391.077802	2508.473113
391.461606	2506.496980
391.845348	2507.769872
392.229027	2504.094871
392.612645	2505.340036
392.996200	2507.512773
393.379694	2506.587721
393.763125	2507.963956
394.146494	2507.190139
394.529801	2508.480674
394.913047	2507.255674
395.296230	2509.259533
395.679351	2507.238030
396.062410	2508.163082
396.445408	2506.864985
396.828343	2508.677279
397.211217	2505.667711
397.594028	2507.666528
397.976778	2506.406240
398.359466	2506.993534
398.742092	2505.708040
399.124656	2511.777589
399.507158	2508.389934
399.889598	2510.585356
400.271977	2508.425222
400.654294	2509.483864
401.036549	2508.178205
401.418742	2508.584018
401.800874	2510.658453
402.182944	2509.388082
402.564952	2512.480830
402.946898	2511.288597
403.328783	2511.439832
403.710606	2510.103926
404.092367	2513.204236
404.474067	2513.095851
404.855705	2513.589884
405.237282	2511.641478
405.618797	2511.523011
406.000250	2512.284225
406.381642	2512.982425
406.762972	2512.808505
407.144240	2509.478823
407.525447	2514.928310
407.906593	2510.958402
408.287677	2514.494771
408.668700	2510.378669
409.049661	2515.737415
409.430560	2512.937054
409.811399	2513.431088
410.192176	2513.831859
410.572891	2513.897394
410.953545	2515.258506
411.334138	2516.286901
411.714669	2512.778258
412.095139	2515.306397
412.475547	2514.830008
412.855894	2513.274812
413.236180	2514.121726
413.616405	2516.891840
413.996568	2514.351098
414.376670	2516.730523
414.756711	2514.144411
415.136691	2515.319000
415.516609	2513.799092
415.896466	2517.360667
416.276262	2517.234638
416.655997	2512.949657
417.035670	2513.173989
417.415283	2513.463855
417.794834	2513.519308
418.174324	2515.205574
418.553753	2518.736902
418.933121	2516.607014
419.312428	2519.077180
419.691674	2518.444515
420.070859	2517.164062
420.449983	2515.790348
420.829045	2517.184227
421.208047	2516.551562
421.586988	2517.819412
421.965867	2518.016017
422.344686	2517.796727
422.723444	2517.398476
423.102141	2515.389576
423.480777	2519.785462
423.859352	2517.625328
424.237866	2519.251100
424.616319	2520.032478
424.994712	2520.216481
425.373044	2520.549197
425.751314	2517.789165
426.129524	2520.904598
426.507673	2518.338651
426.885762	2519.014165
427.263789	2521.043230
427.641756	2521.000380
428.019662	2519.987108
428.397508	2516.032323
428.775292	2519.780421
429.153016	2517.456449
429.530679	2523.306708
429.908282	2521.854856
430.285824	2522.593385
430.663305	2522.578261
431.040726	2522.258148
431.418086	2520.541635
431.795385	2523.130268
432.172624	2522.215298
432.549802	2523.863755
432.926920	2522.437109
433.303977	2526.102028
433.680974	2522.207736
434.057910	2524.070443
434.434786	2519.919053
434.811601	2524.899713
435.188355	2524.388035
435.565050	2524.062881
435.941683	2521.428878
436.318257	2520.390400
436.694770	2519.472910
437.071222	2518.096675
437.447614	2521.045750
437.823946	2520.370236
438.200218	2523.629342
438.576429	2522.684125
438.952580	2524.007428
439.328670	2521.761594
439.704700	2523.525998
440.080670	2522.217819
440.456580	2522.953827
440.832429	2525.799558
441.208218	2524.652696
441.583947	2524.826616
441.959616	2524.854342
442.335224	2522.104393
442.710773	2524.405679
443.086261	2527.619415
443.461689	2522.769825
443.837057	2521.106244
444.212365	2525.005577
444.587612	2525.824764
444.962800	2523.518436
445.337927	2525.214785
445.712995	2524.700587
446.088002	2525.381143
446.462949	2525.676050
446.837837	2523.752850
447.212664	2526.074301
447.587431	2526.094466
447.962139	2523.636903
448.336786	2529.751823
448.711374	2524.168745
449.085901	2526.601102
449.460369	2524.715710
449.834776	2525.509692
450.209124	2524.360309
450.583412	2525.832326
450.957640	2525.086235
451.331808	2523.215967
451.705917	2525.214785
452.079965	2528.025228
452.453954	2526.603623
452.827883	2526.354085
453.201752	2525.837367
453.575562	2525.277799
453.949311	2525.880217
454.323001	2526.941380
454.696632	2526.694363
455.070202	2528.310053
455.443713	2524.758560
455.817164	2524.322500
456.190556	2524.357788
456.563888	2526.699404
456.937160	2521.519619
457.310373	2527.029600
457.683526	2527.024559
458.056619	2527.392563
458.429653	2526.240659
458.802628	2527.667306
459.175542	2526.243180
459.548398	2527.367357
459.921194	2529.633356
460.293930	2530.623943
460.666607	2527.175793
461.039224	2526.959024
461.411782	2529.197296
461.784280	2529.333407
462.156719	2527.498427
462.529099	2527.165711
462.901419	2527.316946
463.273680	2525.275278
463.645882	2528.688140
464.018024	2527.057326
464.390106	2530.996988
464.762130	2531.385157
465.134094	2529.151926
465.505999	2531.102852
465.877845	2529.013294
466.249631	2531.213758
466.621358	2528.942718
466.993026	2530.661751
467.364634	2534.334232
467.736184	2528.176463
468.107674	2530.331556
468.479105	2530.013963
468.850477	2527.402645
469.221790	2528.035310
469.593043	2528.224353
469.964238	2530.840712
470.335373	2529.605630
470.706449	2531.637215
471.077467	2529.938346
471.448425	2531.672503
471.819324	2527.805938
472.190164	2530.697039
472.560945	2529.756864
472.931667	2532.085877
473.302330	2530.071936
473.672934	2526.878365
474.043479	2531.039838
474.413965	2528.027748
474.784393	2524.340144
475.154761	2526.409538
475.525070	2526.737213
475.895321	2529.530012
476.265513	2526.376771
476.635645	2531.682585
477.005719	2530.545805
477.375734	2531.942204
477.745691	2528.869621
478.115588	2532.272400
478.485427	2530.611340
478.855207	2533.184849
479.224928	2532.650487
479.594591	2530.271062
479.964194	2530.195445
480.333739	2530.137471
480.703226	2531.884231
481.072653	2530.669313
481.442022	2529.797193
481.811333	2532.821886
482.180584	2533.348686
482.549777	2532.421114
482.918912	2530.717204
483.287988	2530.162677
483.657005	2531.430527
484.025964	2533.197452
484.394864	2530.359282
484.763706	2533.386495
485.132489	2530.071936
485.501213	2528.118489
485.869879	2529.651000
486.238487	2531.428007
486.607036	2533.653676
486.975527	2531.864067
487.343959	2529.898017
487.712333	2533.121834
488.080648	2533.038655
488.448905	2534.493028
488.817104	2531.032276
489.185244	2533.149561
489.553326	2530.167718
489.921350	2530.533202
490.289315	2530.702081
490.657222	2534.518234
491.025070	2530.757533
491.392861	2537.963863
491.760593	2532.970600
492.128267	2533.598223
492.495883	2530.825589
492.863440	2533.174767
493.230939	2533.205013
493.598380	2534.835827
493.965763	2529.282996
494.333088	2530.094622
494.700354	2531.717873
495.067563	2529.766947
495.434713	2533.661238
495.801805	2532.970600
496.168839	2531.148223
496.535815	2534.014119
496.902733	2532.965559
497.269593	2534.228368
497.636395	2531.496062
498.003139	2533.305837
498.369825	2533.051258
498.736453	2534.278779
499.103023	2536.191897
499.469535	2535.718029
499.835989	2533.295754
500.202385	2532.900024
500.568723	2535.024870
500.935003	2535.042514
501.301226	2535.140817
501.667390	2534.311547
502.033497	2535.523944
502.399546	2533.381454
502.765537	2532.955476
503.131470	2534.671989
503.497345	2536.549819
503.863163	2535.556712
504.228923	2534.223327
504.594625	2536.214582
504.960269	2534.051927
505.325856	2533.759540
505.691385	2533.751979
506.056856	2534.160312
506.422270	2535.218954
506.787625	2533.885569
507.152924	2531.180990
507.518164	2535.231557
507.883347	2531.763243
508.248472	2537.978986
508.613540	2533.530168
508.978550	2536.413708
509.343503	2535.017308
509.708398	2536.393543
510.073236	2531.357431
510.438016	2535.498738
510.802738	2532.201824
511.167403	2534.263656
511.532010	2533.968748
511.896561	2534.833306
512.261053	2534.903882
512.625488	2532.708460
512.989866	2532.174097
513.354186	2535.115611
513.718449	2531.004550
514.082655	2535.738193
514.446803	2535.743234
514.810894	2536.983358
515.174927	2539.335057
515.538904	2534.281300
515.902822	2537.676517
516.266684	2534.558563
516.630488	2534.477905
516.994235	2539.161137
517.357925	2534.724921
517.721558	2535.029911
518.085133	2536.562422
518.448651	2534.906403
518.812112	2532.935312
519.175516	2534.321629
519.538863	2534.281300
519.902152	2535.584438
520.265385	2535.418080
520.628560	2536.567463
520.991678	2534.654345
521.354739	2535.866743
521.717743	2536.663245
522.080690	2536.678368
522.443580	2533.383974
522.806413	2536.214582
523.169189	2535.229037
523.531908	2534.803059
523.894569	2535.823893
524.257174	2536.907741
524.619722	2537.903369
524.982213	2537.149716
525.344647	2534.082174
525.707025	2535.511341
526.069345	2536.635519
526.431608	2535.705426
526.793815	2535.022349
527.155964	2535.738193
527.518057	2535.241640
527.880093	2535.491177
528.242072	2536.116280
528.603995	2539.055272
528.965860	2534.936650
529.327669	2536.738862
529.689421	2536.607792
530.051117	2537.820190
530.412755	2539.181301
530.774337	2534.697195
531.135862	2539.105684
531.497331	2535.763399
531.858743	2535.213913
532.220098	2533.048738
532.581396	2532.721063
532.942638	2533.673841
533.303824	2535.712988
533.664953	2537.860519
534.026025	2533.154602
534.387040	2537.313554
534.747999	2538.220962
535.108902	2535.967566
535.469748	2537.222813
535.830537	2535.720549
536.191270	2536.663245
536.551947	2535.229037
536.912567	2535.357586
537.273131	2536.186856
537.633638	2535.975127
537.994089	2538.760365
538.354483	2537.931095
538.714821	2536.542257
539.075103	2536.365817
539.435328	2537.716846
539.795497	2538.823379
540.155609	2536.701054
540.515665	2535.677699
540.875665	2537.658873
541.235609	2535.652494
541.595496	2537.134593
541.955328	2537.116949
542.315102	2538.425128
542.674821	2537.492515
543.034483	2539.279604
543.394090	2535.826413
543.753640	2539.854295
544.113134	2537.132072
544.472571	2537.129552
544.831953	2536.965714
545.191278	2537.603420
545.550548	2535.186187
545.909761	2538.175591
546.268918	2535.886907
546.628019	2536.892618
546.987064	2537.621064
547.346053	2538.909079
547.704986	2536.690971
548.063863	2537.931095
548.422684	2538.475540
548.781449	2534.465302
549.140158	2538.321785
549.498811	2538.730118
549.857408	2536.948070
550.215949	2533.653676
550.574434	2534.999664
550.932864	2534.485467
551.291237	2532.950435
551.649555	2536.806918
552.007817	2537.898328
552.366022	2537.789943
552.724173	2535.004705
553.082267	2533.963707
553.440305	2537.391692
553.798288	2540.489481
554.156215	2537.759696
554.514086	2537.714326
554.871902	2536.990920
555.229661	2537.714326
555.587365	2536.723739
555.945014	2536.484284
556.302606	2536.663245
556.660143	2541.011240
557.017625	2539.070396
557.375050	2537.805066
557.732421	2540.678524
558.089735	2536.300282
558.446994	2537.066537
558.804197	2536.932947
559.161345	2538.858667
559.518437	2537.905889
559.875474	2536.456558
560.232455	2537.162319
560.589381	2539.907228
560.946251	2540.854964
561.303065	2537.626105
561.659825	2540.141641
562.016528	2535.942360
562.373177	2539.551826
562.729770	2539.839172
563.086307	2539.037628
563.442789	2537.830272
563.799216	2537.512679
564.155587	2537.941178
564.511904	2537.442103
564.868164	2538.029398
565.224370	2538.072248
565.580520	2538.165509
565.936615	2537.361445
566.292654	2537.684079
566.648638	2538.140303
567.004567	2535.990251
567.360441	2536.998482
567.716260	2539.196425
568.072023	2536.212062
568.427732	2530.805424
568.783385	2535.839016
569.138982	2532.453882
569.494525	2535.738193
569.850013	2532.199303
570.205445	2537.575694
570.560823	2537.984027
570.916145	2535.977648
571.271412	2538.863709
571.626625	2540.376055
571.981782	2538.727598
572.336884	2538.261291
572.691931	2536.166691
573.046923	2538.160468
573.401860	2538.082330
573.756743	2538.662062
574.111570	2538.730118
574.466342	2537.938657
574.821059	2536.189377
575.175722	2539.571991
575.530330	2535.168543
575.884882	2538.407484
576.239380	2536.060827
576.593823	2535.725590
576.948211	2537.351362
577.302544	2538.263811
577.656823	2537.762217
578.011047	2538.276414
578.365216	2536.529654
578.719330	2537.225334
579.073389	2539.004861
579.427394	2535.607123
579.781344	2537.784902
580.135239	2538.520910
580.489080	2535.564273
580.842866	2536.297761
581.196597	2537.608461
581.550273	2536.532175
581.903895	2536.517052
582.257463	2537.694161
582.610975	2538.208359
582.964434	2538.548637
583.317837	2539.524100
583.671186	2538.548637
584.024481	2537.437062
584.377721	2539.120808
584.730906	2537.432021
585.084037	2537.908410
585.437113	2538.599048
585.790135	2538.853626
586.143103	2537.263142
586.496016	2534.825744
586.848874	2536.590148
587.201679	2537.177443
587.554428	2535.322298
587.907124	2536.779192
588.259765	2533.862884
588.612352	2538.588966
588.964884	2538.099974
589.317362	2541.250695
589.669786	2537.200128
590.022155	2540.842362
590.374470	2534.936650
590.726731	2536.789274
591.078937	2537.308513
591.431090	2537.452186
591.783188	2538.228523
592.135232	2537.449665
592.487222	2537.921013
592.839157	2539.393030
593.191038	2538.480581
593.542866	2537.258101
593.894639	2540.161806
594.246358	2539.761034
594.598022	2537.847916
594.949633	2535.922195
595.301190	2539.544264
595.652692	2534.906403
596.004141	2535.652494
596.355535	2539.077958
596.706876	2537.500077
597.058162	2536.363296
597.409395	2535.571835
597.760573	2538.755324
598.111698	2539.377906
598.462768	2537.331198
598.813785	2536.078471
599.164748	2535.443286
599.515657	2536.000333
599.866511	2536.476722
600.217312	2538.180632
600.568060	2537.777340
600.918753	2536.353214
601.269392	2537.764737
601.619978	2539.181301
601.970510	2539.340098
602.320988	2538.432690
602.671412	2537.495035
603.021783	2540.307999
603.372100	2536.680889
603.722363	2535.970086
604.072572	2537.159799
604.422728	2539.483771
604.772830	2530.951618
605.122878	2533.192411
605.472872	2535.226516
605.822813	2531.173428
606.172701	2537.127031
606.522534	2537.217772
606.872314	2537.759696
607.222041	2538.306661
607.571714	2537.273225
607.921333	2537.142155
608.270899	2539.156096
608.620411	2537.699202
608.969870	2540.381096
609.319276	2538.243647
609.668627	2543.380583
610.017926	2547.479041
610.367171	2546.702703
610.716362	2543.478885
611.065500	2541.011240
611.414585	2541.253216
611.763616	2541.601055
612.112594	2541.260777
612.461518	2538.651980
612.810389	2539.476209
613.159207	2539.942516
613.507971	2539.178781
613.856682	2539.579553
614.205340	2539.178781
614.553945	2540.048380
614.902496	2536.224665
615.250994	2537.943698
615.599439	2539.771116
615.947830	2540.426466
616.296169	2535.975127
616.644454	2539.408153
616.992686	2537.086702
617.340864	2538.851106
617.688990	2538.820859
618.037063	2540.902855
618.385082	2537.699202
618.733048	2538.538554
619.080961	2538.830941
619.428821	2538.969573
619.776628	2537.195087
620.124382	2538.397402
620.472083	2538.258770
620.819731	2538.142824
621.167326	2539.135931
621.514868	2539.786240
621.862357	2538.117618
622.209793	2542.654656
622.557176	2539.685417
622.904506	2535.912113
623.251783	2533.421783
623.599007	2537.245498
623.946179	2533.636032
624.293297	2533.925898
624.640363	2538.500746
624.987376	2536.549819
625.334336	2536.776671
625.681243	2538.402443
626.028097	2535.173584
626.374899	2538.745242
626.721647	2538.936805
627.068343	2541.285983
627.414987	2535.738193
627.761577	2538.992258
628.108115	2537.202648
628.454600	2539.037628
628.801032	2536.968235
629.147412	2538.977135
629.493739	2536.975797
629.840014	2536.995961
630.186236	2538.034439
630.532405	2535.823893
630.878521	2536.338091
631.224585	2538.029398
631.570597	2538.495704
631.916556	2535.433203
632.262462	2536.703574
632.608316	2535.907072
632.954117	2532.305167
633.299866	2539.498894
633.645562	2535.690302
633.991206	2538.954449
634.336797	2538.962011
634.682336	2538.636857
635.027823	2537.149716
635.373257	2538.437731
635.718639	2535.776002
636.063968	2534.785415
636.409245	2534.992102
636.754470	2537.484953
637.099642	2535.826413
637.444762	2537.568132
637.789829	2538.488143
638.134845	2536.232226
638.479808	2535.995292
638.824719	2534.858512
639.169577	2536.562422
639.514383	2538.102494
639.859137	2536.597710
640.203839	2537.437062
640.548489	2536.998482
640.893086	2535.007226
641.237632	2535.115611
641.582125	2536.794315
641.926566	2532.612678
642.270955	2536.131403
642.615292	2535.896990
642.959576	2537.197607
643.303809	2535.017308
643.647990	2536.209541
643.992118	2536.534696
644.336195	2536.869932
