Dividing Wavelength (nm)	Counts (n)	Blue Motor Position (mm): 0.000000	Red Motor Position (mm): 40.500000	
326.493990	2127.089660
326.888308	2127.089660
327.282561	2127.089660
327.676750	2096.676378
328.070874	2095.509351
328.464933	2095.655545
328.858929	2101.931781
329.252859	2111.958636
329.646726	2124.352313
330.040528	2137.272790
330.434265	2153.515388
330.827938	2170.168840
331.221547	2190.562828
331.615091	2209.512525
332.008571	2229.210834
332.401986	2248.629358
332.795338	2266.346493
333.188625	2285.875923
333.581847	2306.655560
333.975006	2323.775318
334.368100	2341.847855
334.761129	2358.468539
335.154095	2376.102495
335.546996	2397.913047
335.939833	2417.961716
336.332606	2432.729776
336.725315	2446.620676
337.117960	2455.412448
337.510540	2460.927470
337.903056	2475.972794
338.295508	2480.507312
338.687896	2491.234887
339.080220	2499.910713
339.472480	2504.215858
339.864676	2506.582680
340.256807	2513.423526
340.648875	2515.515605
341.040879	2517.211953
341.432818	2522.941224
341.824694	2521.875020
342.216506	2521.819568
342.608253	2523.324352
342.999937	2523.581451
343.391557	2522.275792
343.783113	2521.827129
344.174605	2522.918539
344.566033	2517.902591
344.957397	2518.484844
345.348697	2517.905112
345.739934	2516.816222
346.131106	2513.637775
346.522215	2512.921931
346.913260	2509.501508
347.304241	2508.342043
347.695159	2504.649398
348.086012	2504.752741
348.476802	2499.189828
348.867528	2502.441372
349.258191	2501.105466
349.648789	2500.112359
350.039324	2495.335866
350.429796	2497.717811
350.820203	2493.153046
351.210548	2491.499548
351.600828	2492.595999
351.991045	2492.454846
352.381198	2492.427120
352.771288	2490.735813
353.161314	2493.155567
353.551276	2489.946872
353.941175	2491.260093
354.331010	2493.982316
354.720782	2491.033241
355.110490	2492.540546
355.500135	2494.897285
355.889717	2492.127171
356.279235	2493.914260
356.668689	2494.297388
357.058080	2491.870073
357.447408	2490.839157
357.836672	2488.689104
358.225873	2490.224136
358.615010	2491.043323
359.004084	2495.855105
359.393095	2495.081288
359.782043	2495.648417
360.170927	2497.427945
360.559748	2497.551453
360.948505	2497.795949
361.337199	2499.514982
361.725830	2498.219406
362.114398	2502.695950
362.502903	2502.897597
362.891344	2502.353152
363.279722	2500.187976
363.668037	2500.003974
364.056289	2503.540344
364.444478	2503.068996
364.832603	2502.799294
365.220665	2505.030005
365.608665	2504.757782
365.996601	2507.122083
366.384474	2507.235509
366.772284	2511.898577
367.160031	2510.567712
367.547715	2511.918741
367.935336	2514.469565
368.322893	2519.107427
368.710388	2521.252438
369.097820	2528.819210
369.485189	2530.220650
369.872495	2534.409849
370.259738	2543.567105
370.646918	2550.743188
371.034035	2554.917263
371.421090	2569.012329
371.808081	2581.325347
372.195010	2586.323652
372.581875	2601.873091
372.968678	2614.294494
373.355418	2624.311266
373.742096	2643.281128
374.128710	2656.551966
374.515262	2670.780622
374.901751	2687.310566
375.288177	2698.880014
375.674540	2720.355329
376.060841	2739.988103
376.447079	2759.451998
376.833254	2779.540996
377.219367	2791.606998
377.605417	2832.657114
377.991404	2841.267404
378.377329	2862.538553
378.763191	2878.808877
379.148991	2918.087027
379.534727	2940.515121
379.920402	2970.527630
380.306013	2982.999445
380.691563	3031.437372
381.077049	3052.219528
381.462474	3070.385326
381.847835	3113.454424
382.233134	3135.038124
382.618371	3132.081488
383.003545	3200.573124
383.388657	3205.019422
383.773706	3242.397057
384.158693	3257.855755
384.543618	3281.677728
384.928480	3315.927327
385.313280	3365.305429
385.698017	3361.973226
386.082692	3416.306783
386.467305	3421.715941
386.851856	3453.671815
387.236344	3478.633088
387.620770	3505.943539
388.005133	3536.198024
388.389435	3560.128381
388.773674	3572.819486
389.157851	3616.584263
389.541965	3631.430461
389.926018	3595.267744
390.310008	3664.523116
390.693936	3684.934747
391.077802	3727.542580
391.461606	3713.588666
391.845348	3776.635857
392.229027	3778.743059
392.612645	3791.648413
392.996200	3868.755381
393.379694	3908.033532
393.763125	3974.649859
394.146494	3937.675516
394.529801	3998.386132
394.913047	4051.101478
395.296230	4017.945809
395.679351	4072.735589
396.062410	4095.569496
396.445408	4077.948142
396.828343	4110.985344
397.211217	4130.867655
397.594028	4051.590470
397.976778	4121.067652
398.359466	4146.026405
398.742092	4175.696116
399.124656	4099.423458
399.507158	4175.123945
399.889598	4202.981361
400.271977	4263.185341
400.654294	4235.852204
401.036549	4242.178853
401.418742	4212.914954
401.800874	4317.637364
402.182944	4336.972709
402.564952	4402.613574
402.946898	4391.263416
403.328783	4385.977766
403.710606	4298.218839
404.092367	4489.699506
404.474067	4454.585349
404.855705	4465.819561
405.237282	4391.497829
405.618797	4502.083101
406.000250	4537.358575
406.381642	4618.669866
406.762972	4577.932302
407.144240	4587.008899
407.525447	4585.385648
407.906593	4649.995596
408.287677	4690.599569
408.668700	4618.896718
409.049661	4669.159542
409.430560	4711.369123
409.811399	4638.859687
410.192176	4800.274912
410.572891	4737.726796
410.953545	4839.507692
411.334138	4723.344384
411.714669	4791.379797
412.095139	4685.563457
412.475547	4827.577802
412.855894	4805.956293
413.236180	4819.128828
413.616405	4769.879275
413.996568	4859.102657
414.376670	4799.516219
414.756711	4756.915948
415.136691	4789.136483
415.516609	4866.245972
415.896466	4899.429367
416.276262	4935.158545
416.655997	4916.355042
417.035670	5098.343216
417.415283	5187.556516
417.794834	5133.532990
418.174324	5085.818469
418.553753	4993.262885
418.933121	5181.824724
419.312428	5249.943315
419.691674	5185.182132
420.070859	5308.360206
420.449983	5219.225044
420.829045	5340.978992
421.208047	5245.116410
421.586988	5317.772040
421.965867	5330.044729
422.344686	5462.344771
422.723444	5317.900589
423.102141	5137.961644
423.480777	5433.113640
423.859352	5201.754925
424.237866	5459.877126
424.616319	5449.043686
424.994712	5563.215738
425.373044	5436.491213
425.751314	5583.095529
426.129524	5387.627309
426.507673	5580.403552
426.885762	5663.512015
427.263789	5594.866623
427.641756	5472.686698
428.019662	5601.425164
428.397508	5603.718889
428.775292	5551.502617
429.153016	5647.846629
429.530679	5574.616308
429.908282	5660.230224
430.285824	5535.897726
430.663305	5808.261186
431.040726	5544.626484
431.418086	5542.012645
431.795385	5648.277648
432.172624	5665.372201
432.549802	5652.340818
432.926920	5666.629968
433.303977	5669.599208
433.680974	5713.038831
434.057910	5728.462241
434.434786	5736.243262
434.811601	5706.079518
435.188355	5944.720179
435.565050	5814.907947
435.941683	5797.636954
436.318257	6007.432133
436.694770	5999.144476
437.071222	6031.521287
437.447614	5961.913034
437.823946	5869.758222
438.200218	6026.341501
438.576429	5893.587756
438.952580	5992.154916
439.328670	6037.043871
439.704700	5943.167504
440.080670	5931.847593
440.456580	6195.688982
440.832429	6084.690336
441.208218	5926.624958
441.583947	6087.256284
441.959616	6088.803918
442.335224	6017.063258
442.710773	6154.023846
443.086261	6179.600140
443.461689	5974.284026
443.837057	6127.867819
444.212365	6281.781808
444.587612	6168.597822
444.962800	6326.978272
445.337927	6302.858872
445.712995	5911.637607
446.088002	6495.551937
446.462949	6325.435679
446.837837	6255.237612
447.212664	6424.065854
447.587431	6570.216466
447.962139	7108.137828
448.336786	8034.459930
448.711374	7776.720857
449.085901	6852.589137
449.460369	6773.732888
449.834776	6709.374998
450.209124	7101.312106
450.583412	7254.331290
450.957640	7397.265646
451.331808	7164.991962
451.705917	6712.205605
452.079965	6635.461600
452.453954	6846.766604
452.827883	6722.608026
453.201752	6820.368602
453.575562	6618.964424
453.949311	6817.961451
454.323001	6706.315017
454.696632	6787.739734
455.070202	6925.002792
455.443713	7079.834270
455.817164	7174.129053
456.190556	7264.930316
456.563888	7334.694844
456.937160	7381.514560
457.310373	7032.129831
457.683526	7060.090591
458.056619	6949.782583
458.429653	6941.701614
458.802628	6876.249793
459.175542	6985.234498
459.548398	7335.917324
459.921194	7500.652149
460.293930	7499.654001
460.666607	8036.458747
461.039224	8341.130963
461.411782	8464.457750
461.784280	8485.428950
462.156719	8384.119402
462.529099	8254.357581
462.901419	7844.330292
463.273680	7734.675114
463.645882	7752.230932
464.018024	7614.914942
464.390106	7779.929552
464.762130	8166.916247
465.134094	8642.077765
465.505999	9660.559720
465.877845	10883.314271
466.249631	11537.746781
466.621358	11146.686833
466.993026	10523.257419
467.364634	10264.719324
467.736184	9896.049661
468.107674	9569.143437
468.479105	9607.032749
468.850477	9357.195685
469.221790	9130.958782
469.593043	8809.675966
469.964238	8668.753030
470.335373	8682.013786
470.706449	8738.482270
471.077467	8718.075680
471.448425	10029.771308
471.819324	11106.748292
472.190164	11132.417847
472.560945	9883.676148
472.931667	9094.947300
473.302330	8953.933624
473.672934	8595.931043
474.043479	8959.010066
474.413965	8895.736023
474.784393	8781.311913
475.154761	8934.676416
475.525070	9018.457873
475.895321	8853.564251
476.265513	9029.215695
476.635645	9195.147794
477.005719	9199.062250
477.375734	9311.981576
477.745691	9553.024347
478.115588	9678.987658
478.485427	9929.525443
478.855207	10462.937493
479.224928	11277.887903
479.594591	11910.295612
479.964194	11715.281096
480.333739	11657.640543
480.703226	11575.762122
481.072653	11672.537153
481.442022	11905.940055
481.811333	12090.963004
482.180584	11896.767676
482.549777	11609.316042
482.918912	11431.227200
483.287988	11454.040942
483.657005	11465.161727
484.025964	11146.144909
484.394864	11280.113572
484.763706	11248.122410
485.132489	11004.775832
485.501213	10966.589091
485.869879	11046.302337
486.238487	10885.229909
486.607036	10996.503298
486.975527	10765.923442
487.343959	10965.419544
487.712333	11006.658703
488.080648	10941.199320
488.448905	10983.981072
488.817104	10923.048646
489.185244	11190.010509
489.553326	11343.405259
489.921350	11882.821323
490.289315	12939.830297
490.657222	13291.523875
491.025070	13199.227910
491.392861	13075.404568
491.760593	12693.224613
492.128267	12341.450377
492.495883	12014.715552
492.863440	11674.220898
493.230939	11339.016935
493.598380	11278.956628
493.965763	11141.769187
494.333088	11046.342666
494.700354	10963.072887
495.067563	11020.426094
495.434713	10854.864519
495.801805	10974.685184
496.168839	10905.790255
496.535815	10835.209060
496.902733	10842.460760
497.269593	10777.689495
497.636395	10873.168949
498.003139	10865.735768
498.369825	10731.089069
498.736453	10891.115457
499.103023	10809.141254
499.469535	10837.349030
499.835989	10834.387352
500.202385	10789.576536
500.568723	10643.357868
500.935003	10866.131498
501.301226	10678.610657
501.667390	10930.176837
502.033497	11025.366425
502.399546	10886.407019
502.765537	10793.196084
503.131470	10867.580830
503.497345	11044.452233
503.863163	10652.827676
504.228923	10964.262599
504.594625	11035.418485
504.960269	10778.299475
505.325856	10999.424647
505.691385	10795.933431
506.056856	10942.787283
506.422270	10966.475665
506.787625	10857.969870
507.152924	10976.469753
507.518164	10955.886722
507.883347	10872.357323
508.248472	10795.721702
508.613540	11029.754749
508.978550	10911.073385
509.343503	10882.268232
509.708398	11003.666778
510.073236	11119.883018
510.438016	11124.929213
510.802738	11070.472149
511.167403	11125.158586
511.532010	11021.827535
511.896561	11259.162537
512.261053	11317.760909
512.625488	11192.606703
512.989866	11174.713128
513.354186	11165.661736
513.718449	11058.164172
514.082655	11258.096333
514.446803	11156.239820
514.810894	11277.298088
515.174927	11144.587193
515.538904	11164.035964
515.902822	11316.382154
516.266684	11201.844618
516.630488	11151.828810
516.994235	11204.140863
517.357925	11266.736871
517.721558	11350.495642
518.085133	11370.826615
518.448651	11386.479398
518.812112	11261.670511
519.175516	11282.397215
519.538863	11395.351829
519.902152	11313.458285
520.265385	11475.727986
520.628560	11385.723225
520.991678	11359.478978
521.354739	11424.789647
521.717743	11360.058711
522.080690	11332.269350
522.443580	11468.650206
522.806413	11423.436097
523.169189	11456.553957
523.531908	11512.359530
523.894569	11327.215593
524.257174	11337.126502
524.619722	11463.722478
524.982213	11397.675801
525.344647	11457.421036
525.707025	11404.753581
526.069345	11492.157106
526.431608	11410.944118
526.793815	11521.673062
527.155964	11310.184055
527.518057	11367.973322
527.880093	11315.338635
528.242072	11388.906714
528.603995	11288.675972
528.965860	11207.215967
529.327669	11262.388876
529.689421	11216.819365
530.051117	11182.491628
530.412755	11287.584562
530.774337	11175.446616
531.135862	11152.645477
531.497331	11182.431134
531.858743	11032.615604
532.220098	11199.984432
532.581396	11069.239587
532.942638	11050.592358
533.303824	11010.255566
533.664953	11027.214008
534.026025	10936.828640
534.387040	11039.832016
534.747999	11041.835874
535.108902	11100.804771
535.469748	10855.489622
535.830537	10960.481733
536.191270	10938.325862
536.551947	10957.457041
536.912567	10957.729263
537.273131	10888.045394
537.633638	10857.425425
537.994089	10850.219096
538.354483	10806.172014
538.714821	10946.079157
539.075103	10954.167688
539.435328	10923.237689
539.795497	10743.802859
540.155609	10902.758001
540.515665	10987.136834
540.875665	10730.156455
541.235609	10789.984869
541.595496	10791.797164
541.955328	10943.271234
542.315102	10824.184057
542.674821	10781.976996
543.034483	10781.709815
543.394090	10784.195104
543.753640	10709.815400
544.113134	10930.660788
544.472571	10787.514704
544.831953	10936.385018
545.191278	10736.533515
545.550548	10764.320355
545.909761	10903.594833
546.268918	10879.011646
546.628019	10959.896960
546.987064	10822.696917
547.346053	10744.357386
547.704986	10843.542088
548.063863	10829.477268
548.422684	10824.221866
548.781449	10735.046375
549.140158	10845.122489
549.498811	10718.234127
549.857408	10582.339742
550.215949	10802.940635
550.574434	10650.092850
550.932864	10753.988510
551.291237	10810.857767
551.649555	10756.100754
552.007817	10767.476117
552.366022	10731.394059
552.724173	10728.598739
553.082267	10710.558970
553.440305	10851.436535
553.798288	10644.736624
554.156215	10799.855448
554.514086	10776.096490
554.871902	10629.310693
555.229661	10665.836373
555.587365	10642.687395
555.945014	10531.010714
556.302606	10666.000211
556.660143	10552.622140
557.017625	10709.011336
557.375050	10604.881262
557.732421	10743.218085
558.089735	10654.304734
558.446994	10652.563015
558.804197	10688.982831
559.161345	10690.807729
559.518437	10542.950687
559.875474	10628.110899
560.232455	10651.806842
560.589381	10606.731365
560.946251	10601.614594
561.303065	10713.240864
561.659825	10644.343414
562.016528	10569.280633
562.373177	10451.436100
562.729770	10566.928935
563.086307	10485.594959
563.442789	10577.827910
563.799216	10450.027098
564.155587	10493.713737
564.511904	10454.889291
564.868164	10438.220716
565.224370	10456.532707
565.580520	10376.080933
565.936615	10382.367252
566.292654	10257.500391
566.648638	10391.101051
567.004567	10345.334935
567.360441	10320.867695
567.716260	10226.661133
568.072023	10330.012348
568.427732	10270.640159
568.783385	10180.605151
569.138982	10250.795657
569.494525	10271.320715
569.850013	10149.763372
570.205445	10226.749353
570.560823	10121.479978
570.916145	10038.240446
571.271412	10106.868194
571.626625	10051.599504
571.981782	10031.964209
572.336884	10003.050672
572.691931	10007.007977
573.046923	9950.635274
573.401860	9905.937884
573.756743	9830.686060
574.111570	9877.982165
574.466342	9861.285864
574.821059	9883.570284
575.175722	9781.486919
575.530330	9780.728225
575.884882	9775.732442
576.239380	9706.361124
576.593823	9688.432260
576.948211	9694.476603
577.302544	9575.157533
577.656823	9584.876878
578.011047	9587.972146
578.365216	9555.887722
578.719330	9475.042738
579.073389	9483.143873
579.427394	9428.142363
579.781344	9399.765708
580.135239	9350.543882
580.489080	9356.852886
580.842866	9252.518646
581.196597	9254.817412
581.550273	9291.393504
581.903895	9256.985108
582.257463	9325.214605
582.610975	9196.917239
582.964434	9218.090086
583.317837	9139.259042
583.671186	9116.263819
584.024481	9105.662273
584.377721	9028.341055
584.730906	9005.706274
585.084037	9024.408955
585.437113	8960.575344
585.790135	8975.456830
586.143103	8866.247794
586.496016	8839.696037
586.848874	8894.377432
587.201679	8878.896049
587.554428	8756.733768
587.907124	8794.335734
588.259765	8767.098380
588.612352	8758.535980
588.964884	8638.853947
589.317362	8647.418867
589.669786	8638.632136
590.022155	8681.086213
590.374470	8692.915281
590.726731	8623.309549
591.078937	8478.809915
591.431090	8577.220800
591.783188	8449.377138
592.135232	8430.692102
592.487222	8427.170856
592.839157	8467.878173
593.191038	8399.678923
593.542866	8341.317485
593.894639	8234.104746
594.246358	8284.932179
594.598022	8290.895864
594.949633	8181.580964
595.301190	8146.716344
595.652692	8172.839603
596.004141	8264.467615
596.355535	8051.012559
596.706876	8017.372939
597.058162	7947.053884
597.409395	8016.054677
597.760573	8065.515958
598.111698	7970.568346
598.462768	7949.317362
598.813785	7907.493429
599.164748	7869.483129
599.515657	7850.873710
599.866511	7754.781756
600.217312	7869.271401
600.568060	7722.402425
600.918753	7812.119840
601.269392	7772.821525
601.619978	7678.171341
601.970510	7725.381747
602.320988	7712.829273
602.671412	7754.277640
603.021783	7689.007301
603.372100	7654.188051
603.722363	7647.334603
604.072572	7611.222297
604.422728	7612.497709
604.772830	7531.183898
605.122878	7525.739451
605.472872	7513.078593
605.822813	7526.898917
606.172701	7468.018240
606.522534	7522.659306
606.872314	7507.084662
607.222041	7464.829710
607.571714	7500.132910
607.921333	7454.565921
608.270899	7445.680887
608.620411	7513.345775
608.969870	7408.114209
609.319276	7390.079481
609.668627	7385.713842
610.017926	7402.861326
610.367171	7427.192455
610.716362	7397.396716
611.065500	7374.167079
611.414585	7377.335444
611.763616	7358.355500
612.112594	7323.793349
612.461518	7321.381157
612.810389	7357.034717
613.159207	7284.152236
613.507971	7231.232723
613.856682	7310.893036
614.205340	7251.016731
614.553945	7305.118394
614.902496	7203.115687
615.250994	7227.227526
615.599439	7195.622012
615.947830	7195.064965
616.296169	7146.773232
616.644454	7144.174517
616.992686	7118.560414
617.340864	7147.030330
617.688990	7054.590692
618.037063	7109.584640
618.385082	7051.724796
618.733048	7093.054696
619.080961	7034.688217
619.428821	7026.413163
619.776628	7012.272726
620.124382	6954.364992
620.472083	6920.687564
620.819731	6930.041425
621.167326	6825.124931
621.514868	6820.121586
621.862357	6712.129988
622.209793	6721.660289
622.557176	6649.924670
622.904506	6609.860100
623.251783	6548.269803
623.599007	6485.630946
623.946179	6474.789944
624.293297	6423.319764
624.640363	6350.361665
624.987376	6321.566594
625.334336	6272.221259
625.681243	6207.326486
626.028097	6191.315781
626.374899	6160.526934
626.721647	6129.342357
627.068343	6068.803140
627.414987	6030.271081
627.761577	5972.983408
628.108115	5987.466643
628.454600	5896.768724
628.801032	5907.093007
629.147412	5875.212750
629.493739	5839.740671
629.840014	5778.765395
630.186236	5799.517304
630.532405	5704.776380
630.878521	5722.632147
631.224585	5678.685888
631.570597	5614.199448
631.916556	5616.238595
632.262462	5599.164207
632.608316	5557.415891
632.954117	5527.403382
633.299866	5506.812789
633.645562	5476.989322
633.991206	5413.632101
634.336797	5363.069328
634.682336	5316.877235
635.027823	5278.635042
635.373257	5264.318165
635.718639	5199.806519
636.063968	5197.865675
636.409245	5114.631184
636.754470	5098.292804
637.099642	5057.424170
637.444762	5010.695195
637.789829	5002.425182
638.134845	4950.259322
638.479808	4925.192184
638.824719	4914.489815
639.169577	4861.237586
639.514383	4859.294221
639.859137	4803.763391
640.203839	4795.695024
640.548489	4771.346251
