Dividing Wavelength (nm)	Counts (n)	Blue Motor Position (mm): 0.000000	Red Motor Position (mm): 38.000000	
326.493990	2078.535786
326.888308	2078.535786
327.282561	2078.535786
327.676750	2053.997970
328.070874	2055.001160
328.464933	2062.373847
328.858929	2075.422874
329.252859	2086.682291
329.646726	2100.374065
330.040528	2113.871754
330.434265	2134.064096
330.827938	2154.823568
331.221547	2172.699499
331.615091	2193.143898
332.008571	2214.750284
332.401986	2236.545713
332.795338	2253.781418
333.188625	2275.294542
333.581847	2294.576955
333.975006	2312.468010
334.368100	2332.244457
334.761129	2344.776765
335.154095	2362.249404
335.546996	2391.712428
335.939833	2435.610796
336.332606	2448.289298
336.725315	2461.913016
337.117960	2467.357462
337.510540	2478.029585
337.903056	2487.307828
338.295508	2489.805720
338.687896	2497.911895
339.080220	2507.505211
339.472480	2508.689882
339.864676	2515.538290
340.256807	2518.326048
340.648875	2519.747653
341.040879	2521.625483
341.432818	2522.989115
341.824694	2523.556245
342.216506	2523.513395
342.608253	2524.561955
342.999937	2521.741430
343.391557	2519.931655
343.783113	2518.212622
344.174605	2520.120699
344.566033	2517.327899
344.957397	2515.528207
345.348697	2514.605676
345.739934	2513.652898
346.131106	2509.720798
346.522215	2507.351456
346.913260	2510.726508
347.304241	2508.730212
347.695159	2505.067813
348.086012	2504.208297
348.476802	2501.226454
348.867528	2503.847854
349.258191	2498.105980
349.648789	2500.334170
350.039324	2498.466422
350.429796	2498.136227
350.820203	2496.659169
351.210548	2499.288130
351.600828	2497.992554
351.991045	2496.150012
352.381198	2494.960300
352.771288	2496.518016
353.161314	2497.243943
353.551276	2498.640342
353.941175	2497.306957
354.331010	2494.851915
354.720782	2499.333501
355.110490	2498.718480
355.500135	2499.880466
355.889717	2500.530775
356.279235	2496.076915
356.668689	2499.686382
357.058080	2496.639004
357.447408	2498.642863
357.836672	2498.368120
358.225873	2499.525065
358.615010	2496.996926
359.004084	2502.000271
359.393095	2502.141423
359.782043	2502.816938
360.170927	2504.200735
360.559748	2509.688031
360.948505	2507.996724
361.337199	2509.932527
361.725830	2510.000582
362.114398	2509.163751
362.502903	2510.638288
362.891344	2512.705161
363.279722	2510.577794
363.668037	2514.552744
364.056289	2512.382528
364.444478	2515.185409
364.832603	2516.876716
365.220665	2515.180368
365.608665	2518.071470
365.996601	2517.325379
366.384474	2517.211953
366.772284	2520.171110
367.160031	2522.046419
367.547715	2522.616070
367.935336	2522.497603
368.322893	2521.537263
368.710388	2525.343334
369.097820	2527.901720
369.485189	2530.061854
369.872495	2527.332069
370.259738	2528.667975
370.646918	2531.695188
371.034035	2532.171577
371.421090	2536.403626
371.808081	2538.369676
372.195010	2543.204142
372.581875	2547.098433
372.968678	2553.682180
373.355418	2561.203582
373.742096	2570.323029
374.128710	2579.560944
374.515262	2593.562748
374.901751	2601.588265
375.288177	2618.004783
375.674540	2631.106742
376.060841	2653.481903
376.447079	2672.761796
376.833254	2698.222143
377.219367	2718.290977
377.605417	2750.241810
377.991404	2773.017743
378.377329	2810.304637
378.763191	2843.619103
379.148991	2886.816750
379.534727	2933.195365
379.920402	2977.741521
380.306013	3021.344982
380.691563	3078.347829
381.077049	3136.926036
381.462474	3187.322451
381.847835	3255.861979
382.233134	3322.201043
382.618371	3381.109446
383.003545	3462.420737
383.388657	3536.883621
383.773706	3628.415851
384.158693	3689.522198
384.543618	3780.099129
384.928480	3857.889174
385.313280	3951.566416
385.698017	4054.942837
386.082692	4170.135723
386.467305	4227.531780
386.851856	4344.579811
387.236344	4491.622707
387.620770	4552.918096
388.005133	4670.762629
388.389435	4809.505265
388.773674	4887.131473
389.157851	5013.132592
389.541965	5141.094721
389.926018	5168.077497
390.310008	5338.224001
390.693936	5453.684068
391.077802	5568.216563
391.461606	5693.305234
391.845348	5801.989990
392.229027	5924.169916
392.612645	6134.431401
392.996200	6249.614205
393.379694	6418.926398
393.763125	6622.770495
394.146494	6724.657255
394.529801	6853.768767
394.913047	7084.900630
395.296230	7083.368119
395.679351	7139.521532
396.062410	7383.778038
396.445408	7287.996115
396.828343	7441.900022
397.211217	7574.394148
397.594028	7463.266952
397.976778	7663.988054
398.359466	7825.446130
398.742092	7805.462996
399.124656	7947.346271
399.507158	8131.297975
399.889598	8156.468456
400.271977	8366.709777
400.654294	8394.930156
401.036549	8600.178215
401.418742	8626.614025
401.800874	8920.893902
402.182944	9003.931788
402.564952	9353.992032
402.946898	9199.150471
403.328783	9245.665197
403.710606	9442.250033
404.092367	9697.143374
404.474067	10048.473988
404.855705	9851.052321
405.237282	9813.639398
405.618797	10223.611235
406.000250	10472.659358
406.381642	10822.691875
406.762972	10778.801069
407.144240	10596.321383
407.525447	10835.698052
407.906593	10792.762545
408.287677	11048.611185
408.668700	11194.179543
409.049661	11188.120077
409.430560	11342.659168
409.811399	11323.023874
410.192176	11487.730973
410.572891	11559.388454
410.953545	12027.179805
411.334138	11521.985613
411.714669	12097.589601
412.095139	11452.475664
412.475547	11928.658015
412.855894	11799.748149
413.236180	12112.909667
413.616405	11805.394242
413.996568	12083.239956
414.376670	12064.869992
414.756711	11958.297479
415.136691	12227.094323
415.516609	12398.624623
415.896466	12482.527067
416.276262	12770.318979
416.655997	13229.321078
417.035670	13274.351184
417.415283	13891.821954
417.794834	13971.056290
418.174324	13722.542529
418.553753	13636.366524
418.933121	14116.869144
419.312428	13950.206077
419.691674	13850.842415
420.070859	14323.765660
420.449983	13977.967712
420.829045	14531.209141
421.208047	14288.933807
421.586988	14735.189349
421.965867	14982.261340
422.344686	14991.597557
422.723444	15561.157201
423.102141	14258.384415
423.480777	15452.195181
423.859352	14946.764055
424.237866	16049.647529
424.616319	15767.635300
424.994712	16408.481901
425.373044	16209.724328
425.751314	16894.028195
426.129524	16023.710792
426.507673	17098.613342
426.885762	16828.243658
427.263789	17011.880290
427.641756	17197.407354
428.019662	17250.233605
428.397508	17307.236453
428.775292	17596.817973
429.153016	17578.077484
429.530679	17639.226680
429.908282	17678.061209
430.285824	17420.130572
430.663305	18119.598230
431.040726	17746.298267
431.418086	17579.826764
431.795385	18210.550728
432.172624	18659.934305
432.549802	18217.777222
432.926920	18434.360315
433.303977	18310.967992
433.680974	18563.045849
434.057910	18867.564309
434.434786	18909.393283
434.811601	18833.808742
435.188355	19889.638086
435.565050	19547.389111
435.941683	19512.136322
436.318257	20411.526059
436.694770	20216.201512
437.071222	20807.191101
437.447614	19882.640965
437.823946	19908.141642
438.200218	20080.942313
438.576429	19849.989411
438.952580	20169.323822
439.328670	20144.758280
439.704700	20555.755991
440.080670	20121.584095
440.456580	20751.534242
440.832429	20903.872870
441.208218	19922.980278
441.583947	20356.786690
441.959616	20486.074642
442.335224	20741.356152
442.710773	20879.486288
443.086261	21433.693098
443.461689	20764.472363
443.837057	20935.536357
444.212365	21581.693813
444.587612	21585.567940
444.962800	21183.314110
445.337927	21615.104060
445.712995	20335.523103
446.088002	22214.580432
446.462949	22429.832660
446.837837	22611.788067
447.212664	22643.209578
447.587431	25594.396822
447.962139	28573.285206
448.336786	30878.609901
448.711374	29207.893378
449.085901	25472.209335
449.460369	25489.331614
449.834776	25492.948642
450.209124	28044.102684
450.583412	27522.038271
450.957640	28023.887657
451.331808	26665.331983
451.705917	25283.319821
452.079965	25329.330432
452.453954	25707.976539
452.827883	25639.623534
453.201752	25433.069817
453.575562	25589.751399
453.949311	26729.568886
454.323001	26794.929966
454.696632	26573.209938
455.070202	28193.744294
455.443713	28370.262817
455.817164	28950.166908
456.190556	29524.132521
456.563888	28933.430278
456.937160	29382.932322
457.310373	27654.247572
457.683526	28091.585312
458.056619	28099.726775
458.429653	28075.297344
458.802628	28694.794657
459.175542	28823.868361
459.548398	30211.735823
459.921194	31834.243791
460.293930	32576.989755
460.666607	34677.436917
461.039224	36485.003122
461.411782	36821.996695
461.784280	35526.352101
462.156719	34979.475129
462.529099	34409.260135
462.901419	33074.758327
463.273680	32014.152490
463.645882	32164.943484
464.018024	32161.500376
464.390106	33096.770525
464.762130	36026.419439
465.134094	40366.492458
465.505999	45866.504730
465.877845	50396.150339
466.249631	51407.075605
466.621358	49548.399662
466.993026	47313.275555
467.364634	45169.313153
467.736184	43197.276783
468.107674	41928.763679
468.479105	41126.975721
468.850477	40398.213918
469.221790	38950.069379
469.593043	37173.526435
469.964238	36265.475995
470.335373	36211.109672
470.706449	38083.290867
471.077467	40858.062931
471.448425	45530.950407
471.819324	48303.902615
472.190164	46311.560477
472.560945	42661.893642
472.931667	39500.825519
473.302330	38399.426665
473.672934	37550.322438
474.043479	38094.968699
474.413965	37298.874725
474.784393	36920.379853
475.154761	37852.257306
475.525070	37913.822398
475.895321	37418.902078
476.265513	38063.363185
476.635645	39063.117254
477.005719	38899.592306
477.375734	39418.115308
477.745691	40144.149847
478.115588	41505.831036
478.485427	43624.824602
478.855207	47125.273284
479.224928	49792.152053
479.594591	51329.494768
479.964194	50215.462783
480.333739	50362.193127
480.703226	50431.476225
481.072653	51080.698703
481.442022	51560.142680
481.811333	51771.719907
482.180584	50484.751139
482.549777	49949.841866
482.918912	49420.215722
483.287988	49126.034148
483.657005	48262.673538
484.025964	47593.994727
484.394864	47590.909541
484.763706	47139.534708
485.132489	46250.587721
485.501213	46101.203209
485.869879	46231.794299
486.238487	45834.546335
486.607036	46014.253387
486.975527	45459.232431
487.343959	45698.402414
487.712333	45748.897131
488.080648	45652.490105
488.448905	46094.821108
488.817104	45913.470640
489.185244	46921.474557
489.553326	48689.828147
489.921350	51455.624438
490.289315	54285.390449
490.657222	54806.275232
491.025070	55026.954263
491.392861	54103.916473
491.760593	52834.589222
492.128267	51121.637913
492.495883	49586.959447
492.863440	48147.899068
493.230939	46769.546783
493.598380	45690.891095
493.965763	45338.635428
494.333088	44508.634653
494.700354	44016.058470
495.067563	43711.804671
495.434713	43564.504676
495.801805	43635.879853
496.168839	43244.459462
496.535815	42899.858788
496.902733	42901.025815
497.269593	42470.133190
497.636395	42401.601224
498.003139	42810.789162
498.369825	42236.142993
498.736453	42549.319635
499.103023	42078.853952
499.469535	41936.554782
499.835989	42022.766075
500.202385	41674.240862
500.568723	41686.609333
500.935003	41884.648542
501.301226	41669.797085
501.667390	42290.312712
502.033497	42528.802139
502.399546	41952.457102
502.765537	41247.925605
503.131470	41617.366565
503.497345	41967.951088
503.863163	40612.916661
504.228923	41244.825295
504.594625	41655.820486
504.960269	40915.123752
505.325856	41608.796603
505.691385	40971.831691
506.056856	41109.056940
506.422270	41532.544110
506.787625	41094.803078
507.152924	41304.688997
507.518164	41395.991855
507.883347	40583.773750
508.248472	40817.461478
508.613540	41316.394557
508.978550	41603.810902
509.343503	41349.255318
509.708398	41555.209138
510.073236	42086.592123
510.438016	42074.420258
510.802738	41520.059693
511.167403	42149.722493
511.532010	42361.866850
511.896561	42657.074298
512.261053	43497.641332
512.625488	43054.919639
512.989866	42922.864094
513.354186	42750.733896
513.718449	42732.585742
514.082655	43410.721757
514.446803	43066.663007
514.810894	43613.252634
515.174927	43502.354811
515.538904	43398.963266
515.902822	44064.652672
516.266684	43506.135676
516.630488	43933.254998
516.994235	43776.996872
517.357925	44368.488056
517.721558	44534.410073
518.085133	44823.242983
518.448651	44936.815138
518.812112	44711.392382
519.175516	44794.306760
519.538863	45141.354914
519.902152	45079.320995
520.265385	45561.272947
520.628560	45582.844044
520.991678	45355.845928
521.354739	45593.798472
521.717743	45890.417443
522.080690	45763.836591
522.443580	46327.200657
522.806413	46347.851743
523.169189	46301.107644
523.531908	46475.246742
523.894569	46322.734194
524.257174	46465.519836
524.619722	46757.024557
524.982213	46742.745489
525.344647	46663.009558
525.707025	46715.140130
526.069345	47097.645240
526.431608	47011.111314
526.793815	47311.871593
527.155964	46848.818927
527.518057	46993.726895
527.880093	46777.048020
528.242072	47301.292732
528.603995	46986.623909
528.965860	46959.726833
529.327669	47069.500478
529.689421	46953.818600
530.051117	46895.777275
530.412755	47044.430820
530.774337	47103.598843
531.135862	46917.998682
531.497331	47072.936024
531.858743	46963.679097
532.220098	47296.831311
532.581396	46997.409457
532.942638	46648.995151
533.303824	46970.081362
533.664953	46910.086591
534.026025	46629.168292
534.387040	47082.481449
534.747999	47018.912499
535.108902	47168.649892
535.469748	46665.862851
535.830537	46770.250024
536.191270	46947.338197
536.551947	46584.506190
536.912567	46887.199752
537.273131	46992.486771
537.633638	46475.453429
537.994089	46783.452806
538.354483	46361.546038
538.714821	46921.656039
539.075103	47236.851662
539.435328	46986.596182
539.795497	46852.052828
540.155609	46820.245667
540.515665	47282.625339
540.875665	46688.671552
541.235609	46986.772623
541.595496	46951.577807
541.955328	47611.651368
542.315102	46921.565298
542.674821	46690.710699
543.034483	46698.544652
543.394090	46660.141142
543.753640	46577.496466
544.113134	47551.671720
544.472571	46520.022271
544.831953	47731.474554
545.191278	46911.021725
545.550548	46608.489479
545.909761	47036.491003
546.268918	47196.477061
546.628019	47462.564285
546.987064	46981.187024
547.346053	46229.792961
547.704986	47058.677121
548.063863	46576.480673
548.422684	46711.959162
548.781449	46503.109199
549.140158	46873.654172
549.498811	46682.970007
549.857408	46056.173102
550.215949	46847.513268
550.574434	46725.585401
550.932864	46445.468646
551.291237	47105.222094
551.649555	46666.142635
552.007817	46852.163733
552.366022	46436.064374
552.724173	46551.307671
553.082267	46876.434368
553.440305	47089.014785
553.798288	46360.709206
554.156215	46617.500542
554.514086	46748.068947
554.871902	46422.990141
555.229661	46390.394041
555.587365	46132.692777
555.945014	46159.972981
556.302606	46032.822478
556.660143	46174.289857
557.017625	46173.165680
557.375050	45892.837197
557.732421	46147.687689
558.089735	46060.989925
558.446994	45898.795841
558.804197	46281.671476
559.161345	46121.783720
559.518437	45319.738663
559.875474	45543.215534
560.232455	45622.280991
560.589381	45704.282920
560.946251	45328.212843
561.303065	45871.056892
561.659825	45572.915492
562.016528	45178.921592
562.373177	44791.713086
562.729770	45184.171954
563.086307	44624.901305
563.442789	44955.147294
563.799216	44882.572322
564.155587	44607.791629
564.511904	44518.497671
564.868164	44461.162108
565.224370	44587.354791
565.580520	44238.393519
565.936615	44333.444475
566.292654	43936.146099
566.648638	44069.751800
567.004567	43911.210032
567.360441	43834.692878
567.716260	43580.323817
568.072023	43723.595930
568.427732	43581.289198
568.783385	43033.756876
569.138982	43271.424594
569.494525	43083.384515
569.850013	42731.338056
570.205445	42582.704676
570.560823	42404.850248
570.916145	42139.052891
571.271412	42050.240363
571.626625	41669.045953
571.981782	41569.112640
572.336884	41145.237301
572.691931	41279.679833
573.046923	40802.630403
573.401860	40511.496207
573.756743	40350.045693
574.111570	40295.195419
574.466342	40012.570690
574.821059	39958.809305
575.175722	39397.938090
575.530330	39259.732337
575.884882	38849.039615
576.239380	38657.548866
576.593823	38480.911876
576.948211	38267.781974
577.302544	37703.233237
577.656823	37542.233907
578.011047	37580.014834
578.365216	37193.002933
578.719330	36825.033990
579.073389	36558.863588
579.427394	36445.356967
579.781344	36249.291371
580.135239	35801.830994
580.489080	35693.373089
580.842866	35094.541986
581.196597	35275.451353
581.550273	35077.129840
581.903895	34790.593176
582.257463	34919.495480
582.610975	34241.793004
582.964434	34290.379645
583.317837	33817.978159
583.671186	33518.168137
584.024481	33501.416383
584.377721	32953.879019
584.730906	32993.023579
585.084037	32851.117619
585.437113	32450.582822
585.790135	32277.598149
586.143103	31797.718111
586.496016	31703.715715
586.848874	31527.134178
587.201679	31351.109689
587.554428	30794.425152
587.907124	30737.485319
588.259765	30372.967047
588.612352	30347.078201
588.964884	29743.515974
589.317362	29744.705687
589.669786	29530.592759
590.022155	29181.732310
590.374470	29276.347206
590.726731	28764.178578
591.078937	28239.197858
591.431090	28133.230284
591.783188	27712.036839
592.135232	27324.919073
592.487222	27305.094736
592.839157	27172.600610
593.191038	26780.164427
593.542866	26436.203979
593.894639	25890.131071
594.246358	25877.855862
594.598022	25675.511508
594.949633	25260.775781
595.301190	25057.597116
595.652692	24776.371308
596.004141	24797.080368
596.355535	24038.474934
596.706876	23833.360467
597.058162	23556.039032
597.409395	23650.250635
597.760573	23514.676364
598.111698	23107.661165
598.462768	22940.191513
598.813785	22785.203759
599.164748	22312.293117
599.515657	22349.645546
599.866511	21894.381463
600.217312	22056.494888
600.568060	21342.075168
600.918753	21570.293244
601.269392	21366.353365
601.619978	21024.479955
601.970510	20950.927000
602.320988	20877.265660
602.671412	20859.934173
603.021783	20573.642005
603.372100	20220.673015
603.722363	20110.533886
604.072572	19986.987808
604.422728	19826.593416
604.772830	19568.821576
605.122878	19449.280695
605.472872	19254.906406
605.822813	19219.300736
606.172701	18978.162183
606.522534	18928.204348
606.872314	18879.882368
607.222041	18615.458725
607.571714	18619.355537
607.921333	18209.746664
608.270899	18177.453032
608.620411	18174.309873
608.969870	17911.025531
609.319276	17753.242457
609.668627	17627.624465
610.017926	17649.971900
610.367171	17558.855564
610.716362	17440.244776
611.065500	17249.580776
611.414585	17170.822829
611.763616	17137.815875
612.112594	16957.198894
612.461518	16890.985859
612.810389	16851.813573
613.159207	16647.034342
613.507971	16524.556989
613.856682	16547.821914
614.205340	16359.224787
614.553945	16458.049046
614.902496	16113.188753
615.250994	16135.309336
615.599439	16010.291241
615.947830	15933.000270
616.296169	15813.194728
616.644454	15713.359718
616.992686	15620.431088
617.340864	15647.315561
617.688990	15416.929789
618.037063	15474.114118
618.385082	15313.765096
618.733048	15273.564415
619.080961	15145.844262
619.428821	15017.627555
619.776628	14913.699127
620.124382	14715.997676
620.472083	14622.600219
620.819731	14530.977247
621.167326	14294.617708
621.514868	14160.591072
621.862357	13892.023600
622.209793	13774.262247
622.557176	13549.729254
622.904506	13343.639323
623.251783	13127.550264
623.599007	12937.786109
623.946179	12747.061615
624.293297	12609.153290
624.640363	12334.052484
624.987376	12209.538504
625.334336	12039.717155
625.681243	11847.989471
626.028097	11726.169988
626.374899	11587.505490
626.721647	11477.804941
627.068343	11347.687719
627.414987	11188.535972
627.761577	11038.365040
628.108115	11016.088181
628.454600	10799.298401
628.801032	10744.750596
629.147412	10634.009049
629.493739	10543.868177
629.840014	10380.534792
630.186236	10353.688127
630.532405	10194.601915
630.878521	10154.953240
631.224585	10039.994768
631.570597	9892.929186
631.916556	9840.357513
632.262462	9753.029605
632.608316	9672.920630
632.954117	9562.753774
633.299866	9490.874482
633.645562	9387.704748
633.991206	9213.878202
634.336797	9047.426863
634.682336	8957.588461
635.027823	8831.126075
