Dividing Wavelength (nm)	Counts (n)	Blue Motor Position (mm): 0.000000	Red Motor Position (mm): 30.500000	
326.493990	2144.055663
326.888308	2144.055663
327.282561	2144.055663
327.676750	2118.169338
328.070874	2120.329472
328.464933	2125.244597
328.858929	2132.110649
329.252859	2145.631023
329.646726	2158.188538
330.040528	2173.304438
330.434265	2195.450226
330.827938	2210.944213
331.221547	2234.181411
331.615091	2251.568351
332.008571	2272.106012
332.401986	2291.640483
332.795338	2311.807619
333.188625	2331.092553
333.581847	2350.385049
333.975006	2369.382637
334.368100	2389.096069
334.761129	2407.508883
335.154095	2423.262489
335.546996	2439.991558
335.939833	2457.822119
336.332606	2467.821248
336.725315	2482.087713
337.117960	2490.647593
337.510540	2498.836947
337.903056	2505.513955
338.295508	2513.746160
338.687896	2522.923580
339.080220	2529.487163
339.472480	2538.457896
339.864676	2536.874973
340.256807	2541.406971
340.648875	2545.397044
341.040879	2546.377548
341.432818	2543.557023
341.824694	2547.400903
342.216506	2548.217570
342.608253	2548.010882
342.999937	2547.965512
343.391557	2545.422250
343.783113	2545.167672
344.174605	2543.821683
344.566033	2542.074924
344.957397	2539.113246
345.348697	2538.757844
345.739934	2539.524100
346.131106	2532.325332
346.522215	2533.094108
346.913260	2532.378264
347.304241	2526.969106
347.695159	2524.254445
348.086012	2526.056657
348.476802	2526.054137
348.867528	2523.558766
349.258191	2523.684794
349.648789	2522.356450
350.039324	2521.375946
350.429796	2518.820081
350.820203	2517.118692
351.210548	2515.639113
351.600828	2517.602642
351.991045	2514.232631
352.381198	2518.948630
352.771288	2516.569206
353.161314	2515.495440
353.551276	2516.851510
353.941175	2516.546521
354.331010	2516.438136
354.720782	2515.800430
355.110490	2516.279339
355.500135	2517.151459
355.889717	2517.907632
356.279235	2518.411748
356.668689	2519.235976
357.058080	2519.152797
357.447408	2516.412930
357.836672	2515.623989
358.225873	2515.548372
358.615010	2516.029802
359.004084	2518.227745
359.393095	2519.160359
359.782043	2520.400483
360.170927	2520.745802
360.559748	2524.360309
360.948505	2524.173786
361.337199	2523.354599
361.725830	2522.973992
362.114398	2524.609846
362.502903	2522.066584
362.891344	2523.944414
363.279722	2525.267717
363.668037	2527.574045
364.056289	2527.763088
364.444478	2527.211082
364.832603	2529.449354
365.220665	2529.406504
365.608665	2528.713345
365.996601	2528.851977
366.384474	2527.178314
366.772284	2530.896165
367.160031	2526.449867
367.547715	2531.039838
367.935336	2529.209899
368.322893	2529.459436
368.710388	2530.510517
369.097820	2535.355066
369.485189	2531.765764
369.872495	2530.697039
370.259738	2533.144520
370.646918	2532.199303
371.034035	2532.995806
371.421090	2534.215765
371.808081	2531.952287
372.195010	2534.583769
372.581875	2533.731814
372.968678	2536.822041
373.355418	2534.112421
373.742096	2538.346990
374.128710	2539.990407
374.515262	2541.444779
374.901751	2538.478060
375.288177	2541.185160
375.674540	2543.557023
376.060841	2545.792775
376.447079	2542.881508
376.833254	2544.708927
377.219367	2544.774462
377.605417	2551.585060
377.991404	2551.501881
378.377329	2551.887530
378.763191	2557.062274
379.148991	2564.011505
379.534727	2565.977555
379.920402	2572.372258
380.306013	2573.186405
380.691563	2576.150603
381.077049	2580.415419
381.462474	2587.341965
381.847835	2591.962182
382.233134	2598.167842
382.618371	2600.844695
383.003545	2607.418360
383.388657	2613.606376
383.773706	2622.110803
384.158693	2628.734879
384.543618	2634.875004
384.928480	2642.318268
385.313280	2646.946047
385.698017	2655.044661
386.082692	2665.744510
386.467305	2671.209121
386.851856	2679.711027
387.236344	2691.560259
387.620770	2697.342462
388.005133	2704.881508
388.389435	2716.657643
388.773674	2719.924311
389.157851	2728.983264
389.541965	2740.872826
389.926018	2742.513721
390.310008	2758.027872
390.693936	2767.323760
391.077802	2774.774585
391.461606	2783.704989
391.845348	2794.747637
392.229027	2803.806590
392.612645	2820.286122
392.996200	2827.245435
393.379694	2838.938391
393.763125	2857.641072
394.146494	2862.805734
394.529801	2875.721170
394.913047	2892.094838
395.296230	2892.866135
395.679351	2901.022722
396.062410	2918.596184
396.445408	2916.488982
396.828343	2926.074736
397.211217	2930.808379
397.594028	2928.129006
397.976778	2939.509411
398.359466	2954.106072
398.742092	2950.705813
399.124656	2967.969245
399.507158	2979.647078
399.889598	2986.689569
400.271977	3002.410408
400.654294	3007.688496
401.036549	3019.265506
401.418742	3025.395549
401.800874	3048.199208
402.182944	3054.838408
402.564952	3083.699013
402.946898	3075.106367
403.328783	3085.869230
403.710606	3100.586879
404.092367	3121.598408
404.474067	3149.465907
404.855705	3140.512817
405.237282	3138.483753
405.618797	3172.405677
406.000250	3193.742361
406.381642	3224.861403
406.762972	3225.317628
407.144240	3216.057028
407.525447	3239.498394
407.906593	3240.128538
408.287677	3261.440016
408.668700	3282.012965
409.049661	3278.274949
409.430560	3291.117288
409.811399	3298.580717
410.192176	3317.548058
410.572891	3325.934018
410.953545	3366.752240
411.334138	3331.433916
411.714669	3385.102040
412.095139	3333.347034
412.475547	3382.631875
412.855894	3371.455637
413.236180	3402.037797
413.616405	3381.926113
413.996568	3409.198756
414.376670	3408.354362
414.756711	3405.075092
415.136691	3432.995522
415.516609	3455.269861
415.896466	3459.575006
416.276262	3486.749346
416.655997	3518.450642
417.035670	3523.658154
417.415283	3590.647527
417.794834	3612.556381
418.174324	3594.415789
418.553753	3592.953854
418.933121	3638.717449
419.312428	3630.845687
419.691674	3623.039461
420.070859	3663.401459
420.449983	3643.602327
420.829045	3690.825336
421.208047	3675.722039
421.586988	3721.283987
421.965867	3753.975870
422.344686	3762.369391
422.723444	3797.425575
423.102141	3705.631205
423.480777	3806.315650
423.859352	3771.778705
424.237866	3871.323849
424.616319	3855.061087
424.994712	3916.422012
425.373044	3904.585382
425.751314	3971.163901
426.129524	3904.708891
426.507673	4005.186648
426.885762	3979.363338
427.263789	4002.688757
427.641756	4008.022297
428.019662	4035.297460
428.397508	4040.315929
428.775292	4077.317998
429.153016	4085.162034
429.530679	4096.885237
429.908282	4104.928398
430.285824	4081.529882
430.663305	4159.461080
431.040726	4111.166826
431.418086	4106.302112
431.795385	4180.601158
432.172624	4214.533165
432.549802	4180.235675
432.926920	4198.532543
433.303977	4190.204556
433.680974	4233.061926
434.057910	4255.197632
434.434786	4261.158797
434.811601	4258.207201
435.188355	4364.008417
435.565050	4330.532635
435.941683	4329.778983
436.318257	4416.769134
436.694770	4421.061676
437.071222	4476.761385
437.447614	4411.773350
437.823946	4418.190739
438.200218	4433.997277
438.576429	4414.737549
438.952580	4442.108493
439.328670	4447.550419
439.704700	4492.772090
440.080670	4454.325730
440.456580	4515.595914
440.832429	4550.730235
441.208218	4453.249443
441.583947	4504.049151
441.959616	4519.328888
442.335224	4544.149009
442.710773	4569.649686
443.086261	4617.570894
443.461689	4575.782249
443.837057	4586.066203
444.212365	4662.086803
444.587612	4664.297349
444.962800	4629.901557
445.337927	4675.067774
445.712995	4559.143921
446.088002	4751.290021
446.462949	4770.600160
446.837837	4789.559940
447.212664	4777.609885
447.587431	5001.129605
447.962139	5302.207478
448.336786	5638.427233
448.711374	5622.585407
449.085901	5269.946613
449.460369	5208.356316
449.834776	5139.267303
450.209124	5374.394280
450.583412	5385.139499
450.957640	5506.981667
451.331808	5373.209609
451.705917	5225.881888
452.079965	5214.395619
452.453954	5250.429786
452.827883	5217.949632
453.201752	5224.704778
453.575562	5256.234675
453.949311	5387.839037
454.323001	5391.289707
454.696632	5383.183532
455.070202	5539.804620
455.443713	5568.206481
455.817164	5664.106871
456.190556	5730.332509
456.563888	5703.329568
456.937160	5785.331498
457.310373	5628.738136
457.683526	5681.632442
458.056619	5680.445251
458.429653	5658.105377
458.802628	5702.336461
459.175542	5728.850410
459.548398	5867.580443
459.921194	6056.837961
460.293930	6114.236539
460.666607	6362.024374
461.039224	6580.407159
461.411782	6708.399534
461.784280	6625.530527
462.156719	6626.921885
462.529099	6587.684064
462.901419	6447.492096
463.273680	6315.804555
463.645882	6304.792154
464.018024	6305.384490
464.390106	6373.341764
464.762130	6629.782740
465.134094	7011.670308
465.505999	7641.507029
465.877845	8348.428033
466.249631	8698.420221
466.621358	8633.280951
466.993026	8437.505221
467.364634	8217.781490
467.736184	7944.288811
468.107674	7780.196733
468.479105	7691.863115
468.850477	7628.866336
469.221790	7462.959442
469.593043	7238.302941
469.964238	7142.291646
470.335373	7119.399766
470.706449	7270.473065
471.077467	7450.422092
471.448425	8103.259077
471.819324	8681.741563
472.190164	8723.447029
472.560945	8244.764266
472.931667	7777.666074
473.302330	7586.200530
473.672934	7465.658980
474.043479	7537.563478
474.413965	7442.709127
474.784393	7389.361116
475.154761	7541.203191
475.525070	7552.313894
475.895321	7505.811770
476.265513	7597.989268
476.635645	7758.981037
477.005719	7744.656598
477.375734	7831.334197
477.745691	7937.868902
478.115588	8142.519583
478.485427	8377.601190
478.855207	8835.834513
479.224928	9256.783462
479.594591	9639.238160
479.964194	9650.963884
480.333739	9730.296522
480.703226	9728.922808
481.072653	9820.500408
481.442022	9932.562738
481.811333	10077.831148
482.180584	9917.716540
482.549777	9853.071303
482.918912	9782.701837
483.287988	9772.352348
483.657005	9671.912399
484.025964	9588.677908
484.394864	9648.987752
484.763706	9601.643755
485.132489	9502.524588
485.501213	9487.275098
485.869879	9538.399960
486.238487	9477.207914
486.607036	9546.980004
486.975527	9484.905756
487.343959	9530.767653
487.712333	9564.492972
488.080648	9588.456097
488.448905	9684.870685
488.817104	9681.740128
489.185244	9834.250156
489.553326	10022.181850
489.921350	10457.934148
490.289315	11043.683457
490.657222	11314.025414
491.025070	11464.708023
491.392861	11371.025741
491.760593	11213.653521
492.128267	10956.559716
492.495883	10709.691891
492.863440	10473.556683
493.230939	10236.108255
493.598380	10045.076251
493.965763	10004.999078
494.333088	9866.420279
494.700354	9778.757134
495.067563	9727.957427
495.434713	9714.951250
495.801805	9736.822296
496.168839	9674.246453
496.535815	9616.878122
496.902733	9638.025763
497.269593	9576.122914
497.636395	9560.318897
498.003139	9633.279516
498.369825	9537.106904
498.736453	9597.900699
499.103023	9524.967805
499.469535	9501.294547
499.835989	9515.775261
500.202385	9463.611922
500.568723	9441.874467
500.935003	9462.906160
501.301226	9407.997913
501.667390	9519.064614
502.033497	9572.266431
502.399546	9473.981575
502.765537	9365.284216
503.131470	9416.189788
503.497345	9457.610428
503.863163	9227.164163
504.228923	9301.566552
504.594625	9357.659471
504.960269	9241.337367
505.325856	9325.844749
505.691385	9177.302110
506.056856	9190.353657
506.422270	9227.259944
506.787625	9131.384760
507.152924	9128.503741
507.518164	9131.062126
507.883347	8982.932862
508.248472	8992.964758
508.613540	9022.430302
508.978550	9025.518009
509.343503	8962.375036
509.708398	8950.377090
510.073236	8996.632197
510.438016	8954.137791
510.802738	8838.307199
511.167403	8871.036890
511.532010	8856.362091
511.896561	8864.251497
512.261053	8953.701731
512.625488	8828.849994
512.989866	8763.352803
513.354186	8684.436060
513.718449	8625.530177
514.082655	8667.344028
514.446803	8565.162360
514.810894	8578.523938
515.174927	8512.522632
515.538904	8435.632433
515.902822	8472.475705
516.266684	8330.589910
516.630488	8321.064650
516.994235	8244.587825
517.357925	8241.081703
517.721558	8217.559679
518.085133	8185.276130
518.448651	8127.938046
518.812112	8038.281125
519.175516	7965.663303
519.538863	7948.198226
519.902152	7887.230511
520.265385	7873.223665
520.628560	7812.515570
520.991678	7709.890281
521.354739	7667.920154
521.717743	7621.770912
522.080690	7536.766975
522.443580	7525.268103
522.806413	7460.612785
523.169189	7385.655868
523.531908	7337.144845
523.894569	7248.420537
524.257174	7176.654671
524.619722	7155.754047
524.982213	7071.022333
525.344647	6996.836713
525.707025	6922.487256
526.069345	6891.673203
526.431608	6816.537325
526.793815	6770.496467
527.155964	6657.861967
527.518057	6600.208811
527.880093	6515.230081
528.242072	6477.771787
528.603995	6380.482559
528.965860	6315.766746
529.327669	6256.749958
529.689421	6171.993039
530.051117	6107.342761
530.412755	6047.405963
530.774337	5985.213248
531.135862	5906.717441
531.497331	5857.646849
531.858743	5781.164984
532.220098	5735.794599
532.581396	5650.205889
532.942638	5563.513167
533.303824	5516.524572
533.664953	5454.223472
534.026025	5379.269076
534.387040	5342.229198
534.747999	5273.440133
535.108902	5227.043874
535.469748	5140.144464
535.830537	5087.615641
536.191270	5039.465060
536.551947	4966.113751
536.912567	4923.493315
537.273131	4878.569073
537.633638	4797.623266
537.994089	4755.575001
538.354483	4688.106719
538.714821	4661.716278
539.075103	4623.980721
539.435328	4563.857400
539.795497	4511.139534
540.155609	4460.622131
540.515665	4426.922018
540.875665	4356.383672
541.235609	4327.482737
541.595496	4275.813431
541.955328	4255.737036
542.315102	4191.858055
542.674821	4134.625835
543.034483	4097.906071
543.394090	4057.821336
543.753640	4010.593286
544.113134	4004.548942
544.472571	3936.395063
544.831953	3929.818878
545.191278	3868.745299
545.550548	3823.463135
545.909761	3801.082932
546.268918	3774.163171
546.628019	3742.040938
546.987064	3700.327911
547.346053	3654.695386
547.704986	3638.384733
548.063863	3595.174483
548.422684	3568.116089
548.781449	3538.035524
549.140158	3511.226668
549.498811	3487.404696
549.857408	3446.359621
550.215949	3431.692384
550.574434	3402.773805
550.932864	3370.739793
551.291237	3359.997094
551.649555	3333.382322
552.007817	3312.022953
552.366022	3282.849796
552.724173	3261.026641
553.082267	3246.361925
553.440305	3231.722414
553.798288	3199.413659
554.156215	3180.600073
554.514086	3166.356292
554.871902	3146.620175
555.229661	3128.663585
555.587365	3109.489557
555.945014	3089.662698
556.302606	3074.602251
556.660143	3060.948286
557.017625	3047.763148
557.375050	3032.493493
557.732421	3020.707276
558.089735	3002.980058
558.446994	2987.634786
558.804197	2978.563229
559.161345	2964.626960
559.518437	2946.604835
559.875474	2938.440686
560.232455	2926.220929
560.589381	2912.813980
560.946251	2904.990110
561.303065	2899.127248
561.659825	2884.180227
562.016528	2873.619009
562.373177	2860.892616
562.729770	2855.357429
563.086307	2844.569360
563.442789	2837.824296
563.799216	2830.116372
564.155587	2823.010866
564.511904	2812.207673
564.868164	2804.618216
565.224370	2801.540592
565.580520	2791.516257
565.936615	2790.331586
566.292654	2782.260699
566.648638	2778.754576
567.004567	2768.969697
567.360441	2762.915271
567.716260	2761.090373
568.072023	2755.315731
568.427732	2748.013620
568.783385	2741.664287
569.138982	2740.429204
569.494525	2736.600448
569.850013	2730.097359
570.205445	2730.180538
570.560823	2725.139384
570.916145	2724.095866
571.271412	2719.425237
571.626625	2717.640668
571.981782	2713.353167
572.336884	2708.710264
572.691931	2709.050542
573.046923	2703.192721
573.401860	2699.096784
573.756743	2698.131403
574.111570	2695.663758
574.466342	2694.660568
574.821059	2691.681246
575.175722	2689.357274
575.530330	2685.150432
575.884882	2683.338137
576.239380	2684.414423
576.593823	2679.229596
576.948211	2678.027281
577.302544	2675.098371
577.656823	2673.981755
578.011047	2674.705161
578.365216	2673.512928
578.719330	2669.737104
579.073389	2668.456651
579.427394	2665.875580
579.781344	2665.741989
580.135239	2663.773419
580.489080	2663.962462
580.842866	2661.227636
581.196597	2661.663696
581.550273	2663.644869
581.903895	2662.140085
582.257463	2657.625732
582.610975	2656.307470
582.964434	2655.730258
583.317837	2655.032058
583.671186	2654.601039
584.024481	2653.484424
584.377721	2653.106337
584.730906	2650.555513
585.084037	2651.697335
585.437113	2651.021820
585.790135	2649.106182
586.143103	2650.016110
586.496016	2651.475524
586.848874	2644.324647
587.201679	2648.652478
587.554428	2642.555202
587.907124	2643.354225
588.259765	2641.960346
588.612352	2645.438742
588.964884	2642.696354
589.317362	2642.275418
589.669786	2645.920172
590.022155	2645.068217
590.374470	2642.464461
590.726731	2642.323309
591.078937	2640.775675
591.431090	2637.629995
591.783188	2639.142341
592.135232	2636.936836
592.487222	2637.347690
592.839157	2639.928761
593.191038	2637.342649
593.542866	2638.108904
593.894639	2637.509007
594.246358	2637.304840
594.598022	2636.974645
594.949633	2635.719397
595.301190	2631.530199
595.652692	2633.158491
596.004141	2636.026908
596.355535	2634.572535
596.706876	2631.147071
597.058162	2631.550363
597.409395	2633.702936
597.760573	2632.321660
598.111698	2631.656227
598.462768	2631.736886
598.813785	2630.441309
599.164748	2629.697739
599.515657	2630.479118
599.866511	2629.085239
600.217312	2629.652369
600.568060	2627.277985
600.918753	2631.353758
601.269392	2632.576238
601.619978	2627.030969
601.970510	2627.794704
602.320988	2628.331587
602.671412	2628.034158
603.021783	2625.662296
603.372100	2627.802265
603.722363	2626.562142
604.072572	2629.513737
604.422728	2627.015845
604.772830	2624.258334
605.122878	2625.037192
605.472872	2623.164404
605.822813	2622.085597
606.172701	2624.439816
606.522534	2624.787655
606.872314	2628.273613
607.222041	2625.929477
607.571714	2627.393932
607.921333	2625.367388
608.270899	2623.371091
608.620411	2623.880248
608.969870	2625.478293
609.319276	2626.990640
609.668627	2625.352265
610.017926	2624.308746
610.367171	2624.964096
610.716362	2623.708848
611.065500	2625.710187
611.414585	2630.736217
611.763616	2626.748664
612.112594	2624.827985
612.461518	2627.696401
612.810389	2623.905453
613.159207	2625.669857
613.507971	2623.880248
613.856682	2626.070629
614.205340	2622.524177
614.553945	2628.273613
614.902496	2625.742954
615.250994	2623.824795
615.599439	2624.956534
615.947830	2625.385032
616.296169	2623.572737
616.644454	2626.582306
616.992686	2624.530557
617.340864	2626.244549
617.688990	2624.172635
618.037063	2628.644138
618.385082	2627.187245
618.733048	2626.899899
619.080961	2627.146915
619.428821	2624.873355
619.776628	2626.037862
620.124382	2624.848149
620.472083	2625.130454
620.819731	2624.429733
621.167326	2623.184568
621.514868	2625.773201
621.862357	2624.838067
622.209793	2624.356637
622.557176	2625.861421
622.904506	2620.119547
623.251783	2619.433950
623.599007	2620.054012
623.946179	2618.476131
624.293297	2618.408075
624.640363	2619.547376
624.987376	2620.422016
625.334336	2621.702469
625.681243	2620.870679
626.028097	2620.633745
626.374899	2620.527880
626.721647	2619.791872
627.068343	2619.933024
627.414987	2617.447735
627.761577	2617.039402
628.108115	2619.580143
628.454600	2617.735081
628.801032	2617.709875
629.147412	2619.451594
629.493739	2615.895060
629.840014	2618.720627
630.186236	2615.121243
630.532405	2617.800616
630.878521	2617.677108
631.224585	2616.268105
631.570597	2613.193002
631.916556	2615.665688
632.262462	2616.633589
632.608316	2617.215842
632.954117	2615.438836
633.299866	2615.539659
633.645562	2616.288270
633.991206	2614.997735
634.336797	2617.704834
634.682336	2612.436828
635.027823	2611.665532
635.373257	2615.461521
635.718639	2614.312138
636.063968	2614.544031
636.409245	2612.855244
636.754470	2612.918259
637.099642	2612.431787
637.444762	2614.213835
637.789829	2611.574791
638.134845	2610.939606
638.479808	2610.808536
638.824719	2611.295007
639.169577	2611.126128
639.514383	2609.462548
639.859137	2609.223093
640.203839	2609.240737
640.548489	2609.810387
640.893086	2604.980962
641.237632	2603.524068
641.582125	2604.948194
641.926566	2606.798298
642.270955	2608.998762
642.615292	2609.185284
642.959576	2610.899277
643.303809	2611.826849
643.647990	2609.018926
643.992118	2608.686210
644.336195	2608.229986
