Dividing Wavelength (nm)	Counts (n)	Blue Motor Position (mm): 0.000000	Red Motor Position (mm): 46.700000	
326.493990	2129.590072
326.888308	2129.590072
327.282561	2129.590072
327.676750	2093.933991
328.070874	2099.078488
328.464933	2096.875504
328.858929	2105.105188
329.252859	2115.106837
329.646726	2125.569752
330.040528	2139.876546
330.434265	2156.847591
330.827938	2173.685045
331.221547	2191.578620
331.615091	2210.122505
332.008571	2230.254353
332.401986	2249.556931
332.795338	2269.366145
333.188625	2290.289454
333.581847	2308.576239
333.975006	2322.610812
334.368100	2345.532938
334.761129	2363.880218
335.154095	2376.465458
335.546996	2399.369941
335.939833	2423.575041
336.332606	2440.412495
336.725315	2454.172324
337.117960	2463.163222
337.510540	2467.816207
337.903056	2483.552169
338.295508	2486.569299
338.687896	2497.284272
339.080220	2506.002947
339.472480	2510.870181
339.864676	2516.584329
340.256807	2519.881244
340.648875	2520.992818
341.040879	2524.438447
341.432818	2525.542460
341.824694	2529.454395
342.216506	2528.050434
342.608253	2528.854498
342.999937	2529.124199
343.391557	2530.636546
343.783113	2524.569517
344.174605	2525.645803
344.566033	2524.183869
344.957397	2523.848632
345.348697	2523.863755
345.739934	2520.697911
346.131106	2518.610873
346.522215	2519.634227
346.913260	2514.582991
347.304241	2512.780779
347.695159	2510.209790
348.086012	2510.950840
348.476802	2507.769872
348.867528	2507.293483
349.258191	2506.068482
349.648789	2504.969511
350.039324	2505.060252
350.429796	2503.232833
350.820203	2500.969355
351.210548	2499.615805
351.600828	2500.918944
351.991045	2499.414159
352.381198	2495.053561
352.771288	2498.572287
353.161314	2498.773933
353.551276	2500.427431
353.941175	2498.211844
354.331010	2498.060609
354.720782	2496.878459
355.110490	2498.879797
355.500135	2498.441217
355.889717	2501.453306
356.279235	2498.055568
356.668689	2500.853409
357.058080	2499.167143
357.447408	2496.366782
357.836672	2496.825527
358.225873	2500.697133
358.615010	2497.251504
359.004084	2501.791063
359.393095	2500.545898
359.782043	2503.779798
360.170927	2502.015395
360.559748	2503.192504
360.948505	2502.872391
361.337199	2502.960611
361.725830	2505.851713
362.114398	2505.060252
362.502903	2507.089316
362.891344	2509.055366
363.279722	2510.081241
363.668037	2508.163082
364.056289	2508.652074
364.444478	2509.514111
364.832603	2511.656601
365.220665	2515.109792
365.608665	2511.439832
365.996601	2513.231962
366.384474	2513.831859
366.772284	2515.417302
367.160031	2516.541479
367.547715	2516.634741
367.935336	2518.736902
368.322893	2522.018693
368.710388	2525.580268
369.097820	2533.305837
369.485189	2535.302133
369.872495	2545.034081
370.259738	2550.609597
370.646918	2556.767367
371.034035	2561.077553
371.421090	2574.534913
371.808081	2583.440112
372.195010	2593.078798
372.581875	2607.461210
372.968678	2620.111985
373.355418	2629.259159
373.742096	2648.481078
374.128710	2663.024807
374.515262	2677.636592
374.901751	2695.250383
375.288177	2707.059286
375.674540	2729.515106
376.060841	2748.704258
376.447079	2766.955756
376.833254	2787.745474
377.219367	2801.729635
377.605417	2840.433093
377.991404	2848.856862
378.377329	2869.581045
378.763191	2886.103427
379.148991	2925.588264
379.534727	2947.640792
379.920402	2978.908548
380.306013	2989.449601
380.691563	3040.319885
381.077049	3061.752350
381.462474	3077.329516
381.847835	3116.582460
382.233134	3140.129690
382.618371	3139.804535
383.003545	3208.001264
383.388657	3215.658777
383.773706	3246.644229
384.158693	3262.775922
384.543618	3290.580406
384.928480	3327.879903
385.313280	3372.783981
385.698017	3369.555122
386.082692	3423.384563
386.467305	3428.042589
386.851856	3460.810089
387.236344	3484.745487
387.620770	3515.655322
388.005133	3541.463509
388.389435	3571.846543
388.773674	3579.320054
389.157851	3623.498206
389.541965	3634.795431
389.926018	3601.942232
390.310008	3672.183149
390.693936	3693.424051
391.077802	3733.413003
391.461606	3722.556879
391.845348	3783.882515
392.229027	3783.242289
392.612645	3798.481697
392.996200	3873.189076
393.379694	3912.648708
393.763125	3976.280672
394.146494	3948.771096
394.529801	4009.471629
394.913047	4057.355029
395.296230	4024.847148
395.679351	4080.037701
396.062410	4103.713480
396.445408	4086.288732
396.828343	4118.582363
397.211217	4140.828975
397.594028	4061.002304
397.976778	4129.330103
398.359466	4151.296931
398.742092	4183.777085
399.124656	4104.986371
399.507158	4183.439328
399.889598	4208.912278
400.271977	4271.904016
400.654294	4240.238008
401.036549	4252.556068
401.418742	4224.600349
401.800874	4322.693641
402.182944	4345.961087
402.564952	4409.502310
402.946898	4393.549579
403.328783	4389.955236
403.710606	4304.056495
404.092367	4497.631762
404.474067	4462.192450
404.855705	4469.658399
405.237282	4399.359509
405.618797	4509.496118
406.000250	4544.186818
406.381642	4619.879743
406.762972	4584.649639
407.144240	4595.825877
407.525447	4595.041978
407.906593	4654.436852
408.287677	4697.059808
408.668700	4623.186740
409.049661	4672.559800
409.430560	4720.881781
409.811399	4646.358403
410.192176	4806.067198
410.572891	4746.984875
410.953545	4850.555381
411.334138	4728.130960
411.714669	4793.340805
412.095139	4695.502092
412.475547	4832.513091
412.855894	4810.654648
413.236180	4827.051001
413.616405	4775.968989
413.996568	4867.347464
414.376670	4807.768588
414.756711	4759.660857
415.136691	4793.063542
415.516609	4868.945510
415.896466	4907.517899
416.276262	4944.603147
416.655997	4920.340074
417.035670	5103.891006
417.415283	5192.695972
417.794834	5138.818640
418.174324	5091.013378
418.553753	4998.740098
418.933121	5184.156257
419.312428	5246.011215
419.691674	5189.066341
420.070859	5316.519313
420.449983	5229.322475
420.829045	5347.308160
421.208047	5247.657152
421.586988	5322.278832
421.965867	5332.378783
422.344686	5463.778979
422.723444	5323.423173
423.102141	5137.717148
423.480777	5440.526657
423.859352	5206.375143
424.237866	5460.744204
424.616319	5457.288493
424.994712	5564.894443
425.373044	5442.979178
425.751314	5587.904789
426.129524	5388.690992
426.507673	5582.576290
426.885762	5664.772303
427.263789	5599.202015
427.641756	5480.775229
428.019662	5601.233600
428.397508	5608.613849
428.775292	5555.621240
429.153016	5654.727804
429.530679	5579.801135
429.908282	5662.297097
430.285824	5538.839239
430.663305	5814.091280
431.040726	5547.300816
431.418086	5549.551691
431.795385	5652.628164
432.172624	5668.543086
432.549802	5658.886756
432.926920	5672.961658
433.303977	5676.941649
433.680974	5720.403957
434.057910	5737.579168
434.434786	5742.544704
434.811601	5707.556576
435.188355	5945.844357
435.565050	5817.630170
435.941683	5801.526204
436.318257	6011.384398
436.694770	5999.487275
437.071222	6034.074631
437.447614	5966.429908
437.823946	5877.297267
438.200218	6031.780906
438.576429	5897.088837
438.952580	5998.138766
439.328670	6040.338265
439.704700	5947.497855
440.080670	5931.214928
440.456580	6203.132246
440.832429	6082.714204
441.208218	5931.792140
441.583947	6086.502631
441.959616	6092.723415
442.335224	6015.346745
442.710773	6153.653321
443.086261	6186.501479
443.461689	5976.756712
443.837057	6128.780268
444.212365	6282.222909
444.587612	6171.592267
444.962800	6332.483212
445.337927	6310.491179
445.712995	5921.588845
446.088002	6499.153841
446.462949	6334.164437
446.837837	6258.743735
447.212664	6431.957781
447.587431	6573.450366
447.962139	7114.255269
448.336786	8039.922020
448.711374	7782.089686
449.085901	6856.480908
449.460369	6777.702797
449.834776	6707.590429
450.209124	7105.846624
450.583412	7254.187617
450.957640	7395.521406
451.331808	7162.186559
451.705917	6719.727007
452.079965	6636.931096
452.453954	6851.855649
452.827883	6728.196145
453.201752	6823.332801
453.575562	6617.736903
453.949311	6829.102401
454.323001	6716.651903
454.696632	6788.175794
455.070202	6928.685354
455.443713	7083.015238
455.817164	7181.655496
456.190556	7258.487721
456.563888	7336.797005
456.937160	7379.031792
457.310373	7038.806840
457.683526	7060.388019
458.056619	6956.920857
458.429653	6938.155162
458.802628	6879.027468
459.175542	6983.908674
459.548398	7346.624735
459.921194	7495.452199
460.293930	7501.194073
460.666607	8029.809466
461.039224	8341.803957
461.411782	8468.543605
461.784280	8488.025144
462.156719	8377.664204
462.529099	8258.443437
462.901419	7846.503029
463.273680	7736.497491
463.645882	7753.463494
464.018024	7614.720858
464.390106	7782.003987
464.762130	8169.925816
465.134094	8637.074420
465.505999	9658.344133
465.877845	10877.506862
466.249631	11529.159175
466.621358	11144.292285
466.993026	10524.240444
467.364634	10266.634962
467.736184	9899.046627
468.107674	9567.789887
468.479105	9601.177449
468.850477	9369.793528
469.221790	9142.931523
469.593043	8808.758476
469.964238	8668.112804
470.335373	8684.650309
470.706449	8738.709122
471.077467	8716.442346
471.448425	10027.391883
471.819324	11101.898702
472.190164	11124.233534
472.560945	9882.506601
472.931667	9092.736754
473.302330	8951.599570
473.672934	8598.683513
474.043479	8958.148029
474.413965	8898.972444
474.784393	8784.661760
475.154761	8937.045759
475.525070	9026.279223
475.895321	8846.292387
476.265513	9028.144450
476.635645	9196.032517
477.005719	9198.994195
477.375734	9305.551584
477.745691	9546.170898
478.115588	9678.549078
478.485427	9925.462273
478.855207	10461.732657
479.224928	11275.669795
479.594591	11899.820094
479.964194	11716.576673
480.333739	11654.184832
480.703226	11577.632390
481.072653	11669.837615
481.442022	11900.190619
481.811333	12088.956625
482.180584	11897.208777
482.549777	11609.215219
482.918912	11423.733525
483.287988	11457.776437
483.657005	11463.445214
484.025964	11151.664973
484.394864	11275.967223
484.763706	11247.976217
485.132489	11007.830771
485.501213	10969.502878
485.869879	11047.406349
486.238487	10890.313913
486.607036	10999.207877
486.975527	10776.819896
487.343959	10966.805861
487.712333	11010.333704
488.080648	10943.830802
488.448905	10985.082564
488.817104	10920.603686
489.185244	11191.313648
489.553326	11342.311329
489.921350	11891.905483
490.289315	12948.213736
490.657222	13290.840798
491.025070	13194.259853
491.392861	13066.398547
491.760593	12695.793081
492.128267	12341.568844
492.495883	12011.905109
492.863440	11684.830006
493.230939	11339.974754
493.598380	11271.901533
493.965763	11142.510237
494.333088	11050.221834
494.700354	10964.975922
495.067563	11025.721826
495.434713	10859.903153
495.801805	10990.542134
496.168839	10910.123127
496.535815	10842.299443
496.902733	10840.323311
497.269593	10778.992633
497.636395	10877.799249
498.003139	10856.777637
498.369825	10726.932637
498.736453	10888.431042
499.103023	10810.918261
499.469535	10842.896820
499.835989	10839.730975
500.202385	10797.652464
500.568723	10646.190997
500.935003	10867.679132
501.301226	10674.454226
501.667390	10929.672722
502.033497	11031.962774
502.399546	10888.768799
502.765537	10798.217073
503.131470	10871.333969
503.497345	11047.799559
503.863163	10657.641978
504.228923	10966.470624
504.594625	11027.090499
504.960269	10777.344176
505.325856	11001.194092
505.691385	10793.306990
506.056856	10951.997472
506.422270	10977.566204
506.787625	10866.842301
507.152924	10983.615588
507.518164	10962.485592
507.883347	10880.395443
508.248472	10801.007352
508.613540	11038.055009
508.978550	10920.001268
509.343503	10896.038143
509.708398	11012.216575
510.073236	11121.554161
510.438016	11129.007507
510.802738	11080.554456
511.167403	11130.376180
511.532010	11031.756087
511.896561	11250.607699
512.261053	11329.393372
512.625488	11193.443535
512.989866	11183.840137
513.354186	11170.239104
513.718449	11071.639176
514.082655	11260.120356
514.446803	11163.156283
514.810894	11282.198090
515.174927	11148.879735
515.538904	11173.825885
515.902822	11328.806077
516.266684	11216.514376
516.630488	11159.201497
516.994235	11214.190404
517.357925	11270.915987
517.721558	11362.359997
518.085133	11374.292409
518.448651	11389.854451
518.812112	11270.966399
519.175516	11289.946343
519.538863	11407.014538
519.902152	11323.868267
520.265385	11485.061682
520.628560	11395.021633
520.991678	11370.113292
521.354739	11430.912128
521.717743	11368.739578
522.080690	11344.761329
522.443580	11478.828295
522.806413	11442.390835
523.169189	11460.027312
523.531908	11527.619103
523.894569	11338.903509
524.257174	11352.005468
524.619722	11473.267903
524.982213	11416.731362
525.344647	11465.481841
525.707025	11417.608523
526.069345	11514.227278
526.431608	11425.117322
526.793815	11536.431040
527.155964	11330.293218
527.518057	11380.873635
527.880093	11324.921868
528.242072	11398.721840
528.603995	11306.904785
528.965860	11224.771786
529.327669	11281.479725
529.689421	11225.709440
530.051117	11200.526356
530.412755	11301.989660
530.774337	11193.105778
531.135862	11174.377891
531.497331	11195.018896
531.858743	11049.264014
532.220098	11216.718542
532.581396	11089.875550
532.942638	11062.537373
533.303824	11027.811384
533.664953	11048.369210
534.026025	10955.712802
534.387040	11050.526823
534.747999	11056.765251
535.108902	11116.079467
535.469748	10871.512930
535.830537	10973.591254
536.191270	10953.146855
536.551947	10983.151802
536.912567	10974.649896
537.273131	10903.189020
537.633638	10880.687830
537.994089	10868.175686
538.354483	10818.318674
538.714821	10964.285284
539.075103	10977.672068
539.435328	10932.067270
539.795497	10765.769687
540.155609	10922.904973
540.515665	11013.408808
540.875665	10745.879814
541.235609	10813.900103
541.595496	10809.647890
541.955328	10964.199584
542.315102	10849.914106
542.674821	10798.552310
543.034483	10802.751591
543.394090	10805.428444
543.753640	10730.302649
544.113134	10954.288676
544.472571	10805.781325
544.831953	10957.477206
545.191278	10753.310475
545.550548	10786.740887
545.909761	10926.857237
546.268918	10902.062322
546.628019	10981.699950
546.987064	10846.428148
547.346053	10761.532597
547.704986	10870.950841
548.063863	10853.745383
548.422684	10845.409835
548.781449	10760.642833
549.140158	10859.709068
549.498811	10738.688608
549.857408	10593.619324
550.215949	10817.408746
550.574434	10683.258601
550.932864	10776.262848
551.291237	10834.969606
551.649555	10781.200659
552.007817	10787.625609
552.366022	10751.243602
552.724173	10751.586400
553.082267	10731.051260
553.440305	10867.235511
553.798288	10673.025059
554.156215	10829.782258
554.514086	10799.983998
554.871902	10648.588066
555.229661	10685.791781
555.587365	10666.113637
555.945014	10557.010465
556.302606	10688.372852
556.660143	10583.375699
557.017625	10733.327341
557.375050	10634.450150
557.732421	10768.141550
558.089735	10683.364465
558.446994	10676.269041
558.804197	10713.603827
559.161345	10718.387882
559.518437	10568.665613
559.875474	10658.657770
560.232455	10687.087358
560.589381	10635.108020
560.946251	10632.244645
561.303065	10735.772301
561.659825	10674.986068
562.016528	10603.210119
562.373177	10485.400874
562.729770	10602.310273
563.086307	10505.875521
563.442789	10605.108114
563.799216	10482.776954
564.155587	10531.187154
564.511904	10483.878446
564.868164	10475.626077
565.224370	10494.817750
565.580520	10416.342108
565.936615	10417.347818
566.292654	10291.034147
566.648638	10422.860320
567.004567	10373.693946
567.360441	10361.753973
567.716260	10270.526733
568.072023	10364.829077
568.427732	10316.136572
568.783385	10223.759949
569.138982	10300.435899
569.494525	10312.771602
569.850013	10184.585142
570.205445	10265.384756
570.560823	10164.511268
570.916145	10084.223331
571.271412	10157.466255
571.626625	10103.392318
571.981782	10076.752341
572.336884	10050.427435
572.691931	10057.064114
573.046923	10004.721814
573.401860	9961.294794
573.756743	9895.772397
574.111570	9935.111041
574.466342	9917.431715
574.821059	9953.876736
575.175722	9835.364251
575.530330	9848.493936
575.884882	9840.294499
576.239380	9771.666751
576.593823	9754.103371
576.948211	9761.944886
577.302544	9633.934866
577.656823	9664.209516
578.011047	9658.407148
578.365216	9630.736254
578.719330	9559.416530
579.073389	9564.215709
579.427394	9518.434470
579.781344	9490.798865
580.135239	9446.552657
580.489080	9450.388975
580.842866	9349.664201
581.196597	9355.096044
581.550273	9394.386797
581.903895	9363.532415
582.257463	9429.760574
582.610975	9308.026791
582.964434	9336.426131
583.317837	9259.687167
583.671186	9243.016071
584.024481	9234.907375
584.377721	9155.763780
584.730906	9127.815623
585.084037	9163.464143
585.437113	9098.339997
585.790135	9121.511660
586.143103	9018.339406
586.496016	8987.033840
586.848874	9045.294455
587.201679	9043.119197
587.554428	8923.293491
587.907124	8969.349472
588.259765	8941.580277
588.612352	8942.268394
588.964884	8817.935896
589.317362	8832.908123
589.669786	8838.125717
590.022155	8885.734374
590.374470	8900.454543
590.726731	8833.583638
591.078937	8692.582565
591.431090	8803.034245
591.783188	8670.340994
592.135232	8669.902413
592.487222	8659.139550
592.839157	8718.398313
593.191038	8653.639651
593.542866	8597.781146
593.894639	8496.219540
594.246358	8547.767859
594.598022	8562.611536
594.949633	8459.673695
595.301190	8437.490098
595.652692	8465.685271
596.004141	8579.393537
596.355535	8350.479782
596.706876	8334.955549
597.058162	8265.400229
597.409395	8341.423349
597.760573	8407.172598
598.111698	8313.276067
598.462768	8300.516907
598.813785	8269.796115
599.164748	8225.776760
599.515657	8218.330975
599.866511	8131.360989
600.217312	8260.137264
600.568060	8116.580326
600.918753	8222.772232
601.269392	8189.745113
601.619978	8103.357380
601.970510	8173.114346
602.320988	8164.604878
602.671412	8216.473310
603.021783	8158.973909
603.372100	8127.837223
603.722363	8125.006615
604.072572	8106.155220
604.422728	8117.575954
604.772830	8048.106333
605.122878	8051.516674
605.472872	8049.364101
605.822813	8074.673214
606.172701	8020.896706
606.522534	8102.621371
606.872314	8098.855629
607.222041	8071.320847
607.571714	8127.998540
607.921333	8083.102023
608.270899	8088.329700
608.620411	8175.743308
608.969870	8086.890451
609.319276	8077.919717
609.668627	8094.457222
610.017926	8127.595247
610.367171	8179.173813
610.716362	8151.283629
611.065500	8138.048080
611.414585	8170.626537
611.763616	8154.935945
612.112594	8132.472564
612.461518	8147.858165
612.810389	8211.059111
613.159207	8150.371180
613.507971	8102.903676
613.856682	8218.325934
614.205340	8176.597783
614.553945	8253.104855
614.902496	8146.633165
615.250994	8202.053090
615.599439	8183.955347
615.947830	8202.048048
616.296169	8171.357504
616.644454	8180.696241
616.992686	8184.449380
617.340864	8238.074654
617.688990	8142.307855
618.037063	8238.145231
618.385082	8185.434926
618.733048	8271.351311
619.080961	8206.411167
619.428821	8226.006132
619.776628	8230.827996
620.124382	8186.584309
620.472083	8164.889703
620.819731	8189.044392
621.167326	8086.915656
621.514868	8094.583251
621.862357	7979.604614
622.209793	8004.954057
622.557176	7935.968387
622.904506	7896.425576
623.251783	7835.697316
623.599007	7795.647869
623.946179	7795.514279
624.293297	7754.209585
624.640363	7669.646750
624.987376	7657.101838
625.334336	7601.959177
625.681243	7553.148205
626.028097	7537.548354
626.374899	7518.442381
626.721647	7510.295877
627.068343	7441.796678
627.414987	7413.488079
627.761577	7365.478650
628.108115	7408.749394
628.454600	7297.828886
628.801032	7349.498192
629.147412	7305.466234
629.493739	7299.888197
629.840014	7235.207673
630.186236	7289.780684
630.532405	7172.679721
630.878521	7221.962041
631.224585	7184.037441
631.570597	7103.084072
631.916556	7137.358877
632.262462	7133.018443
632.608316	7096.938905
632.954117	7071.944864
633.299866	7063.339615
633.645562	7048.150618
633.991206	6968.165151
634.336797	6914.494506
634.682336	6868.405757
635.027823	6839.880388
635.373257	6828.590724
635.718639	6759.358038
636.063968	6772.931345
636.409245	6671.311765
636.754470	6665.433780
637.099642	6626.725280
637.444762	6570.884419
637.789829	6577.079997
638.134845	6527.684251
638.479808	6505.682135
638.824719	6514.990626
639.169577	6442.350119
639.514383	6461.440969
639.859137	6387.220061
640.203839	6396.664663
640.548489	6384.434823
