Dividing Wavelength (nm)	Counts (n)	Blue Motor Position (mm): 0.000000	Red Motor Position (mm): 10.900000	
326.493990	2130.484877
326.888308	2130.484877
327.282561	2130.484877
327.676750	2095.398446
328.070874	2094.228898
328.464933	2097.626636
328.858929	2102.451020
329.252859	2112.941661
329.646726	2125.635287
330.040528	2137.484519
330.434265	2155.930101
330.827938	2170.105825
331.221547	2189.698270
331.615091	2209.094109
332.008571	2225.903837
332.401986	2247.532907
332.795338	2266.349014
333.188625	2287.904988
333.581847	2305.284366
333.975006	2322.973775
334.368100	2342.541013
334.761129	2360.837881
335.154095	2376.704913
335.546996	2395.899106
335.939833	2406.296486
336.332606	2422.163518
336.725315	2432.737338
337.117960	2444.382403
337.510540	2451.150152
337.903056	2466.394602
338.295508	2471.405508
338.687896	2483.088383
339.080220	2489.077273
339.472480	2494.698160
339.864676	2499.567914
340.256807	2505.438338
340.648875	2506.207114
341.040879	2509.045284
341.432818	2513.789009
341.824694	2511.407064
342.216506	2514.366222
342.608253	2514.015861
342.999937	2513.181550
343.391557	2514.099040
343.783113	2510.482013
344.174605	2513.778927
344.566033	2508.768020
344.957397	2507.764831
345.348697	2507.331291
345.739934	2505.866836
346.131106	2502.212000
346.522215	2504.684686
346.913260	2498.468943
347.304241	2496.291164
347.695159	2493.019456
348.086012	2495.761843
348.476802	2492.391832
348.867528	2492.152377
349.258191	2492.961482
349.648789	2490.209012
350.039324	2487.272540
350.429796	2486.118116
350.820203	2486.229021
351.210548	2483.025368
351.600828	2482.012096
351.991045	2482.455718
352.381198	2480.993783
352.771288	2481.334061
353.161314	2480.033443
353.551276	2481.024030
353.941175	2481.623927
354.331010	2480.855151
354.720782	2482.186016
355.110490	2482.198619
355.500135	2481.732312
355.889717	2482.211222
356.279235	2482.062508
356.668689	2480.056128
357.058080	2482.367498
357.447408	2481.946561
357.836672	2479.983032
358.225873	2479.052939
358.615010	2481.649133
359.004084	2484.484782
359.393095	2486.400421
359.782043	2487.640544
360.170927	2483.426140
360.559748	2485.175420
360.948505	2486.846563
361.337199	2488.048878
361.725830	2486.763384
362.114398	2490.551811
362.502903	2489.394866
362.891344	2490.698004
363.279722	2491.033241
363.668037	2490.864362
364.056289	2489.765391
364.444478	2491.983498
364.832603	2489.755308
365.220665	2493.326966
365.608665	2491.171873
365.996601	2493.294198
366.384474	2494.572131
366.772284	2497.561535
367.160031	2497.170846
367.547715	2497.266628
367.935336	2504.961949
368.322893	2504.029336
368.710388	2506.950684
369.097820	2513.635254
369.485189	2518.936027
369.872495	2524.055319
370.259738	2531.153264
370.646918	2534.974458
371.034035	2540.464275
371.421090	2554.536656
371.808081	2565.591906
372.195010	2570.764130
372.581875	2583.112437
372.968678	2598.389653
373.355418	2608.781992
373.742096	2628.006432
374.128710	2639.991775
374.515262	2657.358550
374.901751	2671.367917
375.288177	2682.849145
375.674540	2709.151365
376.060841	2723.753067
376.447079	2742.453227
376.833254	2767.701846
377.219367	2779.162910
377.605417	2815.068528
377.991404	2826.146463
378.377329	2844.808815
378.763191	2862.094932
379.148991	2901.408370
379.534727	2927.458532
379.920402	2952.303859
380.306013	2963.747278
380.691563	3010.614886
381.077049	3032.004501
381.462474	3047.236348
381.847835	3082.869744
382.233134	3101.229626
382.618371	3098.088987
383.003545	3159.185251
383.388657	3158.814726
383.773706	3186.188192
384.158693	3193.016435
384.543618	3210.355483
384.928480	3233.368351
385.313280	3264.472270
385.698017	3250.084817
386.082692	3288.074952
386.467305	3279.268056
386.851856	3289.988070
387.236344	3297.143988
387.620770	3303.924340
388.005133	3307.339722
388.389435	3313.074034
388.773674	3302.288485
389.157851	3314.651915
389.541965	3301.839823
389.926018	3256.214860
390.310008	3283.363994
390.693936	3269.868825
391.077802	3274.015174
391.461606	3241.746748
391.845348	3250.173037
392.229027	3224.322000
392.612645	3202.559339
392.996200	3216.856051
393.379694	3209.692572
393.763125	3211.625854
394.146494	3160.929490
394.529801	3158.494613
394.913047	3148.215700
395.296230	3098.451950
395.679351	3089.587081
396.062410	3065.142526
396.445408	3029.274717
396.828343	3006.518948
397.211217	2981.068683
397.594028	2929.694284
397.976778	2913.431522
398.359466	2895.611043
398.742092	2869.432331
399.124656	2832.669717
399.507158	2822.360557
399.889598	2805.011426
400.271977	2791.670012
400.654294	2763.396701
401.036549	2743.630337
401.418742	2719.848693
401.800874	2712.181098
402.182944	2695.678881
402.564952	2682.700431
402.946898	2670.233657
403.328783	2652.082983
403.710606	2631.147071
404.092367	2625.866462
404.474067	2618.067797
404.855705	2605.114552
405.237282	2593.401432
405.618797	2586.356419
406.000250	2579.142528
406.381642	2572.563822
406.762972	2564.767678
407.144240	2559.025803
407.525447	2554.108158
407.906593	2550.755791
408.287677	2549.417364
408.668700	2541.376724
409.049661	2537.532844
409.430560	2535.428162
409.811399	2534.470343
410.192176	2535.455889
410.572891	2534.379602
410.953545	2529.605630
411.334138	2527.669827
411.714669	2528.199148
412.095139	2526.724610
412.475547	2526.510361
412.855894	2524.642614
413.236180	2527.321987
413.616405	2526.757378
413.996568	2525.000536
414.376670	2521.096162
414.756711	2524.713190
415.136691	2526.759898
415.516609	2522.464835
415.896466	2526.202851
416.276262	2522.837881
416.655997	2520.985257
417.035670	2521.023065
417.415283	2524.085566
417.794834	2521.751512
418.174324	2522.941224
418.553753	2524.307377
418.933121	2525.628159
419.312428	2522.028775
419.691674	2524.587161
420.070859	2524.932480
420.449983	2524.209074
420.829045	2523.440298
421.208047	2523.926770
421.586988	2522.968951
421.965867	2524.231760
422.344686	2524.624970
422.723444	2523.263858
423.102141	2523.664630
423.480777	2523.455422
423.859352	2523.331914
424.237866	2524.103210
424.616319	2526.036493
424.994712	2527.137985
425.373044	2526.336441
425.751314	2526.109589
426.129524	2525.744106
426.507673	2525.973478
426.885762	2524.251924
427.263789	2530.734848
427.641756	2524.998015
428.019662	2526.628828
428.397508	2525.038344
428.775292	2527.621936
429.153016	2526.906092
429.530679	2527.314425
429.908282	2527.937008
430.285824	2530.442461
430.663305	2525.313087
431.040726	2527.153108
431.418086	2526.008766
431.795385	2526.263345
432.172624	2523.145391
432.549802	2526.772501
432.926920	2528.007584
433.303977	2528.113448
433.680974	2529.414066
434.057910	2529.804755
434.434786	2530.238294
434.811601	2526.621267
435.188355	2526.391894
435.565050	2528.441123
435.941683	2532.894983
436.318257	2524.546832
436.694770	2525.819723
437.071222	2528.040351
437.447614	2525.366019
437.823946	2525.055988
438.200218	2528.615043
438.576429	2529.950949
438.952580	2527.251411
439.328670	2530.802904
439.704700	2528.756195
440.080670	2532.022863
440.456580	2530.407173
440.832429	2532.017822
441.208218	2531.949766
441.583947	2530.707122
441.959616	2529.197296
442.335224	2531.659900
442.710773	2530.883562
443.086261	2528.854498
443.461689	2530.528161
443.837057	2530.777698
444.212365	2530.258459
444.587612	2531.128058
444.962800	2531.491021
445.337927	2531.178470
445.712995	2528.388191
446.088002	2532.708460
446.462949	2531.541433
446.837837	2532.521937
447.212664	2532.461443
447.587431	2532.282482
447.962139	2533.749458
448.336786	2537.124511
448.711374	2534.296423
449.085901	2533.814993
449.460369	2532.501773
449.834776	2533.671320
450.209124	2533.590662
450.583412	2534.916485
450.957640	2533.421783
451.331808	2534.465302
451.705917	2534.387164
452.079965	2536.728780
452.453954	2534.563604
452.827883	2535.211393
453.201752	2533.822555
453.575562	2531.241484
453.949311	2532.647966
454.323001	2535.743234
454.696632	2534.631660
455.070202	2535.443286
455.443713	2534.314067
455.817164	2534.137627
456.190556	2533.051258
456.563888	2533.104190
456.937160	2530.999509
457.310373	2537.338760
457.683526	2533.245343
458.056619	2535.266845
458.429653	2534.049407
458.802628	2535.448327
459.175542	2535.486136
459.548398	2538.556198
459.921194	2537.348842
460.293930	2537.686599
460.666607	2537.260622
461.039224	2539.025026
461.411782	2539.095602
461.784280	2541.089378
462.156719	2539.393030
462.529099	2537.353883
462.901419	2539.025026
463.273680	2538.253729
463.645882	2540.078627
464.018024	2540.076106
464.390106	2538.732639
464.762130	2537.878163
465.134094	2540.204656
465.505999	2541.641384
465.877845	2543.579708
466.249631	2548.441901
466.621358	2549.414844
466.993026	2546.281767
467.364634	2547.952909
467.736184	2542.158103
468.107674	2541.114584
468.479105	2542.861344
468.850477	2544.159441
469.221790	2544.217414
469.593043	2541.727084
469.964238	2541.021322
470.335373	2541.164995
470.706449	2543.173895
471.077467	2539.927392
471.448425	2545.782692
471.819324	2544.721529
472.190164	2545.896118
472.560945	2543.670449
472.931667	2542.175747
473.302330	2542.558874
473.672934	2543.201622
474.043479	2542.132897
474.413965	2540.045859
474.784393	2539.017464
475.154761	2539.718184
475.525070	2538.009233
475.895321	2540.446631
476.265513	2540.655839
476.635645	2540.827238
477.005719	2542.783206
477.375734	2542.105171
477.745691	2542.621889
478.115588	2540.038297
478.485427	2541.238092
478.855207	2542.027033
479.224928	2541.422094
479.594591	2547.295038
479.964194	2546.024668
480.333739	2546.085162
480.703226	2545.631458
481.072653	2546.634647
481.442022	2541.759852
481.811333	2547.269833
482.180584	2547.126160
482.549777	2546.949719
482.918912	2546.170861
483.287988	2547.148845
483.657005	2545.283618
484.025964	2545.518032
484.394864	2545.681869
484.763706	2546.301931
485.132489	2543.597352
485.501213	2544.595501
485.869879	2543.967877
486.238487	2545.250851
486.607036	2543.166333
486.975527	2545.525593
487.343959	2545.921324
487.712333	2545.129863
488.080648	2543.201622
488.448905	2542.984852
488.817104	2547.174051
489.185244	2544.361087
489.553326	2548.036088
489.921350	2547.668084
490.289315	2550.518856
490.657222	2547.489123
491.025070	2548.207487
491.392861	2550.932231
491.760593	2547.060625
492.128267	2546.284287
492.495883	2547.461397
492.863440	2545.500388
493.230939	2547.416026
493.598380	2545.260933
493.965763	2542.556354
494.333088	2544.179605
494.700354	2542.130376
495.067563	2545.601211
495.434713	2542.752959
495.801805	2546.349822
496.168839	2544.754297
496.535815	2546.319575
496.902733	2547.998279
497.269593	2548.666232
497.636395	2545.691952
498.003139	2546.770758
498.369825	2547.358053
498.736453	2545.558361
499.103023	2546.448125
499.469535	2545.712116
499.835989	2544.875285
500.202385	2545.124822
500.568723	2546.480892
500.935003	2544.555171
501.301226	2544.056097
501.667390	2546.632127
502.033497	2550.259237
502.399546	2545.707075
502.765537	2545.611293
503.131470	2547.169010
503.497345	2547.577343
503.863163	2547.693290
504.228923	2546.488454
504.594625	2545.502908
504.960269	2543.216745
505.325856	2547.496685
505.691385	2547.247148
506.056856	2546.995090
506.422270	2548.411654
506.787625	2547.766386
507.152924	2545.092054
507.518164	2548.325954
507.883347	2545.240768
508.248472	2547.766386
508.613540	2546.919473
508.978550	2547.287477
509.343503	2546.906870
509.708398	2547.748742
510.073236	2547.872251
510.438016	2551.038095
510.802738	2547.584905
511.167403	2546.609442
511.532010	2548.293187
511.896561	2547.204298
512.261053	2549.528270
512.625488	2545.770089
512.989866	2545.949050
513.354186	2541.966539
513.718449	2542.021992
514.082655	2547.695810
514.446803	2546.823691
514.810894	2547.335368
515.174927	2548.547765
515.538904	2547.355532
515.902822	2546.483413
516.266684	2545.422250
516.630488	2547.713454
516.994235	2547.668084
517.357925	2547.075748
517.721558	2548.245296
518.085133	2549.140101
518.448651	2548.688918
518.812112	2547.569781
519.175516	2546.944678
519.538863	2546.601880
519.902152	2550.967519
520.265385	2549.780327
520.628560	2548.441901
520.991678	2549.800492
521.354739	2549.739998
521.717743	2546.586756
522.080690	2549.818136
522.443580	2546.606921
522.806413	2550.349978
523.169189	2547.935265
523.531908	2547.141283
523.894569	2548.590615
524.257174	2550.995245
524.619722	2548.026006
524.982213	2549.528270
525.344647	2550.284443
525.707025	2549.233362
526.069345	2549.130018
526.431608	2551.035575
526.793815	2549.583722
527.155964	2549.712272
527.518057	2548.051212
527.880093	2551.206974
528.242072	2548.981304
528.603995	2550.163455
528.965860	2548.094061
529.327669	2551.585060
529.689421	2550.849052
530.051117	2548.870399
530.412755	2548.472148
530.774337	2550.145811
531.135862	2550.100441
531.497331	2549.251006
531.858743	2545.676828
532.220098	2544.885367
532.581396	2544.736653
532.942638	2543.872095
533.303824	2550.450801
533.664953	2548.376366
534.026025	2549.513146
534.387040	2548.656150
534.747999	2550.105482
535.108902	2547.484082
535.469748	2551.262427
535.830537	2549.049360
536.191270	2548.177240
536.551947	2550.470965
536.912567	2550.725544
537.273131	2551.108671
537.633638	2547.002652
537.994089	2551.902653
538.354483	2546.082641
538.714821	2550.372663
539.075103	2551.721172
539.435328	2549.354350
539.795497	2552.207643
540.155609	2549.581202
540.515665	2550.160934
540.875665	2552.734443
541.235609	2549.003990
541.595496	2554.085473
541.955328	2549.437529
542.315102	2551.625390
542.674821	2544.295552
543.034483	2550.165976
543.394090	2552.285781
543.753640	2551.219577
544.113134	2551.189330
544.472571	2550.551624
544.831953	2549.994576
545.191278	2549.082127
545.550548	2550.077755
545.909761	2551.325441
546.268918	2548.565409
546.628019	2550.241593
546.987064	2546.881664
547.346053	2551.953065
547.704986	2547.688248
548.063863	2550.065152
548.422684	2550.642365
548.781449	2548.986346
549.140158	2549.324103
549.498811	2552.494989
549.857408	2547.461397
550.215949	2547.627755
550.574434	2545.359235
550.932864	2548.633465
551.291237	2544.824873
551.649555	2551.310317
552.007817	2550.430636
552.366022	2552.210163
552.724173	2549.291335
553.082267	2549.608928
553.440305	2550.349978
553.798288	2548.777138
554.156215	2549.500543
554.514086	2551.728733
554.871902	2550.327292
555.229661	2551.242262
555.587365	2550.075235
555.945014	2552.434495
556.302606	2550.879299
556.660143	2549.918959
557.017625	2552.653785
557.375050	2549.797971
557.732421	2549.636654
558.089735	2549.893753
558.446994	2552.747046
558.804197	2550.418033
559.161345	2555.688560
559.518437	2550.201264
559.875474	2552.333672
560.232455	2549.306459
560.589381	2549.959288
560.946251	2550.677653
561.303065	2548.525080
561.659825	2552.200081
562.016528	2549.455173
562.373177	2551.416182
562.729770	2553.719989
563.086307	2551.103630
563.442789	2548.988866
563.799216	2551.640513
564.155587	2552.290822
564.511904	2548.111705
564.868164	2549.545914
565.224370	2551.542211
565.580520	2552.114382
565.936615	2548.210008
566.292654	2547.148845
566.648638	2550.521377
567.004567	2547.983156
567.360441	2551.403579
567.716260	2548.777138
568.072023	2550.904505
568.427732	2544.204811
568.783385	2547.105995
569.138982	2543.932589
569.494525	2547.650440
569.850013	2547.060625
570.205445	2549.374514
570.560823	2548.996428
570.916145	2550.717982
571.271412	2551.461552
571.626625	2549.303938
571.981782	2549.813095
572.336884	2550.148332
572.691931	2549.329144
573.046923	2550.972560
573.401860	2549.336706
573.756743	2550.193702
574.111570	2550.690256
574.466342	2552.260575
574.821059	2548.948537
575.175722	2554.236707
575.530330	2550.743188
575.884882	2550.271840
576.239380	2549.755122
576.593823	2552.484906
576.948211	2550.027344
577.302544	2549.782848
577.656823	2547.753783
578.011047	2550.070194
578.365216	2550.536500
578.719330	2550.549103
579.073389	2551.212015
579.427394	2548.746891
579.781344	2551.325441
580.135239	2550.922149
580.489080	2549.195553
580.842866	2547.249668
581.196597	2549.780327
581.550273	2548.487271
581.903895	2550.501212
582.257463	2547.174051
582.610975	2548.031047
582.964434	2548.275543
583.317837	2549.997097
583.671186	2548.910728
584.024481	2550.743188
584.377721	2551.053219
584.730906	2552.202602
585.084037	2548.507436
585.437113	2550.372663
585.790135	2553.548590
586.143103	2549.908877
586.496016	2548.552806
586.848874	2547.292518
587.201679	2548.283105
587.554428	2543.141128
587.907124	2547.554658
588.259765	2545.263453
588.612352	2547.968032
588.964884	2547.418547
589.317362	2549.566078
589.669786	2548.686397
590.022155	2548.696479
590.374470	2550.654967
590.726731	2551.885009
591.078937	2548.383928
591.431090	2551.597663
591.783188	2548.204967
592.135232	2549.460214
592.487222	2547.526932
592.839157	2550.155893
593.191038	2548.278063
593.542866	2548.318393
593.894639	2548.126829
594.246358	2548.328475
594.598022	2549.341747
594.949633	2547.842004
595.301190	2547.005172
595.652692	2548.797302
596.004141	2548.076417
596.355535	2551.305276
596.706876	2549.513146
597.058162	2548.482230
597.409395	2545.598690
597.760573	2546.415357
598.111698	2547.869730
598.462768	2548.986346
598.813785	2546.906870
599.164748	2549.916438
599.515657	2548.278063
599.866511	2548.643547
600.217312	2547.005172
600.568060	2547.784030
600.918753	2550.886861
601.269392	2551.000287
601.619978	2549.354350
601.970510	2548.499874
602.320988	2547.531973
602.671412	2547.715975
603.021783	2546.737991
603.372100	2546.942158
603.722363	2547.751263
604.072572	2549.881150
604.422728	2547.300080
604.772830	2545.497867
605.122878	2544.623227
605.472872	2545.321427
605.822813	2545.548279
606.172701	2545.666746
606.522534	2545.215563
606.872314	2549.039278
607.222041	2549.374514
607.571714	2547.710934
607.921333	2546.672456
608.270899	2543.695655
608.620411	2548.414175
608.969870	2550.165976
609.319276	2548.734288
609.668627	2551.910215
610.017926	2554.367777
610.367171	2558.153684
610.716362	2553.266285
611.065500	2551.383414
611.414585	2553.788045
611.763616	2550.433157
612.112594	2551.806871
612.461518	2551.453990
612.810389	2548.141952
613.159207	2549.102292
613.507971	2550.667570
613.856682	2549.407282
614.205340	2551.544731
614.553945	2550.770914
614.902496	2545.734801
615.250994	2547.768907
615.599439	2547.509287
615.947830	2547.020296
616.296169	2549.505584
616.644454	2548.661191
616.992686	2548.260419
617.340864	2549.500543
617.688990	2548.819988
618.037063	2546.556509
618.385082	2547.577343
618.733048	2548.111705
619.080961	2550.007179
619.428821	2547.894936
619.776628	2546.347302
620.124382	2551.096068
620.472083	2547.675646
620.819731	2550.372663
621.167326	2546.765717
621.514868	2548.071376
621.862357	2545.518032
622.209793	2548.749411
622.557176	2546.647250
622.904506	2544.920655
623.251783	2541.291024
623.599007	2545.334030
623.946179	2540.098791
624.293297	2543.804039
624.640363	2545.923845
624.987376	2546.342260
625.334336	2546.390151
625.681243	2547.723537
626.028097	2547.811757
626.374899	2545.850748
626.721647	2547.826880
627.068343	2546.024668
627.414987	2545.500388
627.761577	2544.235058
628.108115	2545.714637
628.454600	2545.422250
628.801032	2546.977446
629.147412	2546.198588
629.493739	2545.898639
629.840014	2547.907539
630.186236	2547.413506
630.532405	2546.858979
630.878521	2546.248999
631.224585	2547.751263
631.570597	2547.791592
631.916556	2544.887887
632.262462	2546.392672
632.608316	2548.255378
632.954117	2545.696993
633.299866	2546.947199
633.645562	2546.248999
633.991206	2546.347302
634.336797	2544.182126
634.682336	2544.459389
635.027823	2541.989224
635.373257	2546.012065
635.718639	2543.350336
636.063968	2543.839328
636.409245	2547.169010
636.754470	2543.463762
637.099642	2544.388813
637.444762	2545.679349
637.789829	2543.196580
638.134845	2545.689431
638.479808	2544.744215
638.824719	2544.401416
639.169577	2543.186498
639.514383	2546.337219
639.859137	2545.301262
640.203839	2543.327650
640.548489	2542.352187
640.893086	2539.879501
641.237632	2540.892773
641.582125	2541.759852
641.926566	2537.210210
642.270955	2543.166333
642.615292	2543.849410
642.959576	2544.507280
643.303809	2543.307486
643.647990	2545.283618
643.992118	2545.104657
644.336195	2542.538710
