Dividing Wavelength (nm)	Counts (n)	Blue Motor Position (mm): 0.000000	Red Motor Position (mm): 6.700000	
326.493990	2129.385905
326.888308	2129.385905
327.282561	2129.385905
327.676750	2093.855853
328.070874	2095.620257
328.464933	2095.448858
328.858929	2104.815321
329.252859	2112.240941
329.646726	2125.332818
330.040528	2137.532410
330.434265	2157.583599
330.827938	2171.323264
331.221547	2190.686336
331.615091	2207.642257
332.008571	2230.458519
332.401986	2247.699265
332.795338	2265.376071
333.188625	2287.728548
333.581847	2304.026598
333.975006	2324.057623
334.368100	2341.918431
334.761129	2360.762264
335.154095	2374.174254
335.546996	2392.864332
335.939833	2407.501322
336.332606	2421.296439
336.725315	2434.438727
337.117960	2442.096240
337.510540	2454.734413
337.903056	2465.547688
338.295508	2469.172277
338.687896	2480.030923
339.080220	2490.413179
339.472480	2495.300578
339.864676	2496.172697
340.256807	2500.911382
340.648875	2505.738287
341.040879	2508.531086
341.432818	2509.493946
341.824694	2511.212980
342.216506	2514.484689
342.608253	2514.096520
342.999937	2511.893536
343.391557	2511.812877
343.783113	2509.206601
344.174605	2510.721467
344.566033	2510.280366
344.957397	2505.289624
345.348697	2507.258195
345.739934	2504.024294
346.131106	2502.549757
346.522215	2500.356855
346.913260	2499.308295
347.304241	2497.407780
347.695159	2496.699498
348.086012	2493.208499
348.476802	2491.529795
348.867528	2490.781183
349.258191	2488.220277
349.648789	2486.516367
350.039324	2483.572333
350.429796	2484.532673
350.820203	2482.773310
351.210548	2484.578043
351.600828	2482.969915
351.991045	2483.035450
352.381198	2480.862713
352.771288	2480.340954
353.161314	2478.765593
353.551276	2478.069914
353.941175	2479.970429
354.331010	2476.839872
354.720782	2478.944554
355.110490	2479.793988
355.500135	2476.116467
355.889717	2482.279277
356.279235	2477.694348
356.668689	2479.098309
357.058080	2480.489668
357.447408	2477.217959
357.836672	2476.383648
358.225873	2480.325830
358.615010	2478.558906
359.004084	2482.735502
359.393095	2478.929431
359.782043	2483.476551
360.170927	2482.243989
360.559748	2482.077631
360.948505	2487.471666
361.337199	2484.242807
361.725830	2483.201808
362.114398	2485.460245
362.502903	2486.319762
362.891344	2485.445122
363.279722	2484.515029
363.668037	2486.281953
364.056289	2486.506285
364.444478	2488.235401
364.832603	2488.280771
365.220665	2488.810092
365.608665	2488.505102
365.996601	2493.271513
366.384474	2490.483755
366.772284	2490.675319
367.160031	2496.228150
367.547715	2497.296875
367.935336	2495.945845
368.322893	2502.350631
368.710388	2503.883142
369.097820	2513.310100
369.485189	2510.416478
369.872495	2520.246727
370.259738	2524.493900
370.646918	2533.265507
371.034035	2538.377237
371.421090	2545.757487
371.808081	2557.102603
372.195010	2562.945301
372.581875	2575.054152
372.968678	2587.357088
373.355418	2590.540577
373.742096	2605.752258
374.128710	2617.092334
374.515262	2624.429733
374.901751	2633.760909
375.288177	2638.789460
375.674540	2653.555000
376.060841	2662.896258
376.447079	2674.047290
376.833254	2681.533404
377.219367	2679.416119
377.605417	2700.105014
377.991404	2698.292720
378.377329	2700.001671
378.763191	2702.796991
379.148991	2716.140925
379.534727	2722.049157
379.920402	2727.612070
380.306013	2725.013356
380.691563	2736.865108
381.077049	2734.152967
381.462474	2732.721280
381.847835	2733.137175
382.233134	2731.239181
382.618371	2718.298539
383.003545	2729.918398
383.388657	2720.080587
383.773706	2715.135215
384.158693	2704.793287
384.543618	2698.224664
384.928480	2695.378933
385.313280	2692.495393
385.698017	2680.482323
386.082692	2675.602486
386.467305	2665.714263
386.851856	2658.102121
387.236344	2646.822539
387.620770	2641.783906
388.005133	2629.216309
388.389435	2621.261368
388.773674	2611.544544
389.157851	2602.929212
389.541965	2595.344796
389.926018	2585.849783
390.310008	2577.247054
390.693936	2572.107598
391.077802	2564.747513
391.461606	2556.684188
391.845348	2556.880793
392.229027	2547.559699
392.612645	2543.499050
392.996200	2539.806404
393.379694	2537.036290
393.763125	2535.027391
394.146494	2528.236956
394.529801	2527.281658
394.913047	2523.901564
395.296230	2523.634383
395.679351	2518.489885
396.062410	2517.925276
396.445408	2515.354288
396.828343	2516.859072
397.211217	2511.701972
397.594028	2513.622651
397.976778	2507.837927
398.359466	2512.309431
398.742092	2510.451766
399.124656	2513.103412
399.507158	2512.657270
399.889598	2514.093999
400.271977	2511.182733
400.654294	2513.673063
401.036549	2514.711541
401.418742	2511.270953
401.800874	2511.419667
402.182944	2512.175840
402.564952	2513.090810
402.946898	2512.672394
403.328783	2514.623320
403.710606	2513.519308
404.092367	2512.914369
404.474067	2514.036026
404.855705	2513.859586
405.237282	2515.417302
405.618797	2512.780779
406.000250	2512.684997
406.381642	2513.945285
406.762972	2511.923782
407.144240	2513.428567
407.525447	2517.539628
407.906593	2514.280522
408.287677	2516.057529
408.668700	2515.782786
409.049661	2516.208763
409.430560	2512.488392
409.811399	2513.410923
410.192176	2516.866634
410.572891	2516.740605
410.953545	2516.841428
411.334138	2515.669360
411.714669	2514.398989
412.095139	2514.366222
412.475547	2516.150790
412.855894	2514.691376
413.236180	2517.625327
413.616405	2517.358146
413.996568	2518.651202
414.376670	2517.108609
414.756711	2518.323527
415.136691	2516.382683
415.516609	2517.645492
415.896466	2518.051305
416.276262	2516.612056
416.655997	2517.327899
417.035670	2514.555265
417.415283	2516.707838
417.794834	2513.504184
418.174324	2518.507529
418.553753	2515.896212
418.933121	2519.813188
419.312428	2518.633558
419.691674	2519.525842
420.070859	2519.863600
420.449983	2517.174144
420.829045	2520.403003
421.208047	2518.232787
421.586988	2521.068436
421.965867	2519.712365
422.344686	2518.996521
422.723444	2520.085411
423.102141	2518.250431
423.480777	2521.529701
423.859352	2523.694877
424.237866	2520.551717
424.616319	2522.369053
424.994712	2518.142046
425.373044	2521.033147
425.751314	2520.067767
426.129524	2521.829650
426.507673	2521.615401
426.885762	2520.874351
427.263789	2522.847963
427.641756	2520.672705
428.019662	2521.812006
428.397508	2523.621780
428.775292	2521.970802
429.153016	2522.548014
429.530679	2522.984074
429.908282	2521.118847
430.285824	2521.983405
430.663305	2523.135309
431.040726	2522.784948
431.418086	2522.331245
431.795385	2522.379136
432.172624	2522.820237
432.549802	2521.844773
432.926920	2524.884589
433.303977	2522.086749
433.680974	2523.856194
434.057910	2524.904754
434.434786	2524.284692
434.811601	2523.715041
435.188355	2523.198323
435.565050	2523.082377
435.941683	2526.732172
436.318257	2522.926101
436.694770	2523.170597
437.071222	2521.189423
437.447614	2520.970133
437.823946	2522.404341
438.200218	2523.687315
438.576429	2522.648837
438.952580	2526.444826
439.328670	2526.356606
439.704700	2526.021369
440.080670	2526.747295
440.456580	2524.579599
440.832429	2525.333252
441.208218	2525.567665
441.583947	2526.477594
441.959616	2526.606143
442.335224	2524.897192
442.710773	2527.105217
443.086261	2527.563962
443.461689	2524.501461
443.837057	2524.088087
444.212365	2526.669157
444.587612	2524.534229
444.962800	2527.717718
445.337927	2526.684281
445.712995	2524.226718
446.088002	2525.975999
446.462949	2526.764939
446.837837	2526.424662
447.212664	2524.955165
447.587431	2525.529857
447.962139	2528.390712
448.336786	2530.790301
448.711374	2528.569672
449.085901	2527.954652
449.460369	2528.249559
449.834776	2525.565145
450.209124	2530.273583
450.583412	2531.082688
450.957640	2529.693850
451.331808	2527.488345
451.705917	2526.855680
452.079965	2529.981196
452.453954	2528.352903
452.827883	2528.776360
453.201752	2527.523633
453.575562	2528.657893
453.949311	2529.353572
454.323001	2528.317615
454.696632	2527.574045
455.070202	2530.528161
455.443713	2525.207223
455.817164	2525.607995
456.190556	2525.325690
456.563888	2527.042203
456.937160	2522.956348
457.310373	2527.274096
457.683526	2528.199148
458.056619	2530.024045
458.429653	2529.464477
458.802628	2531.652338
459.175542	2531.521268
459.548398	2528.126051
459.921194	2528.362985
460.293930	2530.462626
460.666607	2527.823582
461.039224	2528.819210
461.411782	2526.956503
461.784280	2531.044879
462.156719	2529.436751
462.529099	2531.367513
462.901419	2530.326515
463.273680	2532.035466
463.645882	2532.423635
464.018024	2530.271062
464.390106	2530.976823
464.762130	2532.267359
465.134094	2528.587317
465.505999	2533.247863
465.877845	2533.444468
466.249631	2534.803059
466.621358	2531.891793
466.993026	2536.965714
467.364634	2534.687113
467.736184	2534.412370
468.107674	2533.021011
468.479105	2532.988244
468.850477	2530.795342
469.221790	2532.557225
469.593043	2531.291896
469.964238	2532.342976
470.335373	2532.128727
470.706449	2530.901206
471.077467	2528.857018
471.448425	2536.948070
471.819324	2532.123686
472.190164	2535.841537
472.560945	2531.793490
472.931667	2532.302647
473.302330	2531.218799
473.672934	2531.614529
474.043479	2533.444468
474.413965	2531.853984
474.784393	2528.703263
475.154761	2532.703419
475.525070	2526.127233
475.895321	2530.770136
476.265513	2525.907943
476.635645	2531.465815
477.005719	2533.177287
477.375734	2532.469005
477.745691	2531.579241
478.115588	2535.745755
478.485427	2535.559232
478.855207	2532.617719
479.224928	2536.217103
479.594591	2533.850281
479.964194	2534.845909
480.333739	2532.935312
480.703226	2534.815662
481.072653	2534.034283
481.442022	2532.186700
481.811333	2533.958666
482.180584	2535.072761
482.549777	2537.908410
482.918912	2535.062679
483.287988	2533.784746
483.657005	2533.320960
484.025964	2534.848430
484.394864	2534.162833
484.763706	2537.530323
485.132489	2531.922040
485.501213	2535.344983
485.869879	2535.375230
486.238487	2534.230888
486.607036	2535.584438
486.975527	2537.333718
487.343959	2535.163502
487.712333	2536.895138
488.080648	2534.581248
488.448905	2533.527647
488.817104	2535.576876
489.185244	2535.236598
489.553326	2536.469161
489.921350	2537.873122
490.289315	2535.776002
490.657222	2536.451517
491.025070	2537.253060
491.392861	2537.895807
491.760593	2536.915303
492.128267	2536.776671
492.495883	2536.920344
492.863440	2538.251208
493.230939	2535.884387
493.598380	2535.516382
493.965763	2531.609488
494.333088	2534.051927
494.700354	2531.992616
495.067563	2534.588810
495.434713	2532.741227
495.801805	2535.448327
496.168839	2536.769109
496.535815	2537.971424
496.902733	2535.208872
497.269593	2535.856660
497.636395	2536.181815
498.003139	2537.558050
498.369825	2537.268183
498.736453	2536.096115
499.103023	2536.895138
499.469535	2537.759696
499.835989	2533.961187
500.202385	2536.751465
500.568723	2538.102494
500.935003	2537.616023
501.301226	2537.101825
501.667390	2535.758358
502.033497	2536.186856
502.399546	2535.647453
502.765537	2536.718698
503.131470	2536.396064
503.497345	2536.658204
503.863163	2537.739531
504.228923	2536.968235
504.594625	2537.447144
504.960269	2535.889428
505.325856	2538.352032
505.691385	2538.417567
506.056856	2538.271373
506.422270	2537.686599
506.787625	2539.808925
507.152924	2535.808769
507.518164	2538.616692
507.883347	2538.021836
508.248472	2537.265663
508.613540	2538.397402
508.978550	2536.537216
509.343503	2537.855478
509.708398	2538.069727
510.073236	2535.566794
510.438016	2537.089223
510.802738	2537.850437
511.167403	2540.209697
511.532010	2538.838503
511.896561	2538.072247
512.261053	2539.952598
512.625488	2534.861033
512.989866	2533.230219
513.354186	2537.079140
513.718449	2532.849612
514.082655	2534.699716
514.446803	2538.810777
514.810894	2536.466640
515.174927	2539.508976
515.538904	2539.932433
515.902822	2538.999820
516.266684	2538.175591
516.630488	2539.413194
516.994235	2540.224820
517.357925	2538.009233
517.721558	2539.032587
518.085133	2537.583256
518.448651	2537.671476
518.812112	2538.077289
519.175516	2539.884542
519.538863	2537.369007
519.902152	2535.362627
520.265385	2536.824562
520.628560	2539.430838
520.991678	2539.120808
521.354739	2539.415715
521.717743	2537.157278
522.080690	2540.431508
522.443580	2537.437062
522.806413	2538.909079
523.169189	2538.437731
523.531908	2536.207021
523.894569	2537.845396
524.257174	2538.939326
524.619722	2538.578883
524.982213	2538.568801
525.344647	2539.123328
525.707025	2538.893956
526.069345	2537.973945
526.431608	2540.060983
526.793815	2538.006713
527.155964	2539.982845
527.518057	2539.501415
527.880093	2538.712474
528.242072	2538.689789
528.603995	2540.413863
528.965860	2539.060314
529.327669	2537.701723
529.689421	2540.081147
530.051117	2539.753472
530.412755	2539.105684
530.774337	2541.555685
531.135862	2539.690458
531.497331	2539.395550
531.858743	2535.402957
532.220098	2536.302802
532.581396	2532.204344
532.942638	2539.947557
533.303824	2542.029553
533.664953	2540.890252
534.026025	2539.360262
534.387040	2540.060983
534.747999	2540.469316
535.108902	2537.910931
535.469748	2539.017464
535.830537	2542.420243
536.191270	2541.701878
536.551947	2542.062321
536.912567	2537.308513
537.273131	2540.529810
537.633638	2539.456044
537.994089	2538.132741
538.354483	2541.212886
538.714821	2539.025026
539.075103	2539.403112
539.435328	2538.304141
539.795497	2540.945705
540.155609	2540.474357
540.515665	2537.986548
540.875665	2542.180788
541.235609	2537.711805
541.595496	2541.119625
541.955328	2538.127700
542.315102	2539.014943
542.674821	2539.307330
543.034483	2540.295396
543.394090	2537.747093
543.753640	2541.774975
544.113134	2540.998637
544.472571	2538.442772
544.831953	2541.245654
545.191278	2538.621733
545.550548	2537.101825
545.909761	2537.880684
546.268918	2542.271529
546.628019	2538.692309
546.987064	2540.832279
547.346053	2540.726415
547.704986	2538.745242
548.063863	2539.831610
548.422684	2539.763555
548.781449	2540.509645
549.140158	2538.004192
549.498811	2542.896632
549.857408	2539.793802
550.215949	2538.379758
550.574434	2533.893131
550.932864	2534.450178
551.291237	2535.229037
551.649555	2540.426466
552.007817	2539.478729
552.366022	2540.681045
552.724173	2538.906558
553.082267	2539.624923
553.440305	2538.412525
553.798288	2541.374203
554.156215	2539.556867
554.514086	2541.147351
554.871902	2538.364634
555.229661	2544.575336
555.587365	2539.876981
555.945014	2540.718853
556.302606	2538.785571
556.660143	2538.236085
557.017625	2542.463093
557.375050	2541.222969
557.732421	2540.837320
558.089735	2539.761034
558.446994	2538.704912
558.804197	2539.677855
559.161345	2541.296065
559.518437	2540.141641
559.875474	2542.906714
560.232455	2539.110725
560.589381	2540.476878
560.946251	2541.225489
561.303065	2541.648946
561.659825	2539.992927
562.016528	2541.500232
562.373177	2539.680376
562.729770	2541.255736
563.086307	2539.917310
563.442789	2541.830428
563.799216	2539.284645
564.155587	2541.122146
564.511904	2541.555685
564.868164	2540.292876
565.224370	2540.199614
565.580520	2541.205325
565.936615	2541.487629
566.292654	2540.406302
566.648638	2539.561908
567.004567	2539.887063
567.360441	2539.869419
567.716260	2538.788091
568.072023	2542.085006
568.427732	2535.592000
568.783385	2537.689120
569.138982	2535.571835
569.494525	2536.355735
569.850013	2537.114428
570.205445	2538.324305
570.560823	2538.505787
570.916145	2540.862526
571.271412	2540.895294
571.626625	2541.220448
571.981782	2541.573329
572.336884	2540.129038
572.691931	2540.791950
573.046923	2541.210366
573.401860	2542.815973
573.756743	2537.832793
574.111570	2540.010571
574.466342	2538.946888
574.821059	2539.927392
575.175722	2538.294058
575.530330	2539.382947
575.884882	2543.433515
576.239380	2538.657021
576.593823	2543.156251
576.948211	2540.640715
577.302544	2541.187681
577.656823	2538.256250
578.011047	2543.055428
578.365216	2539.453524
578.719330	2540.542413
579.073389	2541.018802
579.427394	2538.485622
579.781344	2541.477547
580.135239	2543.050387
580.489080	2541.926210
580.842866	2541.517876
581.196597	2542.279090
581.550273	2541.916127
581.903895	2540.131559
582.257463	2541.767413
582.610975	2541.646426
582.964434	2539.272042
583.317837	2540.063503
583.671186	2543.062990
584.024481	2540.590304
584.377721	2543.577188
584.730906	2540.358411
585.084037	2542.077444
585.437113	2540.449152
585.790135	2541.205325
586.143103	2540.439069
586.496016	2542.563916
586.848874	2536.769109
587.201679	2540.217258
587.554428	2534.004036
587.907124	2541.588452
588.259765	2536.509490
588.612352	2541.850592
588.964884	2539.672814
589.317362	2542.591642
589.669786	2540.842362
590.022155	2542.513504
590.374470	2540.063503
590.726731	2540.250026
591.078937	2542.606765
591.431090	2539.692978
591.783188	2538.520910
592.135232	2542.455531
592.487222	2541.162475
592.839157	2541.603576
593.191038	2540.799512
593.542866	2543.332692
593.894639	2539.037628
594.246358	2539.882022
594.598022	2542.914276
594.949633	2540.111394
595.301190	2538.679707
595.652692	2541.517876
596.004141	2541.056611
596.355535	2538.067206
596.706876	2540.555016
597.058162	2536.998482
597.409395	2540.313040
597.760573	2542.367311
598.111698	2539.539223
598.462768	2539.357742
598.813785	2539.322454
599.164748	2539.514018
599.515657	2539.249357
599.866511	2540.897814
600.217312	2540.708771
600.568060	2537.739531
600.918753	2541.439738
601.269392	2540.154244
601.619978	2540.030736
601.970510	2540.454193
602.320988	2539.592155
602.671412	2540.993596
603.021783	2539.498894
603.372100	2540.600386
603.722363	2539.892104
604.072572	2540.250026
604.422728	2539.330015
604.772830	2537.061496
605.122878	2535.002185
605.472872	2535.586959
605.822813	2535.402957
606.172701	2538.410005
606.522534	2541.391847
606.872314	2540.242464
607.222041	2540.118956
607.571714	2543.980480
607.921333	2541.064172
608.270899	2541.530479
608.620411	2541.263298
608.969870	2539.708102
609.319276	2541.490150
609.668627	2543.824204
610.017926	2546.289328
610.367171	2546.785882
610.716362	2546.082641
611.065500	2546.085162
611.414585	2543.839327
611.763616	2544.371169
612.112594	2541.331353
612.461518	2541.807742
612.810389	2543.494008
613.159207	2542.402599
613.507971	2539.909748
613.856682	2541.472506
614.205340	2538.909079
614.553945	2539.335057
614.902496	2538.644418
615.250994	2540.512166
615.599439	2540.267670
615.947830	2541.961498
616.296169	2540.091230
616.644454	2542.142979
616.992686	2538.130221
617.340864	2541.749769
617.688990	2541.046528
618.037063	2540.481919
618.385082	2541.401930
618.733048	2540.381096
619.080961	2541.222969
619.428821	2537.810108
619.776628	2540.262629
620.124382	2539.577032
620.472083	2540.872608
620.819731	2541.601055
621.167326	2537.825231
621.514868	2542.001827
621.862357	2540.111394
622.209793	2539.420756
622.557176	2542.984852
622.904506	2537.868081
623.251783	2534.919006
623.599007	2537.984027
623.946179	2537.840354
624.293297	2536.819521
624.640363	2540.096271
624.987376	2538.594007
625.334336	2538.969573
625.681243	2542.674821
626.028097	2540.665921
626.374899	2539.481250
626.721647	2539.607279
627.068343	2540.945705
627.414987	2538.047042
627.761577	2539.251877
628.108115	2539.100643
628.454600	2540.658359
628.801032	2539.070396
629.147412	2539.057793
629.493739	2536.852288
629.840014	2540.834800
630.186236	2540.509645
630.532405	2540.030736
630.878521	2537.384130
631.224585	2540.761703
631.570597	2539.493853
631.916556	2538.553678
632.262462	2541.084337
632.608316	2538.818338
632.954117	2540.214738
633.299866	2539.231713
633.645562	2537.353883
633.991206	2541.374203
634.336797	2537.507638
634.682336	2538.026877
635.027823	2538.989738
635.373257	2535.723070
635.718639	2538.135262
636.063968	2538.851106
636.409245	2538.457896
636.754470	2539.846734
637.099642	2538.528472
637.444762	2537.197607
637.789829	2539.889583
638.134845	2538.127700
638.479808	2539.382947
638.824719	2537.807587
639.169577	2539.009902
639.514383	2540.832279
639.859137	2538.185673
640.203839	2540.176929
640.548489	2537.351362
640.893086	2539.156096
641.237632	2534.659386
641.582125	2537.631147
641.926566	2532.322812
642.270955	2539.135931
642.615292	2537.807587
642.959576	2536.915303
643.303809	2540.552495
643.647990	2538.616692
643.992118	2538.188194
644.336195	2537.190046
