Dividing Wavelength (nm)	Counts (n)	Blue Motor Position (mm): 0.000000	Red Motor Position (mm): 35.000000	
326.493990	2077.835066
326.888308	2077.835066
327.282561	2077.835066
327.676750	2054.318083
328.070874	2056.253886
328.464933	2062.625905
328.858929	2071.649570
329.252859	2083.864286
329.646726	2101.140320
330.040528	2114.859820
330.434265	2134.595938
330.827938	2153.666623
331.221547	2173.576660
331.615091	2195.122551
332.008571	2213.845397
332.401986	2238.484036
332.795338	2256.675040
333.188625	2276.028029
333.581847	2293.183076
333.975006	2314.970943
334.368100	2330.538026
334.761129	2346.833556
335.154095	2363.658407
335.546996	2388.788559
335.939833	2430.514189
336.332606	2446.199739
336.725315	2456.990329
337.117960	2461.204734
337.510540	2471.244192
337.903056	2481.528145
338.295508	2485.939155
338.687896	2490.957624
339.080220	2501.357524
339.472480	2503.958759
339.864676	2511.999400
340.256807	2510.366066
340.648875	2513.370594
341.040879	2516.874196
341.432818	2516.906963
341.824694	2518.126922
342.216506	2517.131294
342.608253	2518.772190
342.999937	2517.784124
343.391557	2517.912673
343.783113	2515.167765
344.174605	2513.700789
344.566033	2510.335819
344.957397	2510.209790
345.348697	2507.288442
345.739934	2507.011178
346.131106	2504.682165
346.522215	2506.030674
346.913260	2501.241578
347.304241	2500.984479
347.695159	2498.927688
348.086012	2499.643532
348.476802	2496.777636
348.867528	2498.365599
349.258191	2495.144302
349.648789	2495.850063
350.039324	2490.277068
350.429796	2493.543736
350.820203	2492.275885
351.210548	2493.314363
351.600828	2490.390494
351.991045	2491.408807
352.381198	2490.778663
352.771288	2492.593478
353.161314	2490.556852
353.551276	2489.742706
353.941175	2490.113230
354.331010	2489.233549
354.720782	2492.222953
355.110490	2491.996101
355.500135	2491.577686
355.889717	2493.236225
356.279235	2492.180103
356.668689	2495.411483
357.058080	2492.585916
357.447408	2492.177583
357.836672	2493.866369
358.225873	2494.655310
358.615010	2491.113899
359.004084	2498.070692
359.393095	2496.752430
359.782043	2501.044973
360.170927	2499.633449
360.559748	2499.580517
360.948505	2502.343070
361.337199	2500.235867
361.725830	2501.581855
362.114398	2504.709891
362.502903	2505.629902
362.891344	2506.091167
363.279722	2505.861795
363.668037	2506.655777
364.056289	2508.205932
364.444478	2508.987310
364.832603	2511.903618
365.220665	2510.759276
365.608665	2511.502846
365.996601	2514.323372
366.384474	2511.011334
366.772284	2512.947137
367.160031	2513.221880
367.547715	2518.036182
367.935336	2516.538959
368.322893	2515.984432
368.710388	2517.133815
369.097820	2522.573220
369.485189	2519.374608
369.872495	2522.399300
370.259738	2521.892664
370.646918	2525.570186
371.034035	2526.011287
371.421090	2531.649817
371.808081	2529.204858
372.195010	2536.781712
372.581875	2541.439738
372.968678	2547.521890
373.355418	2553.994732
373.742096	2566.837071
374.128710	2572.389902
374.515262	2583.339288
374.901751	2594.394539
375.288177	2612.071345
375.674540	2627.774539
376.060841	2645.957981
376.447079	2667.710560
376.833254	2689.208560
377.219367	2713.955585
377.605417	2746.213928
377.991404	2766.683533
378.377329	2804.658545
378.763191	2836.127948
379.148991	2882.768703
379.534727	2927.723193
379.920402	2971.429997
380.306013	3015.638395
380.691563	3079.976121
381.077049	3128.358595
381.462474	3183.178623
381.847835	3248.496853
382.233134	3315.148469
382.618371	3373.726677
383.003545	3456.673822
383.388657	3529.591592
383.773706	3619.974439
384.158693	3688.846683
384.543618	3777.944036
384.928480	3850.256867
385.313280	3948.995427
385.698017	4044.943708
386.082692	4162.301770
386.467305	4226.616811
386.851856	4341.408925
387.236344	4489.197912
387.620770	4549.704361
388.005133	4660.607225
388.389435	4799.327176
388.773674	4880.688878
389.157851	5005.422148
389.541965	5137.558352
389.926018	5160.117515
390.310008	5329.144883
390.693936	5447.123007
391.077802	5559.286159
391.461606	5686.650911
391.845348	5796.149814
392.229027	5912.187093
392.612645	6126.310102
392.996200	6238.448049
393.379694	6405.166569
393.763125	6618.057016
394.146494	6710.289967
394.529801	6838.095820
394.913047	7071.382776
395.296230	7067.853968
395.679351	7127.246322
396.062410	7373.932665
396.445408	7273.838035
396.828343	7420.782628
397.211217	7561.440903
397.594028	7448.592153
397.976778	7652.269892
398.359466	7811.981208
398.742092	7796.018394
399.124656	7929.828261
399.507158	8123.093497
399.889598	8147.480079
400.271977	8347.961726
400.654294	8387.718786
401.036549	8580.184998
401.418742	8611.336809
401.800874	8899.290037
402.182944	8989.272113
402.564952	9343.521555
402.946898	9180.142800
403.328783	9228.396725
403.710606	9427.517260
404.092367	9673.081947
404.474067	10028.115288
404.855705	9840.546557
405.237282	9788.292477
405.618797	10212.003978
406.000250	10451.660432
406.381642	10808.649741
406.762972	10763.488565
407.144240	10578.306819
407.525447	10827.004583
407.906593	10774.445513
408.287677	11037.346727
408.668700	11179.232522
409.049661	11166.458238
409.430560	11328.942189
409.811399	11302.256841
410.192176	11464.415637
410.572891	11535.800896
410.953545	12013.364523
411.334138	11497.556182
411.714669	12085.513517
412.095139	11431.854824
412.475547	11905.798903
412.855894	11776.256372
413.236180	12092.465268
413.616405	11784.266766
413.996568	12068.141701
414.376670	12041.204295
414.756711	11931.405444
415.136691	12204.126826
415.516609	12382.286244
415.896466	12458.107718
416.276262	12749.645207
416.655997	13201.004916
417.035670	13259.890634
417.415283	13867.228685
417.794834	13956.293271
418.174324	13699.587635
418.553753	13607.858799
418.933121	14097.223768
419.312428	13930.706894
419.691674	13835.426566
420.070859	14307.797805
420.449983	13950.795892
420.829045	14508.425646
421.208047	14272.824800
421.586988	14715.428026
421.965867	14958.630931
422.344686	14968.141068
422.723444	15533.602254
423.102141	14249.423764
423.480777	15423.899184
423.859352	14926.233956
424.237866	16024.066194
424.616319	15747.173257
424.994712	16387.697223
425.373044	16182.474371
425.751314	16875.655710
426.129524	16011.387692
426.507673	17080.813027
426.885762	16805.954196
427.263789	16981.262842
427.641756	17175.254004
428.019662	17227.316520
428.397508	17278.867359
428.775292	17558.308599
429.153016	17558.409422
429.530679	17625.287890
429.908282	17657.689906
430.285824	17384.000623
430.663305	18097.691896
431.040726	17715.027990
431.418086	17557.509576
431.795385	18180.974278
432.172624	18628.091857
432.549802	18185.140792
432.926920	18404.733453
433.303977	18281.978837
433.680974	18531.029481
434.057910	18841.796451
434.434786	18889.140447
434.811601	18807.128436
435.188355	19849.354226
435.565050	19523.458753
435.941683	19475.731629
436.318257	20370.715398
436.694770	20167.801394
437.071222	20778.146493
437.447614	19851.821871
437.823946	19868.848368
438.200218	20053.402490
438.576429	19827.437810
438.952580	20129.849067
439.328670	20103.042732
439.704700	20517.851555
440.080670	20096.567369
440.456580	20710.153930
440.832429	20871.690144
441.208218	19883.815554
441.583947	20320.641617
441.959616	20449.944692
442.335224	20698.574400
442.710773	20845.181236
443.086261	21386.212990
443.461689	20725.451312
443.837057	20894.055223
444.212365	21546.798946
444.587612	21538.778470
444.962800	21139.919858
445.337927	21576.725756
445.712995	20284.950247
446.088002	22188.968849
446.462949	22391.063666
446.837837	22580.573242
447.212664	22592.097320
447.587431	25545.729523
447.962139	28522.820735
448.336786	30831.827993
448.711374	29152.231478
449.085901	25438.357987
449.460369	25449.307373
449.834776	25441.289418
450.209124	27992.345157
450.583412	27479.503535
450.957640	27957.510784
451.331808	26610.839631
451.705917	25241.412709
452.079965	25278.654233
452.453954	25664.947770
452.827883	25581.751087
453.201752	25373.042277
453.575562	25546.271447
453.949311	26665.861304
454.323001	26745.952636
454.696632	26531.517075
455.070202	28125.416495
455.443713	28309.453899
455.817164	28900.070442
456.190556	29461.851586
456.563888	28861.427477
456.937160	29314.596961
457.310373	27598.878058
457.683526	28036.019193
458.056619	28033.410396
458.429653	28024.991669
458.802628	28628.503484
459.175542	28774.376833
459.548398	30154.007050
459.921194	31782.831584
460.293930	32516.352236
460.666607	34613.746979
461.039224	36419.790756
461.411782	36747.463235
461.784280	35461.480013
462.156719	34895.698713
462.529099	34321.962474
462.901419	33002.132944
463.273680	31946.553137
463.645882	32096.393874
464.018024	32090.470518
464.390106	33030.476832
464.762130	35939.184792
465.134094	40290.804574
465.505999	45764.794410
465.877845	50305.013840
466.249631	51302.322949
466.621358	49436.770872
466.993026	47194.417750
467.364634	45071.507207
467.736184	43101.794808
468.107674	41816.081287
468.479105	41038.740406
468.850477	40298.421758
469.221790	38855.842652
469.593043	37075.055056
469.964238	36177.197830
470.335373	36132.414740
470.706449	37987.297215
471.077467	40759.125246
471.448425	45441.742148
471.819324	48202.509887
472.190164	46194.840121
472.560945	42548.734861
472.931667	39381.529134
473.302330	38298.643918
473.672934	37442.948382
474.043479	37984.562389
474.413965	37202.833183
474.784393	36831.905083
475.154761	37751.993797
475.525070	37804.222672
475.895321	37321.643097
476.265513	37943.434135
476.635645	38948.080644
477.005719	38772.802246
477.375734	39304.084408
477.745691	40022.605107
478.115588	41389.274518
478.485427	43505.661808
478.855207	46983.568970
479.224928	49650.604015
479.594591	51205.933567
479.964194	50092.660275
480.333739	50226.845708
480.703226	50297.724331
481.072653	50950.251285
481.442022	51424.759973
481.811333	51632.339565
482.180584	50344.715447
482.549777	49800.343928
482.918912	49289.075146
483.287988	48972.510849
483.657005	48125.491139
484.025964	47439.390100
484.394864	47431.009182
484.763706	46998.959612
485.132489	46111.199817
485.501213	45957.182485
485.869879	46087.425736
486.238487	45685.852461
486.607036	45873.156532
486.975527	45315.211707
487.343959	45535.414348
487.712333	45598.844667
488.080648	45500.945459
488.448905	45957.051415
488.817104	45745.048210
489.185244	46764.500588
489.553326	48527.089619
489.921350	51297.304480
490.289315	54131.781451
490.657222	54653.513147
491.025070	54871.966508
491.392861	53952.669254
491.760593	52666.794417
492.128267	50972.578555
492.495883	49407.166696
492.863440	47988.049120
493.230939	46600.947913
493.598380	45511.879722
493.965763	45177.507549
494.333088	44340.300444
494.700354	43842.869630
495.067563	43547.826018
495.434713	43389.891710
495.801805	43468.889111
496.168839	43070.552257
496.535815	42724.333373
496.902733	42752.175666
497.269593	42302.056080
497.636395	42234.658374
498.003139	42619.583237
498.369825	42083.232194
498.736453	42374.386555
499.103023	41883.292471
499.469535	41769.846345
499.835989	41846.063550
500.202385	41504.495130
500.568723	41514.259845
500.935003	41686.994982
501.301226	41485.341266
501.667390	42095.769544
502.033497	42326.195645
502.399546	41745.021183
502.765537	41050.987889
503.131470	41408.277147
503.497345	41780.659620
503.863163	40401.130226
504.228923	41035.463656
504.594625	41432.487288
504.960269	40696.768693
505.325856	41376.694318
505.691385	40731.164486
506.056856	40871.301001
506.422270	41302.392752
506.787625	40844.711435
507.152924	41055.499722
507.518164	41105.429830
507.883347	40312.373151
508.248472	40551.344008
508.613540	41033.439632
508.978550	41311.802065
509.343503	41053.117776
509.708398	41239.277506
510.073236	41753.364292
510.438016	41734.654050
510.802738	41169.265961
511.167403	41807.675163
511.532010	41977.872079
511.896561	42273.868468
512.261053	43091.304167
512.625488	42615.822537
512.989866	42482.675581
513.354186	42304.037253
513.718449	42260.131324
514.082655	42931.088736
514.446803	42554.244842
514.810894	43078.353443
515.174927	42959.961945
515.538904	42837.577853
515.902822	43460.304026
516.266684	42901.101433
516.630488	43292.978047
516.994235	43117.694608
517.357925	43660.977237
517.721558	43776.475113
518.085133	44052.548862
518.448651	44139.755783
518.812112	43885.366557
519.175516	43934.454792
519.538863	44228.338938
519.902152	44151.368080
520.265385	44565.730762
520.628560	44549.944389
520.991678	44296.994412
521.354739	44465.235360
521.717743	44739.925312
522.080690	44587.410244
522.443580	45069.342031
522.806413	45047.793619
523.169189	44969.307895
523.531908	45069.533595
523.894569	44863.524322
524.257174	44966.930991
524.619722	45188.346029
524.982213	45115.017406
525.344647	44970.926105
525.707025	44952.478003
526.069345	45300.239480
526.431608	45118.256347
526.793815	45352.571698
527.155964	44835.175394
527.518057	44919.256799
527.880093	44627.303415
528.242072	45054.054732
528.603995	44681.556313
528.965860	44597.916009
529.327669	44612.926044
529.689421	44430.209423
530.051117	44304.019260
530.412755	44346.858985
530.774337	44345.381927
531.135862	44059.634204
531.497331	44161.263865
531.858743	43953.220487
532.220098	44191.619173
532.581396	43818.951875
532.942638	43409.854679
533.303824	43592.795631
533.664953	43457.909478
534.026025	43093.860032
534.387040	43437.623875
534.747999	43295.261690
535.108902	43343.984442
535.469748	42764.244188
535.830537	42769.398768
536.191270	42835.881505
536.551947	42393.376582
536.912567	42559.394381
537.273131	42581.993874
537.633638	42001.971315
537.994089	42185.406301
538.354483	41692.363810
538.714821	42109.443674
539.075103	42315.914212
539.435328	41965.044863
539.795497	41726.810015
540.155609	41598.621034
540.515665	41907.784917
540.875665	41277.209668
541.235609	41426.231217
541.595496	41296.169447
541.955328	41767.300562
542.315102	41047.257435
542.674821	40725.687272
543.034483	40629.933076
543.394090	40466.967695
543.753640	40286.370879
544.113134	41038.445498
544.472571	40002.790852
544.831953	40969.497637
545.191278	40122.392227
545.550548	39732.227084
545.909761	39991.654943
546.268918	40015.486998
546.628019	40134.909412
546.987064	39602.949214
547.346053	38818.028957
547.704986	39411.513917
548.063863	38884.312569
548.422684	38880.269563
548.781449	38576.235054
549.140158	38771.597410
549.498811	38477.884663
549.857408	37823.631114
550.215949	38367.627067
550.574434	38150.343254
550.932864	37776.458517
551.291237	38205.818631
551.649555	37703.253402
552.007817	37736.199862
552.366022	37263.304344
552.724173	37227.151709
553.082267	37368.409881
553.440305	37418.408045
553.798288	36679.087545
554.156215	36755.710563
554.514086	36740.362770
554.871902	36342.719075
555.229661	36170.014186
555.587365	35855.599941
555.945014	35747.169763
556.302606	35509.623032
556.660143	35488.361965
557.017625	35353.526223
557.375050	34999.496071
557.732421	35066.926545
558.089735	34865.600504
558.446994	34593.862148
558.804197	34745.036269
559.161345	34488.204604
559.518437	33735.275510
559.875474	33763.984881
560.232455	33711.012436
560.589381	33622.091523
560.946251	33197.013869
561.303065	33487.228055
561.659825	33113.212248
562.016528	32690.337579
562.373177	32277.797274
562.729770	32418.412699
563.086307	31876.218959
563.442789	31975.897694
563.799216	31790.506741
564.155587	31449.898660
564.511904	31249.522877
564.868164	31085.735789
565.224370	31042.515456
565.580520	30654.162608
565.936615	30575.865927
566.292654	30180.921770
566.648638	30124.990168
567.004567	29887.090557
567.360441	29698.316989
567.716260	29382.912157
568.072023	29343.949079
568.427732	29106.346896
568.783385	28615.663666
569.138982	28632.244021
569.494525	28386.540703
569.850013	28007.329987
570.205445	27783.505277
570.560823	27536.166104
570.916145	27243.592659
571.271412	27048.230303
571.626625	26678.859920
571.981782	26481.730640
572.336884	26087.048623
572.691931	26047.795678
573.046923	25616.782066
573.401860	25322.527395
573.756743	25083.977474
574.111570	24922.910088
574.466342	24632.622806
574.821059	24473.292097
575.175722	24019.459702
575.530330	23803.557165
575.884882	23450.139513
576.239380	23215.393143
576.593823	22999.639320
576.948211	22750.465168
577.302544	22301.827681
577.656823	22099.085076
578.011047	21995.905260
578.365216	21671.943070
578.719330	21363.147191
579.073389	21092.739699
579.427394	20911.883263
579.781344	20685.999242
580.135239	20344.836635
580.489080	20168.121507
580.842866	19754.066336
581.196597	19738.118646
581.550273	19515.954996
581.903895	19271.199415
582.257463	19241.804447
582.610975	18784.922153
582.964434	18710.852480
583.317837	18367.920428
583.671186	18104.457125
584.024481	18000.294283
584.377721	17615.404708
584.730906	17523.259977
585.084037	17353.458792
585.437113	17049.578038
585.790135	16877.596554
586.143103	16553.568829
586.496016	16406.798155
586.848874	16238.295068
587.201679	16065.517081
587.554428	15719.804833
587.907124	15607.112359
588.259765	15361.071284
588.612352	15261.503454
588.964884	14888.130395
589.317362	14814.708509
589.669786	14627.452329
590.022155	14401.535540
590.374470	14359.005846
590.726731	14060.592223
591.078937	13748.370880
591.431090	13621.479997
591.783188	13366.647149
592.135232	13114.594498
592.487222	13040.832335
592.839157	12904.184298
593.191038	12645.121923
593.542866	12426.829879
593.894639	12137.591157
594.246358	12066.110116
594.598022	11912.712845
594.949633	11679.972854
595.301190	11529.234793
595.652692	11354.432783
596.004141	11283.841506
596.355535	10936.329565
596.706876	10784.386668
597.058162	10625.706268
597.409395	10590.466082
597.760573	10483.777623
598.111698	10274.776426
598.462768	10148.692127
598.813785	10035.845898
599.164748	9810.120673
599.515657	9757.753167
599.866511	9557.405110
600.217312	9552.026199
600.568060	9256.659954
600.918753	9277.784909
601.269392	9159.579933
601.619978	8986.068459
601.970510	8917.907018
602.320988	8843.771810
602.671412	8790.696021
603.021783	8643.085996
603.372100	8481.864854
603.722363	8395.141885
604.072572	8311.788927
604.422728	8216.377528
604.772830	8083.013803
605.122878	8002.388109
605.472872	7901.146617
605.822813	7842.240734
606.172701	7736.893221
606.522534	7674.813932
606.872314	7618.496682
607.222041	7502.560226
607.571714	7461.295861
607.921333	7314.187430
608.270899	7261.356138
608.620411	7223.824747
608.969870	7123.929243
609.319276	7042.580143
609.668627	6969.001982
610.017926	6947.375432
610.367171	6895.005406
610.716362	6822.926988
611.065500	6744.985708
611.414585	6689.228026
611.763616	6652.067161
612.112594	6581.508651
612.461518	6530.381268
612.810389	6489.033725
613.159207	6416.120996
613.507971	6353.156984
613.856682	6334.348439
614.205340	6262.998468
614.553945	6260.692141
614.902496	6151.881355
615.250994	6132.498119
615.599439	6078.809830
615.947830	6033.293252
616.296169	5988.641232
616.644454	5940.742709
616.992686	5905.288274
617.340864	5891.745214
617.688990	5821.753834
618.037063	5816.125386
618.385082	5764.274598
618.733048	5739.280557
619.080961	5689.116035
619.428821	5639.417820
619.776628	5590.712712
620.124382	5532.782293
620.472083	5486.023070
620.819731	5438.842911
621.167326	5365.378176
621.514868	5311.876411
621.862357	5230.799533
622.209793	5179.074774
622.557176	5111.984578
622.904506	5043.876069
623.251783	4976.775791
623.599007	4920.655146
623.946179	4857.103840
624.293297	4816.499866
624.640363	4748.761882
624.987376	4702.836970
625.334336	4654.903159
625.681243	4604.005149
626.028097	4565.636927
626.374899	4522.998848
626.721647	4489.407119
627.068343	4452.944454
627.414987	4413.479781
627.761577	4371.791959
628.108115	4356.905432
628.454600	4306.405673
628.801032	4286.142755
629.147412	4253.463475
629.493739	4231.352975
629.840014	4189.644988
630.186236	4177.578987
630.532405	4139.999705
630.878521	4123.525214
631.224585	4100.955969
631.570597	4065.985484
631.916556	4047.907907
632.262462	4027.403013
632.608316	4005.955424
632.954117	3981.500787
633.299866	3958.490440
633.645562	3932.432716
633.991206	3892.383269
634.336797	3852.774924
634.682336	3829.484793
635.027823	3795.061274
635.373257	3768.343158
635.718639	3735.822675
636.063968	3710.747976
636.409245	3676.190866
