Dividing Wavelength (nm)	Counts (n)	Blue Motor Position (mm): 0.000000	Red Motor Position (mm): 39.100000	
326.493990	2127.742489
326.888308	2127.742489
327.282561	2127.742489
327.676750	2095.131265
328.070874	2094.715370
328.464933	2096.525144
328.858929	2105.432863
329.252859	2116.132712
329.646726	2125.731069
330.040528	2139.427884
330.434265	2156.204844
330.827938	2173.778306
331.221547	2190.600636
331.615091	2208.852134
332.008571	2227.335524
332.401986	2251.928793
332.795338	2267.969745
333.188625	2285.533125
333.581847	2306.421146
333.975006	2324.859166
334.368100	2342.397340
334.761129	2359.617922
335.154095	2375.084182
335.546996	2396.902296
335.939833	2415.993145
336.332606	2430.955290
336.725315	2446.872733
337.117960	2454.252983
337.510540	2462.454940
337.903056	2475.395582
338.295508	2480.608135
338.687896	2488.371512
339.080220	2499.288130
339.472480	2506.431445
339.864676	2508.281549
340.256807	2513.143742
340.648875	2516.181037
341.040879	2516.874196
341.432818	2519.926614
341.824694	2523.720082
342.216506	2523.105062
342.608253	2524.428365
342.999937	2524.367871
343.391557	2520.125740
343.783113	2521.141532
344.174605	2516.952333
344.566033	2521.544825
344.957397	2516.181037
345.348697	2515.215656
345.739934	2515.568537
346.131106	2514.605676
346.522215	2512.163237
346.913260	2507.918586
347.304241	2508.649553
347.695159	2505.738287
348.086012	2507.306086
348.476802	2501.065137
348.867528	2502.063286
349.258191	2500.503048
349.648789	2497.496000
350.039324	2499.225116
350.429796	2493.725217
350.820203	2497.337204
351.210548	2495.608088
351.600828	2492.883344
351.991045	2491.917963
352.381198	2491.217243
352.771288	2488.928559
353.161314	2491.532315
353.551276	2492.195227
353.941175	2490.917294
354.331010	2492.278406
354.720782	2493.241266
355.110490	2492.439723
355.500135	2492.177583
355.889717	2491.512151
356.279235	2492.227994
356.668689	2491.108858
357.058080	2492.958962
357.447408	2489.488127
357.836672	2490.781183
358.225873	2491.610453
358.615010	2490.450988
359.004084	2494.410814
359.393095	2493.271513
359.782043	2496.391987
360.170927	2492.316215
360.559748	2497.251504
360.948505	2496.197903
361.337199	2500.102277
361.725830	2498.872235
362.114398	2501.470950
362.502903	2500.586228
362.891344	2500.150168
363.279722	2501.029849
363.668037	2505.009840
364.056289	2502.423728
364.444478	2502.902638
364.832603	2503.981445
365.220665	2506.285252
365.608665	2507.303565
365.996601	2507.296003
366.384474	2507.217865
366.772284	2508.788185
367.160031	2510.741632
367.547715	2512.470748
367.935336	2515.860924
368.322893	2514.847652
368.710388	2519.223373
369.097820	2529.996319
369.485189	2529.209899
369.872495	2538.490663
370.259738	2541.328833
370.646918	2549.926521
371.034035	2559.570248
371.421090	2567.033676
371.808081	2576.868968
372.195010	2589.396235
372.581875	2599.420569
372.968678	2612.323402
373.355418	2623.865124
373.742096	2642.477064
374.128710	2655.180772
374.515262	2672.202228
374.901751	2684.626152
375.288177	2699.434541
375.674540	2721.156873
376.060841	2741.167733
376.447079	2760.656834
376.833254	2780.224072
377.219367	2791.087759
377.605417	2829.483707
377.991404	2836.702640
378.377329	2862.004191
378.763191	2877.238558
379.148991	2914.283477
379.534727	2938.349945
379.920402	2967.757516
380.306013	2983.059939
380.691563	3031.202958
381.077049	3052.481668
381.462474	3069.679565
381.847835	3107.883949
382.233134	3131.423617
382.618371	3130.760705
383.003545	3200.202599
383.388657	3205.084957
383.773706	3239.185842
384.158693	3256.555138
384.543618	3282.809467
384.928480	3317.338850
385.313280	3360.402907
385.698017	3366.096890
386.082692	3416.057245
386.467305	3420.410282
386.851856	3452.643419
387.236344	3473.496152
387.620770	3507.833972
388.005133	3532.964124
388.389435	3559.130233
388.773674	3573.946184
389.157851	3614.340950
389.541965	3629.245121
389.926018	3594.415789
390.310008	3660.245697
390.693936	3685.438863
391.077802	3723.993608
391.461606	3712.366186
391.845348	3778.526289
392.229027	3775.370527
392.612645	3789.427784
392.996200	3866.595247
393.379694	3904.056061
393.763125	3970.674909
394.146494	3940.188531
394.529801	3999.835464
394.913047	4048.462434
395.296230	4013.645705
395.679351	4068.110331
396.062410	4092.922890
396.445408	4076.070313
396.828343	4107.950570
397.211217	4131.954024
397.594028	4054.365625
397.976778	4115.383751
398.359466	4145.948267
398.742092	4171.937935
399.124656	4096.421451
399.507158	4175.058410
399.889598	4200.511195
400.271977	4262.212398
400.654294	4230.896750
401.036549	4241.296651
401.418742	4213.708936
401.800874	4312.616375
402.182944	4337.169314
402.564952	4398.525198
402.946898	4390.741656
403.328783	4385.009864
403.710606	4296.351092
404.092367	4492.391482
404.474067	4452.415133
404.855705	4463.432574
405.237282	4390.366090
405.618797	4497.911546
406.000250	4531.112585
406.381642	4611.897076
406.762972	4574.882403
407.144240	4587.896142
407.525447	4585.340277
407.906593	4641.166015
408.287677	4689.750135
408.668700	4614.256336
409.049661	4670.203061
409.430560	4710.708732
409.811399	4638.085870
410.192176	4799.856497
410.572891	4736.138833
410.953545	4837.423175
411.334138	4722.424374
411.714669	4789.035660
412.095139	4681.094474
412.475547	4827.534952
412.855894	4806.094925
413.236180	4815.983148
413.616405	4767.779635
413.996568	4855.835990
414.376670	4800.889933
414.756711	4750.675000
415.136691	4784.228920
415.516609	4865.565417
415.896466	4896.013986
416.276262	4934.546045
416.655997	4910.756840
417.035670	5099.132157
417.415283	5185.582904
417.794834	5134.458042
418.174324	5086.468778
418.553753	4990.278522
418.933121	5176.052603
419.312428	5243.888889
419.691674	5181.010577
420.070859	5311.122758
420.449983	5221.735539
420.829045	5334.359957
421.208047	5240.702880
421.586988	5318.964273
421.965867	5328.335778
422.344686	5456.549964
422.723444	5315.785825
423.102141	5131.259430
423.480777	5437.396100
423.859352	5199.095717
424.237866	5460.414009
424.616319	5449.512513
424.994712	5558.459410
425.373044	5438.860555
425.751314	5579.571762
426.129524	5383.790991
426.507673	5574.497841
426.885762	5660.530172
427.263789	5591.915027
427.641756	5474.405731
428.019662	5593.250933
428.397508	5601.924238
428.775292	5550.993461
429.153016	5647.859232
429.530679	5577.577986
429.908282	5658.801057
430.285824	5529.253485
430.663305	5805.735568
431.040726	5538.617428
431.418086	5534.055184
431.795385	5643.387729
432.172624	5659.101005
432.549802	5647.526516
432.926920	5666.929917
433.303977	5671.368653
433.680974	5706.790321
434.057910	5730.100616
434.434786	5734.743519
434.811601	5700.803950
435.188355	5938.542245
435.565050	5809.924767
435.941683	5792.159740
436.318257	6007.038923
436.694770	5992.759855
437.071222	6025.048445
437.447614	5959.931861
437.823946	5872.614035
438.200218	6021.887642
438.576429	5886.567949
438.952580	5985.689637
439.328670	6028.667994
439.704700	5942.358399
440.080670	5928.096974
440.456580	6202.045877
440.832429	6079.495427
441.208218	5927.313075
441.583947	6081.332928
441.959616	6088.932467
442.335224	6013.395818
442.710773	6156.456203
443.086261	6175.259706
443.461689	5972.159180
443.837057	6118.708043
444.212365	6272.138080
444.587612	6164.955588
444.962800	6322.516851
445.337927	6301.434746
445.712995	5909.253141
446.088002	6488.146482
446.462949	6316.964020
446.837837	6251.998671
447.212664	6423.884373
447.587431	6569.571198
447.962139	7105.229083
448.336786	8035.798356
448.711374	7771.278932
449.085901	6849.020000
449.460369	6774.335306
449.834776	6705.357198
450.209124	7094.783812
450.583412	7244.526246
450.957640	7393.038638
451.331808	7160.235633
451.705917	6708.359205
452.079965	6636.190047
452.453954	6844.563620
452.827883	6722.018211
453.201752	6819.733417
453.575562	6613.341017
453.949311	6821.104611
454.323001	6708.931376
454.696632	6778.867303
455.070202	6924.208810
455.443713	7073.426964
455.817164	7175.099475
456.190556	7255.510920
456.563888	7333.200142
456.937160	7381.103706
457.310373	7028.888369
457.683526	7057.948101
458.056619	6942.309073
458.429653	6934.795233
458.802628	6867.158072
459.175542	6979.429609
459.548398	7336.771799
459.921194	7498.403795
460.293930	7498.454206
460.666607	8028.672685
461.039224	8331.835075
461.411782	8466.633008
461.784280	8478.701530
462.156719	8370.762865
462.529099	8252.452025
462.901419	7838.217893
463.273680	7734.155875
463.645882	7748.445025
464.018024	7615.592978
464.390106	7772.942512
464.762130	8163.042121
465.134094	8633.084346
465.505999	9658.429833
465.877845	10879.450227
466.249631	11526.197498
466.621358	11144.307408
466.993026	10511.761068
467.364634	10259.098437
467.736184	9891.726871
468.107674	9559.633300
468.479105	9596.731151
468.850477	9359.862455
469.221790	9132.022466
469.593043	8805.590110
469.964238	8666.333277
470.335373	8683.871451
470.706449	8729.955159
471.077467	8712.968991
471.448425	10029.748622
471.819324	11099.756211
472.190164	11127.104471
472.560945	9882.143638
472.931667	9085.270805
473.302330	8949.152090
473.672934	8597.138399
474.043479	8954.654509
474.413965	8897.807938
474.784393	8775.446531
475.154761	8930.653576
475.525070	9019.017441
475.895321	8845.379938
476.265513	9026.276702
476.635645	9189.736116
477.005719	9194.184934
477.375734	9300.071850
477.745691	9540.502121
478.115588	9673.855764
478.485427	9924.864896
478.855207	10451.846954
479.224928	11272.292222
479.594591	11903.021227
479.964194	11710.353368
480.333739	11657.000316
480.703226	11570.688201
481.072653	11653.710963
481.442022	11895.235165
481.811333	12087.053589
482.180584	11891.865153
482.549777	11601.071235
482.918912	11424.875346
483.287988	11449.408122
483.657005	11459.656787
484.025964	11143.382357
484.394864	11270.212746
484.763706	11242.458674
485.132489	10992.682104
485.501213	10966.198402
485.869879	11042.619774
486.238487	10874.313291
486.607036	10993.186219
486.975527	10773.177662
487.343959	10952.877153
487.712333	11007.130051
488.080648	10934.870151
488.448905	10978.566873
488.817104	10914.849209
489.185244	11177.952069
489.553326	11335.972078
489.921350	11879.640355
490.289315	12940.430195
490.657222	13281.355868
491.025070	13191.204913
491.392861	13068.672107
491.760593	12690.545240
492.128267	12331.050477
492.495883	12009.840756
492.863440	11665.910556
493.230939	11331.913949
493.598380	11269.567479
493.965763	11134.474638
494.333088	11035.733557
494.700354	10956.022833
495.067563	11019.808552
495.434713	10848.046359
495.801805	10972.585544
496.168839	10895.836497
496.535815	10839.262148
496.902733	10836.734009
497.269593	10762.180385
497.636395	10867.550583
498.003139	10859.426763
498.369825	10726.320137
498.736453	10882.064065
499.103023	10806.114041
499.469535	10832.713689
499.835989	10827.422998
500.202385	10787.623089
500.568723	10634.704728
500.935003	10859.608245
501.301226	10660.896043
501.667390	10922.910014
502.033497	11018.462564
502.399546	10879.614064
502.765537	10785.352049
503.131470	10863.933555
503.497345	11035.206757
503.863163	10648.330967
504.228923	10958.162803
504.594625	11023.039932
504.960269	10769.288412
505.325856	10995.079172
505.691385	10784.668972
506.056856	10936.931983
506.422270	10965.132198
506.787625	10847.806904
507.152924	10969.911212
507.518164	10949.542430
507.883347	10869.937569
508.248472	10780.870463
508.613540	11023.569253
508.978550	10903.776314
509.343503	10875.288754
509.708398	10998.333237
510.073236	11109.268869
510.438016	11115.368665
510.802738	11063.074255
511.167403	11113.160639
511.532010	11013.749086
511.896561	11248.293809
512.261053	11314.305198
512.625488	11186.474140
512.989866	11164.764411
513.354186	11153.099181
513.718449	11059.525283
514.082655	11253.730694
514.446803	11146.139868
514.810894	11264.067580
515.174927	11137.617797
515.538904	11159.821559
515.902822	11308.210443
516.266684	11200.372601
516.630488	11136.501182
516.994235	11194.045953
517.357925	11253.909655
517.721558	11342.858294
518.085133	11360.446880
518.448651	11374.345341
518.812112	11258.935685
519.175516	11273.718869
519.538863	11385.496373
519.902152	11309.931997
520.265385	11464.655091
520.628560	11374.748633
520.991678	11350.629233
521.354739	11416.010477
521.717743	11344.292502
522.080690	11316.941722
522.443580	11458.681324
522.806413	11410.256000
523.169189	11442.239601
523.531908	11498.483754
523.894569	11323.275932
524.257174	11327.737353
524.619722	11442.032913
524.982213	11391.633978
525.344647	11442.320259
525.707025	11392.591797
526.069345	11488.388844
526.431608	11409.096535
526.793815	11514.738955
527.155964	11299.060749
527.518057	11354.629388
527.880093	11298.097889
528.242072	11374.342820
528.603995	11277.419076
528.965860	11199.392097
529.327669	11249.982596
529.689421	11192.967146
530.051117	11167.821871
530.412755	11274.901019
530.774337	11165.273567
531.135862	11143.914198
531.497331	11171.920329
531.858743	11025.981445
532.220098	11189.579491
532.581396	11054.867257
532.942638	11040.545339
533.303824	11004.145688
533.664953	11016.622543
534.026025	10928.606518
534.387040	11020.554643
534.747999	11025.578153
535.108902	11084.521844
535.469748	10841.412200
535.830537	10950.124683
536.191270	10918.975393
536.551947	10950.646442
536.912567	10945.912799
537.273131	10867.205264
537.633638	10846.458395
537.994089	10834.036992
538.354483	10785.639395
538.714821	10930.403689
539.075103	10937.189082
539.435328	10904.862683
539.795497	10723.809643
540.155609	10890.180323
540.515665	10973.843312
540.875665	10708.716428
541.235609	10778.833837
541.595496	10774.148084
541.955328	10923.797257
542.315102	10811.344238
542.674821	10755.470609
543.034483	10764.509398
543.394090	10766.014183
543.753640	10694.492813
544.113134	10911.234702
544.472571	10768.759091
544.831953	10914.327449
545.191278	10722.047759
545.550548	10736.732641
545.909761	10885.870136
546.268918	10852.560712
546.628019	10930.300345
546.987064	10802.406272
547.346053	10713.243384
547.704986	10815.087295
548.063863	10799.860490
548.422684	10790.541917
548.781449	10707.093177
549.140158	10807.570934
549.498811	10678.817345
549.857408	10541.813907
550.215949	10765.550397
550.574434	10617.516914
550.932864	10709.354134
551.291237	10767.602146
551.649555	10715.547192
552.007817	10729.478420
552.366022	10688.277070
552.724173	10679.790287
553.082267	10663.167082
553.440305	10801.292177
553.798288	10595.708882
554.156215	10750.822666
554.514086	10719.678417
554.871902	10572.622918
555.229661	10605.055182
555.587365	10581.444937
555.945014	10474.973248
556.302606	10595.585374
556.660143	10483.707047
557.017625	10630.031578
557.375050	10530.236897
557.732421	10660.099540
558.089735	10576.388660
558.446994	10567.014635
558.804197	10596.139901
559.161345	10598.935221
559.518437	10446.097518
559.875474	10533.667402
560.232455	10560.312421
560.589381	10499.715231
560.946251	10493.136525
561.303065	10597.183420
561.659825	10526.917297
562.016528	10450.629516
562.373177	10334.932514
562.729770	10433.088821
563.086307	10346.915337
563.442789	10437.804820
563.799216	10302.860694
564.155587	10350.645791
564.511904	10301.754160
564.868164	10286.517273
565.224370	10292.175968
565.580520	10210.844513
565.936615	10214.829545
566.292654	10074.047762
566.648638	10198.957472
567.004567	10144.472681
567.360441	10123.130956
567.716260	10036.148367
568.072023	10115.717939
568.427732	10060.368591
568.783385	9962.434095
569.138982	10025.292242
569.494525	10028.836173
569.850013	9904.919571
570.205445	9969.567328
570.560823	9864.335762
570.916145	9774.245301
571.271412	9835.107152
571.626625	9769.796483
571.981782	9743.527030
572.336884	9701.937511
572.691931	9700.702428
573.046923	9634.585175
573.401860	9582.288245
573.756743	9507.729580
574.111570	9541.777533
574.466342	9521.348257
574.821059	9524.768680
575.175722	9414.957226
575.530330	9412.681145
575.884882	9397.552642
576.239380	9311.570722
576.593823	9290.929718
576.948211	9284.381259
577.302544	9163.965737
577.656823	9149.976535
578.011047	9141.159557
578.365216	9099.764123
578.719330	9023.390642
579.073389	9008.085699
579.427394	8956.227349
579.781344	8926.358512
580.135239	8856.074746
580.489080	8850.910083
580.842866	8739.543433
581.196597	8727.328717
581.550273	8753.330989
581.903895	8703.839461
582.257463	8748.723374
582.610975	8614.691697
582.964434	8630.097463
583.317837	8533.937453
583.671186	8509.077003
584.024481	8482.046336
584.377721	8399.018532
584.730906	8355.049588
585.084037	8360.007563
585.437113	8293.542470
585.790135	8290.779918
586.143103	8181.381838
586.496016	8141.163513
586.848874	8174.283894
587.201679	8141.886918
587.554428	8026.046244
587.907124	8036.839355
588.259765	7995.736307
588.612352	7972.181515
588.964884	7850.356992
589.317362	7838.734611
589.669786	7818.973288
590.022155	7848.315324
590.374470	7841.144283
590.726731	7773.917976
591.078937	7623.789894
591.431090	7694.970986
591.783188	7568.256543
592.135232	7538.659929
592.487222	7525.540326
592.839157	7542.884416
593.191038	7469.195349
593.542866	7401.633805
593.894639	7302.875081
594.246358	7324.816703
594.598022	7310.036040
594.949633	7208.499640
595.301190	7167.157137
595.652692	7170.262488
596.004141	7230.257260
596.355535	7040.546038
596.706876	7002.671849
597.058162	6926.459685
597.409395	6970.032898
597.760573	6992.312278
598.111698	6903.028402
598.462768	6870.470110
598.813785	6830.433266
599.164748	6775.068794
599.515657	6754.115238
599.866511	6656.556308
600.217312	6737.388689
600.568060	6608.927487
600.918753	6657.637636
601.269392	6620.007943
601.619978	6527.573346
601.970510	6551.614608
602.320988	6533.839500
602.671412	6547.238887
603.021783	6484.010215
603.372100	6441.563699
603.722363	6416.960348
604.072572	6379.996087
604.422728	6371.582402
604.772830	6295.269415
605.122878	6272.191013
605.472872	6255.749289
605.822813	6249.846098
606.172701	6190.713363
606.522534	6216.617333
606.872314	6191.222520
607.222041	6153.978475
607.571714	6163.569271
607.921333	6112.865345
608.270899	6090.205359
608.620411	6125.790864
608.969870	6044.043513
609.319276	6019.772878
609.668627	6001.521380
610.017926	6002.093551
610.367171	5998.736143
610.716362	5963.400175
611.065500	5933.037305
611.414585	5923.310399
611.763616	5900.524383
612.112594	5858.672724
612.461518	5841.479869
612.810389	5855.779102
613.159207	5792.540348
613.507971	5744.336834
613.856682	5777.996619
614.205340	5738.554631
614.553945	5756.488536
614.902496	5666.866903
615.250994	5682.081105
615.599439	5645.535260
615.947830	5624.921982
616.296169	5590.775727
616.644454	5577.739303
616.992686	5549.400456
617.340864	5554.116456
617.688990	5481.400332
618.037063	5508.231873
618.385082	5455.093071
618.733048	5474.372964
619.080961	5422.058390
619.428821	5411.822327
619.776628	5384.711001
620.124382	5339.955638
620.472083	5305.527077
620.819731	5300.120440
621.167326	5225.957505
621.514868	5209.934198
621.862357	5133.376715
622.209793	5121.552688
622.557176	5065.132094
622.904506	5026.410992
623.251783	4979.845854
623.599007	4932.247279
623.946179	4916.027367
624.293297	4870.835943
624.640363	4819.272501
624.987376	4789.811998
625.334336	4751.073251
625.681243	4702.239594
626.028097	4680.358465
626.374899	4653.978107
626.721647	4624.749497
627.068343	4581.579576
627.414987	4550.503383
627.761577	4513.009802
628.108115	4511.008464
628.454600	4448.188125
628.801032	4442.584883
629.147412	4419.410698
629.493739	4391.770052
629.840014	4348.915203
630.186236	4354.195812
630.532405	4292.106440
630.878521	4293.202891
631.224585	4263.278602
631.570597	4219.700348
631.916556	4210.154923
632.262462	4197.141184
632.608316	4163.710772
632.954117	4140.798728
633.299866	4124.412457
633.645562	4099.718365
633.991206	4057.763362
634.336797	4024.476624
634.682336	3993.463445
635.027823	3962.719968
635.373257	3951.551292
635.718639	3906.702667
636.063968	3895.032396
636.409245	3852.258205
636.754470	3833.923529
637.099642	3808.498469
637.444762	3773.838016
637.789829	3763.803599
638.134845	3738.217223
638.479808	3714.274263
638.824719	3700.388405
639.169577	3668.704753
639.514383	3656.545490
639.859137	3626.346457
640.203839	3622.721868
640.548489	3597.251438
