Dividing Wavelength (nm)	Counts (n)	Blue Motor Position (mm): 0.000000	Red Motor Position (mm): 32.000000	
326.493990	2128.455812
326.888308	2128.455812
327.282561	2128.455812
327.676750	2094.841398
328.070874	2094.700246
328.464933	2094.228898
328.858929	2101.931781
329.252859	2111.651126
329.646726	2125.068157
330.040528	2135.992337
330.434265	2155.552014
330.827938	2170.521721
331.221547	2189.814216
331.615091	2209.666280
332.008571	2227.758981
332.401986	2245.944944
332.795338	2265.426483
333.188625	2285.422220
333.581847	2304.235806
333.975006	2322.124340
334.368100	2340.166630
334.761129	2357.319156
335.154095	2374.650643
335.546996	2394.933725
335.939833	2413.054153
336.332606	2427.219795
336.725315	2440.974583
337.117960	2449.458845
337.510540	2455.699794
337.903056	2468.574901
338.295508	2477.361632
338.687896	2485.583754
339.080220	2493.710094
339.472480	2497.501041
339.864676	2505.561846
340.256807	2508.762979
340.648875	2510.671056
341.040879	2513.037877
341.432818	2516.458300
341.824694	2515.981911
342.216506	2519.548528
342.608253	2518.333610
342.999937	2518.930986
343.391557	2516.806140
343.783113	2515.215656
344.174605	2519.704803
344.566033	2515.566016
344.957397	2512.924452
345.348697	2512.279184
345.739934	2506.953205
346.131106	2509.418329
346.522215	2504.561177
346.913260	2505.145951
347.304241	2501.082781
347.695159	2501.607061
348.086012	2499.545229
348.476802	2497.881648
348.867528	2495.245125
349.258191	2494.925012
349.648789	2495.335866
350.039324	2490.846718
350.429796	2492.480052
350.820203	2489.727582
351.210548	2488.515185
351.600828	2487.849752
351.991045	2486.281953
352.381198	2488.295894
352.771288	2487.454022
353.161314	2487.285143
353.551276	2485.477889
353.941175	2486.982674
354.331010	2488.018631
354.720782	2486.581902
355.110490	2486.695328
355.500135	2486.370174
355.889717	2487.464104
356.279235	2487.406131
356.668689	2487.829588
357.058080	2485.863538
357.447408	2485.974443
357.836672	2482.634679
358.225873	2488.121975
358.615010	2485.689618
359.004084	2490.839157
359.393095	2487.025524
359.782043	2491.043323
360.170927	2490.629949
360.559748	2493.447954
360.948505	2493.599188
361.337199	2496.023983
361.725830	2493.485762
362.114398	2497.911895
362.502903	2495.151864
362.891344	2497.702687
363.279722	2495.724035
363.668037	2497.170846
364.056289	2496.404590
364.444478	2498.063130
364.832603	2498.083295
365.220665	2495.832419
365.608665	2500.177894
365.996601	2502.655621
366.384474	2502.264932
366.772284	2503.144613
367.160031	2503.621002
367.547715	2507.795078
367.935336	2507.724501
368.322893	2510.686179
368.710388	2514.605676
369.097820	2523.062212
369.485189	2522.800072
369.872495	2532.584952
370.259738	2542.916796
370.646918	2546.339740
371.034035	2553.616645
371.421090	2560.646534
371.808081	2572.455437
372.195010	2580.710327
372.581875	2596.534509
372.968678	2608.318206
373.355418	2620.280864
373.742096	2634.650673
374.128710	2649.779176
374.515262	2667.486228
374.901751	2680.764628
375.288177	2692.558407
375.674540	2717.970864
376.060841	2736.847464
376.447079	2755.603077
376.833254	2776.443207
377.219367	2787.632048
377.605417	2827.283244
377.991404	2834.227433
378.377329	2858.614015
378.763191	2877.286449
379.148991	2911.899011
379.534727	2937.732404
379.920402	2965.993112
380.306013	2978.497694
380.691563	3025.763553
381.077049	3050.568550
381.462474	3068.404153
381.847835	3105.166767
382.233134	3126.130405
382.618371	3128.779532
383.003545	3198.420552
383.388657	3206.110832
383.773706	3234.454719
384.158693	3252.817122
384.543618	3276.916358
384.928480	3316.166782
385.313280	3360.080273
385.698017	3356.067515
386.082692	3413.214035
386.467305	3419.578491
386.851856	3449.583439
387.236344	3472.220740
387.620770	3503.226357
388.005133	3527.716282
388.389435	3556.768452
388.773674	3566.031572
389.157851	3612.589149
389.541965	3625.391159
389.926018	3589.757763
390.310008	3662.489010
390.693936	3679.150023
391.077802	3721.110068
391.461606	3710.442986
391.845348	3771.188890
392.229027	3773.175104
392.612645	3784.734470
392.996200	3865.357644
393.379694	3900.774270
393.763125	3967.138540
394.146494	3936.384981
394.529801	3998.940659
394.913047	4043.401115
395.296230	4010.189994
395.679351	4068.019590
396.062410	4090.714865
396.445408	4072.269283
396.828343	4102.811113
397.211217	4128.233652
397.594028	4048.142320
397.976778	4117.566571
398.359466	4139.787977
398.742092	4169.717307
399.124656	4093.290894
399.507158	4170.687729
399.889598	4195.674208
400.271977	4261.486472
400.654294	4234.115527
401.036549	4236.661310
401.418742	4207.462947
401.800874	4311.852640
402.182944	4334.439530
402.564952	4395.127460
402.946898	4383.868043
403.328783	4377.208679
403.710606	4293.664157
404.092367	4488.542562
404.474067	4450.060914
404.855705	4460.864106
405.237282	4388.896594
405.618797	4494.624714
406.000250	4524.606976
406.381642	4606.293833
406.762972	4574.287547
407.144240	4583.419597
407.525447	4583.152416
407.906593	4644.115090
408.287677	4685.016492
408.668700	4614.689875
409.049661	4666.817926
409.430560	4706.272517
409.811399	4634.511692
410.192176	4794.664108
410.572891	4733.986260
410.953545	4839.303526
411.334138	4716.485894
411.714669	4789.398623
412.095139	4679.088095
412.475547	4824.474972
412.855894	4802.634172
413.236180	4809.785049
413.616405	4764.875930
413.996568	4853.567470
414.376670	4794.825425
414.756711	4748.401439
415.136691	4782.973672
415.516609	4858.354046
415.896466	4895.925766
416.276262	4931.334830
416.655997	4913.312705
417.035670	5095.754583
417.415283	5185.741700
417.794834	5127.455879
418.174324	5082.314867
418.553753	4991.344726
418.933121	5176.576882
419.312428	5244.362758
419.691674	5177.023025
420.070859	5304.443229
420.449983	5217.964756
420.829045	5334.077652
421.208047	5237.287498
421.586988	5312.897244
421.965867	5323.430735
422.344686	5457.636333
422.723444	5309.859949
423.102141	5133.502743
423.480777	5427.656591
423.859352	5193.618503
424.237866	5455.486281
424.616319	5446.719714
424.994712	5555.185180
425.373044	5434.452066
425.751314	5577.320887
426.129524	5380.302512
426.507673	5575.692594
426.885762	5655.534389
427.263789	5588.048462
427.641756	5468.381552
428.019662	5591.458803
428.397508	5599.267550
428.775292	5545.110434
429.153016	5645.071474
429.530679	5566.883178
429.908282	5657.381972
430.285824	5524.348442
430.663305	5800.044105
431.040726	5536.616090
431.418086	5537.785638
431.795385	5640.824302
432.172624	5653.318802
432.549802	5644.408562
432.926920	5662.453372
433.303977	5666.745915
433.680974	5708.161514
434.057910	5726.579370
434.434786	5734.670422
434.811601	5696.022416
435.188355	5937.400424
435.565050	5813.050282
435.941683	5785.278565
436.318257	6005.287122
436.694770	5986.937322
437.071222	6022.719432
437.447614	5957.161747
437.823946	5868.326534
438.200218	6022.908475
438.576429	5884.974944
438.952580	5985.309029
439.328670	6028.448703
439.704700	5937.120640
440.080670	5919.090953
440.456580	6194.705957
440.832429	6082.825109
441.208218	5924.542961
441.583947	6076.195992
441.959616	6080.259162
442.335224	6008.543707
442.710773	6150.127034
443.086261	6173.507905
443.461689	5970.036854
443.837057	6114.954903
444.212365	6273.486589
444.587612	6161.220093
444.962800	6315.383619
445.337927	6301.626310
445.712995	5904.156535
446.088002	6484.111038
446.462949	6316.028886
446.837837	6244.076497
447.212664	6419.906902
447.587431	6561.414612
447.962139	7098.428566
448.336786	8029.769136
448.711374	7768.559229
449.085901	6841.339802
449.460369	6760.623368
449.834776	6701.183123
450.209124	7095.187104
450.583412	7239.454845
450.957640	7388.655355
451.331808	7156.953842
451.705917	6704.096909
452.079965	6627.115970
452.453954	6839.643454
452.827883	6717.133333
453.201752	6810.419885
453.575562	6609.058557
453.949311	6810.739998
454.323001	6699.461568
454.696632	6779.605832
455.070202	6915.878303
455.443713	7069.315903
455.817164	7169.778537
456.190556	7248.667554
456.563888	7321.247566
456.937160	7367.611058
457.310373	7026.329984
457.683526	7046.156842
458.056619	6941.016017
458.429653	6931.127793
458.802628	6867.420212
459.175542	6975.802499
459.548398	7328.912641
459.921194	7491.066395
460.293930	7489.433061
460.666607	8018.383690
461.039224	8333.400353
461.411782	8456.442316
461.784280	8476.924524
462.156719	8364.663069
462.529099	8246.745439
462.901419	7830.898138
463.273680	7724.791932
463.645882	7737.551092
464.018024	7605.455217
464.390106	7774.056607
464.762130	8155.256058
465.134094	8625.759550
465.505999	9647.661928
465.877845	10867.492610
466.249631	11523.127435
466.621358	11134.472117
466.993026	10514.155616
467.364634	10252.857489
467.736184	9884.102126
468.107674	9553.062156
468.479105	9590.464997
468.850477	9346.558850
469.221790	9120.715158
469.593043	8792.644427
469.964238	8652.029002
470.335373	8668.851333
470.706449	8720.283705
471.077467	8705.697126
471.448425	10014.572229
471.819324	11086.286248
472.190164	11109.132758
472.560945	9855.090286
472.931667	9072.211696
473.302330	8937.522148
473.672934	8582.030061
474.043479	8933.927805
474.413965	8877.723981
474.784393	8749.640864
475.154761	8911.214886
475.525070	8993.564655
475.895321	8821.658788
476.265513	8997.166559
476.635645	9162.710490
477.005719	9164.479935
477.375734	9269.101521
477.745691	9506.096246
478.115588	9638.766812
478.485427	9870.175938
478.855207	10401.846270
479.224928	11201.907632
479.594591	11824.984165
479.964194	11633.654733
480.333739	11571.202398
480.703226	11479.352575
481.072653	11563.028168
481.442022	11789.476798
481.811333	11967.016154
482.180584	11771.971392
482.549777	11469.265227
482.918912	11294.279215
483.287988	11302.929835
483.657005	11305.841101
484.025964	10983.358490
484.394864	11103.927766
484.763706	11061.093082
485.132489	10812.002109
485.501213	10767.798751
485.869879	10828.708492
486.238487	10652.462192
486.607036	10758.782647
486.975527	10526.198932
487.343959	10695.982473
487.712333	10729.536393
488.080648	10639.075408
488.448905	10662.604994
488.817104	10588.570608
489.185244	10834.987250
489.553326	10948.587131
489.921350	11439.419075
490.289315	12388.643139
490.657222	12701.532434
491.025070	12579.947365
491.392861	12436.337495
491.760593	12062.861092
492.128267	11728.761141
492.495883	11389.183977
492.863440	11050.572194
493.230939	10711.032838
493.598380	10617.683272
493.965763	10450.818559
494.333088	10345.660090
494.700354	10236.211599
495.067563	10262.896947
495.434713	10073.788142
495.801805	10153.289659
496.168839	10055.660153
496.535815	9946.151168
496.902733	9923.753322
497.269593	9820.956633
497.636395	9875.839675
498.003139	9809.049427
498.369825	9662.482921
498.736453	9754.914997
499.103023	9650.767279
499.469535	9638.146750
499.835989	9575.144930
500.202385	9498.721038
500.568723	9318.698913
500.935003	9470.735072
501.301226	9237.012057
501.667390	9419.000231
502.033497	9440.258777
502.399546	9279.962687
502.765537	9152.615579
503.131470	9158.937186
503.497345	9243.079085
503.863163	8883.521308
504.228923	9065.905213
504.594625	9066.560563
504.960269	8817.131832
505.325856	8929.453781
505.691385	8705.147641
506.056856	8764.446733
506.422270	8719.658602
506.787625	8586.297398
507.152924	8603.646528
507.518164	8530.335549
507.883347	8411.384483
508.248472	8288.508878
508.613540	8388.888333
508.978550	8235.478460
509.343503	8162.961462
509.708398	8182.289246
510.073236	8182.379987
510.438016	8117.865820
510.802738	8012.883792
511.167403	7981.694173
511.532010	7836.874426
511.896561	7927.952952
512.261053	7901.839775
512.625488	7744.787668
512.989866	7655.665109
513.354186	7587.649862
513.718449	7453.908050
514.082655	7503.787747
514.446803	7366.045780
514.810894	7367.359000
515.174927	7211.680608
515.538904	7169.339957
515.902822	7168.848444
516.266684	7043.192643
516.630488	6938.026613
516.994235	6908.366984
517.357925	6855.830599
517.721558	6831.118863
518.085133	6763.625375
518.448651	6705.331992
518.812112	6581.833805
519.175516	6510.204050
519.538863	6498.110322
519.902152	6396.813377
520.265385	6384.759978
520.628560	6289.938395
520.991678	6193.380134
521.354739	6166.727553
521.717743	6068.752728
522.080690	6000.180433
522.443580	5966.896215
522.806413	5883.215582
523.169189	5832.340257
523.531908	5783.201610
523.894569	5652.393750
524.257174	5583.826496
524.619722	5556.299275
524.982213	5493.501622
525.344647	5433.111119
525.707025	5362.784503
526.069345	5334.362477
526.431608	5234.603084
526.793815	5217.684972
527.155964	5094.884984
527.518057	5054.659097
527.880093	4973.990553
528.242072	4944.756902
528.603995	4856.524107
528.965860	4778.779432
529.327669	4740.335593
529.689421	4678.704967
530.051117	4620.255309
530.412755	4584.107715
530.774337	4519.291079
531.135862	4454.101398
531.497331	4420.708795
531.858743	4329.562213
532.220098	4319.275739
532.581396	4247.782095
532.942638	4202.275599
533.303824	4154.107374
533.664953	4109.841002
534.026025	4049.906724
534.387040	4020.811705
534.747999	3984.371724
535.108902	3951.889049
535.469748	3876.435579
535.830537	3854.294832
536.191270	3812.445693
536.551947	3779.274901
536.912567	3744.243923
537.273131	3698.984443
537.633638	3656.467352
537.994089	3626.101962
538.354483	3585.180395
538.714821	3580.189653
539.075103	3541.715567
539.435328	3505.159640
539.795497	3466.751088
540.155609	3446.712502
540.515665	3430.474945
540.875665	3374.757593
541.235609	3354.242617
541.595496	3328.159687
541.955328	3312.451452
542.315102	3281.208901
542.674821	3251.937441
543.034483	3229.118658
543.394090	3205.964638
543.753640	3178.810463
544.113134	3167.704801
544.472571	3142.551964
544.831953	3129.283647
545.191278	3100.299533
545.550548	3081.168354
545.909761	3071.144020
546.268918	3051.486040
546.628019	3037.784184
546.987064	3012.505318
547.346053	2993.858090
547.704986	2981.144300
548.063863	2967.407156
548.422684	2953.501133
548.781449	2931.302412
549.140158	2924.867379
549.498811	2906.502456
549.857408	2890.998387
550.215949	2879.842314
550.574434	2863.733307
550.932864	2859.380270
551.291237	2848.262005
551.649555	2837.620130
552.007817	2830.297854
552.366022	2819.603046
552.724173	2811.519556
553.082267	2803.763740
553.440305	2797.444654
553.798288	2783.760442
554.156215	2779.934206
554.514086	2773.935233
554.871902	2761.357554
555.229661	2756.641555
555.587365	2749.604104
555.945014	2740.411560
556.302606	2737.117166
556.660143	2730.147771
557.017625	2729.031155
557.375050	2721.093858
557.732421	2719.596636
558.089735	2713.232179
558.446994	2707.664225
558.804197	2704.563915
559.161345	2701.531661
559.518437	2695.383974
559.875474	2692.434899
560.232455	2692.167718
560.589381	2686.882068
560.946251	2685.152952
561.303065	2684.865606
561.659825	2676.860254
562.016528	2675.909997
562.373177	2672.076199
562.729770	2667.486228
563.086307	2666.939263
563.442789	2667.387926
563.799216	2662.117400
564.155587	2660.559683
564.511904	2659.448109
564.868164	2658.737306
565.224370	2655.485762
565.580520	2652.277067
565.936615	2653.224804
566.292654	2646.394041
566.648638	2650.305976
567.004567	2645.698362
567.360441	2646.399082
567.716260	2642.058648
568.072023	2644.329688
568.427732	2640.876498
568.783385	2637.100674
569.138982	2634.811990
569.494525	2636.896507
569.850013	2631.207565
570.205445	2636.004223
570.560823	2635.628657
570.916145	2635.421969
571.271412	2631.552884
571.626625	2630.892493
571.981782	2629.705301
572.336884	2632.016670
572.691931	2630.400980
573.046923	2628.883593
573.401860	2625.621966
573.756743	2625.843777
574.111570	2623.343365
574.466342	2623.829836
574.821059	2622.584671
575.175722	2624.182717
575.530330	2623.285392
575.884882	2622.103241
576.239380	2618.720627
576.593823	2623.676081
576.948211	2619.746502
577.302544	2618.120729
577.656823	2618.728188
578.011047	2621.362191
578.365216	2616.210132
578.719330	2616.041253
579.073389	2614.796088
579.427394	2617.036881
579.781344	2614.075203
580.135239	2614.876747
580.489080	2613.734926
580.842866	2612.845162
581.196597	2613.765172
581.550273	2613.561006
581.903895	2612.396499
582.257463	2613.860954
582.610975	2610.357353
582.964434	2612.721654
583.317837	2611.650408
583.671186	2612.257867
584.024481	2609.621344
584.377721	2608.885336
584.730906	2604.837289
585.084037	2605.974069
585.437113	2606.334512
585.790135	2607.650253
586.143103	2605.989193
586.496016	2607.219234
586.848874	2603.360231
587.201679	2602.848554
587.554428	2601.815117
587.907124	2604.597834
588.259765	2604.174377
588.612352	2603.226640
588.964884	2603.153544
589.317362	2603.163626
589.669786	2604.204624
590.022155	2605.792588
590.374470	2603.486260
590.726731	2605.558174
591.078937	2603.516507
591.431090	2603.438369
591.783188	2601.890735
592.135232	2601.742021
592.487222	2601.023656
592.839157	2605.346446
593.191038	2601.235385
593.542866	2604.184460
593.894639	2599.002153
594.246358	2598.566094
594.598022	2601.341249
594.949633	2598.800507
595.301190	2600.075919
595.652692	2598.601382
596.004141	2597.464602
596.355535	2600.121290
596.706876	2595.193562
597.058162	2596.423603
597.409395	2595.463263
597.760573	2598.253542
598.111698	2598.472832
598.462768	2596.796649
598.813785	2597.265476
599.164748	2596.842019
599.515657	2595.677513
599.866511	2593.935794
600.217312	2597.262955
600.568060	2594.628952
600.918753	2599.140785
601.269392	2594.172728
601.619978	2592.355392
601.970510	2595.294385
602.320988	2595.649786
602.671412	2598.104828
603.021783	2595.642224
603.372100	2595.783377
603.722363	2594.142481
604.072572	2594.691967
604.422728	2596.879828
604.772830	2591.206009
605.122878	2588.284660
605.472872	2593.628283
605.822813	2588.347675
606.172701	2590.333889
606.522534	2594.172728
606.872314	2597.310846
607.222041	2595.911926
607.571714	2595.490990
607.921333	2596.857142
608.270899	2593.048551
608.620411	2594.250866
608.969870	2595.332193
609.319276	2594.873448
609.668627	2599.002153
610.017926	2599.627257
610.367171	2601.736979
610.716362	2603.156064
611.065500	2597.381422
611.414585	2596.350507
611.763616	2597.759509
612.112594	2597.426793
612.461518	2596.917636
612.810389	2596.209354
613.159207	2596.108531
613.507971	2596.743717
613.856682	2595.460743
614.205340	2595.004518
614.553945	2598.266145
614.902496	2594.966710
615.250994	2595.954776
615.599439	2595.649786
615.947830	2596.597523
616.296169	2596.849581
616.644454	2597.421752
616.992686	2592.816658
617.340864	2595.364961
617.688990	2589.968406
618.037063	2596.408480
618.385082	2593.305650
618.733048	2594.936463
619.080961	2596.408480
619.428821	2593.857656
619.776628	2596.214395
620.124382	2596.383274
620.472083	2595.163315
620.819731	2597.673809
621.167326	2593.519899
621.514868	2594.044179
621.862357	2590.573344
622.209793	2591.909250
622.557176	2594.465115
622.904506	2593.035948
623.251783	2587.372212
623.599007	2589.159301
623.946179	2589.582757
624.293297	2587.999835
624.640363	2590.059147
624.987376	2591.649631
625.334336	2589.184506
625.681243	2589.809609
626.028097	2586.719382
626.374899	2590.157449
626.721647	2588.844228
627.068343	2589.174424
627.414987	2587.707448
627.761577	2585.592684
628.108115	2585.945565
628.454600	2585.564958
628.801032	2585.259968
629.147412	2587.341965
629.493739	2588.816502
629.840014	2586.653847
630.186236	2588.866914
630.532405	2584.753332
630.878521	2587.704928
631.224585	2585.948086
631.570597	2585.154104
631.916556	2584.571851
632.262462	2585.660740
632.608316	2583.848445
632.954117	2583.172930
633.299866	2584.410534
633.645562	2585.441450
633.991206	2585.829618
634.336797	2580.906932
634.682336	2583.238465
635.027823	2582.789803
635.373257	2581.852148
635.718639	2577.589852
636.063968	2583.677046
636.409245	2578.615727
636.754470	2578.867785
637.099642	2580.657395
637.444762	2581.869792
637.789829	2577.010120
638.134845	2580.652353
638.479808	2579.661767
638.824719	2579.255954
639.169577	2575.865778
639.514383	2579.203022
639.859137	2577.264698
640.203839	2578.288052
640.548489	2579.122363
640.893086	2575.510377
641.237632	2575.097002
641.582125	2574.300500
641.926566	2572.500808
642.270955	2578.207394
642.615292	2576.372414
642.959576	2577.549523
643.303809	2575.286045
643.647990	2575.434759
