Dividing Wavelength (nm)	Counts (n)	Blue Motor Position (mm): 0.000000	Red Motor Position (mm): 5.300000	
326.493990	2129.022942
326.888308	2129.022942
327.282561	2129.022942
327.676750	2096.603282
328.070874	2094.470874
328.464933	2098.357603
328.858929	2105.183326
329.252859	2114.254882
329.646726	2125.844495
330.040528	2137.146762
330.434265	2155.683084
330.827938	2174.484068
331.221547	2190.378826
331.615091	2208.617720
332.008571	2228.830227
332.401986	2246.996024
332.795338	2267.039652
333.188625	2290.029834
333.581847	2306.048101
333.975006	2324.430668
334.368100	2344.771724
334.761129	2360.043899
335.154095	2377.972763
335.546996	2393.123951
335.939833	2408.398647
336.332606	2421.881213
336.725315	2434.637853
337.117960	2446.703855
337.510540	2455.425051
337.903056	2465.373768
338.295508	2469.295786
338.687896	2479.282311
339.080220	2488.328662
339.472480	2496.845691
339.864676	2499.734272
340.256807	2505.546723
340.648875	2504.750221
341.040879	2512.909328
341.432818	2509.123422
341.824694	2510.837414
342.216506	2512.329595
342.608253	2513.829339
342.999937	2511.376817
343.391557	2513.055522
343.783113	2510.807167
344.174605	2512.584174
344.566033	2510.565192
344.957397	2508.780623
345.348697	2504.288955
345.739934	2503.177381
346.131106	2501.682678
346.522215	2497.654797
346.913260	2497.894251
347.304241	2495.776967
347.695159	2497.516165
348.086012	2493.647079
348.476802	2490.461070
348.867528	2491.582727
349.258191	2487.290184
349.648789	2487.595174
350.039324	2486.188692
350.429796	2488.789927
350.820203	2485.193064
351.210548	2484.560399
351.600828	2483.524442
351.991045	2481.830615
352.381198	2477.810294
352.771288	2480.436736
353.161314	2479.849441
353.551276	2480.948413
353.941175	2481.384472
354.331010	2480.719040
354.720782	2480.635861
355.110490	2478.977322
355.500135	2480.766931
355.889717	2481.036633
356.279235	2478.632002
356.668689	2483.920173
357.058080	2480.436736
357.447408	2477.081848
357.836672	2477.152424
358.225873	2477.699389
358.615010	2477.132259
359.004084	2483.874802
359.393095	2481.581078
359.782043	2481.523104
360.170927	2484.424288
360.559748	2486.544093
360.948505	2484.063846
361.337199	2483.244658
361.725830	2486.423106
362.114398	2487.302787
362.502903	2487.965699
362.891344	2487.892602
363.279722	2485.172900
363.668037	2488.870586
364.056289	2486.929742
364.444478	2491.910402
364.832603	2487.822026
365.220665	2489.651965
365.608665	2493.727738
365.996601	2492.409476
366.384474	2490.650113
366.772284	2493.843684
367.160031	2497.463233
367.547715	2497.329642
367.935336	2496.485249
368.322893	2500.533295
368.710388	2502.973214
369.097820	2509.206601
369.485189	2512.949657
369.872495	2515.646675
370.259738	2521.302849
370.646918	2527.299302
371.034035	2530.485311
371.421090	2535.682741
371.808081	2541.318751
372.195010	2546.758156
372.581875	2551.322920
372.968678	2560.122254
373.355418	2560.961607
373.742096	2571.537947
374.128710	2573.380489
374.515262	2580.198650
374.901751	2580.909452
375.288177	2584.251737
375.674540	2591.216091
376.060841	2593.850094
376.447079	2600.842175
376.833254	2602.369644
377.219367	2597.114241
377.605417	2607.836776
377.991404	2604.824686
378.377329	2605.469954
378.763191	2603.768564
379.148991	2609.762496
379.534727	2612.116715
379.920402	2610.942126
380.306013	2606.422732
380.691563	2610.349791
381.077049	2606.591611
381.462474	2605.651435
381.847835	2602.578852
382.233134	2598.649273
382.618371	2591.198447
383.003545	2593.285485
383.388657	2588.324990
383.773706	2582.792323
384.158693	2577.685634
384.543618	2572.752865
384.928480	2568.382185
385.313280	2566.327915
385.698017	2557.208467
386.082692	2560.596123
386.467305	2550.828887
386.851856	2546.924514
387.236344	2544.900490
387.620770	2538.551157
388.005133	2535.350024
388.389435	2531.758202
388.773674	2527.223684
389.157851	2524.970289
389.541965	2521.504495
389.926018	2522.558097
390.310008	2519.258661
390.693936	2517.458969
391.077802	2513.897394
391.461606	2515.679442
391.845348	2513.902435
392.229027	2513.088289
392.612645	2510.083761
392.996200	2512.012003
393.379694	2510.824811
393.763125	2512.117867
394.146494	2510.224914
394.529801	2509.756086
394.913047	2510.245078
395.296230	2509.350273
395.679351	2509.504029
396.062410	2510.053514
396.445408	2508.367248
396.828343	2509.693072
397.211217	2507.076713
397.594028	2507.258195
397.976778	2506.426404
398.359466	2509.589728
398.742092	2505.100581
399.124656	2511.626354
399.507158	2513.514267
399.889598	2510.378669
400.271977	2512.231293
400.654294	2509.383041
401.036549	2508.941940
401.418742	2513.100892
401.800874	2512.309431
402.182944	2509.115860
402.564952	2510.381189
402.946898	2510.963443
403.328783	2512.932013
403.710606	2509.846827
404.092367	2513.423526
404.474067	2513.267250
404.855705	2512.616941
405.237282	2512.755573
405.618797	2511.989317
406.000250	2515.651716
406.381642	2511.593587
406.762972	2511.404544
407.144240	2512.521159
407.525447	2514.726664
407.906593	2513.168947
408.287677	2513.635254
408.668700	2516.110461
409.049661	2516.118023
409.430560	2514.174658
409.811399	2514.540141
410.192176	2516.879237
410.572891	2516.571726
410.953545	2516.612056
411.334138	2517.688342
411.714669	2517.743795
412.095139	2516.760770
412.475547	2513.620131
412.855894	2518.835204
413.236180	2515.412261
413.616405	2519.273785
413.996568	2516.591891
414.376670	2518.066428
414.756711	2516.551562
415.136691	2519.225894
415.516609	2518.973836
415.896466	2519.964423
416.276262	2519.856038
416.655997	2515.288753
417.035670	2513.375635
417.415283	2516.095337
417.794834	2511.891015
418.174324	2519.062056
418.553753	2520.818898
418.933121	2519.808147
419.312428	2519.755215
419.691674	2518.562982
420.070859	2517.685821
420.449983	2520.972654
420.829045	2520.481141
421.208047	2519.581295
421.586988	2520.453415
421.965867	2517.700945
422.344686	2519.235976
422.723444	2520.579444
423.102141	2518.555420
423.480777	2521.229752
423.859352	2521.307890
424.237866	2520.244207
424.616319	2518.837725
424.994712	2522.033817
425.373044	2521.101203
425.751314	2520.778569
426.129524	2519.563651
426.507673	2519.276305
426.885762	2518.968795
427.263789	2520.251769
427.641756	2519.394773
428.019662	2520.881913
428.397508	2521.323014
428.775292	2524.672861
429.153016	2521.552386
429.530679	2523.152953
429.908282	2524.226718
430.285824	2522.081708
430.663305	2524.687984
431.040726	2524.408200
431.418086	2522.938704
431.795385	2521.980884
432.172624	2521.355781
432.549802	2522.240504
432.926920	2523.856194
433.303977	2521.570030
433.680974	2523.752850
434.057910	2522.648837
434.434786	2522.558097
434.811601	2523.969620
435.188355	2523.888961
435.565050	2522.661440
435.941683	2524.451050
436.318257	2522.076666
436.694770	2520.443333
437.071222	2521.872500
437.447614	2520.178672
437.823946	2520.274454
438.200218	2522.217819
438.576429	2525.809641
438.952580	2524.325021
439.328670	2523.657068
439.704700	2523.631862
440.080670	2526.505320
440.456580	2524.335103
440.832429	2526.613705
441.208218	2523.157994
441.583947	2524.940042
441.959616	2524.413241
442.335224	2525.197141
442.710773	2524.952645
443.086261	2527.362316
443.461689	2523.999867
443.837057	2525.474404
444.212365	2525.242511
444.587612	2523.422654
444.962800	2526.641431
445.337927	2526.003725
445.712995	2525.061029
446.088002	2525.156811
446.462949	2526.608664
446.837837	2526.722090
447.212664	2524.330062
447.587431	2526.054137
447.962139	2527.432892
448.336786	2527.218643
448.711374	2528.458767
449.085901	2529.053623
449.460369	2526.459950
449.834776	2526.656555
450.209124	2523.145391
450.583412	2527.692512
450.957640	2527.480783
451.331808	2530.230733
451.705917	2529.547656
452.079965	2527.395084
452.453954	2527.722759
452.827883	2528.720907
453.201752	2529.764426
453.575562	2527.039682
453.949311	2527.911802
454.323001	2529.235105
454.696632	2527.720238
455.070202	2530.177801
455.443713	2528.052954
455.817164	2524.529188
456.190556	2525.663447
456.563888	2526.011287
456.937160	2523.556245
457.310373	2530.087060
457.683526	2527.989940
458.056619	2531.483459
458.429653	2529.877852
458.802628	2529.366175
459.175542	2526.618746
459.548398	2531.422966
459.921194	2529.978675
460.293930	2529.726617
460.666607	2532.572349
461.039224	2531.027235
461.411782	2530.951618
461.784280	2531.140661
462.156719	2533.837678
462.529099	2530.981865
462.901419	2529.540095
463.273680	2527.793335
463.645882	2530.384488
464.018024	2529.610671
464.390106	2530.399611
464.762130	2529.393901
465.134094	2531.687626
465.505999	2531.574200
465.877845	2531.624612
466.249631	2531.942204
466.621358	2532.395908
466.993026	2532.559746
467.364634	2536.184335
467.736184	2530.076977
468.107674	2532.446320
468.479105	2528.912471
468.850477	2529.469518
469.221790	2532.428676
469.593043	2530.553367
469.964238	2530.548325
470.335373	2531.775846
470.706449	2531.501103
471.077467	2531.372554
471.448425	2532.368182
471.819324	2531.841381
472.190164	2532.796680
472.560945	2531.808614
472.931667	2532.264838
473.302330	2532.443799
473.672934	2529.797193
474.043479	2530.520599
474.413965	2530.717204
474.784393	2527.508510
475.154761	2533.182328
475.525070	2526.643952
475.895321	2528.804086
476.265513	2525.600433
476.635645	2535.405477
477.005719	2528.841895
477.375734	2532.108562
477.745691	2529.129241
478.115588	2533.230219
478.485427	2532.552184
478.855207	2534.424973
479.224928	2532.975641
479.594591	2534.729963
479.964194	2536.625436
480.333739	2535.178625
480.703226	2532.383305
481.072653	2533.058820
481.442022	2532.393388
481.811333	2534.747607
482.180584	2532.111083
482.549777	2533.479756
482.918912	2531.697708
483.287988	2534.062010
483.657005	2534.798018
484.025964	2532.731145
484.394864	2533.285672
484.763706	2531.430527
485.132489	2534.210724
485.501213	2533.628470
485.869879	2534.389685
486.238487	2532.889941
486.607036	2535.317257
486.975527	2533.005888
487.343959	2533.459592
487.712333	2533.588141
488.080648	2535.203831
488.448905	2532.756351
488.817104	2531.478418
489.185244	2535.092926
489.553326	2537.195087
489.921350	2533.593182
490.289315	2536.103677
490.657222	2536.000333
491.025070	2536.209541
491.392861	2535.528985
491.760593	2533.394057
492.128267	2535.337422
492.495883	2533.159643
492.863440	2536.799356
493.230939	2533.358769
493.598380	2533.467153
493.965763	2530.099663
494.333088	2533.618388
494.700354	2529.807276
495.067563	2534.724921
495.434713	2529.787111
495.801805	2534.994623
496.168839	2534.112421
496.535815	2536.937988
496.902733	2534.704757
497.269593	2536.567463
497.636395	2536.736342
498.003139	2536.343132
498.369825	2535.390354
498.736453	2534.581248
499.103023	2534.888759
499.469535	2534.919006
499.835989	2536.436393
500.202385	2535.332380
500.568723	2535.710467
500.935003	2536.892618
501.301226	2534.518234
501.667390	2534.888759
502.033497	2538.594007
502.399546	2536.146527
502.765537	2534.253573
503.131470	2534.281300
503.497345	2535.337422
503.863163	2535.120652
504.228923	2535.738193
504.594625	2536.973276
504.960269	2533.772143
505.325856	2536.557381
505.691385	2536.552340
506.056856	2537.464788
506.422270	2536.055786
506.787625	2532.713501
507.152924	2535.501259
507.518164	2536.801877
507.883347	2537.237937
508.248472	2537.994110
508.613540	2534.838347
508.978550	2537.810107
509.343503	2537.154757
509.708398	2535.896990
510.073236	2535.929757
510.438016	2538.125180
510.802738	2537.868081
511.167403	2537.794984
511.532010	2538.551157
511.896561	2538.094933
512.261053	2537.878163
512.625488	2536.736342
512.989866	2532.360620
513.354186	2536.096115
513.718449	2531.801052
514.082655	2534.770292
514.446803	2536.660724
514.810894	2537.275745
515.174927	2537.895807
515.538904	2535.261804
515.902822	2537.820190
516.266684	2537.079140
516.630488	2536.776671
516.994235	2537.608461
517.357925	2534.966897
517.721558	2537.742052
518.085133	2537.520241
518.448651	2537.129552
518.812112	2535.463450
519.175516	2534.475384
519.538863	2535.471012
519.902152	2536.658204
520.265385	2538.021836
520.628560	2537.812628
520.991678	2535.460930
521.354739	2537.608461
521.717743	2535.760878
522.080690	2536.345652
522.443580	2536.708615
522.806413	2537.001002
523.169189	2536.567463
523.531908	2536.822041
523.894569	2538.316743
524.257174	2537.873122
524.619722	2538.712474
524.982213	2540.857485
525.344647	2539.017464
525.707025	2536.862371
526.069345	2536.943029
526.431608	2538.987217
526.793815	2540.897814
527.155964	2538.457896
527.518057	2537.510159
527.880093	2536.320447
528.242072	2536.590148
528.603995	2538.047042
528.965860	2537.452186
529.327669	2537.696682
529.689421	2537.520241
530.051117	2537.502597
530.412755	2538.097453
530.774337	2539.995448
531.135862	2537.984027
531.497331	2535.133255
531.858743	2533.915816
532.220098	2537.056455
532.581396	2533.326001
532.942638	2534.616537
533.303824	2537.207690
533.664953	2539.834131
534.026025	2538.052083
534.387040	2535.523944
534.747999	2536.817000
535.108902	2539.645088
535.469748	2539.763555
535.830537	2537.404295
536.191270	2539.357742
536.551947	2539.826569
536.912567	2539.665252
537.273131	2537.794984
537.633638	2539.735828
537.994089	2537.671476
538.354483	2537.285828
538.714821	2538.185673
539.075103	2536.756506
539.435328	2538.024357
539.795497	2539.158616
540.155609	2539.859337
540.515665	2535.445806
540.875665	2538.271373
541.235609	2535.760878
541.595496	2538.478060
541.955328	2539.962680
542.315102	2537.434542
542.674821	2539.448482
543.034483	2540.796991
543.394090	2539.592155
543.753640	2541.681714
544.113134	2538.372196
544.472571	2540.557536
544.831953	2540.315561
545.191278	2538.558719
545.550548	2537.399253
545.909761	2540.900335
546.268918	2537.928575
546.628019	2538.021836
546.987064	2541.580891
547.346053	2540.310520
547.704986	2537.394212
548.063863	2538.888914
548.422684	2539.629964
548.781449	2541.109543
549.140158	2536.542257
549.498811	2540.285314
549.857408	2540.159285
550.215949	2537.656352
550.574434	2537.618544
550.932864	2536.277597
551.291237	2535.009747
551.649555	2538.069727
552.007817	2536.517052
552.366022	2539.685417
552.724173	2537.278266
553.082267	2540.645757
553.440305	2538.460416
553.798288	2540.948226
554.156215	2538.624254
554.514086	2541.222969
554.871902	2537.273225
555.229661	2539.569470
555.587365	2542.190870
555.945014	2539.723225
556.302606	2536.285158
556.660143	2538.321785
557.017625	2540.068544
557.375050	2537.510159
557.732421	2536.469161
558.089735	2543.821683
558.446994	2538.528472
558.804197	2541.059131
559.161345	2539.516538
559.518437	2538.939326
559.875474	2539.125849
560.232455	2538.410005
560.589381	2543.655325
560.946251	2540.852444
561.303065	2537.419418
561.659825	2542.536189
562.016528	2540.902855
562.373177	2539.884542
562.729770	2537.167360
563.086307	2540.769265
563.442789	2540.126518
563.799216	2540.439069
564.155587	2539.433359
564.511904	2538.783050
564.868164	2539.952598
565.224370	2538.916641
565.580520	2539.236754
565.936615	2541.217928
566.292654	2541.694317
566.648638	2539.514018
567.004567	2537.409336
567.360441	2538.752803
567.716260	2540.093750
568.072023	2538.460416
568.427732	2536.932947
568.783385	2536.817000
569.138982	2535.864222
569.494525	2538.820859
569.850013	2533.830117
570.205445	2540.640715
570.560823	2539.244316
570.916145	2536.554860
571.271412	2539.612320
571.626625	2539.168698
571.981782	2538.830941
572.336884	2542.115253
572.691931	2537.225334
573.046923	2540.290355
573.401860	2538.941847
573.756743	2539.677855
574.111570	2537.021167
574.466342	2538.296579
574.821059	2537.890766
575.175722	2542.074924
575.530330	2536.577545
575.884882	2537.507638
576.239380	2540.494522
576.593823	2541.119625
576.948211	2541.664070
577.302544	2542.029553
577.656823	2537.668955
578.011047	2540.527289
578.365216	2540.640715
578.719330	2539.287166
579.073389	2538.503266
579.427394	2536.103677
579.781344	2537.149716
580.135239	2540.718853
580.489080	2541.248174
580.842866	2539.246836
581.196597	2541.313709
581.550273	2537.522762
581.903895	2541.379244
582.257463	2542.057280
582.610975	2539.236754
582.964434	2540.371014
583.317837	2538.568801
583.671186	2541.427135
584.024481	2540.602907
584.377721	2541.296065
584.730906	2539.972763
585.084037	2538.626774
585.437113	2538.974614
585.790135	2538.379758
586.143103	2538.102494
586.496016	2541.845551
586.848874	2533.323481
587.201679	2537.621064
587.554428	2536.980838
587.907124	2539.156096
588.259765	2535.042514
588.612352	2540.993596
588.964884	2541.301107
589.317362	2539.839172
589.669786	2536.058307
590.022155	2540.043339
590.374470	2538.750283
590.726731	2539.738349
591.078937	2538.830941
591.431090	2536.862371
591.783188	2537.590817
592.135232	2538.851106
592.487222	2540.048380
592.839157	2540.549975
593.191038	2537.825231
593.542866	2537.409336
593.894639	2538.664583
594.246358	2539.781199
594.598022	2537.701723
594.949633	2541.540561
595.301190	2538.266332
595.652692	2541.175078
596.004141	2539.503935
596.355535	2540.181970
596.706876	2539.267001
597.058162	2539.524100
597.409395	2538.725077
597.760573	2539.725746
598.111698	2536.869932
598.462768	2540.383617
598.813785	2542.004347
599.164748	2539.130890
599.515657	2537.051414
599.866511	2539.904707
600.217312	2541.412012
600.568060	2538.760365
600.918753	2539.503935
601.269392	2540.108874
601.619978	2538.649460
601.970510	2540.398740
602.320988	2541.543082
602.671412	2541.555685
603.021783	2537.694161
603.372100	2540.514687
603.722363	2537.968904
604.072572	2538.321785
604.422728	2541.444779
604.772830	2534.671989
605.122878	2533.820034
605.472872	2534.752648
605.822813	2534.089736
606.172701	2535.196269
606.522534	2539.768596
606.872314	2536.736342
607.222041	2538.195756
607.571714	2542.720191
607.921333	2538.914120
608.270899	2536.799356
608.620411	2539.221631
608.969870	2539.735828
609.319276	2542.087527
609.668627	2543.597352
610.017926	2546.385110
610.367171	2548.487271
610.716362	2546.828732
611.065500	2544.376210
611.414585	2541.283462
611.763616	2542.347146
612.112594	2542.221117
612.461518	2543.045346
612.810389	2539.516538
613.159207	2542.947043
613.507971	2539.771116
613.856682	2539.763555
614.205340	2539.597197
614.553945	2541.114584
614.902496	2537.953780
615.250994	2540.739018
615.599439	2539.259439
615.947830	2540.025695
616.296169	2540.469316
616.644454	2538.220962
616.992686	2539.481250
617.340864	2542.233720
617.688990	2540.988555
618.037063	2541.490150
618.385082	2539.627443
618.733048	2540.481919
619.080961	2536.920344
619.428821	2540.262629
619.776628	2536.474202
620.124382	2539.251877
620.472083	2539.992927
620.819731	2541.200283
621.167326	2538.707433
621.514868	2541.941333
621.862357	2538.848585
622.209793	2540.537372
622.557176	2539.093081
622.904506	2535.965045
623.251783	2534.127545
623.599007	2534.445137
623.946179	2535.163502
624.293297	2536.612833
624.640363	2539.209028
624.987376	2538.765406
625.334336	2539.279604
625.681243	2541.807742
626.028097	2536.365817
626.374899	2539.841693
626.721647	2538.626774
627.068343	2538.044521
627.414987	2538.906558
627.761577	2537.810108
628.108115	2537.784902
628.454600	2541.051569
628.801032	2538.346990
629.147412	2538.329346
629.493739	2537.941177
629.840014	2542.193391
630.186236	2537.217772
630.532405	2540.131559
630.878521	2538.803215
631.224585	2542.379913
631.570597	2539.335057
631.916556	2542.233720
632.262462	2540.988555
632.608316	2536.736342
632.954117	2539.077958
633.299866	2538.576363
633.645562	2539.466127
633.991206	2540.577701
634.336797	2538.447813
634.682336	2538.679707
635.027823	2539.917310
635.373257	2536.501928
635.718639	2538.208359
636.063968	2536.806918
636.409245	2538.253729
636.754470	2539.773637
637.099642	2538.306661
637.444762	2540.207176
637.789829	2537.517721
638.134845	2538.021836
638.479808	2538.304141
638.824719	2537.938657
639.169577	2537.943698
639.514383	2535.471012
639.859137	2539.007382
640.203839	2539.060314
640.548489	2536.048224
640.893086	2536.307844
641.237632	2534.366999
641.582125	2534.608975
641.926566	2532.627801
642.270955	2537.484953
642.615292	2537.026208
642.959576	2539.294727
643.303809	2540.154244
643.647990	2537.817669
643.992118	2536.847247
644.336195	2536.433873
