Dividing Wavelength (nm)	Counts (n)	Blue Motor Position (mm): 31.800000	Red Motor Position (mm): 0.000000	
326.493990	2218.032075
326.888308	2218.032075
327.282561	2218.032075
327.676750	2178.121260
328.070874	2174.224448
328.464933	2173.296876
328.858929	2179.782320
329.252859	2183.958916
329.646726	2194.298323
330.040528	2206.734849
330.434265	2218.823536
330.827938	2236.265928
331.221547	2253.620101
331.615091	2271.062493
332.008571	2287.176541
332.401986	2306.587504
332.795338	2326.053920
333.188625	2347.257013
333.581847	2361.810824
333.975006	2379.787578
334.368100	2402.805487
334.761129	2419.690832
335.154095	2437.581887
335.546996	2464.476442
335.939833	2502.595127
336.332606	2516.579288
336.725315	2532.088398
337.117960	2543.796478
337.510540	2555.686039
337.903056	2560.724672
338.295508	2573.181363
338.687896	2585.181830
339.080220	2592.735999
339.472480	2596.718511
339.864676	2600.375868
340.256807	2607.408277
340.648875	2610.995058
341.040879	2615.476644
341.432818	2618.261882
341.824694	2619.706172
342.216506	2620.056532
342.608253	2622.065432
342.999937	2620.341358
343.391557	2621.372274
343.783113	2621.957047
344.174605	2617.843466
344.566033	2619.058384
344.957397	2617.964454
345.348697	2615.466562
345.739934	2614.130656
346.131106	2614.082765
346.522215	2612.262909
346.913260	2612.099071
347.304241	2607.017588
347.695159	2604.300406
348.086012	2603.332505
348.476802	2603.241764
348.867528	2597.880497
349.258191	2596.663058
349.648789	2595.894282
350.039324	2594.787749
350.429796	2593.804724
350.820203	2593.610639
351.210548	2594.069384
351.600828	2591.647110
351.991045	2589.575196
352.381198	2590.122161
352.771288	2588.720720
353.161314	2587.956985
353.551276	2588.466142
353.941175	2588.665267
354.331010	2585.201995
354.720782	2585.748960
355.110490	2587.092427
355.500135	2587.452870
355.889717	2586.265678
356.279235	2587.379773
356.668689	2587.669640
357.058080	2590.543097
357.447408	2588.488827
357.836672	2587.856162
358.225873	2586.563106
358.615010	2587.702407
359.004084	2589.045875
359.393095	2588.113261
359.782043	2591.700042
360.170927	2589.761718
360.559748	2593.403952
360.948505	2593.436720
361.337199	2592.123499
361.725830	2591.369847
362.114398	2592.491503
362.502903	2593.426637
362.891344	2592.678026
363.279722	2595.695157
363.668037	2594.737337
364.056289	2597.305805
364.444478	2594.220619
364.832603	2595.508634
365.220665	2594.873448
365.608665	2597.719180
365.996601	2597.061309
366.384474	2597.313367
366.772284	2598.984509
367.160031	2601.311002
367.547715	2600.741352
367.935336	2601.242946
368.322893	2597.918305
368.710388	2597.963676
369.097820	2597.300764
369.485189	2595.400249
369.872495	2600.239757
370.259738	2602.851074
370.646918	2601.726897
371.034035	2603.203955
371.421090	2604.237392
371.808081	2606.198401
372.195010	2605.394337
372.581875	2605.227978
372.968678	2607.378031
373.355418	2602.979624
373.742096	2606.909203
374.128710	2605.308637
374.515262	2606.321909
374.901751	2607.486415
375.288177	2607.698144
375.674540	2603.755962
376.060841	2607.496498
376.447079	2608.151848
376.833254	2608.111518
377.219367	2609.008844
377.605417	2607.587238
377.991404	2609.323916
378.377329	2606.984821
378.763191	2609.996910
379.148991	2609.613782
379.534727	2609.785182
379.920402	2609.472630
380.306013	2611.221910
380.691563	2612.726695
381.077049	2610.014554
381.462474	2609.770058
381.847835	2612.154524
382.233134	2614.617127
382.618371	2610.866509
383.003545	2613.137549
383.388657	2614.995214
383.773706	2614.130656
384.158693	2615.088475
384.543618	2614.266767
384.928480	2611.519338
385.313280	2616.686521
385.698017	2614.342385
386.082692	2612.784668
386.467305	2615.801799
386.851856	2616.477313
387.236344	2618.077880
387.620770	2611.854575
388.005133	2615.872375
388.389435	2617.346912
388.773674	2615.123763
389.157851	2618.473610
389.541965	2619.870010
389.926018	2620.532922
390.310008	2618.337499
390.693936	2617.886316
391.077802	2620.732047
391.461606	2620.921090
391.845348	2614.760800
392.229027	2620.933693
392.612645	2620.875720
392.996200	2621.725154
393.379694	2621.193313
393.763125	2622.115844
394.146494	2623.436626
394.529801	2623.915536
394.913047	2626.529374
395.296230	2623.913015
395.679351	2624.243211
396.062410	2622.564507
396.445408	2625.140536
396.828343	2626.849487
397.211217	2628.944087
397.594028	2626.486524
397.976778	2631.762092
398.359466	2628.422327
398.742092	2630.383336
399.124656	2627.754374
399.507158	2628.813017
399.889598	2631.373923
400.271977	2630.242184
400.654294	2633.851650
401.036549	2632.072123
401.418742	2633.259314
401.800874	2632.729993
402.182944	2634.320477
402.564952	2633.430714
402.946898	2634.673358
403.328783	2633.854171
403.710606	2638.900366
404.092367	2638.328195
404.474067	2640.599234
404.855705	2635.754686
405.237282	2639.366672
405.618797	2638.900366
406.000250	2639.432207
406.381642	2641.829276
406.762972	2640.342136
407.144240	2638.731487
407.525447	2642.305665
407.906593	2637.317443
408.287677	2643.210552
408.668700	2646.835142
409.049661	2646.991417
409.430560	2646.502426
409.811399	2646.976294
410.192176	2647.011582
410.572891	2646.726757
410.953545	2648.203815
411.334138	2650.293373
411.714669	2651.372180
412.095139	2653.567603
412.475547	2652.352685
412.855894	2656.047850
413.236180	2655.503406
413.616405	2658.472645
413.996568	2659.213695
414.376670	2660.748726
414.756711	2663.758295
415.136691	2668.565035
415.516609	2672.920592
415.896466	2677.006447
416.276262	2686.193950
416.655997	2694.605116
417.035670	2704.379913
417.415283	2720.549414
417.794834	2736.918040
418.174324	2747.837180
418.553753	2766.701177
418.933121	2792.852163
419.312428	2817.669763
419.691674	2838.754389
420.070859	2890.494272
420.449983	2908.917168
420.829045	2967.462609
421.208047	3001.182887
421.586988	3064.598082
421.965867	3119.526494
422.344686	3188.509643
422.723444	3250.503232
423.102141	3248.501894
423.480777	3395.766601
423.859352	3407.641039
424.237866	3567.488466
424.616319	3625.129019
424.994712	3773.941360
425.373044	3788.134728
425.751314	3957.840132
426.129524	4021.824977
426.507673	4149.547651
426.885762	4280.045480
427.263789	4356.234958
427.641756	4434.660189
428.019662	4572.901230
428.397508	4743.201489
428.775292	4755.181791
429.153016	4996.108616
429.530679	5051.568870
429.908282	5174.078991
430.285824	5169.836860
430.663305	5549.879366
431.040726	5449.867915
431.418086	5544.525661
431.795385	5801.894208
432.172624	5954.636129
432.549802	6033.220156
432.926920	6188.853178
433.303977	6240.857721
433.680974	6453.342355
434.057910	6622.427697
434.434786	6762.269304
434.811601	6814.498179
435.188355	7243.563385
435.565050	7195.591765
435.941683	7270.604135
436.318257	7709.204684
436.694770	7899.304075
437.071222	8075.066424
437.447614	8087.323990
437.823946	8121.006459
438.200218	8352.186213
438.576429	8315.781520
438.952580	8588.505423
439.328670	8743.999813
439.704700	8672.997682
440.080670	8754.475331
440.456580	9304.409763
440.832429	9190.129326
441.208218	8951.047563
441.583947	9318.421650
441.959616	9516.657463
442.335224	9430.904916
442.710773	9633.614753
443.086261	9885.196056
443.461689	9335.778343
443.837057	9950.300038
444.212365	10284.475606
444.587612	10023.769814
444.962800	10308.385798
445.337927	10158.076235
445.712995	9790.886150
446.088002	10861.118071
446.462949	10585.477861
446.837837	10602.229615
447.212664	10658.745991
447.587431	11159.365335
447.962139	11854.535409
448.336786	14030.388150
448.711374	14635.548422
449.085901	12627.949232
449.460369	12272.202567
449.834776	11776.894078
450.209124	12613.559259
450.583412	13025.247608
450.957640	13985.753774
451.331808	13231.425759
451.705917	12215.184597
452.079965	11580.664644
452.453954	12460.280455
452.827883	12113.993515
453.201752	12402.597053
453.575562	11932.106164
453.949311	12349.740554
454.323001	12308.052733
454.696632	12538.965305
455.070202	12831.122856
455.443713	13094.124893
455.817164	13542.613666
456.190556	13557.565728
456.563888	13929.754116
456.937160	14117.337972
457.310373	13444.787555
457.683526	13522.237322
458.056619	13082.472266
458.429653	13214.878172
458.802628	12689.559694
459.175542	13035.912169
459.548398	13977.584584
459.921194	14311.462724
460.293930	14373.932702
460.666607	15262.526808
461.039224	16288.704085
461.411782	16977.620608
461.784280	16896.463072
462.156719	16935.834484
462.529099	16634.348278
462.901419	15552.695624
463.273680	15346.580487
463.645882	15207.547985
464.018024	14952.999962
464.390106	15160.274564
464.762130	15900.714200
465.134094	16636.047147
465.505999	18597.020705
465.877845	21846.677024
466.249631	24686.830333
466.621358	24417.194137
466.993026	22979.192400
467.364634	22411.200555
467.736184	20964.560800
468.107674	20155.463170
468.479105	20284.909918
468.850477	19753.330327
469.221790	19330.682510
469.593043	18663.710129
469.964238	18111.608001
470.335373	17774.717772
470.706449	18190.716308
471.077467	17729.080206
471.448425	19554.353465
471.819324	23531.528942
472.190164	25622.476049
472.560945	22129.642030
472.931667	19733.977338
473.302330	19083.053471
473.672934	18573.556655
474.043479	18940.535011
474.413965	18749.876052
474.784393	18387.129744
475.154761	19051.906702
475.525070	19063.750893
475.895321	18717.111072
476.265513	19298.330905
476.635645	19877.151148
477.005719	19658.717952
477.375734	19873.007320
477.745691	20339.084678
478.115588	20845.322388
478.485427	21355.898012
478.855207	22413.093508
479.224928	24154.426514
479.594591	26368.564297
479.964194	26461.407228
480.333739	26649.976629
480.703226	26212.190226
481.072653	25885.735185
481.442022	26451.108151
481.811333	27346.601076
482.180584	27298.846225
482.549777	26341.009351
482.918912	25968.883977
483.287988	26099.850633
483.657005	25786.794979
484.025964	25502.554561
484.394864	25448.815861
484.763706	25146.737319
485.132489	24569.081582
485.501213	24725.281734
485.869879	24656.633822
486.238487	24457.195693
486.607036	24603.648774
486.975527	24295.591424
487.343959	24622.583348
487.712333	24574.273971
488.080648	24255.315126
488.448905	24714.914601
488.817104	24454.468429
489.185244	25127.926254
489.553326	25096.401398
489.921350	26076.900780
490.289315	28342.682664
490.657222	30139.854010
491.025070	30629.319802
491.392861	30433.181109
491.760593	29579.756612
492.128267	28692.924389
492.495883	27663.745105
492.863440	26782.871526
493.230939	25901.440900
493.598380	25750.221408
493.965763	25344.821898
494.333088	24909.644292
494.700354	24826.311498
495.067563	24715.360743
495.434713	24461.757937
495.801805	24611.215546
496.168839	24419.760085
496.535815	24259.935343
496.902733	24471.890657
497.269593	24146.146419
497.636395	24334.065511
498.003139	24308.874865
498.369825	24053.646287
498.736453	24259.595065
499.103023	24127.244612
499.469535	24150.038189
499.835989	24356.218861
500.202385	24380.776842
500.568723	23886.411049
500.935003	24147.754547
501.301226	23745.039451
501.667390	24581.394601
502.033497	24817.595343
502.399546	24545.977974
502.765537	24123.360403
503.131470	24502.298897
503.497345	24643.867100
503.863163	23861.142265
504.228923	24456.217709
504.594625	24663.981303
504.960269	24186.808366
505.325856	24673.519167
505.691385	24081.773405
506.056856	24697.333577
506.422270	24665.317209
506.787625	24229.864861
507.152924	24646.022193
507.518164	24677.224415
507.883347	24476.571368
508.248472	24165.711137
508.613540	24949.154335
508.978550	24741.521811
509.343503	24726.015222
509.708398	24991.474822
510.073236	25138.603418
510.438016	25347.365160
510.802738	25035.267325
511.167403	25288.698732
511.532010	24985.496013
511.896561	25760.016370
512.261053	25721.620422
512.625488	25560.328704
512.989866	25461.010412
513.354186	25302.849251
513.718449	25408.514356
514.082655	25785.020493
514.446803	25517.514185
514.810894	25979.271274
515.174927	25455.470184
515.538904	25491.380843
515.902822	25992.101011
516.266684	25751.806851
516.630488	25652.244062
516.994235	25633.795960
517.357925	25937.754852
517.721558	26114.033919
518.085133	26205.959360
518.448651	26119.087676
518.812112	25847.492992
519.175516	26044.002210
519.538863	26204.688989
519.902152	25983.218498
520.265385	26274.879494
520.628560	26070.392650
520.991678	26083.504692
521.354739	26152.339127
521.717743	26213.631996
522.080690	26000.860015
522.443580	26335.262435
522.806413	26330.095253
523.169189	26431.077126
523.531908	26477.561605
523.894569	26086.080721
524.257174	26161.887072
524.619722	26345.624527
524.982213	26026.947987
525.344647	26096.828461
525.707025	26223.205147
526.069345	26222.254889
526.431608	26167.235736
526.793815	26355.545518
527.155964	25818.410575
527.518057	25995.392884
527.880093	25902.131538
528.242072	26131.004964
528.603995	25852.957603
528.965860	25644.009337
529.327669	25698.491608
529.689421	25678.558885
530.051117	25508.263667
530.412755	25691.358375
530.774337	25497.170608
531.135862	25360.870411
531.497331	25566.355404
531.858743	25113.528718
532.220098	25588.667551
532.581396	25275.876557
532.942638	25215.483534
533.303824	25321.209133
533.664953	25327.321532
534.026025	24986.768905
534.387040	25233.906431
534.747999	25283.070284
535.108902	25445.665139
535.469748	24937.423570
535.830537	25136.818849
536.191270	25253.829071
536.551947	25120.843433
536.912567	24780.815085
537.273131	25125.476253
537.633638	24835.723333
537.994089	25036.787233
538.354483	24569.091665
538.714821	25074.394241
539.075103	25117.584327
539.435328	24893.578135
539.795497	24467.421674
540.155609	24861.627302
540.515665	25158.616798
540.875665	24387.274889
541.235609	24691.400139
541.595496	24655.194572
541.955328	25001.967984
542.315102	24923.439410
542.674821	24471.686490
543.034483	24349.534291
543.394090	24518.077708
543.753640	24308.108609
544.113134	24939.530773
544.472571	24538.585122
544.831953	24829.051366
545.191278	24446.253869
545.550548	24370.392065
545.909761	24576.545011
546.268918	24813.509488
546.628019	24776.830053
546.987064	24478.605474
547.346053	24221.672986
547.704986	24342.035575
548.063863	24510.904146
548.422684	24511.819116
548.781449	24049.401635
549.140158	24463.214831
549.498811	24027.260887
549.857408	23766.368573
550.215949	24195.411095
550.574434	23880.570872
550.932864	24100.770993
551.291237	24253.366720
551.649555	24128.260405
552.007817	24166.656353
552.366022	24034.603328
552.724173	24086.587707
553.082267	24022.312995
553.440305	24504.983311
553.798288	23759.623509
554.156215	24270.315079
554.514086	24375.435740
554.871902	23743.653134
555.229661	24023.638818
555.587365	23875.554924
555.945014	23743.945521
556.302606	23998.324664
556.660143	23943.776859
557.017625	24192.759448
557.375050	23725.850299
557.732421	24122.765547
558.089735	23936.661271
558.446994	23987.264373
558.804197	24015.066336
559.161345	23964.906856
559.518437	23715.142888
559.875474	23913.965996
560.232455	24093.703295
560.589381	23919.546553
560.946251	23903.119953
561.303065	24215.817685
561.659825	24308.685822
562.016528	23918.785339
562.373177	23655.150637
562.729770	24009.790769
563.086307	23868.434294
563.442789	24043.364853
563.799216	23861.933727
564.155587	23872.240366
564.511904	23860.723850
564.868164	23802.680004
565.224370	23777.378453
565.580520	23687.880328
565.936615	23822.716070
566.292654	23492.119722
566.648638	23793.963849
567.004567	23619.373568
567.360441	23576.256579
567.716260	23301.044867
568.072023	23625.886739
568.427732	23381.915057
568.783385	23171.666174
569.138982	23402.263675
569.494525	23440.662144
569.850013	23193.559906
570.205445	23280.955869
570.560823	23094.579370
570.916145	22854.222196
571.271412	23025.838197
571.626625	22783.242750
571.981782	22894.168299
572.336884	22699.408362
572.691931	22846.620136
573.046923	22569.278537
573.401860	22452.051545
573.756743	22474.222540
574.111570	22368.436447
574.466342	22304.945635
574.821059	22389.122822
575.175722	22090.079055
575.530330	22077.788722
575.884882	22101.376281
576.239380	22013.539216
576.593823	21903.367319
576.948211	21881.443341
577.302544	21719.274463
577.656823	21603.310281
578.011047	21699.104807
578.365216	21560.231101
578.719330	21444.224068
579.073389	21338.301864
579.427394	21477.321764
579.781344	21254.074266
580.135239	21146.122997
580.489080	21106.055907
580.842866	20873.041173
581.196597	21069.610885
581.550273	21046.335878
581.903895	20929.431520
582.257463	21253.615521
582.610975	20772.679362
582.964434	21087.988411
583.317837	20794.167280
583.671186	20876.454034
584.024481	20843.492450
584.377721	20624.542535
584.730906	20683.161072
585.084037	20708.260977
585.437113	20613.179774
585.790135	20821.175262
586.143103	20276.811305
586.496016	20289.830084
586.848874	20538.187570
587.201679	20470.988989
587.554428	20141.922631
587.907124	20475.528548
588.259765	20247.295349
588.612352	20323.837708
588.964884	19892.314939
589.317362	20068.473019
589.669786	20119.159300
590.022155	20160.090949
590.374470	20346.255719
590.726731	20143.384565
591.078937	19908.749101
591.431090	20005.246868
591.783188	19748.553834
592.135232	19726.831502
592.487222	19820.667540
592.839157	19845.764924
593.191038	19722.415452
593.542866	19617.582137
593.894639	19328.240071
594.246358	19543.046157
594.598022	19457.404514
594.949633	19208.880671
595.301190	19172.470937
595.652692	19329.575976
596.004141	19579.067721
596.355535	18906.071162
596.706876	18910.898067
597.058162	18813.618921
597.409395	19036.790802
597.760573	19107.520711
598.111698	18892.994409
598.462768	18828.036621
598.813785	18793.794584
599.164748	18610.619218
599.515657	18645.592223
599.866511	18440.936500
600.217312	18797.179719
600.568060	18320.457964
600.918753	18627.421383
601.269392	18533.406385
601.619978	18313.443198
601.970510	18518.865177
602.320988	18467.364749
602.671412	18671.390327
603.021783	18580.548735
603.372100	18312.959248
603.722363	18449.332542
604.072572	18391.797853
604.422728	18532.501498
604.772830	18290.606772
605.122878	18244.114730
605.472872	18248.994567
605.822813	18222.407522
606.172701	18187.555505
606.522534	18381.755874
606.872314	18421.006298
607.222041	18248.624042
607.571714	18465.502042
607.921333	18284.000339
608.270899	18363.890025
608.620411	18539.763280
608.969870	18306.577147
609.319276	18311.731727
609.668627	18339.798351
610.017926	18475.826326
610.367171	18592.798739
610.716362	18646.754208
611.065500	18464.425756
611.414585	18598.197815
611.763616	18577.539166
612.112594	18520.196041
612.461518	18487.700763
612.810389	18681.394497
613.159207	18540.640441
613.507971	18449.854301
613.856682	18722.469819
614.205340	18649.110948
614.553945	18796.801632
614.902496	18545.069094
615.250994	18770.396068
615.599439	18719.984530
615.947830	18701.022230
616.296169	18752.205065
616.644454	18715.266010
616.992686	18684.212502
617.340864	18905.262057
617.688990	18659.243667
618.037063	18834.075924
618.385082	18681.331483
618.733048	18969.733374
619.080961	18832.918979
619.428821	18872.643271
619.776628	18758.703112
620.124382	18685.782822
620.472083	18727.253874
620.819731	18744.620649
621.167326	18439.116643
621.514868	18475.717941
621.862357	18242.468793
622.209793	18263.868492
622.557176	18094.231144
622.904506	17914.082991
623.251783	17825.202407
623.599007	17590.904700
623.946179	17541.519036
624.293297	17460.001058
624.640363	17228.317189
624.987376	17241.162049
625.334336	17039.740227
625.681243	16881.700053
626.028097	16899.754946
626.374899	16812.565670
626.721647	16686.902307
627.068343	16515.898807
627.414987	16443.974144
627.761577	16420.464723
628.108115	16464.274871
628.454600	16186.466965
628.801032	16280.111439
629.147412	16214.636933
629.493739	16230.566979
629.840014	16041.916919
630.186236	16138.394522
630.532405	15900.852832
630.878521	16105.846312
631.224585	15995.649209
631.570597	15816.264791
631.916556	15851.948598
632.262462	15821.290821
632.608316	15746.255767
632.954117	15684.027764
633.299866	15689.283167
633.645562	15596.432675
633.991206	15356.095665
634.336797	15229.550101
634.682336	15196.318814
635.027823	15084.642133
635.373257	14965.615450
635.718639	14867.968300
636.063968	14807.421522
636.409245	14560.578903
