Dividing Wavelength (nm)	Counts (n)	Blue Motor Position (mm): 0.000000	Red Motor Position (mm): 41.500000	
326.493990	2077.963615
326.888308	2077.963615
327.282561	2077.963615
327.676750	2054.600388
328.070874	2056.289174
328.464933	2062.484753
328.858929	2070.197718
329.252859	2082.911508
329.646726	2098.768457
330.040528	2115.179934
330.434265	2134.162398
330.827938	2152.539925
331.221547	2171.414005
331.615091	2194.023580
332.008571	2212.443956
332.401986	2235.318192
332.795338	2254.318300
333.188625	2273.696496
333.581847	2293.248611
333.975006	2313.035140
334.368100	2330.243118
334.761129	2348.045953
335.154095	2360.636235
335.546996	2394.359034
335.939833	2448.304421
336.332606	2462.293623
336.725315	2475.403143
337.117960	2480.698876
337.510540	2489.916625
337.903056	2499.136896
338.295508	2505.637464
338.687896	2512.526200
339.080220	2520.090452
339.472480	2526.432223
339.864676	2527.906761
340.256807	2531.049920
340.648875	2533.431865
341.040879	2534.084695
341.432818	2535.057638
341.824694	2535.350024
342.216506	2537.018646
342.608253	2535.486136
342.999937	2534.712318
343.391557	2535.649973
343.783113	2532.395908
344.174605	2533.333563
344.566033	2529.343490
344.957397	2528.241998
345.348697	2525.403828
345.739934	2527.271575
346.131106	2523.034486
346.522215	2525.194620
346.913260	2520.985257
347.304241	2519.629186
347.695159	2519.288908
348.086012	2519.427540
348.476802	2514.335975
348.867528	2516.619617
349.258191	2513.078207
349.648789	2513.355470
350.039324	2511.422188
350.429796	2513.244565
350.820203	2512.884122
351.210548	2509.975377
351.600828	2508.677279
351.991045	2510.850017
352.381198	2506.355828
352.771288	2508.400016
353.161314	2507.968997
353.551276	2513.131139
353.941175	2509.128463
354.331010	2509.430932
354.720782	2508.851199
355.110490	2510.093844
355.500135	2509.274656
355.889717	2511.127280
356.279235	2511.943947
356.668689	2513.413443
357.058080	2511.588546
357.447408	2508.873884
357.836672	2509.085613
358.225873	2511.061745
358.615010	2510.600480
359.004084	2517.209432
359.393095	2514.600635
359.782043	2519.735050
360.170927	2519.649351
360.559748	2519.646830
360.948505	2522.235463
361.337199	2522.971471
361.725830	2521.839732
362.114398	2524.014990
362.502903	2525.691174
362.891344	2524.947603
363.279722	2524.730834
363.668037	2526.139836
364.056289	2525.340813
364.444478	2529.567821
364.832603	2529.918181
365.220665	2530.437420
365.608665	2529.225023
365.996601	2532.998326
366.384474	2531.508665
366.772284	2533.726773
367.160031	2532.043028
367.547715	2535.521424
367.935336	2535.473533
368.322893	2537.762217
368.710388	2534.934129
369.097820	2543.020140
369.485189	2540.378575
369.872495	2542.344625
370.259738	2545.545758
370.646918	2546.206149
371.034035	2546.178423
371.421090	2550.241593
371.808081	2553.218394
372.195010	2554.271995
372.581875	2560.855742
372.968678	2566.872359
373.355418	2571.974007
373.742096	2583.682087
374.128710	2592.176431
374.515262	2604.265118
374.901751	2614.218876
375.288177	2634.023049
375.674540	2646.129380
376.060841	2664.809376
376.447079	2689.377439
376.833254	2714.376521
377.219367	2732.766650
377.605417	2763.424427
377.991404	2789.134312
378.377329	2825.768377
378.763191	2860.033100
379.148991	2906.154616
379.534727	2952.278653
379.920402	2995.299860
380.306013	3040.541695
380.691563	3101.577466
381.077049	3156.894047
381.462474	3207.194680
381.847835	3280.004065
382.233134	3346.075948
382.618371	3405.503590
383.003545	3490.230263
383.388657	3563.498392
383.773706	3654.024913
384.158693	3719.401116
384.543618	3810.358655
384.928480	3887.236251
385.313280	3989.054956
385.698017	4083.518617
386.082692	4199.868448
386.467305	4264.899333
386.851856	4385.569433
387.236344	4532.778687
387.620770	4595.122636
388.005133	4709.766036
388.389435	4848.992623
388.773674	4932.159059
389.157851	5058.192946
389.541965	5185.250188
389.926018	5214.814034
390.310008	5379.495928
390.693936	5504.040154
391.077802	5615.542915
391.461606	5747.288430
391.845348	5857.823290
392.229027	5977.651517
392.612645	6195.477254
392.996200	6302.616897
393.379694	6478.167517
393.763125	6690.919333
394.146494	6779.182375
394.529801	6914.320587
394.913047	7151.156515
395.296230	7149.954200
395.679351	7199.541509
396.062410	7457.638504
396.445408	7357.291816
396.828343	7513.605394
397.211217	7646.704458
397.594028	7534.344701
397.976778	7733.838282
398.359466	7899.092346
398.742092	7886.461735
399.124656	8022.424175
399.507158	8210.060962
399.889598	8234.578614
400.271977	8445.394627
400.654294	8477.065676
401.036549	8679.556223
401.418742	8709.568732
401.800874	9002.467333
402.182944	9085.316176
402.564952	9450.212535
402.946898	9286.861506
403.328783	9340.764044
403.710606	9532.736223
404.092367	9790.568558
404.474067	10148.543413
404.855705	9950.869688
405.237282	9904.052492
405.618797	10329.503192
406.000250	10575.571993
406.381642	10933.415778
406.762972	10873.524350
407.144240	10699.039933
407.525447	10949.113932
407.906593	10891.034798
408.287677	11157.661425
408.668700	11303.887654
409.049661	11293.903649
409.430560	11457.857095
409.811399	11431.983373
410.192176	11589.181674
410.572891	11670.707214
410.953545	12156.543374
411.334138	11635.368725
411.714669	12223.268087
412.095139	11569.180896
412.475547	12040.080118
412.855894	11914.373905
413.236180	12231.457441
413.616405	11932.539703
413.996568	12208.063967
414.376670	12185.409021
414.756711	12067.337637
415.136691	12350.156450
415.516609	12524.555167
415.896466	12616.213426
416.276262	12900.219431
416.655997	13358.762785
417.035670	13404.531421
417.415283	14026.829095
417.794834	14111.757414
418.174324	13866.671638
418.553753	13774.894911
418.933121	14259.208644
419.312428	14090.503910
419.691674	14001.401515
420.070859	14474.806191
420.449983	14126.525474
420.829045	14680.664229
421.208047	14433.415797
421.586988	14887.424633
421.965867	15141.960053
422.344686	15142.564991
422.723444	15708.489963
423.102141	14408.073917
423.480777	15610.056393
423.859352	15109.172388
424.237866	16213.091819
424.616319	15936.128306
424.994712	16588.826659
425.373044	16379.623816
425.751314	17070.352633
426.129524	16200.652772
426.507673	17288.891694
426.885762	17011.285434
427.263789	17186.964604
427.641756	17384.867701
428.019662	17440.973223
428.397508	17493.381058
428.775292	17788.263353
429.153016	17767.151000
429.530679	17839.496599
429.908282	17876.463380
430.285824	17596.303776
430.663305	18325.133634
431.040726	17928.866174
431.418086	17765.525228
431.795385	18412.083456
432.172624	18849.262400
432.549802	18409.338547
432.926920	18624.043810
433.303977	18498.055293
433.680974	18763.343494
434.057910	19079.486855
434.434786	19109.965671
434.811601	19039.828097
435.188355	20085.902808
435.565050	19748.311859
435.941683	19716.923114
436.318257	20625.548245
436.694770	20420.297667
437.071222	21020.878051
437.447614	20083.331820
437.823946	20119.396235
438.200218	20298.276538
438.576429	20074.199770
438.952580	20386.700897
439.328670	20354.737461
439.704700	20779.016092
440.080670	20343.420070
440.456580	20959.794389
440.832429	21129.625821
441.208218	20136.878956
441.583947	20585.823953
441.959616	20711.857840
442.335224	20963.991150
442.710773	21099.693970
443.086261	21655.201398
443.461689	20985.547124
443.837057	21153.039460
444.212365	21819.411943
444.587612	21815.255512
444.962800	21415.975963
445.337927	21850.130214
445.712995	20548.559744
446.088002	22467.747178
446.462949	22677.547398
446.837837	22859.331406
447.212664	22882.152709
447.587431	25846.691448
447.962139	28859.952940
448.336786	31203.489581
448.711374	29531.772389
449.085901	25767.371413
449.460369	25776.488340
449.834776	25758.282213
450.209124	28343.587551
450.583412	27831.202154
450.957640	28338.932046
451.331808	26957.124050
451.705917	25562.032614
452.079965	25610.800737
452.453954	25992.748799
452.827883	25909.433649
453.201752	25699.288110
453.575562	25870.846137
453.949311	27016.234100
454.323001	27096.932890
454.696632	26864.719700
455.070202	28489.801178
455.443713	28679.555249
455.817164	29266.007800
456.190556	29830.826238
456.563888	29233.278108
456.937160	29689.227789
457.310373	27953.137583
457.683526	28403.305060
458.056619	28395.685356
458.429653	28385.235044
458.802628	29001.934517
459.175542	29135.552821
459.548398	30525.955983
459.921194	32167.239729
460.293930	32904.271545
460.666607	35030.809198
461.039224	36836.547985
461.411782	37211.493885
461.784280	35904.133649
462.156719	35337.253379
462.529099	34787.515552
462.901419	33438.563277
463.273680	32359.905068
463.645882	32520.007073
464.018024	32506.443848
464.390106	33452.232365
464.762130	36375.985649
465.134094	40759.599114
465.505999	46271.894158
465.877845	50848.205728
466.249631	51864.341027
466.621358	50024.639986
466.993026	47783.980692
467.364634	45635.536705
467.736184	43660.289120
468.107674	42371.296328
468.479105	41560.530076
468.850477	40836.917811
469.221790	39372.903720
469.593043	37592.438758
469.964238	36676.607297
470.335373	36627.047714
470.706449	38482.525045
471.077467	41277.489452
471.448425	46003.545977
471.819324	48806.614038
472.190164	46808.716548
472.560945	43137.531548
472.931667	39947.055855
473.302330	38827.713014
473.672934	37982.031730
474.043479	38508.033284
474.413965	37721.872903
474.784393	37340.986004
475.154761	38282.038357
475.525070	38318.299377
475.895321	37839.011675
476.265513	38477.103284
476.635645	39490.660033
477.005719	39334.129685
477.375734	39840.354793
477.745691	40577.641187
478.115588	41969.428146
478.485427	44108.291421
478.855207	47592.469778
479.224928	50262.952973
479.594591	51823.255623
479.964194	50731.165259
480.333739	50864.997812
480.703226	50924.770773
481.072653	51582.359045
481.442022	52061.770255
481.811333	52254.274277
482.180584	50991.729899
482.549777	50463.540484
482.918912	49932.737231
483.287988	49623.908585
483.657005	48791.263724
484.025964	48097.497612
484.394864	48083.964634
484.763706	47656.139551
485.132489	46747.736231
485.501213	46594.490195
485.869879	46733.414313
486.238487	46329.575040
486.607036	46528.635082
486.975527	45963.252034
487.343959	46194.023454
487.712333	46253.849348
488.080648	46152.033163
488.448905	46604.595188
488.817104	46402.878458
489.185244	47424.654808
489.553326	49202.334532
489.921350	51938.483797
490.289315	54749.821871
490.657222	55282.888602
491.025070	55507.595514
491.392861	54605.213852
491.760593	53350.924364
492.128267	51660.980881
492.495883	50122.456015
492.863440	48680.111323
493.230939	47293.844427
493.598380	46199.437653
493.965763	45860.034409
494.333088	45025.562131
494.700354	44520.030182
495.067563	44218.047422
495.434713	44065.824741
495.801805	44161.125234
496.168839	43746.956637
496.535815	43400.891507
496.902733	43432.028194
497.269593	42997.939477
497.636395	42915.819081
498.003139	43318.161132
498.369825	42752.984771
498.736453	43058.692943
499.103023	42580.786517
499.469535	42460.839823
499.835989	42537.016699
500.202385	42183.213399
500.568723	42205.913714
500.935003	42385.721590
501.301226	42193.101622
501.667390	42815.364009
502.033497	43062.040269
502.399546	42479.030827
502.765537	41766.874585
503.131470	42137.767397
503.497345	42502.101668
503.863163	41135.850673
504.228923	41783.593572
504.594625	42204.666029
504.960269	41427.229365
505.325856	42134.183136
505.691385	41495.131187
506.056856	41640.134936
506.422270	42071.211563
506.787625	41618.699950
507.152924	41843.800072
507.518164	41935.463372
507.883347	41118.622529
508.248472	41356.943078
508.613540	41852.314581
508.978550	42160.147599
509.343503	41892.989131
509.708398	42102.628034
510.073236	42636.549241
510.438016	42634.575629
510.802738	42075.209198
511.167403	42710.336609
511.532010	42923.975668
511.896561	43234.702309
512.261053	44095.691057
512.625488	43618.051812
512.989866	43485.784538
513.354186	43327.661186
513.718449	43328.815610
514.082655	44011.312224
514.446803	43645.692459
514.810894	44200.403384
515.174927	44099.769350
515.538904	43992.455788
515.902822	44674.201269
516.266684	44106.978200
516.630488	44536.113983
516.994235	44372.127769
517.357925	44956.334485
517.721558	45134.488862
518.085133	45432.836950
518.448651	45548.662501
518.812112	45332.102093
519.175516	45412.029587
519.538863	45739.520585
519.902152	45695.591971
520.265385	46165.994639
520.628560	46173.137954
520.991678	45974.806359
521.354739	46190.867692
521.717743	46517.584873
522.080690	46387.419760
522.443580	46965.289746
522.806413	46970.111609
523.169189	46941.243442
523.531908	47114.943959
523.894569	46939.957948
524.257174	47132.262843
524.619722	47409.859021
524.982213	47398.750839
525.344647	47312.325297
525.707025	47343.119185
526.069345	47758.217875
526.431608	47666.607507
526.793815	47975.904981
527.155964	47513.265689
527.518057	47679.323818
527.880093	47440.385728
528.242072	47975.405907
528.603995	47674.683436
528.965860	47649.873397
529.327669	47744.551307
529.689421	47640.779155
530.051117	47593.800643
530.412755	47744.591637
530.774337	47825.514759
531.135862	47607.268085
531.497331	47794.451169
531.858743	47699.022126
532.220098	48038.107778
532.581396	47734.365656
532.942638	47395.630364
533.303824	47702.969350
533.664953	47679.434723
534.026025	47384.731390
534.387040	47864.082106
534.747999	47810.338365
535.108902	47963.349987
535.469748	47452.368551
535.830537	47562.457269
536.191270	47767.622148
536.551947	47404.598577
536.912567	47708.539825
537.273131	47846.952265
537.633638	47316.091039
537.994089	47672.745112
538.354483	47244.080677
538.714821	47817.892534
539.075103	48155.584307
539.435328	47919.950694
539.795497	47779.158828
540.155609	47786.385322
540.515665	48268.690155
540.875665	47687.848409
541.235609	48004.228704
541.595496	47987.759254
541.955328	48670.601187
542.315102	48010.877986
542.674821	47764.378165
543.034483	47806.073549
543.394090	47794.395716
543.753640	47737.561748
544.113134	48743.087938
544.472571	47731.388855
544.831953	48973.166199
545.191278	48158.553546
545.550548	47867.631078
545.909761	48344.249489
546.268918	48524.145585
546.628019	48837.538996
546.987064	48378.675529
547.346053	47642.319228
547.704986	48506.125981
548.063863	48060.702230
548.422684	48229.477540
548.781449	48045.477945
549.140158	48477.691352
549.498811	48297.013878
549.857408	47702.432467
550.215949	48546.639213
550.574434	48458.023291
550.932864	48218.061847
551.291237	48931.874108
551.649555	48526.840082
552.007817	48755.685781
552.366022	48399.152696
552.724173	48548.320438
553.082267	48938.631775
553.440305	49201.278411
553.798288	48497.429990
554.156215	48804.537083
554.514086	48998.200569
554.871902	48726.169825
555.229661	48740.151466
555.587365	48546.303977
555.945014	48645.045057
556.302606	48551.357733
556.660143	48765.790774
557.017625	48830.955249
557.375050	48616.237383
557.732421	48943.504050
558.089735	48913.610008
558.446994	48820.419238
558.804197	49255.531308
559.161345	49182.142191
559.518437	48421.230429
559.875474	48718.512313
560.232455	48882.690091
560.589381	49039.895953
560.946251	48736.637781
561.303065	49401.681920
561.659825	49147.811933
562.016528	48823.126337
562.373177	48531.621616
562.729770	49009.323875
563.086307	48516.891365
563.442789	48950.075194
563.799216	48976.374894
564.155587	48759.343138
564.511904	48776.500705
564.868164	48827.373509
565.224370	49055.286595
565.580520	48783.253331
565.936615	48982.744392
566.292654	48671.085137
566.648638	48919.664433
567.004567	48857.965752
567.360441	48897.261546
567.716260	48731.004292
568.072023	49014.455770
568.427732	48958.365372
568.783385	48481.071446
569.138982	48875.776148
569.494525	48814.440429
569.850013	48552.141633
570.205445	48504.543058
570.560823	48420.945604
570.916145	48295.967838
571.271412	48313.377463
571.626625	48018.966517
571.981782	48050.405673
572.336884	47718.324704
572.691931	48016.874438
573.046923	47603.250286
573.401860	47406.236952
573.756743	47364.743215
574.111570	47448.791852
574.466342	47291.838048
574.821059	47365.209522
575.175722	46875.854635
575.530330	46862.490537
575.884882	46546.211065
576.239380	46474.609036
576.593823	46441.924715
576.948211	46343.496186
577.302544	45831.503999
577.656823	45805.587427
578.011047	46011.889086
578.365216	45725.228914
578.719330	45477.642725
579.073389	45297.721424
579.427394	45349.597418
579.781344	45275.341221
580.135239	44893.088169
580.489080	44932.313387
580.842866	44385.040685
581.196597	44795.012521
581.550273	44698.335793
581.903895	44545.180498
582.257463	44904.607206
582.610975	44239.031225
582.964434	44505.085681
583.317837	44088.951034
583.671186	43878.543355
584.024481	44077.343777
584.377721	43544.642530
584.730906	43797.065706
585.084037	43791.651507
585.437113	43470.124194
585.790135	43458.108603
586.143103	42998.156247
586.496016	43086.915843
586.848874	43066.695775
587.201679	43025.869990
587.554428	42467.476502
587.907124	42621.105666
588.259765	42314.434633
588.612352	42505.151566
588.964884	41857.557381
589.317362	42104.258847
589.669786	41991.513441
590.022155	41704.412168
590.374470	42053.975858
590.726731	41564.260529
591.078937	41031.723119
591.431090	41102.422782
591.783188	40706.636752
592.135232	40340.906082
592.487222	40558.368856
592.839157	40564.778683
593.191038	40196.860152
593.542866	39899.588350
593.894639	39292.504878
594.246358	39493.195733
594.598022	39421.165206
594.949633	38991.870627
595.301190	38905.087164
595.652692	38688.781334
596.004141	38941.343142
596.355535	37951.250444
596.706876	37844.965277
597.058162	37641.579925
597.409395	38013.959878
597.760573	38052.489417
598.111698	37614.012376
598.462768	37560.830723
598.813785	37523.316977
599.164748	36965.828376
599.515657	37262.543129
599.866511	36736.589466
600.217312	37261.948273
600.568060	36241.202840
600.918753	36871.644498
601.269392	36775.290404
601.619978	36388.764974
601.970510	36536.402727
602.320988	36625.336242
602.671412	36849.680191
603.021783	36556.630356
603.372100	36173.656419
603.722363	36203.847890
604.072572	36216.118058
604.422728	36161.887846
604.772830	35927.277587
605.122878	35951.913706
605.472872	35829.451476
605.822813	36015.457450
606.172701	35794.728008
606.522534	35951.938911
606.872314	36102.881140
607.222041	35831.167989
607.571714	36088.007215
607.921333	35537.747629
608.270899	35714.228343
608.620411	35968.771324
608.969870	35698.946085
609.319276	35625.025126
609.668627	35609.717662
610.017926	35951.170135
610.367171	36002.476479
610.716362	36014.645824
611.065500	35877.274382
611.414585	35965.018185
611.763616	36138.209546
612.112594	36008.107447
612.461518	36121.493080
612.810389	36291.677393
613.159207	36092.813956
613.507971	36070.297642
613.856682	36391.885449
614.205340	36220.476136
614.553945	36729.110915
614.902496	36170.382190
615.250994	36498.899063
615.599439	36445.833357
615.947830	36527.535337
616.296169	36493.747003
616.644454	36480.171176
616.992686	36523.638525
617.340864	36841.359767
617.688990	36499.491398
618.037063	36930.913344
618.385082	36773.586494
618.733048	36911.028513
619.080961	36819.687846
619.428821	36732.639722
619.776628	36729.226861
620.124382	36488.136199
620.472083	36514.438419
620.819731	36529.420728
621.167326	36178.508530
621.514868	36075.953817
621.862357	35616.926512
622.209793	35590.102532
622.557176	35216.361468
622.904506	34927.372283
623.251783	34579.164663
623.599007	34317.591793
623.946179	34054.677976
624.293297	33923.565126
624.640363	33355.374156
624.987376	33258.251286
625.334336	32995.307222
625.681243	32605.326081
626.028097	32502.032838
626.374899	32296.376447
626.721647	32185.662626
627.068343	32005.007837
627.414987	31729.297051
627.761577	31448.900512
628.108115	31608.997476
628.454600	31094.225092
628.801032	31142.312658
629.147412	31019.071570
629.493739	30922.346952
629.840014	30545.508099
630.186236	30706.908201
630.532405	30305.677725
630.878521	30360.646467
631.224585	30146.369702
631.570597	29832.489819
631.916556	29846.123620
632.262462	29718.688292
632.608316	29645.992333
632.954117	29454.373034
633.299866	29356.060452
633.645562	29221.592714
633.991206	28769.416337
634.336797	28356.744963
634.682336	28278.264280
635.027823	28012.865174
