Dividing Wavelength (nm)	Counts (n)	Blue Motor Position (mm): 0.000000	Red Motor Position (mm): 10.500000	
326.493990	2146.329223
326.888308	2146.329223
327.282561	2146.329223
327.676750	2121.385594
328.070874	2124.042282
328.464933	2126.323404
328.858929	2137.686165
329.252859	2149.900881
329.646726	2164.762202
330.040528	2176.084634
330.434265	2196.188755
330.827938	2217.195243
331.221547	2236.034035
331.615091	2256.256624
332.008571	2273.247833
332.401986	2293.349434
332.795338	2316.296766
333.188625	2334.308809
333.581847	2355.151460
333.975006	2372.374562
334.368100	2391.921636
334.761129	2411.362846
335.154095	2427.514702
335.546996	2439.487443
335.939833	2454.948662
336.332606	2465.764457
336.725315	2483.290029
337.117960	2490.312356
337.510540	2496.311329
337.903056	2504.014212
338.295508	2514.472086
338.687896	2517.572395
339.080220	2529.610671
339.472480	2533.910775
339.864676	2537.353883
340.256807	2539.569470
340.648875	2542.717671
341.040879	2544.741694
341.432818	2545.228165
341.824694	2546.853937
342.216506	2546.143135
342.608253	2545.802857
342.999937	2546.112888
343.391557	2543.652805
343.783113	2542.415202
344.174605	2543.350336
344.566033	2542.415202
344.957397	2536.121321
345.348697	2536.401105
345.739934	2534.666948
346.131106	2530.127389
346.522215	2532.126207
346.913260	2527.390042
347.304241	2528.126051
347.695159	2525.348375
348.086012	2525.991122
348.476802	2525.577748
348.867528	2522.011131
349.258191	2520.768487
349.648789	2521.572551
350.039324	2518.522653
350.429796	2519.798065
350.820203	2513.857065
351.210548	2516.170955
351.600828	2516.387724
351.991045	2516.584329
352.381198	2515.334123
352.771288	2514.956037
353.161314	2512.412774
353.551276	2515.074504
353.941175	2513.436129
354.331010	2513.161386
354.720782	2514.971160
355.110490	2515.576098
355.500135	2512.579133
355.889717	2517.562313
356.279235	2514.474606
356.668689	2517.942920
357.058080	2515.750018
357.447408	2514.441839
357.836672	2511.175171
358.225873	2515.412261
358.615010	2514.507374
359.004084	2520.952489
359.393095	2518.331089
359.782043	2519.969464
360.170927	2521.673374
360.559748	2519.256141
360.948505	2522.003570
361.337199	2520.224042
361.725830	2522.096831
362.114398	2522.762263
362.502903	2523.115144
362.891344	2522.666481
363.279722	2524.561955
363.668037	2524.572037
364.056289	2522.797551
364.444478	2524.750998
364.832603	2526.608664
365.220665	2527.473222
365.608665	2525.106400
365.996601	2525.802079
366.384474	2524.168745
366.772284	2527.790814
367.160031	2529.378778
367.547715	2526.049096
367.935336	2530.462626
368.322893	2525.807120
368.710388	2526.596061
369.097820	2530.359282
369.485189	2528.262162
369.872495	2527.178314
370.259738	2531.720394
370.646918	2526.865762
371.034035	2529.708973
371.421090	2531.223840
371.808081	2530.704601
372.195010	2530.815507
372.581875	2532.196783
372.968678	2530.707122
373.355418	2533.966228
373.742096	2534.971938
374.128710	2535.027391
374.515262	2537.459747
374.901751	2536.615354
375.288177	2537.386651
375.674540	2540.431507
376.060841	2544.098947
376.447079	2544.245140
376.833254	2544.212373
377.219367	2542.730274
377.605417	2547.226983
377.991404	2547.365615
378.377329	2549.954247
378.763191	2550.228990
379.148991	2560.165104
379.534727	2562.655434
379.920402	2568.062072
380.306013	2567.643656
380.691563	2574.373596
381.077049	2579.795357
381.462474	2582.353743
381.847835	2587.725092
382.233134	2591.962182
382.618371	2596.244642
383.003545	2604.199583
383.388657	2610.213680
383.773706	2620.195164
384.158693	2624.391925
384.543618	2630.259828
384.928480	2635.336270
385.313280	2644.286838
385.698017	2652.829074
386.082692	2661.036072
386.467305	2664.630415
386.851856	2673.454955
387.236344	2685.778055
387.620770	2690.468849
388.005133	2698.854808
388.389435	2709.693289
388.773674	2713.963146
389.157851	2726.349261
389.541965	2735.125910
389.926018	2737.578432
390.310008	2749.518404
390.693936	2755.184661
391.077802	2764.818306
391.461606	2773.073196
391.845348	2779.336829
392.229027	2787.894188
392.612645	2802.637042
392.996200	2803.998154
393.379694	2814.468631
393.763125	2829.919767
394.146494	2835.981755
394.529801	2841.758917
394.913047	2850.013806
395.296230	2853.189733
395.679351	2852.914990
396.062410	2863.382946
396.445408	2854.565968
396.828343	2862.120137
397.211217	2861.043851
397.594028	2848.549351
397.976778	2855.546473
398.359466	2863.443440
398.742092	2854.694518
399.124656	2860.693491
399.507158	2864.345807
399.889598	2861.684077
400.271977	2865.296064
400.654294	2865.495190
401.036549	2861.583254
401.418742	2859.781042
401.800874	2866.992412
402.182944	2861.827750
402.564952	2870.561549
402.946898	2854.893643
403.328783	2850.782582
403.710606	2852.483972
404.092367	2854.729806
404.474067	2858.727441
404.855705	2841.360666
405.237282	2832.226095
405.618797	2834.771878
406.000250	2834.744151
406.381642	2835.749862
406.762972	2825.864159
407.144240	2813.599032
407.525447	2812.016109
407.906593	2796.832154
408.287677	2794.314097
408.668700	2788.746143
409.049661	2776.904473
409.430560	2770.093874
409.811399	2759.341093
410.192176	2755.625762
410.572891	2747.643095
410.953545	2745.349370
411.334138	2726.392111
411.714669	2729.925960
412.095139	2707.523072
412.475547	2707.868391
412.855894	2694.678212
413.236180	2688.984229
413.616405	2680.623475
413.996568	2673.782630
414.376670	2666.349448
414.756711	2658.376863
415.136691	2652.065339
415.516609	2646.754483
415.896466	2641.751138
416.276262	2638.055972
416.655997	2628.571041
417.035670	2621.878910
417.415283	2623.986112
417.794834	2616.961264
418.174324	2611.695779
418.553753	2608.101436
418.933121	2606.964656
419.312428	2601.903337
419.691674	2594.334045
420.070859	2591.306832
420.449983	2587.052098
420.829045	2587.828436
421.208047	2582.411716
421.586988	2579.389544
421.965867	2580.428022
422.344686	2578.131777
422.723444	2577.794019
423.102141	2571.679100
423.480777	2573.745973
423.859352	2571.200190
424.237866	2567.772205
424.616319	2569.939902
424.994712	2570.232288
425.373044	2566.239695
425.751314	2566.375806
426.129524	2563.714077
426.507673	2566.572411
426.885762	2565.826320
427.263789	2562.292471
427.641756	2563.015877
428.019662	2565.695250
428.397508	2565.690209
428.775292	2562.393294
429.153016	2563.615774
429.530679	2561.493448
429.908282	2561.979920
430.285824	2563.109138
430.663305	2560.714590
431.040726	2563.646021
431.418086	2561.095197
431.795385	2563.940928
432.172624	2562.211813
432.549802	2565.523851
432.926920	2565.513768
433.303977	2563.552760
433.680974	2562.670558
434.057910	2563.441854
434.434786	2564.742472
434.811601	2565.060065
435.188355	2565.428069
435.565050	2562.736093
435.941683	2563.051165
436.318257	2558.718293
436.694770	2561.848850
437.071222	2561.831206
437.447614	2563.434292
437.823946	2560.112172
438.200218	2562.277348
438.576429	2563.479663
438.952580	2564.467729
439.328670	2563.913202
439.704700	2564.200548
440.080670	2566.834551
440.456580	2564.911351
440.832429	2565.576783
441.208218	2562.489076
441.583947	2567.988975
441.959616	2564.187945
442.335224	2564.177863
442.710773	2565.049982
443.086261	2563.986299
443.461689	2567.096691
443.837057	2564.692060
444.212365	2565.662482
444.587612	2563.593089
444.962800	2566.083419
445.337927	2567.399160
445.712995	2564.296330
446.088002	2565.919581
446.462949	2567.230281
446.837837	2569.632391
447.212664	2567.540312
447.587431	2569.574418
447.962139	2565.186093
448.336786	2569.382854
448.711374	2569.869325
449.085901	2568.241033
449.460369	2566.310271
449.834776	2566.121227
450.209124	2566.403532
450.583412	2567.857905
450.957640	2567.091650
451.331808	2572.727660
451.705917	2569.672720
452.079965	2567.883111
452.453954	2566.358162
452.827883	2568.946794
453.201752	2566.990827
453.575562	2568.127607
453.949311	2569.755899
454.323001	2569.624829
454.696632	2568.556105
455.070202	2571.903431
455.443713	2568.233471
455.817164	2569.340004
456.190556	2566.673234
456.563888	2568.440158
456.937160	2566.116186
457.310373	2569.002247
457.683526	2569.836558
458.056619	2570.925447
458.429653	2571.666497
458.802628	2572.904100
459.175542	2573.466189
459.548398	2573.007444
459.921194	2573.488874
460.293930	2574.925603
460.666607	2573.728329
461.039224	2572.127762
461.411782	2574.391240
461.784280	2572.818400
462.156719	2573.824111
462.529099	2574.998699
462.901419	2573.912331
463.273680	2575.202866
463.645882	2574.481981
464.018024	2575.613720
464.390106	2572.654563
464.762130	2574.819738
465.134094	2573.395612
465.505999	2577.547003
465.877845	2577.854513
466.249631	2579.981880
466.621358	2581.128742
466.993026	2582.953640
467.364634	2582.124370
467.736184	2575.858216
468.107674	2578.030953
468.479105	2576.758062
468.850477	2577.269739
469.221790	2577.400809
469.593043	2577.662949
469.964238	2576.354770
470.335373	2577.121025
470.706449	2575.961560
471.077467	2576.004410
471.448425	2578.522466
471.819324	2579.102199
472.190164	2581.083372
472.560945	2580.417940
472.931667	2579.674370
473.302330	2576.498443
473.672934	2578.472054
474.043479	2577.652867
474.413965	2577.801581
474.784393	2573.088102
475.154761	2572.392423
475.525070	2575.510377
475.895321	2573.284707
476.265513	2573.677917
476.635645	2576.178329
477.005719	2575.802763
477.375734	2578.116653
477.745691	2577.388206
478.115588	2575.472568
478.485427	2577.095819
478.855207	2580.856520
479.224928	2581.874833
479.594591	2580.133115
479.964194	2579.392065
480.333739	2579.172775
480.703226	2579.628999
481.072653	2579.571026
481.442022	2582.000862
481.811333	2581.600090
482.180584	2579.134966
482.549777	2581.179154
482.918912	2579.785275
483.287988	2580.377611
483.657005	2578.628330
484.025964	2579.608835
484.394864	2579.699575
484.763706	2578.663618
485.132489	2578.013309
485.501213	2579.465162
485.869879	2576.684965
486.238487	2576.032136
486.607036	2578.421643
486.975527	2582.421798
487.343959	2579.260995
487.712333	2580.271746
488.080648	2577.302507
488.448905	2579.573547
488.817104	2580.919535
489.185244	2580.034812
489.553326	2577.345357
489.921350	2583.767787
490.289315	2581.164031
490.657222	2578.721592
491.025070	2579.820563
491.392861	2583.936665
491.760593	2580.969946
492.128267	2582.971284
492.495883	2581.859710
492.863440	2581.746284
493.230939	2581.784093
493.598380	2581.108578
493.965763	2576.889132
494.333088	2577.778896
494.700354	2577.864595
495.067563	2579.341653
495.434713	2573.627506
495.801805	2578.267888
496.168839	2581.239648
496.535815	2579.165213
496.902733	2580.463310
497.269593	2581.121181
497.636395	2578.640933
498.003139	2580.233938
498.369825	2576.826118
498.736453	2578.933320
499.103023	2579.644123
499.469535	2581.388362
499.835989	2577.032805
500.202385	2577.083217
500.568723	2580.450707
500.935003	2581.348033
501.301226	2576.218659
501.667390	2578.106571
502.033497	2580.533886
502.399546	2579.571026
502.765537	2577.877198
503.131470	2578.406519
503.497345	2581.567323
503.863163	2579.276118
504.228923	2580.357446
504.594625	2580.397775
504.960269	2578.910635
505.325856	2579.374421
505.691385	2575.021385
506.056856	2577.746128
506.422270	2578.136818
506.787625	2577.945254
507.152924	2579.422312
507.518164	2578.580439
507.883347	2577.899883
508.248472	2578.393917
508.613540	2581.579926
508.978550	2579.346695
509.343503	2578.663618
509.708398	2581.403485
510.073236	2579.172775
510.438016	2579.659246
510.802738	2579.722261
511.167403	2582.114288
511.532010	2580.208732
511.896561	2578.194791
512.261053	2580.642271
512.625488	2575.344018
512.989866	2576.677404
513.354186	2579.089596
513.718449	2575.906107
514.082655	2577.652867
514.446803	2578.290573
514.810894	2578.474575
515.174927	2582.751994
515.538904	2578.101530
515.902822	2582.416757
516.266684	2579.114802
516.630488	2577.380645
516.994235	2577.466344
517.357925	2580.730491
517.721558	2580.395255
518.085133	2581.799216
518.448651	2578.865264
518.812112	2579.092116
519.175516	2576.652198
519.538863	2580.334761
519.902152	2579.623958
520.265385	2579.805440
520.628560	2583.218301
520.991678	2579.064390
521.354739	2579.286201
521.717743	2582.051274
522.080690	2582.464648
522.443580	2578.446849
522.806413	2581.824422
523.169189	2577.594894
523.531908	2580.513722
523.894569	2579.487847
524.257174	2581.189236
524.619722	2582.588157
524.982213	2580.047415
525.344647	2577.912486
525.707025	2580.949782
526.069345	2579.097157
526.431608	2581.141345
526.793815	2578.961046
527.155964	2576.473237
527.518057	2579.021540
527.880093	2579.702096
528.242072	2582.126891
528.603995	2581.050605
528.965860	2582.124370
529.327669	2581.201839
529.689421	2581.355594
530.051117	2580.226376
530.412755	2581.058166
530.774337	2579.966757
531.135862	2580.576736
531.497331	2577.733525
531.858743	2580.433063
532.220098	2576.553895
532.581396	2576.677404
532.942638	2574.411405
533.303824	2578.706468
533.664953	2578.635892
534.026025	2577.846951
534.387040	2581.501788
534.747999	2581.224524
535.108902	2581.083372
535.469748	2580.382652
535.830537	2577.965418
536.191270	2579.354256
536.551947	2580.422981
536.912567	2581.955492
537.273131	2579.727302
537.633638	2579.641602
537.994089	2580.559092
538.354483	2577.962898
538.714821	2580.296952
539.075103	2580.987590
539.435328	2580.972467
539.795497	2578.149421
540.155609	2577.925089
540.515665	2581.350553
540.875665	2580.629668
541.235609	2581.166551
541.595496	2581.113619
541.955328	2581.542117
542.315102	2580.367528
542.674821	2579.545820
543.034483	2579.896180
543.394090	2577.194122
543.753640	2580.705286
544.113134	2577.723443
544.472571	2579.674370
544.831953	2578.255285
545.191278	2577.788978
545.550548	2583.430029
545.909761	2578.318299
546.268918	2582.825091
546.628019	2579.709658
546.987064	2578.918197
547.346053	2580.017168
547.704986	2577.763772
548.063863	2582.172261
548.422684	2581.272415
548.781449	2579.916345
549.140158	2580.107909
549.498811	2581.257292
549.857408	2579.472723
550.215949	2577.993145
550.574434	2578.983732
550.932864	2577.599935
551.291237	2578.219997
551.649555	2582.205029
552.007817	2581.070769
552.366022	2578.882908
552.724173	2578.792168
553.082267	2580.622107
553.440305	2577.819225
553.798288	2580.407857
554.156215	2580.647312
554.514086	2581.368197
554.871902	2580.370049
555.229661	2583.026737
555.587365	2581.443815
555.945014	2582.091603
556.302606	2579.145048
556.660143	2582.699062
557.017625	2579.213104
557.375050	2580.516242
557.732421	2580.798547
558.089735	2580.826273
558.446994	2580.475913
558.804197	2577.756211
559.161345	2579.865933
559.518437	2581.872313
559.875474	2578.245203
560.232455	2580.226376
560.589381	2579.220666
560.946251	2583.828280
561.303065	2580.233938
561.659825	2580.614545
562.016528	2578.943402
562.373177	2579.029102
562.729770	2582.157138
563.086307	2580.571695
563.442789	2579.956674
563.799216	2582.484813
564.155587	2579.417271
564.511904	2581.534555
564.868164	2580.289390
565.224370	2580.969946
565.580520	2582.386510
565.936615	2580.793506
566.292654	2580.344843
566.648638	2581.653022
567.004567	2579.555902
567.360441	2582.457087
567.716260	2580.556572
568.072023	2579.545820
568.427732	2578.308217
568.783385	2577.655388
569.138982	2575.951478
569.494525	2575.780078
569.850013	2578.620768
570.205445	2578.756880
570.560823	2578.207394
570.916145	2580.052456
571.271412	2581.095975
571.626625	2581.842066
571.981782	2581.247210
572.336884	2580.077662
572.691931	2579.898701
573.046923	2581.821901
573.401860	2577.547003
573.756743	2579.225707
574.111570	2579.976839
574.466342	2583.271233
574.821059	2581.834504
575.175722	2581.393403
575.530330	2580.785944
575.884882	2580.264185
576.239380	2580.269226
576.593823	2581.451376
576.948211	2582.230235
577.302544	2578.512384
577.656823	2580.695203
578.011047	2582.106726
578.365216	2577.912486
578.719330	2581.287539
579.073389	2578.590522
579.427394	2578.620768
579.781344	2579.724781
580.135239	2580.798547
580.489080	2579.339133
580.842866	2579.931468
581.196597	2583.510688
581.550273	2577.776375
581.903895	2579.548341
582.257463	2581.834504
582.610975	2579.223186
582.964434	2579.618917
583.317837	2580.435584
583.671186	2579.621437
584.024481	2582.043712
584.377721	2581.080852
584.730906	2581.474062
585.084037	2579.752507
585.437113	2579.749987
585.790135	2580.659915
586.143103	2578.086406
586.496016	2577.574729
586.848874	2576.339646
587.201679	2578.104050
587.554428	2576.674883
587.907124	2575.621282
588.259765	2577.378124
588.612352	2580.647312
588.964884	2577.940213
589.317362	2581.327868
589.669786	2579.114802
590.022155	2579.001376
590.374470	2582.825091
590.726731	2581.806778
591.078937	2578.275449
591.431090	2580.344843
591.783188	2579.150090
592.135232	2579.397106
592.487222	2579.273598
592.839157	2577.242013
593.191038	2578.167065
593.542866	2578.250244
593.894639	2579.127404
594.246358	2581.174113
594.598022	2579.039184
594.949633	2581.658064
595.301190	2578.925758
595.652692	2579.964236
596.004141	2579.129925
596.355535	2580.954823
596.706876	2578.509863
597.058162	2580.296952
597.409395	2578.076324
597.760573	2578.497260
598.111698	2577.194122
598.462768	2580.944740
598.813785	2578.973649
599.164748	2575.893504
599.515657	2577.355439
599.866511	2578.169585
600.217312	2579.283680
600.568060	2580.826273
600.918753	2581.705955
601.269392	2579.019020
601.619978	2582.930955
601.970510	2578.351067
602.320988	2579.177816
602.671412	2579.392065
603.021783	2581.645461
603.372100	2578.598083
603.722363	2577.448700
604.072572	2579.308886
604.422728	2579.470203
604.772830	2575.800243
605.122878	2576.659760
605.472872	2577.010120
605.822813	2577.806622
606.172701	2576.926941
606.522534	2579.228227
606.872314	2580.697724
607.222041	2579.492888
607.571714	2579.238310
607.921333	2578.673701
608.270899	2579.480285
608.620411	2580.685121
608.969870	2576.621951
609.319276	2579.021540
609.668627	2579.676890
610.017926	2576.541292
610.367171	2580.254102
610.716362	2578.124215
611.065500	2580.894329
611.414585	2580.422981
611.763616	2581.068249
612.112594	2579.760069
612.461518	2580.783423
612.810389	2581.325347
613.159207	2578.671180
613.507971	2580.249061
613.856682	2581.746284
614.205340	2579.210583
614.553945	2580.453228
614.902496	2580.717888
615.250994	2580.405337
615.599439	2577.705799
615.947830	2578.714030
616.296169	2577.496591
616.644454	2578.474575
616.992686	2579.422312
617.340864	2577.930130
617.688990	2578.978690
618.037063	2579.253433
618.385082	2576.997517
618.733048	2579.676890
619.080961	2579.762590
619.428821	2580.198650
619.776628	2580.390213
620.124382	2582.318455
620.472083	2580.092785
620.819731	2579.417271
621.167326	2579.548341
621.514868	2579.762590
621.862357	2577.189081
622.209793	2581.315265
622.557176	2579.502970
622.904506	2574.915520
623.251783	2576.125397
623.599007	2578.325861
623.946179	2574.734039
624.293297	2574.635736
624.640363	2578.255285
624.987376	2579.860892
625.334336	2578.197312
625.681243	2580.090265
626.028097	2577.360480
626.374899	2579.001376
626.721647	2578.701427
627.068343	2579.785275
627.414987	2578.840059
627.761577	2577.148752
628.108115	2578.973649
628.454600	2576.760583
628.801032	2579.767631
629.147412	2580.669997
629.493739	2575.510377
629.840014	2577.937692
630.186236	2578.371231
630.532405	2577.778896
630.878521	2577.433577
631.224585	2581.027919
631.570597	2578.766962
631.916556	2578.981211
632.262462	2576.886612
632.608316	2576.266550
632.954117	2577.473906
633.299866	2579.981880
633.645562	2577.330233
633.991206	2577.277301
634.336797	2577.988104
634.682336	2578.963567
635.027823	2579.548341
635.373257	2578.570357
635.718639	2578.444328
636.063968	2575.336457
636.409245	2579.419791
636.754470	2577.736046
637.099642	2576.831159
637.444762	2577.849472
637.789829	2575.767475
638.134845	2577.773855
638.479808	2578.071283
638.824719	2576.841241
639.169577	2577.173957
639.514383	2578.212435
639.859137	2578.482137
640.203839	2578.081365
640.548489	2577.441138
640.893086	2573.171281
641.237632	2574.739080
641.582125	2572.445355
641.926566	2573.425859
642.270955	2577.552044
642.615292	2577.363001
642.959576	2577.453741
643.303809	2576.382496
643.647990	2578.376272
643.992118	2575.628844
644.336195	2578.446849
