Dividing Wavelength (nm)	Counts (n)	Blue Motor Position (mm): 0.000000	Red Motor Position (mm): 4.500000	
326.493990	2085.285891
326.888308	2085.285891
327.282561	2085.285891
327.676750	2066.618499
328.070874	2064.675134
328.464933	2072.264591
328.858929	2079.977556
329.252859	2093.331573
329.646726	2108.341608
330.040528	2123.339041
330.434265	2144.869809
330.827938	2163.864877
331.221547	2184.170645
331.615091	2204.191587
332.008571	2221.664226
332.401986	2245.239182
332.795338	2264.534199
333.188625	2285.845677
333.581847	2303.245219
333.975006	2317.829277
334.368100	2340.375838
334.761129	2358.927284
335.154095	2371.409181
335.546996	2388.395349
335.939833	2400.610064
336.332606	2415.816705
336.725315	2427.310536
337.117960	2435.552822
337.510540	2440.856116
337.903056	2452.024792
338.295508	2456.818930
338.687896	2467.848974
339.080220	2471.483646
339.472480	2478.609317
339.864676	2479.400778
340.256807	2480.895481
340.648875	2485.427478
341.040879	2486.649958
341.432818	2487.340596
341.824694	2488.129536
342.216506	2485.634165
342.608253	2487.643065
342.999937	2487.391007
343.391557	2486.597026
343.783113	2486.002169
344.174605	2483.466469
344.566033	2482.160810
344.957397	2480.933289
345.348697	2477.800212
345.739934	2475.259471
346.131106	2474.107567
346.522215	2473.550519
346.913260	2469.981383
347.304241	2471.463482
347.695159	2467.775878
348.086012	2466.966772
348.476802	2463.301854
348.867528	2464.126082
349.258191	2464.163891
349.648789	2460.728345
350.039324	2461.008129
350.429796	2460.209106
350.820203	2457.383539
351.210548	2459.210957
351.600828	2456.067798
351.991045	2460.123406
352.381198	2456.148456
352.771288	2454.893209
353.161314	2458.691718
353.551276	2457.156687
353.941175	2457.628035
354.331010	2456.156018
354.720782	2459.881431
355.110490	2457.784311
355.500135	2458.802624
355.889717	2461.310598
356.279235	2458.089301
356.668689	2462.502831
357.058080	2461.857563
357.447408	2456.680298
357.836672	2456.342541
358.225873	2457.489403
358.615010	2456.778601
359.004084	2462.379323
359.393095	2462.923767
359.782043	2465.721608
360.170927	2465.580455
360.559748	2459.697429
360.948505	2462.994343
361.337199	2466.258490
361.725830	2465.935857
362.114398	2465.043572
362.502903	2466.215641
362.891344	2466.147585
363.279722	2470.087247
363.668037	2467.564149
364.056289	2467.811166
364.444478	2469.447020
364.832603	2467.032307
365.220665	2467.906948
365.608665	2470.082206
365.996601	2469.401650
366.384474	2469.510035
366.772284	2469.568008
367.160031	2471.745786
367.547715	2470.475416
367.935336	2472.539768
368.322893	2473.966415
368.710388	2472.973307
369.097820	2476.446662
369.485189	2474.667135
369.872495	2475.914821
370.259738	2474.357104
370.646918	2477.407002
371.034035	2476.963381
371.421090	2479.597383
371.808081	2482.856489
372.195010	2486.148363
372.581875	2488.968888
372.968678	2497.039776
373.355418	2497.581700
373.742096	2510.197187
374.128710	2512.894205
374.515262	2525.819723
374.901751	2534.490508
375.288177	2550.244113
375.674540	2560.694425
376.060841	2577.070614
376.447079	2595.722883
376.833254	2619.053343
377.219367	2635.578245
377.605417	2659.914415
377.991404	2677.482837
378.377329	2702.524768
378.763191	2725.013356
379.148991	2756.626431
379.534727	2784.546862
379.920402	2809.215748
380.306013	2835.286075
380.691563	2871.506766
381.077049	2897.438461
381.462474	2922.263623
381.847835	2953.264199
382.233134	2982.845690
382.618371	3003.292610
383.003545	3038.048845
383.388657	3065.802917
383.773706	3098.772063
384.158693	3118.271247
384.543618	3145.117911
384.928480	3164.813699
385.313280	3191.582226
385.698017	3217.042574
386.082692	3243.954774
386.467305	3246.964342
386.851856	3274.466357
387.236344	3309.903148
387.620770	3306.933909
388.005133	3321.608708
388.389435	3346.166688
388.773674	3341.758199
389.157851	3354.928214
389.541965	3362.542877
389.926018	3337.488342
390.310008	3359.858462
390.693936	3361.668237
391.077802	3357.400900
391.461606	3354.371166
391.845348	3348.697348
392.229027	3340.777695
392.612645	3351.860672
392.996200	3343.517562
393.379694	3339.792149
393.763125	3342.393385
394.146494	3319.849345
394.529801	3303.609268
394.913047	3302.762354
395.296230	3260.386415
395.679351	3223.752350
396.062410	3219.744632
396.445408	3161.909995
396.828343	3141.820997
397.211217	3112.630195
397.594028	3061.434758
397.976778	3037.872404
398.359466	3019.746936
398.742092	2979.826038
399.124656	2957.839046
399.507158	2937.429935
399.889598	2901.620098
400.271977	2885.440515
400.654294	2852.504136
401.036549	2829.554283
401.418742	2803.741055
401.800874	2787.422840
402.182944	2763.888213
402.564952	2750.594691
402.946898	2721.459342
403.328783	2699.585776
403.710606	2685.284022
404.092367	2670.904131
404.474067	2659.954745
404.855705	2636.803246
405.237282	2622.430916
405.618797	2615.522015
406.000250	2606.846189
406.381642	2593.270362
406.762972	2584.508836
407.144240	2571.525344
407.525447	2566.814386
407.906593	2557.992367
408.287677	2553.543549
408.668700	2550.483568
409.049661	2545.366797
409.430560	2537.860519
409.811399	2536.499408
410.192176	2533.441948
410.572891	2530.770136
410.953545	2529.698891
411.334138	2524.544311
411.714669	2526.175124
412.095139	2521.471728
412.475547	2521.965761
412.855894	2521.567510
413.236180	2522.240504
413.616405	2518.658764
413.996568	2515.651716
414.376670	2515.477796
414.756711	2514.388907
415.136691	2512.677435
415.516609	2512.972342
415.896466	2514.149452
416.276262	2513.801612
416.655997	2510.953360
417.035670	2509.176354
417.415283	2513.617610
417.794834	2507.414470
418.174324	2511.573422
418.553753	2510.461848
418.933121	2513.108454
419.312428	2508.851199
419.691674	2511.235665
420.070859	2509.383041
420.449983	2508.347084
420.829045	2513.053001
421.208047	2509.612413
421.586988	2512.367404
421.965867	2511.860768
422.344686	2513.148783
422.723444	2511.601149
423.102141	2512.737929
423.480777	2512.536283
423.859352	2513.287415
424.237866	2514.111643
424.616319	2513.594925
424.994712	2512.090141
425.373044	2513.577281
425.751314	2516.012158
426.129524	2511.170130
426.507673	2516.596932
426.885762	2514.260357
427.263789	2517.282529
427.641756	2516.881757
428.019662	2517.857221
428.397508	2516.488547
428.775292	2516.634741
429.153016	2517.983249
429.530679	2519.525843
429.908282	2516.607014
430.285824	2517.428723
430.663305	2515.538290
431.040726	2516.730523
431.418086	2515.495440
431.795385	2516.823784
432.172624	2520.322345
432.549802	2518.497447
432.926920	2518.812519
433.303977	2517.978208
433.680974	2518.767149
434.057910	2521.249917
434.434786	2517.927797
434.811601	2520.012314
435.188355	2518.920904
435.565050	2519.409896
435.941683	2521.133971
436.318257	2520.861748
436.694770	2517.640451
437.071222	2521.116327
437.447614	2516.821263
437.823946	2518.265554
438.200218	2521.718744
438.576429	2520.949968
438.952580	2517.083403
439.328670	2522.081707
439.704700	2522.787469
440.080670	2522.789990
440.456580	2521.854856
440.832429	2524.435926
441.208218	2522.111954
441.583947	2524.478776
441.959616	2522.726975
442.335224	2525.232429
442.710773	2526.142357
443.086261	2526.888448
443.461689	2524.992974
443.837057	2524.110772
444.212365	2523.407531
444.587612	2525.592871
444.962800	2521.474248
445.337927	2525.923067
445.712995	2522.127078
446.088002	2525.875176
446.462949	2525.272758
446.837837	2525.108920
447.212664	2525.217305
447.587431	2528.970444
447.962139	2531.241484
448.336786	2536.683410
448.711374	2528.698222
449.085901	2528.315094
449.460369	2527.647141
449.834776	2526.986750
450.209124	2532.494211
450.583412	2531.087729
450.957640	2531.309540
451.331808	2528.463808
451.705917	2526.578417
452.079965	2530.492873
452.453954	2527.606812
452.827883	2528.481452
453.201752	2524.932480
453.575562	2527.014477
453.949311	2525.040865
454.323001	2528.788963
454.696632	2526.550690
455.070202	2528.983047
455.443713	2531.599406
455.817164	2526.810310
456.190556	2526.396935
456.563888	2524.072963
456.937160	2525.038344
457.310373	2528.191586
457.683526	2528.418438
458.056619	2528.312574
458.429653	2528.622605
458.802628	2527.753006
459.175542	2531.256607
459.548398	2531.019673
459.921194	2530.409694
460.293930	2533.567977
460.666607	2534.399767
461.039224	2536.791794
461.411782	2535.261804
461.784280	2535.229037
462.156719	2532.179139
462.529099	2534.974458
462.901419	2530.644107
463.273680	2531.969931
463.645882	2532.138809
464.018024	2531.932122
464.390106	2533.709129
464.762130	2534.752648
465.134094	2537.290869
465.505999	2544.502239
465.877845	2549.371994
466.249631	2550.100441
466.621358	2549.162786
466.993026	2547.985677
467.364634	2546.075079
467.736184	2541.596014
468.107674	2539.657690
468.479105	2539.897145
468.850477	2540.537372
469.221790	2535.544109
469.593043	2535.075282
469.964238	2533.081505
470.335373	2531.138140
470.706449	2536.275076
471.077467	2537.079140
471.448425	2539.846734
471.819324	2540.844882
472.190164	2539.992927
472.560945	2539.037628
472.931667	2537.038811
473.302330	2532.237112
473.672934	2532.272400
474.043479	2534.455220
474.413965	2533.048738
474.784393	2527.889117
475.154761	2530.573531
475.525070	2527.939528
475.895321	2526.490197
476.265513	2526.459950
476.635645	2531.473377
477.005719	2530.704601
477.375734	2532.428676
477.745691	2531.065044
478.115588	2535.110570
478.485427	2533.557894
478.855207	2539.067875
479.224928	2537.686599
479.594591	2539.579552
479.964194	2538.036959
480.333739	2537.842875
480.703226	2537.996630
481.072653	2537.520241
481.442022	2540.643236
481.811333	2539.521579
482.180584	2538.238606
482.549777	2538.195756
482.918912	2537.099305
483.287988	2539.647608
483.657005	2537.280786
484.025964	2535.183666
484.394864	2535.831455
484.763706	2536.023018
485.132489	2535.463450
485.501213	2533.245343
485.869879	2533.315919
486.238487	2532.428676
486.607036	2534.868594
486.975527	2536.459078
487.343959	2533.613347
487.712333	2535.622247
488.080648	2538.253729
488.448905	2535.014788
488.817104	2535.281969
489.185244	2533.504962
489.553326	2535.203831
489.921350	2539.882022
490.289315	2537.754655
490.657222	2540.401261
491.025070	2539.332536
491.392861	2541.026364
491.760593	2538.611651
492.128267	2539.168698
492.495883	2537.232895
492.863440	2535.072761
493.230939	2534.125024
493.598380	2534.127545
493.965763	2528.693181
494.333088	2528.587317
494.700354	2528.365506
495.067563	2532.330373
495.434713	2528.799045
495.801805	2532.526978
496.168839	2532.292565
496.535815	2533.149561
496.902733	2530.389529
497.269593	2531.899355
497.636395	2527.949611
498.003139	2532.405991
498.369825	2534.374561
498.736453	2532.509334
499.103023	2529.474560
499.469535	2529.721576
499.835989	2530.200486
500.202385	2531.730476
500.568723	2529.109076
500.935003	2529.661082
501.301226	2529.416586
501.667390	2528.975485
502.033497	2532.153933
502.399546	2531.554036
502.765537	2529.277955
503.131470	2529.209899
503.497345	2532.736186
503.863163	2532.350538
504.228923	2527.632018
504.594625	2524.766122
504.960269	2526.535567
505.325856	2531.390198
505.691385	2529.391381
506.056856	2532.600075
506.422270	2530.266021
506.787625	2531.301978
507.152924	2528.473891
507.518164	2531.566638
507.883347	2529.771988
508.248472	2527.561442
508.613540	2528.771319
508.978550	2527.014477
509.343503	2526.621267
509.708398	2531.473377
510.073236	2527.974816
510.438016	2529.313243
510.802738	2530.266021
511.167403	2532.282482
511.532010	2527.637059
511.896561	2530.283665
512.261053	2533.038655
512.625488	2526.999353
512.989866	2527.611853
513.354186	2528.857018
513.718449	2527.092614
514.082655	2529.197296
514.446803	2526.127233
514.810894	2531.168387
515.174927	2527.637059
515.538904	2532.660569
515.902822	2529.724097
516.266684	2528.899868
516.630488	2531.160826
516.994235	2526.172604
517.357925	2531.554036
517.721558	2528.390712
518.085133	2528.403314
518.448651	2530.628984
518.812112	2527.022038
519.175516	2530.313912
519.538863	2527.803417
519.902152	2529.008253
520.265385	2526.959024
520.628560	2527.979857
520.991678	2529.842564
521.354739	2528.357944
521.717743	2527.616894
522.080690	2530.475229
522.443580	2530.288706
522.806413	2531.140661
523.169189	2528.791483
523.531908	2528.980527
523.894569	2525.650844
524.257174	2530.182842
524.619722	2529.381298
524.982213	2530.611340
525.344647	2527.788294
525.707025	2530.621422
526.069345	2526.023890
526.431608	2529.774508
526.793815	2526.003725
527.155964	2526.903571
527.518057	2524.859383
527.880093	2531.778367
528.242072	2528.060516
528.603995	2529.656041
528.965860	2527.969775
529.327669	2526.472552
529.689421	2526.419620
530.051117	2530.323994
530.412755	2525.784435
530.774337	2526.560773
531.135862	2529.530012
531.497331	2525.534898
531.858743	2522.522808
532.220098	2523.636903
532.581396	2523.281502
532.942638	2523.984743
533.303824	2525.441637
533.664953	2528.602440
534.026025	2526.016328
534.387040	2529.030938
534.747999	2526.354085
535.108902	2526.195289
535.469748	2527.367357
535.830537	2526.966586
536.191270	2528.287368
536.551947	2525.131606
536.912567	2525.842408
537.273131	2525.229908
537.633638	2529.222502
537.994089	2526.273427
538.354483	2526.669158
538.714821	2525.330731
539.075103	2529.396422
539.435328	2525.459281
539.795497	2526.233098
540.155609	2524.065402
540.515665	2526.525485
540.875665	2524.171266
541.235609	2526.732172
541.595496	2525.519774
541.955328	2527.563962
542.315102	2524.125895
542.674821	2525.517254
543.034483	2526.497758
543.394090	2528.441123
543.753640	2525.761750
544.113134	2526.671678
544.472571	2526.124713
544.831953	2527.321987
545.191278	2525.912984
545.550548	2524.420803
545.909761	2524.027593
546.268918	2527.465660
546.628019	2525.668488
546.987064	2524.839219
547.346053	2526.157480
547.704986	2524.614887
548.063863	2529.043541
548.422684	2524.476256
548.781449	2522.240504
549.140158	2526.480114
549.498811	2527.077491
549.857408	2523.425175
550.215949	2523.006759
550.574434	2521.375946
550.932864	2523.634383
551.291237	2521.857376
551.649555	2526.694363
552.007817	2522.732016
552.366022	2525.620597
552.724173	2525.020700
553.082267	2524.768643
553.440305	2521.786800
553.798288	2527.974816
554.156215	2523.082377
554.514086	2525.292922
554.871902	2527.080012
555.229661	2524.188910
555.587365	2523.873838
555.945014	2524.040196
556.302606	2526.654034
556.660143	2526.006246
557.017625	2524.627490
557.375050	2524.856863
557.732421	2524.871986
558.089735	2525.880217
558.446994	2524.312418
558.804197	2527.047244
559.161345	2525.446678
559.518437	2524.050278
559.875474	2521.922911
560.232455	2526.820392
560.589381	2522.482479
560.946251	2526.308715
561.303065	2524.198992
561.659825	2522.936183
562.016528	2523.871317
562.373177	2525.207223
562.729770	2524.163704
563.086307	2525.182017
563.442789	2525.978519
563.799216	2527.750485
564.155587	2524.438447
564.511904	2523.384846
564.868164	2527.016997
565.224370	2523.710000
565.580520	2524.761081
565.936615	2523.780576
566.292654	2526.454908
566.648638	2527.148067
567.004567	2523.243693
567.360441	2524.186389
567.716260	2524.088087
568.072023	2523.775535
568.427732	2521.126409
568.783385	2522.124557
569.138982	2521.126409
569.494525	2520.924763
569.850013	2520.624814
570.205445	2521.922911
570.560823	2524.093128
570.916145	2523.914167
571.271412	2523.747809
571.626625	2526.275947
571.981782	2522.374094
572.336884	2525.797038
572.691931	2523.251255
573.046923	2525.761750
573.401860	2525.371060
573.756743	2526.878365
574.111570	2523.478107
574.466342	2524.425844
574.821059	2524.728313
575.175722	2522.507685
575.530330	2523.767973
575.884882	2524.647655
576.239380	2524.650175
576.593823	2527.269055
576.948211	2523.815864
577.302544	2525.577748
577.656823	2523.291584
578.011047	2523.682274
578.365216	2523.442819
578.719330	2523.881399
579.073389	2527.357275
579.427394	2521.680936
579.781344	2523.644465
580.135239	2524.425844
580.489080	2520.828981
580.842866	2526.555732
581.196597	2527.546318
581.550273	2522.308559
581.903895	2522.517767
582.257463	2525.025741
582.610975	2523.483148
582.964434	2522.157325
583.317837	2522.837881
583.671186	2526.626308
584.024481	2523.369722
584.377721	2521.169259
584.730906	2522.946265
585.084037	2522.699249
585.437113	2524.161183
585.790135	2521.653209
586.143103	2524.128416
586.496016	2524.125895
586.848874	2519.472910
587.201679	2519.727489
587.554428	2520.702952
587.907124	2520.337468
588.259765	2519.992149
588.612352	2523.604136
588.964884	2521.716224
589.317362	2524.002387
589.669786	2522.648837
590.022155	2523.405010
590.374470	2522.800072
590.726731	2520.085411
591.078937	2523.193282
591.431090	2521.673374
591.783188	2520.367715
592.135232	2524.851822
592.487222	2522.492562
592.839157	2524.619928
593.191038	2523.266379
593.542866	2521.436440
593.894639	2524.476256
594.246358	2521.474248
594.598022	2524.244363
594.949633	2523.757891
595.301190	2520.531553
595.652692	2522.903416
596.004141	2519.843435
596.355535	2522.313601
596.706876	2523.619259
597.058162	2521.154135
597.409395	2524.057840
597.760573	2524.211595
598.111698	2521.713703
598.462768	2520.952489
598.813785	2522.190092
599.164748	2521.723786
599.515657	2520.884433
599.866511	2523.445340
600.217312	2521.199506
600.568060	2523.684794
600.918753	2525.267717
601.269392	2520.705473
601.619978	2522.953827
601.970510	2521.789321
602.320988	2521.958199
602.671412	2522.989115
603.021783	2522.341327
603.372100	2524.342665
603.722363	2522.046419
604.072572	2522.016173
604.422728	2522.744619
604.772830	2517.224556
605.122878	2520.753363
605.472872	2519.172962
605.822813	2518.172293
606.172701	2519.941738
606.522534	2521.912829
606.872314	2520.576923
607.222041	2522.444671
607.571714	2522.916018
607.921333	2520.859228
608.270899	2519.702283
608.620411	2521.295287
608.969870	2524.710669
609.319276	2522.245545
609.668627	2521.998528
610.017926	2522.827798
610.367171	2520.627335
610.716362	2524.667819
611.065500	2522.779907
611.414585	2525.360978
611.763616	2521.849814
612.112594	2521.252438
612.461518	2522.384177
612.810389	2521.431399
613.159207	2520.559279
613.507971	2523.072294
613.856682	2522.033817
614.205340	2521.239835
614.553945	2522.820237
614.902496	2522.091790
615.250994	2521.479290
615.599439	2523.001718
615.947830	2524.705628
616.296169	2523.735206
616.644454	2523.788138
616.992686	2519.661954
617.340864	2521.128929
617.688990	2521.764115
618.037063	2522.563138
618.385082	2522.389218
618.733048	2521.849814
619.080961	2519.447705
619.428821	2522.285874
619.776628	2520.440812
620.124382	2522.716893
620.472083	2521.459125
620.819731	2521.375946
621.167326	2521.970802
621.514868	2523.034486
621.862357	2523.263858
622.209793	2522.028775
622.557176	2521.688498
622.904506	2521.023065
623.251783	2518.999042
623.599007	2520.866789
623.946179	2515.553413
624.293297	2518.716737
624.640363	2519.919052
624.987376	2521.297808
625.334336	2522.379136
625.681243	2522.550535
626.028097	2518.631038
626.374899	2520.400483
626.721647	2520.929804
627.068343	2522.066584
627.414987	2521.144053
627.761577	2520.397962
628.108115	2520.294618
628.454600	2521.688498
628.801032	2522.134640
629.147412	2520.423168
629.493739	2522.197654
629.840014	2520.715555
630.186236	2521.040709
630.532405	2519.908970
630.878521	2519.341840
631.224585	2522.527850
631.570597	2517.622807
631.916556	2521.186903
632.262462	2521.489372
632.608316	2520.256810
632.954117	2520.105575
633.299866	2518.913342
633.645562	2518.449556
633.991206	2518.643641
634.336797	2519.495596
634.682336	2520.932324
635.027823	2520.029958
635.373257	2517.610204
635.718639	2521.799403
636.063968	2520.017355
636.409245	2520.297139
636.754470	2519.939217
637.099642	2518.978877
637.444762	2523.089938
637.789829	2521.451563
638.134845	2517.859741
638.479808	2517.660616
638.824719	2518.338651
639.169577	2519.661954
639.514383	2520.430730
639.859137	2518.212622
640.203839	2519.117509
640.548489	2518.552900
640.893086	2518.888137
641.237632	2516.395286
641.582125	2516.261695
641.926566	2516.249092
642.270955	2517.892509
642.615292	2520.234125
642.959576	2520.370236
643.303809	2517.723630
643.647990	2520.171110
643.992118	2518.212622
644.336195	2517.950482
