Dividing Wavelength (nm)	Counts (n)	Blue Motor Position (mm): 0.000000	Red Motor Position (mm): 42.000000	
326.493990	2139.158182
326.888308	2139.158182
327.282561	2139.158182
327.676750	2113.440736
328.070874	2112.666918
328.464933	2117.927363
328.858929	2127.805503
329.252859	2141.633388
329.646726	2154.357261
330.040528	2167.164312
330.434265	2186.955882
330.827938	2205.809798
331.221547	2227.940463
331.615091	2247.013668
332.008571	2267.145516
332.401986	2288.235183
332.795338	2308.931641
333.188625	2324.879331
333.581847	2344.489419
333.975006	2363.860053
334.368100	2381.176416
334.761129	2400.728532
335.154095	2416.086407
335.546996	2439.469799
335.939833	2459.952007
336.332606	2476.565129
336.725315	2486.181130
337.117960	2492.890906
337.510540	2505.022443
337.903056	2511.457476
338.295508	2516.465862
338.687896	2522.474918
339.080220	2533.550332
339.472480	2536.176774
339.864676	2543.231868
340.256807	2542.755479
340.648875	2551.600184
341.040879	2548.628424
341.432818	2549.550955
341.824694	2552.767211
342.216506	2552.099258
342.608253	2554.019938
342.999937	2551.436346
343.391557	2548.877961
343.783113	2548.414175
344.174605	2546.415357
344.566033	2544.139276
344.957397	2543.831766
345.348697	2544.023330
345.739934	2540.348328
346.131106	2540.197094
346.522215	2536.552340
346.913260	2533.817514
347.304241	2534.233409
347.695159	2532.330373
348.086012	2531.717873
348.476802	2529.295599
348.867528	2527.029600
349.258191	2525.308046
349.648789	2526.134795
350.039324	2524.534229
350.429796	2524.088087
350.820203	2522.051461
351.210548	2521.970802
351.600828	2519.059536
351.991045	2520.486182
352.381198	2519.301511
352.771288	2518.580626
353.161314	2520.057684
353.551276	2519.810668
353.941175	2521.002901
354.331010	2521.509537
354.720782	2517.864782
355.110490	2518.560462
355.500135	2519.656913
355.889717	2519.886285
356.279235	2522.646317
356.668689	2520.206398
357.058080	2521.517098
357.447408	2519.359484
357.836672	2518.124402
358.225873	2520.430730
358.615010	2518.812519
359.004084	2523.621780
359.393095	2523.833508
359.782043	2526.528005
360.170927	2525.050947
360.559748	2526.200330
360.948505	2528.352903
361.337199	2527.463139
361.725830	2525.774353
362.114398	2528.093283
362.502903	2530.762574
362.891344	2531.506145
363.279722	2528.279806
363.668037	2529.824920
364.056289	2528.337779
364.444478	2530.563449
364.832603	2530.495393
365.220665	2531.722914
365.608665	2528.922553
365.996601	2534.142668
366.384474	2532.655528
366.772284	2533.479756
367.160031	2532.239632
367.547715	2533.893131
367.935336	2534.137627
368.322893	2533.903213
368.710388	2534.185518
369.097820	2541.303627
369.485189	2534.046886
369.872495	2536.136444
370.259738	2534.951773
370.646918	2535.531506
371.034035	2538.636857
371.421090	2538.987217
371.808081	2536.360776
372.195010	2539.234233
372.581875	2539.559388
372.968678	2541.054090
373.355418	2542.793288
373.742096	2541.656508
374.128710	2542.619368
374.515262	2543.814122
374.901751	2544.834955
375.288177	2547.239586
375.674540	2548.295708
376.060841	2550.901984
376.447079	2548.865358
376.833254	2551.479196
377.219367	2551.791748
377.605417	2554.098076
377.991404	2555.872562
378.377329	2557.352140
378.763191	2559.776935
379.148991	2566.700960
379.534727	2572.107598
379.920402	2571.797567
380.306013	2579.334092
380.691563	2584.032447
381.077049	2586.784917
381.462474	2590.850608
381.847835	2597.187338
382.233134	2601.825200
382.618371	2606.142948
383.003545	2614.571757
383.388657	2619.365894
383.773706	2622.345216
384.158693	2631.048768
384.543618	2639.343987
384.928480	2644.964874
385.313280	2652.965185
385.698017	2659.856442
386.082692	2670.757937
386.467305	2672.398833
386.851856	2683.446522
387.236344	2694.746268
387.620770	2700.359593
388.005133	2708.843855
388.389435	2721.973540
388.773674	2728.625342
389.157851	2737.898545
389.541965	2744.414236
389.926018	2747.693507
390.310008	2762.171701
390.693936	2772.334667
391.077802	2780.350101
391.461606	2788.995680
391.845348	2799.778708
392.229027	2808.724236
392.612645	2824.923984
392.996200	2829.231650
393.379694	2842.197497
393.763125	2861.361444
394.146494	2868.860160
394.529801	2877.619165
394.913047	2894.751526
395.296230	2901.408370
395.679351	2903.903741
396.062410	2921.099117
396.445408	2920.784045
396.828343	2932.030859
397.211217	2937.833227
397.594028	2933.011363
397.976778	2948.180195
398.359466	2961.624953
398.742092	2955.754529
399.124656	2970.477219
399.507158	2988.658140
399.889598	2989.590753
400.271977	3006.735718
400.654294	3012.354084
401.036549	3026.118954
401.418742	3030.456867
401.800874	3051.375135
402.182944	3062.798390
402.564952	3086.804364
402.946898	3079.890422
403.328783	3086.529621
403.710606	3104.133331
404.092367	3124.325672
404.474067	3154.711227
404.855705	3144.276039
405.237282	3145.773261
405.618797	3177.714012
406.000250	3196.779656
406.381642	3230.288206
406.762972	3232.445819
407.144240	3221.567009
407.525447	3246.119949
407.906593	3245.396544
408.287677	3267.408742
408.668700	3286.108902
409.049661	3281.687810
409.430560	3299.803197
409.811399	3304.191521
410.192176	3324.764470
410.572891	3333.528516
410.953545	3367.820965
411.334138	3340.069413
411.714669	3390.707803
412.095139	3335.466839
412.475547	3388.086403
412.855894	3376.141389
413.236180	3405.843868
413.616405	3388.716548
413.996568	3414.534817
414.376670	3413.970208
414.756711	3409.347470
415.136691	3437.905606
415.516609	3461.946869
415.896466	3465.130357
416.276262	3490.842763
416.655997	3524.449615
417.035670	3529.934390
417.415283	3597.246397
417.794834	3619.074593
418.174324	3600.029114
418.553753	3599.706480
418.933121	3645.701968
419.312428	3634.586223
419.691674	3630.417189
420.070859	3667.567972
420.449983	3649.210611
420.829045	3698.568548
421.208047	3681.592462
421.586988	3727.633321
421.965867	3756.304883
422.344686	3766.104886
422.723444	3805.304898
423.102141	3709.883418
423.480777	3815.956857
423.859352	3782.085344
424.237866	3878.207545
424.616319	3863.590719
424.994712	3922.635234
425.373044	3911.854726
425.751314	3976.789829
426.129524	3911.519489
426.507673	4010.709232
426.885762	3987.966067
427.263789	4007.193028
427.641756	4016.569574
428.019662	4044.159809
428.397508	4047.237433
428.775292	4085.507353
429.153016	4090.321655
429.530679	4102.269189
429.908282	4110.710601
430.285824	4087.473403
430.663305	4159.952592
431.040726	4118.408443
431.418086	4110.655149
431.795385	4184.071993
432.172624	4221.159762
432.549802	4191.185061
432.926920	4205.925395
433.303977	4197.085731
433.680974	4239.254983
434.057910	4262.703910
434.434786	4264.927059
434.811601	4262.035958
435.188355	4370.549315
435.565050	4341.217361
435.941683	4335.954396
436.318257	4425.442439
436.694770	4429.240948
437.071222	4486.032067
437.447614	4423.809105
437.823946	4424.280453
438.200218	4444.308957
438.576429	4423.531842
438.952580	4450.615441
439.328670	4453.350267
439.704700	4497.316690
440.080670	4463.440136
440.456580	4522.270401
440.832429	4555.930186
441.208218	4464.304694
441.583947	4510.958052
441.959616	4531.823388
442.335224	4552.393816
442.710773	4575.424328
443.086261	4628.984067
443.461689	4583.351542
443.837057	4591.677008
444.212365	4670.966796
444.587612	4674.087270
444.962800	4642.333042
445.337927	4683.073127
445.712995	4571.368719
446.088002	4760.275877
446.462949	4779.500317
446.837837	4800.413544
447.212664	4789.454076
447.587431	5010.904403
447.962139	5306.346265
448.336786	5646.228419
448.711374	5636.390607
449.085901	5284.102173
449.460369	5218.221854
449.834776	5154.342873
450.209124	5386.563625
450.583412	5394.563937
450.957640	5519.312330
451.331808	5381.686309
451.705917	5230.973453
452.079965	5225.649995
452.453954	5264.789513
452.827883	5227.863061
453.201752	5235.094596
453.575562	5266.465697
453.949311	5396.701386
454.323001	5404.711779
454.696632	5392.663422
455.070202	5548.666968
455.443713	5579.170990
455.817164	5670.919990
456.190556	5740.157718
456.563888	5714.924222
456.937160	5794.629906
457.310373	5640.131143
457.683526	5696.183733
458.056619	5685.884656
458.429653	5671.151883
458.802628	5714.054623
459.175542	5746.945632
459.548398	5881.814141
459.921194	6070.446556
460.293930	6131.041225
460.666607	6382.924998
461.039224	6588.914106
461.411782	6720.228602
461.784280	6638.864379
462.156719	6643.671119
462.529099	6608.733402
462.901419	6464.163192
463.273680	6335.646537
463.645882	6324.868550
464.018024	6321.395195
464.390106	6387.386419
464.762130	6646.539535
465.134094	7028.830396
465.505999	7658.783063
465.877845	8362.530661
466.249631	8721.082728
466.621358	8658.663161
466.993026	8457.503478
467.364634	8245.142352
467.736184	7964.264383
468.107674	7807.640774
468.479105	7724.489462
468.850477	7662.200965
469.221790	7480.820250
469.593043	7264.012826
469.964238	7163.035994
470.335373	7140.547407
470.706449	7287.749099
471.077467	7469.835576
471.448425	8128.840412
471.819324	8710.168630
472.190164	8752.549610
472.560945	8275.263246
472.931667	7808.495250
473.302330	7614.330168
473.672934	7490.910119
474.043479	7566.487098
474.413965	7470.276677
474.784393	7418.539315
475.154761	7573.685866
475.525070	7580.756084
475.895321	7531.786315
476.265513	7634.305741
476.635645	7801.193139
477.005719	7790.768033
477.375734	7873.871454
477.745691	7980.194429
478.115588	8188.804937
478.485427	8421.181965
478.855207	8892.043378
479.224928	9321.204367
479.594591	9707.548315
479.964194	9720.678001
480.333739	9804.456936
480.703226	9805.460126
481.072653	9905.022914
481.442022	10016.220686
481.811333	10174.545684
482.180584	10009.364717
482.549777	9955.409247
482.918912	9891.142097
483.287988	9875.464109
483.657005	9786.011354
484.025964	9701.047747
484.394864	9760.122509
484.763706	9718.606086
485.132489	9634.958221
485.501213	9625.584195
485.869879	9686.360346
486.238487	9620.464903
486.607036	9692.341675
486.975527	9645.461465
487.343959	9698.620432
487.712333	9744.958718
488.080648	9784.456158
488.448905	9886.587415
488.817104	9892.278878
489.185244	10054.152848
489.553326	10268.573286
489.921350	10730.103523
490.289315	11353.898421
490.657222	11645.690488
491.025070	11832.460197
491.392861	11748.996333
491.760593	11590.202507
492.128267	11347.665034
492.495883	11104.416758
492.863440	10870.290450
493.230939	10645.520523
493.598380	10463.111413
493.965763	10439.410428
494.333088	10302.424634
494.700354	10231.195651
495.067563	10205.155570
495.434713	10214.776612
495.801805	10266.584551
496.168839	10216.684689
496.535815	10189.480102
496.902733	10229.476617
497.269593	10188.716368
497.636395	10199.688439
498.003139	10312.174225
498.369825	10224.069980
498.736453	10323.184105
499.103023	10265.611608
499.469535	10276.253484
499.835989	10323.128653
500.202385	10296.786103
500.568723	10316.345780
500.935003	10377.668896
501.301226	10342.711015
501.667390	10517.722232
502.033497	10622.414395
502.399546	10543.094360
502.765537	10444.582652
503.131470	10546.464371
503.497345	10641.096911
503.863163	10420.165823
504.228923	10547.404546
504.594625	10667.696559
504.960269	10575.866901
505.325856	10725.992462
505.691385	10601.818761
506.056856	10665.284367
506.422270	10770.808320
506.787625	10698.732423
507.152924	10757.199725
507.518164	10817.053345
507.883347	10689.217245
508.248472	10759.203584
508.613540	10874.903106
508.978550	10943.830802
509.343503	10927.562999
509.708398	10983.673562
510.073236	11102.740574
510.438016	11118.640374
510.802738	11034.120388
511.167403	11159.355253
511.532010	11215.707791
511.896561	11310.461319
512.261053	11517.415808
512.625488	11430.818867
512.989866	11419.892166
513.354186	11395.195553
513.718449	11399.374670
514.082655	11544.002853
514.446803	11493.377065
514.810894	11610.389808
515.174927	11607.473500
515.538904	11585.799059
515.902822	11752.847774
516.266684	11618.768206
516.630488	11722.121942
516.994235	11708.145343
517.357925	11822.589617
517.721558	11883.035572
518.085133	11944.996394
518.448651	11977.758853
518.812112	11939.554469
519.175516	11942.173348
519.538863	12036.914273
519.902152	12045.070860
520.265385	12146.839153
520.628560	12161.511432
520.991678	12115.226077
521.354739	12174.333606
521.717743	12245.131571
522.080690	12214.360368
522.443580	12348.739885
522.806413	12349.574196
523.169189	12352.195596
523.531908	12410.436047
523.894569	12381.094011
524.257174	12387.967624
524.619722	12488.969662
524.982213	12472.563227
525.344647	12455.705608
525.707025	12465.069552
526.069345	12571.611818
526.431608	12548.992160
526.793815	12632.544244
527.155964	12527.161443
527.518057	12558.424159
527.880093	12512.279957
528.242072	12624.395219
528.603995	12556.027090
528.965860	12562.784757
529.327669	12599.285232
529.689421	12548.997201
530.051117	12559.933985
530.412755	12595.532093
530.774337	12605.692538
531.135862	12574.618866
531.497331	12618.413890
531.858743	12582.167994
532.220098	12666.226713
532.581396	12586.493304
532.942638	12511.022189
533.303824	12578.339237
533.664953	12562.177298
534.026025	12517.028724
534.387040	12622.514868
534.747999	12594.614602
535.108902	12633.915438
535.469748	12517.794980
535.830537	12546.945452
536.191270	12578.067015
536.551947	12506.369204
536.912567	12573.855131
537.273131	12607.613218
537.633638	12486.945639
537.994089	12540.538145
538.354483	12450.609002
538.714821	12574.812950
539.075103	12657.545847
539.435328	12604.911159
539.795497	12582.031883
540.155609	12580.638003
540.515665	12671.968588
540.875665	12535.630582
541.235609	12635.263947
541.595496	12596.610899
541.955328	12765.297989
542.315102	12616.203344
542.674821	12546.869834
543.034483	12568.224162
543.394090	12567.757855
543.753640	12534.813915
544.113134	12780.154270
544.472571	12552.657079
544.831953	12826.585817
545.191278	12636.877116
545.550548	12579.256727
545.909761	12687.364272
546.268918	12729.772978
546.628019	12800.397023
546.987064	12691.561032
547.346053	12532.719316
547.704986	12740.382087
548.063863	12621.652831
548.422684	12670.451200
548.781449	12627.906383
549.140158	12730.239285
549.498811	12673.448166
549.857408	12547.494937
550.215949	12744.142787
550.574434	12709.520143
550.932864	12649.943787
551.291237	12848.025845
551.649555	12739.643558
552.007817	12805.458342
552.366022	12718.334600
552.724173	12766.843103
553.082267	12852.232687
553.440305	12934.514401
553.798288	12764.841765
554.156215	12835.213752
554.514086	12887.256104
554.871902	12825.050786
555.229661	12849.023993
555.587365	12786.629632
555.945014	12811.989156
556.302606	12802.295017
556.660143	12865.576622
557.017625	12891.969583
557.375050	12850.891741
557.732421	12951.031741
558.089735	12949.474025
558.446994	12911.330134
558.804197	13033.502498
559.161345	13028.559646
559.518437	12839.317251
559.875474	12936.931634
560.232455	12972.998569
560.589381	13025.235005
560.946251	12950.449488
561.303065	13126.141261
561.659825	13086.618615
562.016528	12992.071775
562.373177	12940.331892
562.729770	13052.860528
563.086307	12936.919031
563.442789	13044.943396
563.799216	13087.072319
564.155587	13026.858257
564.511904	13059.015777
564.868164	13063.583063
565.224370	13122.798976
565.580520	13075.243251
565.936615	13130.794246
566.292654	13069.135893
566.648638	13144.085248
567.004567	13153.444150
567.360441	13142.716575
567.716260	13110.899332
568.072023	13191.598123
568.427732	13175.428622
568.783385	13072.692427
569.138982	13186.909850
569.494525	13185.236187
569.850013	13139.134835
570.205445	13130.297693
570.560823	13140.017037
570.916145	13094.006426
571.271412	13105.631327
571.626625	13066.365779
571.981782	13059.885376
572.336884	12998.985717
572.691931	13088.899737
573.046923	12986.161022
573.401860	12954.641207
573.756743	12951.765229
574.111570	12981.182882
574.466342	12958.129686
574.821059	13014.318387
575.175722	12883.939025
575.530330	12914.911874
575.884882	12843.037623
576.239380	12831.899193
576.593823	12817.536946
576.948211	12816.125423
577.302544	12688.017101
577.656823	12706.772714
578.011047	12764.171292
578.365216	12709.822612
578.719330	12642.079587
579.073389	12615.326183
579.427394	12627.661887
579.781344	12612.223353
580.135239	12545.919577
580.489080	12565.302813
580.842866	12437.325561
581.196597	12538.693083
581.550273	12530.574305
581.903895	12495.071979
582.257463	12598.826487
582.610975	12451.455916
582.964434	12516.000329
583.317837	12440.720778
583.671186	12401.614027
584.024481	12443.861417
584.377721	12334.009634
584.730906	12402.415571
585.084037	12416.157756
585.437113	12334.145745
585.790135	12358.343283
586.143103	12276.900923
586.496016	12293.226699
586.848874	12300.349850
587.201679	12296.679890
587.554428	12168.475786
587.907124	12217.569062
588.259765	12152.013898
588.612352	12222.201883
588.964884	12090.610123
589.317362	12137.505457
589.669786	12128.123870
590.022155	12081.677199
590.374470	12182.137313
590.726731	12060.605176
591.078937	11947.504368
591.431090	11983.735141
591.783188	11909.993143
592.135232	11829.400216
592.487222	11891.376162
592.839157	11899.711709
593.191038	11834.869868
593.542866	11783.059409
593.894639	11634.892336
594.246358	11707.237935
594.598022	11706.643079
594.949633	11613.817793
595.301190	11598.820360
595.652692	11558.493650
596.004141	11640.654375
596.355535	11425.031622
596.706876	11405.749209
597.058162	11378.766433
597.409395	11463.336830
597.760573	11493.583753
598.111698	11388.442927
598.462768	11382.615354
598.813785	11394.083979
599.164748	11264.455749
599.515657	11333.302787
599.866511	11205.809485
600.217312	11333.799340
600.568060	11097.401992
600.918753	11267.044381
601.269392	11266.749474
601.619978	11168.300780
601.970510	11204.569362
602.320988	11248.198027
602.671412	11314.902575
603.021783	11238.115720
603.372100	11162.667291
603.722363	11178.937615
604.072572	11185.917092
604.422728	11195.124760
604.772830	11132.743002
605.122878	11139.929166
605.472872	11108.512696
605.822813	11161.727116
606.172701	11122.557350
606.522534	11162.160655
606.872314	11210.381812
607.222041	11142.991667
607.571714	11216.942874
607.921333	11080.781308
608.270899	11131.175203
608.620411	11188.185612
608.969870	11135.654268
609.319276	11109.629311
609.668627	11125.745880
610.017926	11209.136647
610.367171	11236.348795
610.716362	11227.156251
611.065500	11195.376818
611.414585	11206.490041
611.763616	11271.407500
612.112594	11227.952754
612.461518	11244.144940
612.810389	11293.321396
613.159207	11236.096738
613.507971	11229.263454
613.856682	11325.925058
614.205340	11275.276585
614.553945	11415.181208
614.902496	11282.422421
615.250994	11345.373830
615.599439	11326.446817
615.947830	11359.514266
616.296169	11317.569346
616.644454	11336.652633
616.992686	11340.665392
617.340864	11424.938361
617.688990	11316.293934
618.037063	11439.567789
618.385082	11401.862479
618.733048	11432.825246
619.080961	11410.293809
619.428821	11396.884340
619.776628	11408.710887
620.124382	11342.815444
620.472083	11367.444001
620.819731	11378.622760
621.167326	11301.530915
621.514868	11272.440936
621.862357	11169.568630
622.209793	11163.362970
622.557176	11080.872049
622.904506	11024.932885
623.251783	10942.741913
623.599007	10876.009639
623.946179	10823.591721
624.293297	10797.952413
624.640363	10665.654892
624.987376	10645.840637
625.334336	10573.343803
625.681243	10494.790023
626.028097	10458.990269
626.374899	10417.912427
626.721647	10387.766327
627.068343	10340.855870
627.414987	10270.587227
627.761577	10195.539569
628.108115	10243.024718
628.454600	10115.274318
628.801032	10131.794179
629.147412	10105.580179
629.493739	10074.758564
629.840014	9986.142642
630.186236	10029.516729
630.532405	9919.705275
630.878521	9950.410943
631.224585	9896.188292
631.570597	9808.792329
631.916556	9811.665786
632.262462	9793.583168
632.608316	9762.814485
632.954117	9725.943486
633.299866	9707.296258
633.645562	9680.845323
633.991206	9579.455117
634.336797	9481.371907
634.682336	9469.540319
635.027823	9402.228312
635.373257	9370.211944
635.718639	9292.910891
636.063968	9260.085418
636.409245	9146.241040
636.754470	9133.842322
637.099642	9072.831758
637.444762	8974.032704
637.789829	8971.335687
638.134845	8896.156960
638.479808	8867.717290
