Dividing Wavelength (nm)	Counts (n)	Blue Motor Position (mm): 0.000000	Red Motor Position (mm): 35.200000	
326.493990	2128.833899
326.888308	2128.833899
327.282561	2128.833899
327.676750	2093.487849
328.070874	2095.685792
328.464933	2096.933477
328.858929	2102.519076
329.252859	2112.787906
329.646726	2125.204268
330.040528	2136.662811
330.434265	2153.883392
330.827938	2172.255878
331.221547	2188.571572
331.615091	2207.518749
332.008571	2229.377192
332.401986	2248.394945
332.795338	2266.986720
333.188625	2289.606377
333.581847	2304.381999
333.975006	2326.837819
334.368100	2342.848524
334.761129	2359.645648
335.154095	2375.928575
335.546996	2397.703839
335.939833	2417.560944
336.332606	2431.204827
336.725315	2442.870057
337.117960	2452.886830
337.510540	2462.041565
337.903056	2470.556074
338.295508	2479.143680
338.687896	2487.023003
339.080220	2496.933912
339.472480	2500.404746
339.864676	2505.599655
340.256807	2509.130983
340.648875	2515.666839
341.040879	2515.268588
341.432818	2516.511233
341.824694	2520.690349
342.216506	2520.410565
342.608253	2520.100534
342.999937	2522.616070
343.391557	2517.872344
343.783113	2518.575585
344.174605	2517.675739
344.566033	2516.939731
344.957397	2514.436798
345.348697	2513.022754
345.739934	2511.197856
346.131106	2511.759945
346.522215	2511.679287
346.913260	2505.506394
347.304241	2507.709378
347.695159	2503.288286
348.086012	2501.135713
348.476802	2498.320229
348.867528	2499.245281
349.258191	2496.790239
349.648789	2497.448109
350.039324	2491.670947
350.429796	2496.008860
350.820203	2492.669095
351.210548	2491.670947
351.600828	2487.103662
351.991045	2492.641369
352.381198	2488.986533
352.771288	2489.961996
353.161314	2489.049547
353.551276	2488.651296
353.941175	2488.253045
354.331010	2491.222284
354.720782	2485.515698
355.110490	2490.685401
355.500135	2489.548621
355.889717	2490.050216
356.279235	2492.747233
356.668689	2491.499548
357.058080	2488.195071
357.447408	2489.830926
357.836672	2485.435040
358.225873	2490.284630
358.615010	2487.842191
359.004084	2492.845536
359.393095	2491.368478
359.782043	2493.395022
360.170927	2495.555156
360.559748	2496.719663
360.948505	2496.114724
361.337199	2495.532471
361.725830	2496.810403
362.114398	2497.944663
362.502903	2498.395846
362.891344	2497.745537
363.279722	2499.504900
363.668037	2501.009684
364.056289	2502.070847
364.444478	2502.290138
364.832603	2502.680827
365.220665	2502.761485
365.608665	2506.224758
365.996601	2505.012361
366.384474	2503.996568
366.772284	2507.119563
367.160031	2506.292814
367.547715	2511.109636
367.935336	2510.928155
368.322893	2517.151459
368.710388	2517.479134
369.097820	2525.071112
369.485189	2526.840557
369.872495	2532.461443
370.259738	2541.396888
370.646918	2547.022816
371.034035	2553.727551
371.421090	2564.296330
371.808081	2573.279666
372.195010	2584.234093
372.581875	2596.663058
372.968678	2611.753752
373.355418	2624.089456
373.742096	2641.126035
374.128710	2653.640699
374.515262	2669.288441
374.901751	2684.858045
375.288177	2696.551001
375.674540	2721.088817
376.060841	2735.874522
376.447079	2756.167686
376.833254	2781.149124
377.219367	2789.772018
377.605417	2828.417503
377.991404	2836.783298
378.377329	2861.091742
378.763191	2875.022971
379.148991	2915.332037
379.534727	2938.233999
379.920402	2965.920016
380.306013	2978.285966
380.691563	3029.937628
381.077049	3048.680638
381.462474	3067.597568
381.847835	3107.891511
382.233134	3130.364975
382.618371	3127.914974
383.003545	3196.414172
383.388657	3206.284752
383.773706	3238.452354
384.158693	3255.428440
384.543618	3281.050104
384.928480	3316.388593
385.313280	3363.760315
385.698017	3360.828884
386.082692	3414.383582
386.467305	3418.451793
386.851856	3451.297431
387.236344	3474.080926
387.620770	3503.911954
388.005133	3533.957231
388.389435	3557.567475
388.773674	3570.230853
389.157851	3611.643932
389.541965	3627.079945
389.926018	3590.115685
390.310008	3662.783917
390.693936	3680.266639
391.077802	3723.058473
391.461606	3714.085220
391.845348	3775.017646
392.229027	3776.671145
392.612645	3786.266981
392.996200	3866.827140
393.379694	3906.233840
393.763125	3970.324549
394.146494	3939.220630
394.529801	4003.119775
394.913047	4046.382958
395.296230	4011.528420
395.679351	4067.308787
396.062410	4088.958022
396.445408	4071.306422
396.828343	4104.673820
397.211217	4130.355978
397.594028	4048.054100
397.976778	4120.951705
398.359466	4138.936022
398.742092	4170.317204
399.124656	4091.957509
399.507158	4175.897762
399.889598	4197.967933
400.271977	4264.133078
400.654294	4230.964806
401.036549	4237.167946
401.418742	4209.968400
401.800874	4309.203513
402.182944	4335.906505
402.564952	4397.038058
402.946898	4383.928537
403.328783	4381.153382
403.710606	4294.304383
404.092367	4488.013240
404.474067	4450.847334
404.855705	4459.218170
405.237282	4386.489443
405.618797	4498.186289
406.000250	4533.935631
406.381642	4611.430769
406.762972	4574.816868
407.144240	4583.442283
407.525447	4584.236264
407.906593	4642.524606
408.287677	4685.399619
408.668700	4615.181387
409.049661	4665.111496
409.430560	4708.684709
409.811399	4635.706445
410.192176	4792.861896
410.572891	4734.618925
410.953545	4834.479141
411.334138	4714.300554
411.714669	4787.248571
412.095139	4679.526675
412.475547	4824.595959
412.855894	4800.665602
413.236180	4812.625739
413.616405	4762.529273
413.996568	4849.774002
414.376670	4796.438594
414.756711	4749.034104
415.136691	4781.438641
415.516609	4858.127194
415.896466	4894.161362
416.276262	4930.041774
416.655997	4912.009567
417.035670	5092.152679
417.415283	5184.708264
417.794834	5128.552330
418.174324	5083.915434
418.553753	4989.897914
418.933121	5171.576058
419.312428	5238.620883
419.691674	5179.372202
420.070859	5309.585206
420.449983	5216.749838
420.829045	5330.596735
421.208047	5239.742540
421.586988	5311.054702
421.965867	5323.821425
422.344686	5456.315551
422.723444	5308.067819
423.102141	5131.612311
423.480777	5427.651550
423.859352	5197.585891
424.237866	5456.532320
424.616319	5443.221153
424.994712	5556.821035
425.373044	5437.670843
425.751314	5578.840795
426.129524	5380.998192
426.507673	5572.587243
426.885762	5658.165871
427.263789	5588.494604
427.641756	5472.911029
428.019662	5591.196663
428.397508	5599.040698
428.775292	5545.357451
429.153016	5647.690353
429.530679	5570.043981
429.908282	5652.217310
430.285824	5525.699472
430.663305	5799.741636
431.040726	5540.694384
431.418086	5537.722623
431.795385	5639.140557
432.172624	5657.762579
432.549802	5644.945445
432.926920	5661.107384
433.303977	5669.087531
433.680974	5711.312236
434.057910	5730.942489
434.434786	5735.464404
434.811601	5697.219690
435.188355	5940.735147
435.565050	5806.842101
435.941683	5788.356190
436.318257	6004.692266
436.694770	5989.031922
437.071222	6022.172467
437.447614	5951.276200
437.823946	5861.682293
438.200218	6020.435789
438.576429	5884.664913
438.952580	5985.898844
439.328670	6030.467686
439.704700	5939.255568
440.080670	5925.215955
440.456580	6197.334919
440.832429	6074.794551
441.208218	5923.902734
441.583947	6078.429223
441.959616	6083.810655
442.335224	6009.751064
442.710773	6145.721065
443.086261	6175.426064
443.461689	5973.767308
443.837057	6120.056551
444.212365	6270.230004
444.587612	6166.036915
444.962800	6317.047199
445.337927	6301.248223
445.712995	5909.381691
446.088002	6489.058930
446.462949	6321.861501
446.837837	6249.359627
447.212664	6416.126037
447.587431	6560.744138
447.962139	7104.114988
448.336786	8030.605968
448.711374	7776.539376
449.085901	6849.594692
449.460369	6767.045798
449.834776	6701.175561
450.209124	7092.658966
450.583412	7242.572799
450.957640	7387.400107
451.331808	7157.594068
451.705917	6706.342743
452.079965	6632.580580
452.453954	6841.435584
452.827883	6719.117027
453.201752	6814.599002
453.575562	6609.129133
453.949311	6813.008518
454.323001	6702.599687
454.696632	6773.874040
455.070202	6918.366113
455.443713	7071.889412
455.817164	7169.748290
456.190556	7249.892554
456.563888	7327.155798
456.937160	7373.448714
457.310373	7029.921806
457.683526	7049.413427
458.056619	6941.497447
458.429653	6932.488905
458.802628	6868.637650
459.175542	6972.503064
459.548398	7330.598907
459.921194	7494.827096
460.293930	7498.683579
460.666607	8024.687653
461.039224	8330.965476
461.411782	8454.284702
461.784280	8477.829411
462.156719	8375.161272
462.529099	8248.784586
462.901419	7832.818817
463.273680	7728.136737
463.645882	7747.603153
464.018024	7606.972604
464.390106	7770.782378
464.762130	8164.136051
465.134094	8633.704408
465.505999	9653.764245
465.877845	10869.251972
466.249631	11519.550736
466.621358	11143.997378
466.993026	10513.840544
467.364634	10254.873950
467.736184	9888.364422
468.107674	9561.473321
468.479105	9588.824101
468.850477	9354.836425
469.221790	9124.964851
469.593043	8795.018811
469.964238	8661.602154
470.335373	8663.449737
470.706449	8728.105055
471.077467	8717.117860
471.448425	10023.162355
471.819324	11093.401837
472.190164	11115.499735
472.560945	9871.358089
472.931667	9086.752904
473.302330	8946.540772
473.672934	8591.068850
474.043479	8947.904404
474.413965	8892.764263
474.784393	8774.372765
475.154761	8926.401362
475.525070	9019.791258
475.895321	8845.911779
476.265513	9018.994756
476.635645	9184.994911
477.005719	9183.719499
477.375734	9299.688722
477.745691	9539.829127
478.115588	9672.340897
478.485427	9914.611189
478.855207	10451.136152
479.224928	11261.511715
479.594591	11896.883622
479.964194	11713.849408
480.333739	11641.886937
480.703226	11564.074207
481.072653	11650.663586
481.442022	11895.956050
481.811333	12082.025038
482.180584	11885.861139
482.549777	11596.950092
482.918912	11424.613206
483.287988	11444.772781
483.657005	11453.753596
484.025964	11133.030347
484.394864	11268.937334
484.763706	11241.127809
485.132489	10991.676393
485.501213	10956.123656
485.869879	11037.603826
486.238487	10872.783301
486.607036	10983.819755
486.975527	10759.069993
487.343959	10953.613161
487.712333	11003.437405
488.080648	10928.803123
488.448905	10973.573610
488.817104	10909.835781
489.185244	11178.163798
489.553326	11328.717857
489.921350	11870.906556
490.289315	12939.333744
490.657222	13272.203653
491.025070	13185.803317
491.392861	13052.169890
491.760593	12677.954958
492.128267	12329.006289
492.495883	11999.130825
492.863440	11667.185968
493.230939	11327.639050
493.598380	11258.625654
493.965763	11127.785027
494.333088	11029.109481
494.700354	10947.470515
495.067563	11011.619198
495.434713	10842.458240
495.801805	10964.522218
496.168839	10892.852134
496.535815	10828.244706
496.902733	10824.529376
497.269593	10762.177865
497.636395	10858.373162
498.003139	10840.930770
498.369825	10709.656603
498.736453	10859.209994
499.103023	10792.991918
499.469535	10819.359673
499.835989	10805.972889
500.202385	10767.463514
500.568723	10628.443615
500.935003	10849.120124
501.301226	10647.342901
501.667390	10904.595502
502.033497	10996.024389
502.399546	10858.768893
502.765537	10769.996694
503.131470	10840.817344
503.497345	11009.297747
503.863163	10625.318099
504.228923	10932.818402
504.594625	10995.842907
504.960269	10739.936294
505.325856	10961.401744
505.691385	10752.022460
506.056856	10904.351006
506.422270	10922.413460
506.787625	10809.448764
507.152924	10928.800602
507.518164	10907.637838
507.883347	10817.905300
508.248472	10739.618701
508.613540	10961.285798
508.978550	10847.222130
509.343503	10811.767695
509.708398	10935.495254
510.073236	11033.240707
510.438016	11031.420850
510.802738	10984.351597
511.167403	11025.628565
511.532010	10918.010012
511.896561	11141.154167
512.261053	11208.960207
512.625488	11067.344113
512.989866	11051.835003
513.354186	11028.688545
513.718449	10928.223390
514.082655	11104.535225
514.446803	10998.522280
514.810894	11107.756523
515.174927	10971.098403
515.538904	10985.253963
515.902822	11121.367638
516.266684	10999.638896
516.630488	10929.871847
516.994235	10980.164919
517.357925	11023.768379
517.721558	11102.440626
518.085133	11106.357602
518.448651	11103.897519
518.812112	10983.169446
519.175516	10977.495628
519.538863	11083.223747
519.902152	10988.724798
520.265385	11118.789088
520.628560	11023.440704
520.991678	10982.481329
521.354739	11029.061590
521.717743	10945.877511
522.080690	10921.069993
522.443580	11021.308296
522.806413	10953.834972
523.169189	10971.736109
523.531908	11001.229380
523.894569	10813.910185
524.257174	10793.894284
524.619722	10876.501152
524.982213	10816.138375
525.344647	10835.836684
525.707025	10765.666343
526.069345	10834.157980
526.431608	10724.096988
526.793815	10804.732765
527.155964	10582.485936
527.518057	10605.024935
527.880093	10532.860817
528.242072	10577.021325
528.603995	10448.658425
528.965860	10355.369352
529.327669	10373.015911
529.689421	10294.399117
530.051117	10243.997661
530.412755	10298.784921
530.774337	10178.137506
531.135862	10120.421336
531.497331	10114.364390
531.858743	9943.663359
532.220098	10059.526718
532.581396	9913.570191
532.942638	9863.188899
533.303824	9802.589189
533.664953	9764.720041
534.026025	9659.644751
534.387040	9708.997647
534.747999	9669.772429
535.108902	9673.936422
535.469748	9437.029918
535.830537	9489.031940
536.191270	9429.029607
536.551947	9406.631760
536.912567	9363.290440
537.273131	9262.232949
537.633638	9211.670176
537.994089	9160.958689
538.354483	9068.819000
538.714821	9145.608376
539.075103	9113.178633
539.435328	9037.140389
539.795497	8871.392292
540.155609	8938.754710
540.515665	8964.139440
540.875665	8718.229435
541.235609	8723.041216
541.595496	8681.723919
541.955328	8740.274401
542.315102	8612.955019
542.674821	8537.136065
543.034483	8491.395156
543.394090	8448.371428
543.753640	8347.243362
544.113134	8452.439639
544.472571	8302.881208
544.831953	8355.344496
545.191278	8169.623347
545.550548	8146.005541
545.909761	8194.360289
546.268918	8121.414793
546.628019	8127.265052
546.987064	7985.197775
547.346053	7891.613795
547.704986	7896.314671
548.063863	7845.396496
548.422684	7803.035680
548.781449	7680.981784
549.140158	7696.261521
549.498811	7570.320895
549.857408	7438.787109
550.215949	7511.462904
550.574434	7375.896194
550.932864	7374.343519
551.291237	7371.860751
551.649555	7273.258302
552.007817	7245.652944
552.366022	7176.866399
552.724173	7110.144208
553.082267	7067.352373
553.440305	7066.311375
553.798288	6937.519977
554.156215	6948.353416
554.514086	6883.582151
554.871902	6764.184943
555.229661	6733.212093
555.587365	6672.103227
555.945014	6584.019145
556.302606	6576.558238
556.660143	6492.411298
557.017625	6507.058370
557.375050	6410.976498
557.732421	6431.395692
558.089735	6339.825653
558.446994	6295.133304
558.804197	6262.154075
559.161345	6208.138112
559.518437	6106.475683
559.875474	6085.338125
560.232455	6051.317898
560.589381	5991.378579
560.946251	5922.241674
561.303065	5942.509633
561.659825	5851.433627
562.016528	5780.920488
562.373177	5700.650195
562.729770	5684.939439
563.086307	5613.344972
563.442789	5608.311380
563.799216	5497.973125
564.155587	5481.105425
564.511904	5416.099746
564.868164	5369.834556
565.224370	5337.361964
565.580520	5250.323922
565.936615	5232.684925
566.292654	5130.228514
566.648638	5137.928877
567.004567	5079.650618
567.360441	5033.584554
567.716260	4959.585456
568.072023	4950.408036
568.427732	4888.338829
568.783385	4844.700081
569.138982	4803.715500
569.494525	4777.816572
569.850013	4705.138257
570.205445	4687.088406
570.560823	4630.471207
570.916145	4567.827309
571.271412	4551.042787
571.626625	4504.744830
571.981782	4463.861072
572.336884	4417.847941
572.691931	4390.666039
573.046923	4336.208975
573.401860	4301.488028
573.756743	4247.797218
574.111570	4225.144794
574.466342	4197.700752
574.821059	4164.542563
575.175722	4113.450468
575.530330	4079.480653
575.884882	4053.407806
576.239380	4007.187987
576.593823	3971.015187
576.948211	3949.154223
577.302544	3903.945156
577.656823	3870.373592
578.011047	3850.982793
578.365216	3821.353412
578.719330	3783.985859
579.073389	3753.804471
579.427394	3727.177096
579.781344	3699.659958
580.135239	3661.624452
580.489080	3644.550064
580.842866	3603.976337
581.196597	3579.617482
581.550273	3568.771439
581.903895	3539.366389
582.257463	3532.286088
582.610975	3492.627331
582.964434	3477.743324
583.317837	3444.822069
583.671186	3428.581992
584.024481	3406.327818
584.377721	3379.886967
584.730906	3357.471476
585.084037	3339.971110
585.437113	3321.157524
585.790135	3301.648259
586.143103	3273.793363
586.496016	3255.493975
586.848874	3240.378075
587.201679	3228.917012
587.554428	3198.433154
587.907124	3190.563913
588.259765	3170.278310
588.612352	3156.969664
588.964884	3136.991571
589.317362	3124.804582
589.669786	3109.950822
590.022155	3106.636263
590.374470	3087.280753
590.726731	3077.281625
591.078937	3048.158879
591.431090	3043.377344
591.783188	3022.874972
592.135232	3005.742610
592.487222	2998.261538
592.839157	2993.638800
593.191038	2976.705564
593.542866	2962.018163
593.894639	2945.044598
594.246358	2939.398505
594.598022	2929.903492
594.949633	2914.265833
595.301190	2902.499780
595.652692	2896.846126
596.004141	2890.673233
596.355535	2874.632281
596.706876	2863.808924
597.058162	2851.395082
597.409395	2846.144721
597.760573	2843.893846
598.111698	2831.386743
598.462768	2824.167811
598.813785	2815.751604
599.164748	2805.316416
599.515657	2801.185190
599.866511	2790.843263
600.217312	2789.605660
600.568060	2778.681479
600.918753	2774.368772
601.269392	2770.666045
601.619978	2758.758839
601.970510	2757.337234
602.320988	2754.514188
602.671412	2750.864392
603.021783	2745.858527
603.372100	2737.691857
603.722363	2734.004253
604.072572	2730.576269
604.422728	2727.266751
604.772830	2717.315514
605.122878	2712.065152
605.472872	2713.025492
605.822813	2702.769264
606.172701	2701.571990
606.522534	2701.970241
606.872314	2699.404294
607.222041	2698.025538
607.571714	2692.389528
607.921333	2688.384332
608.270899	2685.699917
608.620411	2686.279650
608.969870	2682.876871
609.319276	2677.301355
609.668627	2676.945954
610.017926	2681.656912
610.367171	2679.000224
610.716362	2676.373783
611.065500	2674.921930
611.414585	2670.281548
611.763616	2669.273317
612.112594	2665.842812
612.461518	2662.145126
612.810389	2660.363078
613.159207	2659.450629
613.507971	2654.074239
613.856682	2657.950886
614.205340	2653.038282
614.553945	2653.328148
614.902496	2648.740698
615.250994	2652.612304
615.599439	2647.901346
615.947830	2645.279946
616.296169	2646.832621
616.644454	2645.075779
616.992686	2641.811632
617.340864	2644.853968
617.688990	2640.107722
618.037063	2640.979842
618.385082	2637.458596
618.733048	2635.968935
619.080961	2637.514048
619.428821	2638.386168
619.776628	2636.634367
620.124382	2635.878194
620.472083	2633.405508
620.819731	2635.182515
621.167326	2629.551546
621.514868	2629.201186
621.862357	2629.269241
622.209793	2624.833026
622.557176	2625.276647
622.904506	2622.672891
623.251783	2619.254989
623.599007	2617.949330
623.946179	2615.338012
624.293297	2617.183075
624.640363	2614.665018
624.987376	2615.927827
625.334336	2617.132663
625.681243	2614.297014
626.028097	2610.566560
626.374899	2613.278701
626.721647	2613.336674
627.068343	2612.794750
627.414987	2609.326437
627.761577	2609.535644
628.108115	2608.998762
628.454600	2607.143617
628.801032	2606.296703
629.147412	2605.963987
629.493739	2607.657815
629.840014	2604.224789
630.186236	2605.170005
630.532405	2604.978441
630.878521	2605.452310
631.224585	2605.346446
631.570597	2603.140941
631.916556	2601.905858
632.262462	2601.081629
632.608316	2603.529110
632.954117	2601.401743
633.299866	2599.465940
633.645562	2598.828234
633.991206	2599.145826
634.336797	2597.799838
634.682336	2600.574993
635.027823	2598.039293
635.373257	2594.777667
635.718639	2594.868407
636.063968	2592.680547
636.409245	2591.619384
636.754470	2593.734148
637.099642	2592.841863
637.444762	2591.783221
637.789829	2589.970926
638.134845	2590.666606
638.479808	2588.887078
638.824719	2591.314394
639.169577	2587.994794
639.514383	2590.283478
639.859137	2587.281471
640.203839	2590.165011
640.548489	2586.827767
640.893086	2587.712489
641.237632	2582.615883
641.582125	2586.865576
641.926566	2582.933476
642.270955	2586.270719
