Dividing Wavelength (nm)	Counts (n)	Blue Motor Position (mm): 0.000000	Red Motor Position (mm): 44.700000	
326.493990	2127.044289
326.888308	2127.044289
327.282561	2127.044289
327.676750	2095.050606
328.070874	2091.173959
328.464933	2096.000864
328.858929	2104.704416
329.252859	2113.193719
329.646726	2126.507406
330.040528	2135.891514
330.434265	2156.325831
330.827938	2172.306289
331.221547	2189.839422
331.615091	2208.562268
332.008571	2229.198231
332.401986	2247.129615
332.795338	2264.438417
333.188625	2284.789555
333.581847	2305.574232
333.975006	2322.704073
334.368100	2340.842144
334.761129	2360.502644
335.154095	2373.544109
335.546996	2395.190824
335.939833	2420.782242
336.332606	2438.751434
336.725315	2447.346602
337.117960	2459.034517
337.510540	2463.485856
337.903056	2476.103864
338.295508	2482.811119
338.687896	2494.804024
339.080220	2500.230826
339.472480	2510.565192
339.864676	2510.315654
340.256807	2515.747498
340.648875	2522.747140
341.040879	2524.566996
341.432818	2523.646986
341.824694	2525.030783
342.216506	2525.282840
342.608253	2526.666637
342.999937	2525.295443
343.391557	2524.902233
343.783113	2525.910464
344.174605	2523.873838
344.566033	2522.989115
344.957397	2521.504495
345.348697	2519.160359
345.739934	2517.269926
346.131106	2516.884278
346.522215	2515.099709
346.913260	2513.234483
347.304241	2509.841786
347.695159	2508.205932
348.086012	2508.868843
348.476802	2503.250477
348.867528	2504.314161
349.258191	2503.525220
349.648789	2502.443893
350.039324	2500.407267
350.429796	2499.136896
350.820203	2497.962307
351.210548	2498.305105
351.600828	2496.719663
351.991045	2493.518530
352.381198	2493.989878
352.771288	2497.432986
353.161314	2492.636328
353.551276	2496.465084
353.941175	2493.606750
354.331010	2494.970382
354.720782	2494.209168
355.110490	2496.215547
355.500135	2493.866369
355.889717	2496.192862
356.279235	2493.251349
356.668689	2496.268479
357.058080	2498.176556
357.447408	2494.549446
357.836672	2493.415186
358.225873	2496.122286
358.615010	2494.352841
359.004084	2498.726042
359.393095	2498.758809
359.782043	2500.881135
360.170927	2499.300733
360.559748	2500.394664
360.948505	2501.808707
361.337199	2502.839623
361.725830	2501.143275
362.114398	2503.290807
362.502903	2504.379696
362.891344	2506.809532
363.279722	2505.103101
363.668037	2505.536641
364.056289	2507.928668
364.444478	2509.594769
364.832603	2506.794408
365.220665	2509.141066
365.608665	2509.231806
365.996601	2508.067300
366.384474	2512.102743
366.772284	2512.382528
367.160031	2511.971673
367.547715	2517.232118
367.935336	2517.945441
368.322893	2521.217150
368.710388	2525.522295
369.097820	2530.535722
369.485189	2533.300795
369.872495	2540.817156
370.259738	2547.836962
370.646918	2552.366439
371.034035	2557.652089
371.421090	2572.994841
371.808081	2579.485326
372.195010	2589.003025
372.581875	2602.571290
372.968678	2616.988990
373.355418	2624.875876
373.742096	2643.770120
374.128710	2659.914415
374.515262	2671.980417
374.901751	2689.992460
375.288177	2702.587783
375.674540	2727.332286
376.060841	2740.761920
376.447079	2763.356372
376.833254	2783.271450
377.219367	2796.522123
377.605417	2833.241887
377.991404	2842.994000
378.377329	2861.863038
378.763191	2880.303579
379.148991	2919.851431
379.534727	2944.232972
379.920402	2974.021150
380.306013	2983.826194
380.691563	3034.840150
381.077049	3053.961247
381.462474	3075.348342
381.847835	3112.841924
382.233134	3135.811941
382.618371	3134.443268
383.003545	3204.006150
383.388657	3210.599979
383.773706	3242.167685
384.158693	3256.726537
384.543618	3286.423974
384.928480	3324.134326
385.313280	3367.836088
385.698017	3365.005480
386.082692	3417.660332
386.467305	3421.572268
386.851856	3457.669450
387.236344	3478.222234
387.620770	3509.333715
388.005133	3535.817417
388.389435	3563.216088
388.773674	3573.106832
389.157851	3618.068883
389.541965	3631.468270
389.926018	3595.855038
390.310008	3665.796007
390.693936	3685.670756
391.077802	3728.722210
391.461606	3713.066907
391.845348	3779.320271
392.229027	3777.034108
392.612645	3793.105306
392.996200	3868.757902
393.379694	3908.565373
393.763125	3971.806648
394.146494	3941.501752
394.529801	4004.891741
394.913047	4052.732291
395.296230	4015.185777
395.679351	4073.980754
396.062410	4098.700052
396.445408	4076.861774
396.828343	4109.276393
397.211217	4135.024086
397.594028	4057.528949
397.976778	4122.297693
398.359466	4148.055469
398.742092	4177.934388
399.124656	4099.057974
399.507158	4176.603523
399.889598	4203.329200
400.271977	4268.314715
400.654294	4241.135334
401.036549	4242.977875
401.418742	4212.073082
401.800874	4318.905214
402.182944	4336.292154
402.564952	4401.703645
402.946898	4390.567737
403.328783	4386.741501
403.710606	4303.045744
404.092367	4490.553982
404.474067	4457.889826
404.855705	4467.447853
405.237282	4392.294332
405.618797	4500.139736
406.000250	4536.337741
406.381642	4610.830872
406.762972	4577.130758
407.144240	4586.464454
407.525447	4589.789095
407.906593	4649.264628
408.287677	4693.185681
408.668700	4618.483343
409.049661	4669.580478
409.430560	4710.862487
409.811399	4638.025376
410.192176	4800.035458
410.572891	4740.159153
410.953545	4842.711346
411.334138	4723.629209
411.714669	4789.915341
412.095139	4684.736707
412.475547	4825.513449
412.855894	4805.805058
413.236180	4820.774765
413.616405	4769.715438
413.996568	4856.198953
414.376670	4800.269871
414.756711	4754.909569
415.136691	4787.293941
415.516609	4864.010221
415.896466	4901.816354
416.276262	4934.674595
416.655997	4914.020987
417.035670	5096.505715
417.415283	5193.331157
417.794834	5133.303618
418.174324	5086.128500
418.553753	4993.071321
418.933121	5177.524619
419.312428	5245.436523
419.691674	5186.422256
420.070859	5313.290454
420.449983	5221.954829
420.829045	5336.003373
421.208047	5245.950721
421.586988	5314.654086
421.965867	5327.942568
422.344686	5463.252178
422.723444	5315.667358
423.102141	5133.275892
423.480777	5430.903094
423.859352	5202.460687
424.237866	5459.219255
424.616319	5448.718532
424.994712	5560.632147
425.373044	5440.599753
425.751314	5582.699798
426.129524	5384.433738
426.507673	5577.454477
426.885762	5660.157127
427.263789	5591.002578
427.641756	5473.465556
428.019662	5600.462304
428.397508	5602.554382
428.775292	5555.396909
429.153016	5649.777391
429.530679	5574.129837
429.908282	5659.453886
430.285824	5529.762642
430.663305	5804.578623
431.040726	5544.225712
431.418086	5541.410227
431.795385	5644.927801
432.172624	5656.242671
432.549802	5654.100181
432.926920	5665.243651
433.303977	5670.630124
433.680974	5713.348862
434.057910	5730.463579
434.434786	5738.441205
434.811601	5707.808634
435.188355	5938.716165
435.565050	5816.697557
435.941683	5796.580832
436.318257	6007.893399
436.694770	5995.744218
437.071222	6025.996182
437.447614	5960.047808
437.823946	5871.666298
438.200218	6020.632394
438.576429	5895.281583
438.952580	5987.290203
439.328670	6032.942892
439.704700	5941.178769
440.080670	5925.914155
440.456580	6200.031936
440.832429	6078.109110
441.208218	5931.451862
441.583947	6084.944915
441.959616	6086.472384
442.335224	6013.726014
442.710773	6154.535523
443.086261	6175.665519
443.461689	5970.281350
443.837057	6125.009485
444.212365	6275.089676
444.587612	6169.830384
444.962800	6324.808056
445.337927	6300.174457
445.712995	5915.662968
446.088002	6488.151523
446.462949	6322.353014
446.837837	6246.929791
447.212664	6426.236071
447.587431	6567.237144
447.962139	7108.780576
448.336786	8034.409518
448.711374	7776.272195
449.085901	6847.300967
449.460369	6771.744153
449.834776	6708.875923
450.209124	7095.968483
450.583412	7244.891729
450.957640	7396.358238
451.331808	7156.573235
451.705917	6713.909515
452.079965	6635.091075
452.453954	6841.780903
452.827883	6721.612398
453.201752	6820.517316
453.575562	6612.189113
453.949311	6817.205278
454.323001	6703.504574
454.696632	6779.588188
455.070202	6913.471152
455.443713	7072.940492
455.817164	7176.838673
456.190556	7257.547546
456.563888	7331.057652
456.937160	7372.314455
457.310373	7035.257867
457.683526	7056.307205
458.056619	6947.932480
458.429653	6933.509739
458.802628	6867.054728
459.175542	6981.524208
459.548398	7332.746438
459.921194	7497.277097
460.293930	7493.425655
460.666607	8028.448354
461.039224	8335.058893
461.411782	8457.803427
461.784280	8483.750246
462.156719	8374.337043
462.529099	8254.448322
462.901419	7842.424736
463.273680	7732.459527
463.645882	7747.411589
464.018024	7607.794313
464.390106	7775.851258
464.762130	8164.536823
465.134094	8628.625446
465.505999	9658.376901
465.877845	10875.545853
466.249631	11521.736076
466.621358	11140.221553
466.993026	10514.669814
467.364634	10259.093396
467.736184	9889.697807
468.107674	9560.636489
468.479105	9596.010266
468.850477	9357.210808
469.221790	9131.745203
469.593043	8799.449985
469.964238	8671.127414
470.335373	8678.474896
470.706449	8730.441630
471.077467	8717.879075
471.448425	10025.012458
471.819324	11108.245514
472.190164	11124.097423
472.560945	9881.838648
472.931667	9084.290301
473.302330	8958.989901
473.672934	8594.383408
474.043479	8952.643089
474.413965	8895.799038
474.784393	8777.079865
475.154761	8932.420500
475.525070	9018.422585
475.895321	8850.204322
476.265513	9020.035754
476.635645	9198.694246
477.005719	9195.185603
477.375734	9305.929671
477.745691	9542.337101
478.115588	9675.458851
478.485427	9918.818032
478.855207	10460.626124
479.224928	11272.609815
479.594591	11901.529045
479.964194	11716.702701
480.333739	11658.530307
480.703226	11569.685011
481.072653	11655.891263
481.442022	11896.097202
481.811333	12085.097622
482.180584	11885.551108
482.549777	11602.790268
482.918912	11424.434245
483.287988	11448.931732
483.657005	11466.051491
484.025964	11140.055195
484.394864	11273.048395
484.763706	11242.655279
485.132489	10998.814667
485.501213	10962.422578
485.869879	11034.296829
486.238487	10877.128775
486.607036	10990.587504
486.975527	10767.881930
487.343959	10959.788575
487.712333	11007.097283
488.080648	10935.233114
488.448905	10976.936060
488.817104	10914.259394
489.185244	11182.781495
489.553326	11342.386946
489.921350	11871.917308
490.289315	12927.862598
490.657222	13281.108851
491.025070	13188.202906
491.392861	13064.992065
491.760593	12686.388808
492.128267	12334.138183
492.495883	12013.021724
492.863440	11669.502378
493.230939	11335.248672
493.598380	11272.725762
493.965763	11133.683177
494.333088	11034.165759
494.700354	10959.730602
495.067563	11012.415700
495.434713	10849.112563
495.801805	10971.239556
496.168839	10897.129553
496.535815	10832.504481
496.902733	10837.119658
497.269593	10765.003431
497.636395	10864.031858
498.003139	10856.805363
498.369825	10717.850999
498.736453	10883.997347
499.103023	10800.919132
499.469535	10833.237969
499.835989	10822.671711
500.202385	10787.552513
500.568723	10640.290326
500.935003	10859.487257
501.301226	10664.828143
501.667390	10922.897411
502.033497	11021.439366
502.399546	10881.809487
502.765537	10784.001020
503.131470	10865.145952
503.497345	11037.104751
503.863163	10645.586058
504.228923	10959.438215
504.594625	11022.671928
504.960269	10776.393918
505.325856	10990.509366
505.691385	10787.993613
506.056856	10945.988416
506.422270	10966.205964
506.787625	10854.806546
507.152924	10975.635442
507.518164	10952.541916
507.883347	10872.906809
508.248472	10794.988214
508.613540	11027.511436
508.978550	10909.193034
509.343503	10886.096988
509.708398	11005.232056
510.073236	11115.315733
510.438016	11123.643719
510.802738	11068.788403
511.167403	11114.834303
511.532010	11020.519355
511.896561	11249.889335
512.261053	11324.228710
512.625488	11189.027484
512.989866	11170.521408
513.354186	11158.783082
513.718449	11063.298587
514.082655	11255.469892
514.446803	11149.101546
514.810894	11269.567479
515.174927	11147.004426
515.538904	11159.987917
515.902822	11321.708133
516.266684	11203.765297
516.630488	11146.926288
516.994235	11202.068949
517.357925	11268.118147
517.721558	11358.715243
518.085133	11369.057170
518.448651	11378.451361
518.812112	11259.782599
519.175516	11274.538056
519.538863	11394.578012
519.902152	11309.579117
520.265385	11474.835702
520.628560	11391.336550
520.991678	11364.081552
521.354739	11427.806777
521.717743	11360.761952
522.080690	11329.408495
522.443580	11466.923611
522.806413	11421.606158
523.169189	11456.556478
523.531908	11517.430931
523.894569	11329.186685
524.257174	11342.664209
524.619722	11455.684358
524.982213	11403.858776
525.344647	11452.258894
525.707025	11408.973027
526.069345	11502.340237
526.431608	11416.663307
526.793815	11531.019361
527.155964	11312.215640
527.518057	11368.285874
527.880093	11318.862402
528.242072	11388.594162
528.603995	11294.806015
528.965860	11217.704088
529.327669	11272.191399
529.689421	11217.348687
530.051117	11181.717811
530.412755	11294.601849
530.774337	11184.452637
531.135862	11165.293732
531.497331	11192.475633
531.858743	11040.268075
532.220098	11203.472911
532.581396	11069.705893
532.942638	11053.538913
533.303824	11022.205621
533.664953	11031.793896
534.026025	10947.276431
534.387040	11045.525999
534.747999	11051.398943
535.108902	11107.887593
535.469748	10865.035047
535.830537	10963.919800
536.191270	10941.158991
536.551947	10968.240069
536.912567	10967.496499
537.273131	10896.774152
537.633638	10869.130985
537.994089	10864.299039
538.354483	10806.774432
538.714821	10953.461927
539.075103	10959.972577
539.435328	10930.559965
539.795497	10753.882646
540.155609	10910.778477
540.515665	10994.880047
540.875665	10737.161139
541.235609	10803.648917
541.595496	10800.054574
541.955328	10956.821856
542.315102	10841.253404
542.674821	10791.643409
543.034483	10784.888263
543.394090	10794.831939
543.753640	10724.212935
544.113134	10938.015831
544.472571	10798.340582
544.831953	10939.134968
545.191278	10742.419062
545.550548	10770.964596
545.909761	10914.229147
546.268918	10891.589325
546.628019	10969.397014
546.987064	10836.250059
547.346053	10756.219221
547.704986	10852.263284
548.063863	10838.432878
548.422684	10827.158338
548.781449	10753.865002
549.140158	10855.177071
549.498811	10724.384334
549.857408	10583.642881
550.215949	10810.701491
550.574434	10664.240848
550.932864	10763.700293
551.291237	10825.441825
551.649555	10765.923442
552.007817	10777.858374
552.366022	10743.434855
552.724173	10733.687784
553.082267	10720.185053
553.440305	10857.992555
553.798288	10659.597946
554.156215	10813.070833
554.514086	10790.945209
554.871902	10636.191868
555.229661	10670.202013
555.587365	10656.759776
555.945014	10546.038393
556.302606	10679.538230
556.660143	10571.965048
557.017625	10722.592204
557.375050	10619.724939
557.732421	10755.636968
558.089735	10667.477269
558.446994	10666.408544
558.804197	10706.379853
559.161345	10709.155008
559.518437	10557.620444
559.875474	10646.445575
560.232455	10674.247539
560.589381	10620.493715
560.946251	10621.990938
561.303065	10727.668646
561.659825	10653.954374
562.016528	10596.220559
562.373177	10476.470470
562.729770	10590.219066
563.086307	10502.883596
563.442789	10598.047978
563.799216	10471.638524
564.155587	10518.216265
564.511904	10473.347476
564.868164	10463.517226
565.224370	10481.683023
565.580520	10399.509695
565.936615	10409.166025
566.292654	10277.755747
566.648638	10409.534030
567.004567	10369.166990
567.360441	10347.900883
567.716260	10262.962482
568.072023	10359.780362
568.427732	10303.009408
568.783385	10218.807015
569.138982	10288.223703
569.494525	10300.652668
569.850013	10177.973669
570.205445	10256.744218
570.560823	10157.188992
570.916145	10078.794008
571.271412	10149.002158
571.626625	10088.727602
571.981782	10065.503006
572.336884	10040.221619
572.691931	10043.546260
573.046923	9995.196554
573.401860	9951.131828
573.756743	9889.077745
574.111570	9929.553169
574.466342	9917.504811
574.821059	9943.592783
575.175722	9839.003964
575.530330	9842.762144
575.884882	9829.453498
576.239380	9755.353577
576.593823	9740.255322
576.948211	9760.886244
577.302544	9638.895362
577.656823	9655.175768
578.011047	9659.306994
578.365216	9632.447726
578.719330	9546.836331
579.073389	9559.940810
579.427394	9510.587914
579.781344	9487.837187
580.135239	9430.640255
580.489080	9443.520403
580.842866	9346.579015
581.196597	9351.826856
581.550273	9391.848576
581.903895	9363.290440
582.257463	9425.175644
582.610975	9300.742323
582.964434	9323.185540
583.317837	9251.497812
583.671186	9237.100277
584.024481	9226.171055
584.377721	9149.618613
584.730906	9126.053740
585.084037	9161.634204
585.437113	9096.988967
585.790135	9114.088561
586.143103	9011.460751
586.496016	8980.210638
586.848874	9047.288232
587.201679	9031.106128
587.554428	8917.355012
587.907124	8963.584913
588.259765	8937.905275
588.612352	8939.488198
588.964884	8811.447931
589.317362	8825.200199
589.669786	8828.063574
590.022155	8878.933858
590.374470	8891.791321
590.726731	8830.258997
591.078937	8688.438736
591.431090	8796.110221
591.783188	8668.246394
592.135232	8663.200199
592.487222	8661.372781
592.839157	8717.299342
593.191038	8647.655802
593.542866	8595.442051
593.894639	8488.055391
594.246358	8541.494143
594.598022	8560.705980
594.949633	8454.181358
595.301190	8430.203110
595.652692	8461.087739
596.004141	8572.043535
596.355535	8348.415430
596.706876	8329.553953
597.058162	8264.044158
597.409395	8334.862288
597.760573	8406.542454
598.111698	8314.281777
598.462768	8297.041031
598.813785	8256.048888
599.164748	8228.564518
599.515657	8218.557827
599.866511	8131.166905
600.217312	8258.214064
600.568060	8114.596632
600.918753	8216.463228
601.269392	8186.342334
601.619978	8096.750947
601.970510	8162.767378
602.320988	8158.822675
602.671412	8219.452632
603.021783	8149.415882
603.372100	8125.417469
603.722363	8124.953683
604.072572	8099.626926
604.422728	8116.212322
604.772830	8043.836476
605.122878	8044.670787
605.472872	8045.247999
605.822813	8070.849499
606.172701	8022.192282
606.522534	8094.303467
606.872314	8090.318435
607.222041	8062.944970
607.571714	8123.277499
607.921333	8076.384686
608.270899	8082.131601
608.620411	8180.507198
608.969870	8076.800581
609.319276	8069.621978
609.668627	8086.078825
610.017926	8121.777756
610.367171	8171.206269
610.716362	8145.876992
611.065500	8135.930795
611.414585	8163.344590
611.763616	8151.407137
612.112594	8140.399778
612.461518	8153.153897
612.810389	8210.842341
613.159207	8154.026017
613.507971	8104.529448
613.856682	8214.272847
614.205340	8167.032194
614.553945	8254.465966
614.902496	8143.177454
615.250994	8200.467647
615.599439	8180.098865
615.947830	8194.960186
616.296169	8166.182759
616.644454	8186.110441
616.992686	8182.919390
617.340864	8233.900579
617.688990	8139.326012
618.037063	8235.738080
618.385082	8172.980755
618.733048	8265.347297
619.080961	8211.235551
619.428821	8223.241059
619.776628	8230.880928
620.124382	8176.622989
620.472083	8160.332500
620.819731	8190.765946
621.167326	8082.998680
621.514868	8090.575534
621.862357	7978.069583
622.209793	8002.264601
622.557176	7924.955986
622.904506	7902.565701
623.251783	7838.979107
623.599007	7791.980430
623.946179	7791.667878
624.293297	7750.025427
624.640363	7669.457706
624.987376	7650.414748
625.334336	7592.257476
625.681243	7546.342647
626.028097	7533.926285
626.374899	7509.345619
626.721647	7502.842531
627.068343	7439.684435
627.414987	7401.623723
627.761577	7362.242229
628.108115	7402.652118
628.454600	7289.223636
628.801032	7344.094075
629.147412	7305.970349
629.493739	7290.199100
629.840014	7228.581076
630.186236	7279.443798
630.532405	7172.591501
630.878521	7217.235959
631.224585	7175.613673
631.570597	7099.777075
631.916556	7134.026674
632.262462	7128.052907
632.608316	7091.507062
632.954117	7061.577732
633.299866	7054.278141
633.645562	7040.735081
633.991206	6964.187680
634.336797	6907.177272
634.682336	6862.076589
635.027823	6827.660631
635.373257	6824.550239
635.718639	6752.328149
636.063968	6765.750221
636.409245	6660.473285
636.754470	6662.099057
637.099642	6620.751513
637.444762	6561.903603
637.789829	6570.024902
638.134845	6514.413414
638.479808	6501.261043
638.824719	6498.654767
639.169577	6431.292348
639.514383	6455.207582
639.859137	6376.331169
640.203839	6391.550412
640.548489	6375.832094
