Dividing Wavelength (nm)	Counts (n)	Blue Motor Position (mm): 0.000000	Red Motor Position (mm): 18.900000	
326.493990	2130.784825
326.888308	2130.784825
327.282561	2130.784825
327.676750	2094.571697
328.070874	2094.032293
328.464933	2095.852150
328.858929	2103.063520
329.252859	2111.426795
329.646726	2123.578496
330.040528	2136.423356
330.434265	2153.467497
330.827938	2173.712771
331.221547	2186.676098
331.615091	2207.226362
332.008571	2228.626060
332.401986	2249.088103
332.795338	2266.104518
333.188625	2284.570265
333.581847	2304.439973
333.975006	2322.106696
334.368100	2343.556806
334.761129	2357.639269
335.154095	2375.555530
335.546996	2394.061606
335.939833	2409.807650
336.332606	2423.985895
336.725315	2436.346804
337.117960	2443.996755
337.510540	2453.789196
337.903056	2468.373254
338.295508	2471.123204
338.687896	2480.204843
339.080220	2488.542911
339.472480	2495.295537
339.864676	2500.051865
340.256807	2505.251815
340.648875	2507.848010
341.040879	2508.994872
341.432818	2510.476971
341.824694	2510.280366
342.216506	2512.667353
342.608253	2512.359842
342.999937	2512.143073
343.391557	2510.756755
343.783113	2513.587363
344.174605	2514.514936
344.566033	2508.601662
344.957397	2507.787516
345.348697	2509.113339
345.739934	2504.898935
346.131106	2502.756444
346.522215	2503.406753
346.913260	2500.276197
347.304241	2500.442555
347.695159	2495.129178
348.086012	2491.938128
348.476802	2494.660351
348.867528	2491.159270
349.258191	2489.019300
349.648789	2488.782366
350.039324	2485.714824
350.429796	2488.235401
350.820203	2486.047540
351.210548	2486.254227
351.600828	2483.859679
351.991045	2485.268682
352.381198	2483.995790
352.771288	2483.234576
353.161314	2482.367497
353.551276	2482.972436
353.941175	2482.301963
354.331010	2483.950420
354.720782	2483.474031
355.110490	2483.010245
355.500135	2479.279791
355.889717	2484.799854
356.279235	2484.169710
356.668689	2483.584936
357.058080	2483.973105
357.447408	2480.446818
357.836672	2479.446149
358.225873	2481.543269
358.615010	2481.447487
359.004084	2483.123671
359.393095	2486.218939
359.782043	2487.275061
360.170927	2490.299753
360.559748	2485.563589
360.948505	2488.978971
361.337199	2488.222798
361.725830	2490.025010
362.114398	2491.035762
362.502903	2489.402428
362.891344	2490.188848
363.279722	2489.157932
363.668037	2493.725217
364.056289	2494.642707
364.444478	2492.270844
364.832603	2494.211688
365.220665	2497.715290
365.608665	2495.693788
365.996601	2496.845691
366.384474	2498.668068
366.772284	2502.010353
367.160031	2500.193018
367.547715	2499.073881
367.935336	2502.007833
368.322893	2508.528565
368.710388	2511.550737
369.097820	2516.796058
369.485189	2518.651202
369.872495	2527.241328
370.259738	2531.521268
370.646918	2540.434028
371.034035	2546.392672
371.421090	2555.832233
371.808081	2568.309088
372.195010	2576.072465
372.581875	2592.683067
372.968678	2605.139758
373.355418	2614.158383
373.742096	2632.190590
374.128710	2647.180461
374.515262	2661.414159
374.901751	2678.813701
375.288177	2688.472552
375.674540	2713.300235
376.060841	2730.987123
376.447079	2747.461614
376.833254	2772.077568
377.219367	2785.645833
377.605417	2819.706389
377.991404	2830.123934
378.377329	2850.336440
378.763191	2867.211703
379.148991	2907.661921
379.534727	2930.745365
379.920402	2959.260651
380.306013	2974.167343
380.691563	3019.870444
381.077049	3043.510935
381.462474	3062.374933
381.847835	3102.759616
382.233134	3121.774848
382.618371	3119.569344
383.003545	3188.106351
383.388657	3194.163297
383.773706	3228.606981
384.158693	3244.680700
384.543618	3273.228754
384.928480	3306.137406
385.313280	3354.063656
385.698017	3352.465610
386.082692	3405.082653
386.467305	3409.743200
386.851856	3441.744445
387.236344	3465.392498
387.620770	3498.253259
388.005133	3522.155890
388.389435	3549.559602
388.773674	3559.450346
389.157851	3605.128241
389.541965	3616.682566
389.926018	3581.132349
390.310008	3653.437618
390.693936	3669.385308
391.077802	3715.327864
391.461606	3699.843960
391.845348	3765.426851
392.229027	3766.132612
392.612645	3775.398253
392.996200	3853.074872
393.379694	3897.222777
393.763125	3956.988177
394.146494	3926.569854
394.529801	3987.282991
394.913047	4033.280999
395.296230	4001.647758
395.679351	4055.751942
396.062410	4077.247422
396.445408	4061.713107
396.828343	4092.847273
397.211217	4117.243937
397.594028	4033.573386
397.976778	4101.008901
398.359466	4127.742140
398.742092	4158.034433
399.124656	4080.514090
399.507158	4162.016945
399.889598	4184.220707
400.271977	4247.386364
400.654294	4216.713464
401.036549	4224.675966
401.418742	4194.434084
401.800874	4295.133653
402.182944	4318.471675
402.564952	4381.730594
402.946898	4367.575034
403.328783	4364.862893
403.710606	4278.255870
404.092367	4471.962207
404.474067	4430.889406
404.855705	4437.909212
405.237282	4366.206361
405.618797	4474.941528
406.000250	4504.885982
406.381642	4582.963373
406.762972	4539.274213
407.144240	4550.765523
407.525447	4541.930901
407.906593	4597.108851
408.287677	4633.478255
408.668700	4550.558836
409.049661	4598.177575
409.430560	4627.290239
409.811399	4546.883835
410.192176	4687.411040
410.572891	4621.296307
410.953545	4704.563566
411.334138	4578.088577
411.714669	4624.681442
412.095139	4515.648846
412.475547	4627.360815
412.855894	4592.413016
413.236180	4584.395061
413.616405	4522.472048
413.996568	4579.038835
414.376670	4505.606867
414.756711	4447.565542
415.136691	4454.209783
415.516609	4489.994414
415.896466	4497.427595
416.276262	4498.506402
416.655997	4454.819763
417.035670	4571.023400
417.415283	4608.708546
417.794834	4531.682236
418.174324	4466.235456
418.553753	4359.660422
418.933121	4458.915700
419.312428	4473.361127
419.691674	4387.578332
420.070859	4433.374694
420.449983	4331.840815
420.829045	4365.856000
421.208047	4266.817492
421.586988	4260.490844
421.965867	4224.096234
422.344686	4252.828290
422.723444	4123.568064
423.102141	3979.219665
423.480777	4098.216102
423.859352	3925.425512
424.237866	4010.162267
424.616319	3961.066470
424.994712	3967.037717
425.373044	3858.902446
425.751314	3866.265051
426.129524	3736.251173
426.507673	3764.912653
426.885762	3756.148607
427.263789	3676.667255
427.641756	3590.730706
428.019662	3580.494643
428.397508	3539.376471
428.775292	3471.933395
429.153016	3457.878658
429.530679	3393.062022
429.908282	3374.833210
430.285824	3300.934936
430.663305	3326.632217
431.040726	3222.648337
431.418086	3187.826567
431.795385	3172.025070
432.172624	3137.089874
432.549802	3102.326077
432.926920	3068.268042
433.303977	3038.789894
433.680974	3013.778210
434.057910	2982.011379
434.434786	2954.305197
434.811601	2924.103644
435.188355	2925.162287
435.565050	2884.404558
435.941683	2857.487317
436.318257	2850.485154
436.694770	2823.605722
437.071222	2804.482105
437.447614	2773.138731
437.823946	2754.652820
438.200218	2747.552354
438.576429	2722.719631
438.952580	2710.247816
439.328670	2695.688964
439.704700	2681.384690
440.080670	2667.375323
440.456580	2663.750733
440.832429	2649.607776
441.208218	2631.870477
441.583947	2629.468367
441.959616	2621.294136
442.335224	2608.814759
442.710773	2606.135386
443.086261	2598.218254
443.461689	2588.304825
443.837057	2589.746595
444.212365	2583.452714
444.587612	2579.888619
444.962800	2576.490881
445.337927	2572.599110
445.712995	2565.896896
446.088002	2571.487536
446.462949	2564.429920
446.837837	2564.860939
447.212664	2562.098387
447.587431	2558.864487
447.962139	2562.466391
448.336786	2570.527196
448.711374	2566.156516
449.085901	2560.197872
449.460369	2556.051523
449.834776	2556.487582
450.209124	2556.285936
450.583412	2557.974723
450.957640	2557.369784
451.331808	2556.119578
451.705917	2552.666388
452.079965	2550.773435
452.453954	2552.658826
452.827883	2552.288301
453.201752	2551.406099
453.575562	2550.118085
453.949311	2549.329144
454.323001	2552.016079
454.696632	2547.272353
455.070202	2551.028013
455.443713	2548.537683
455.817164	2550.975081
456.190556	2545.686910
456.563888	2546.347302
456.937160	2545.956612
457.310373	2548.716644
457.683526	2550.024823
458.056619	2549.114895
458.429653	2548.227652
458.802628	2548.446942
459.175542	2549.603887
459.548398	2550.037426
459.921194	2550.349978
460.293930	2550.927190
460.666607	2553.790565
461.039224	2557.135371
461.411782	2552.313507
461.784280	2554.589588
462.156719	2553.752757
462.529099	2556.807696
462.901419	2552.101779
463.273680	2554.367777
463.645882	2554.014897
464.018024	2551.658157
464.390106	2553.498178
464.762130	2553.593960
465.134094	2558.050340
465.505999	2561.808520
465.877845	2569.206414
466.249631	2572.009295
466.621358	2569.229099
466.993026	2568.760272
467.364634	2568.276321
467.736184	2567.363872
468.107674	2563.711556
468.479105	2566.821948
468.850477	2563.555280
469.221790	2564.419838
469.593043	2560.956565
469.964238	2561.256514
470.335373	2560.820454
470.706449	2561.609395
471.077467	2563.056206
471.448425	2567.978893
471.819324	2572.415108
472.190164	2572.929306
472.560945	2566.635425
472.931667	2564.180383
473.302330	2564.253480
473.672934	2560.545711
474.043479	2562.110990
474.413965	2564.470250
474.784393	2557.301729
475.154761	2562.531926
475.525070	2561.679971
475.895321	2560.008828
476.265513	2558.887172
476.635645	2564.477811
477.005719	2563.474622
477.375734	2568.152812
477.745691	2568.238512
478.115588	2570.282700
478.485427	2567.268090
478.855207	2571.772361
479.224928	2577.602455
479.594591	2578.434246
479.964194	2577.932651
480.333739	2577.100861
480.703226	2576.586663
481.072653	2576.107753
481.442022	2579.563464
481.811333	2579.981880
482.180584	2580.226376
482.549777	2578.580439
482.918912	2577.065572
483.287988	2578.759400
483.657005	2576.924420
484.025964	2578.328382
484.394864	2577.814184
484.763706	2575.061714
485.132489	2573.859399
485.501213	2571.114490
485.869879	2576.740418
486.238487	2574.151786
486.607036	2574.489543
486.975527	2573.393092
487.343959	2574.174471
487.712333	2570.655745
488.080648	2571.285890
488.448905	2575.190263
488.817104	2573.854358
489.185244	2573.745973
489.553326	2575.931313
489.921350	2577.761252
490.289315	2581.121181
490.657222	2584.201326
491.025070	2580.019689
491.392861	2581.106057
491.760593	2581.461459
492.128267	2577.226889
492.495883	2576.697568
492.863440	2576.258988
493.230939	2572.856209
493.598380	2569.012329
493.965763	2566.844633
494.333088	2566.053172
494.700354	2566.912689
495.067563	2571.840417
495.434713	2566.161557
495.801805	2573.012485
496.168839	2569.541650
496.535815	2569.539130
496.902733	2569.524006
497.269593	2572.450396
497.636395	2569.027453
498.003139	2568.382185
498.369825	2569.415622
498.736453	2568.833368
499.103023	2567.898234
499.469535	2569.400498
499.835989	2566.227092
500.202385	2568.825807
500.568723	2564.946639
500.935003	2569.965107
501.301226	2568.745148
501.667390	2568.777916
502.033497	2572.165571
502.399546	2572.750345
502.765537	2570.033163
503.131470	2571.482495
503.497345	2570.673389
503.863163	2569.985272
504.228923	2571.200190
504.594625	2570.680951
504.960269	2571.376630
505.325856	2571.739593
505.691385	2570.617937
506.056856	2571.782443
506.422270	2571.815211
506.787625	2571.454768
507.152924	2570.776733
507.518164	2571.507700
507.883347	2570.050807
508.248472	2570.307906
508.613540	2568.404870
508.978550	2572.316806
509.343503	2573.161199
509.708398	2574.391240
510.073236	2572.503328
510.438016	2573.451065
510.802738	2571.381672
511.167403	2571.364027
511.532010	2572.828483
511.896561	2573.526682
512.261053	2574.562640
512.625488	2570.794377
512.989866	2568.735066
513.354186	2569.072823
513.718449	2567.215158
514.082655	2573.617423
514.446803	2572.747824
514.810894	2574.940726
515.174927	2572.604151
515.538904	2574.113977
515.902822	2573.929975
516.266684	2573.035170
516.630488	2573.657753
516.994235	2574.388720
517.357925	2574.557598
517.721558	2574.595407
518.085133	2577.103381
518.448651	2576.385017
518.812112	2572.672207
519.175516	2574.708833
519.538863	2575.739749
519.902152	2578.976170
520.265385	2574.091292
520.628560	2576.667321
520.991678	2576.052301
521.354739	2576.453072
521.717743	2576.266550
522.080690	2575.890984
522.443580	2575.107084
522.806413	2576.138000
523.169189	2575.727146
523.531908	2574.814697
523.894569	2577.806622
524.257174	2575.548185
524.619722	2575.931313
524.982213	2575.364183
525.344647	2573.745973
525.707025	2574.875191
526.069345	2576.062383
526.431608	2573.032649
526.793815	2575.633885
527.155964	2578.262847
527.518057	2576.135480
527.880093	2578.371231
528.242072	2575.613720
528.603995	2577.824266
528.965860	2574.643298
529.327669	2572.523493
529.689421	2575.845613
530.051117	2578.086406
530.412755	2577.597414
530.774337	2577.675552
531.135862	2573.561971
531.497331	2571.795046
531.858743	2573.151117
532.220098	2572.387382
532.581396	2573.501477
532.942638	2569.261866
533.303824	2573.829152
533.664953	2575.593556
534.026025	2573.622464
534.387040	2574.534913
534.747999	2576.687486
535.108902	2578.799729
535.469748	2572.936868
535.830537	2573.221693
536.191270	2576.863926
536.551947	2576.448031
536.912567	2575.694379
537.273131	2574.113977
537.633638	2575.855696
537.994089	2574.547516
538.354483	2572.614234
538.714821	2576.069945
539.075103	2573.546847
539.435328	2575.903587
539.795497	2574.237485
540.155609	2574.360993
540.515665	2573.319995
540.875665	2575.850654
541.235609	2574.814697
541.595496	2576.654718
541.955328	2572.475602
542.315102	2574.209759
542.674821	2576.105233
543.034483	2575.948957
543.394090	2575.671693
543.753640	2574.262691
544.113134	2574.406364
544.472571	2573.672876
544.831953	2575.694379
545.191278	2575.981724
545.550548	2573.980386
545.909761	2574.771847
546.268918	2573.859399
546.628019	2574.378637
546.987064	2575.719584
547.346053	2574.726477
547.704986	2572.891497
548.063863	2578.658577
548.422684	2575.281004
548.781449	2575.525500
549.140158	2574.940726
549.498811	2576.017012
549.857408	2573.163719
550.215949	2571.885787
550.574434	2569.859243
550.932864	2573.826631
551.291237	2567.358831
551.649555	2574.343349
552.007817	2576.332085
552.366022	2575.976683
552.724173	2574.628175
553.082267	2572.513411
553.440305	2575.359142
553.798288	2576.609348
554.156215	2574.608010
554.514086	2575.066755
554.871902	2577.284863
555.229661	2576.246385
555.587365	2573.559450
555.945014	2574.759245
556.302606	2572.717577
556.660143	2573.526683
557.017625	2575.739749
557.375050	2574.073648
557.732421	2572.594069
558.089735	2574.910479
558.446994	2573.687999
558.804197	2576.027095
559.161345	2572.284038
559.518437	2573.219172
559.875474	2577.320151
560.232455	2572.936867
560.589381	2577.635223
560.946251	2575.054152
561.303065	2574.504666
561.659825	2575.641447
562.016528	2572.397464
562.373177	2573.952660
562.729770	2576.291755
563.086307	2573.685479
563.442789	2572.193297
563.799216	2572.909141
564.155587	2572.747824
564.511904	2569.871846
564.868164	2574.111456
565.224370	2576.684965
565.580520	2572.515931
565.936615	2572.931826
566.292654	2572.221024
566.648638	2570.922927
567.004567	2573.937537
567.360441	2571.840417
567.716260	2573.829152
568.072023	2573.335119
568.427732	2569.541650
568.783385	2569.902093
569.138982	2568.583831
569.494525	2569.912175
569.850013	2568.649366
570.205445	2571.636250
570.560823	2571.205231
570.916145	2571.142217
571.271412	2570.166753
571.626625	2572.470561
571.981782	2567.857905
572.336884	2573.350242
572.691931	2568.974521
573.046923	2570.917885
573.401860	2571.984089
573.756743	2569.486198
574.111570	2568.843451
574.466342	2570.207083
574.821059	2571.444686
575.175722	2569.176167
575.530330	2571.474933
575.884882	2570.098698
576.239380	2568.977041
576.593823	2572.541137
576.948211	2570.018039
577.302544	2569.347566
577.656823	2567.477298
578.011047	2567.326063
578.365216	2569.282031
578.719330	2569.387895
579.073389	2568.112483
579.427394	2569.844120
579.781344	2570.451579
580.135239	2570.285221
580.489080	2568.787998
580.842866	2569.682803
581.196597	2568.472926
581.550273	2569.362689
581.903895	2567.890673
582.257463	2569.055179
582.610975	2569.735735
582.964434	2567.994016
583.317837	2566.897565
583.671186	2566.300188
584.024481	2567.134499
584.377721	2569.806311
584.730906	2567.736917
585.084037	2566.942936
585.437113	2567.941084
585.790135	2567.817576
586.143103	2566.542164
586.496016	2568.709860
586.848874	2564.939077
587.201679	2565.763306
587.554428	2561.274158
587.907124	2565.387740
588.259765	2563.066288
588.612352	2564.286247
588.964884	2565.652400
589.317362	2567.323543
589.669786	2565.047462
590.022155	2565.244067
590.374470	2566.280024
590.726731	2566.842112
591.078937	2566.900086
591.431090	2566.529561
591.783188	2567.245405
592.135232	2564.802966
592.487222	2565.690209
592.839157	2568.160374
593.191038	2565.296999
593.542866	2564.051834
593.894639	2561.916905
594.246358	2563.177194
594.598022	2564.656772
594.949633	2566.116186
595.301190	2567.091650
595.652692	2563.850188
596.004141	2564.324056
596.355535	2565.596947
596.706876	2562.143757
597.058162	2561.826164
597.409395	2561.621998
597.760573	2563.966134
598.111698	2563.976217
598.462768	2561.445557
598.813785	2563.429251
599.164748	2560.097049
599.515657	2561.672409
599.866511	2562.826833
600.217312	2561.543860
600.568060	2563.217523
600.918753	2563.653583
601.269392	2561.415310
601.619978	2562.930177
601.970510	2564.921433
602.320988	2562.347924
602.671412	2562.816751
603.021783	2564.024108
603.372100	2564.949159
603.722363	2562.814231
604.072572	2563.368757
604.422728	2567.023594
604.772830	2558.206616
605.122878	2558.020093
605.472872	2561.634601
605.822813	2557.389949
606.172701	2561.289282
606.522534	2560.228119
606.872314	2564.755075
607.222041	2563.456978
607.571714	2563.257852
607.921333	2562.191648
608.270899	2561.674930
608.620411	2565.181052
608.969870	2562.259704
609.319276	2564.016546
609.668627	2566.363203
610.017926	2567.671382
610.367171	2568.067113
610.716362	2570.630540
611.065500	2566.103583
611.414585	2567.210117
611.763616	2566.048131
612.112594	2565.057544
612.461518	2564.460167
612.810389	2563.996381
613.159207	2563.940928
613.507971	2564.404715
613.856682	2564.014025
614.205340	2562.892368
614.553945	2562.146278
614.902496	2563.754406
615.250994	2563.174673
615.599439	2565.082750
615.947830	2563.585527
616.296169	2564.094684
616.644454	2564.976886
616.992686	2561.498489
617.340864	2560.908674
617.688990	2563.686350
618.037063	2561.362378
618.385082	2562.219374
618.733048	2562.312636
619.080961	2562.277348
619.428821	2561.248952
619.776628	2560.434806
620.124382	2564.366906
620.472083	2561.445557
620.819731	2562.713407
621.167326	2560.810372
621.514868	2559.693756
621.862357	2562.534447
622.209793	2563.769529
622.557176	2562.773901
622.904506	2558.642676
623.251783	2556.437171
623.599007	2560.192831
623.946179	2553.649413
624.293297	2558.067984
624.640363	2560.734755
624.987376	2562.579817
625.334336	2559.071174
625.681243	2558.914898
626.028097	2556.832902
626.374899	2559.562686
626.721647	2559.119065
627.068343	2560.354147
627.414987	2559.587892
627.761577	2561.816082
628.108115	2556.263251
628.454600	2557.815927
628.801032	2559.083777
629.147412	2559.986143
629.493739	2558.352809
629.840014	2557.936914
630.186236	2562.332800
630.532405	2558.985474
630.878521	2556.961451
631.224585	2557.699980
631.570597	2557.541184
631.916556	2558.367933
632.262462	2558.030176
632.608316	2559.487069
632.954117	2556.313663
633.299866	2556.595967
633.645562	2554.070349
633.991206	2556.865669
634.336797	2557.178221
634.682336	2555.222253
635.027823	2554.292160
635.373257	2557.004301
635.718639	2557.006821
636.063968	2558.594785
636.409245	2557.604198
636.754470	2555.005483
637.099642	2553.911553
637.444762	2554.551779
637.789829	2555.852397
638.134845	2555.282747
638.479808	2556.356512
638.824719	2555.270144
639.169577	2554.385421
639.514383	2554.579506
639.859137	2554.138405
640.203839	2554.584547
640.548489	2554.627397
640.893086	2553.538507
641.237632	2550.029864
641.582125	2551.824515
641.926566	2547.902497
642.270955	2553.982129
642.615292	2553.346944
642.959576	2554.027499
643.303809	2556.026317
643.647990	2555.373488
643.992118	2552.810061
644.336195	2555.557490
