Dividing Wavelength (nm)	Counts (n)	Blue Motor Position (mm): 0.000000	Red Motor Position (mm): 26.700000	
326.493990	2126.761985
326.888308	2126.761985
327.282561	2126.761985
327.676750	2095.053127
328.070874	2091.733527
328.464933	2096.472212
328.858929	2103.549992
329.252859	2112.243462
329.646726	2125.952879
330.040528	2135.692389
330.434265	2153.596047
330.827938	2169.657163
331.221547	2189.428568
331.615091	2209.018492
332.008571	2226.899465
332.401986	2248.951992
332.795338	2267.672317
333.188625	2286.495985
333.581847	2302.998203
333.975006	2323.407314
334.368100	2341.925993
334.761129	2359.554908
335.154095	2375.033770
335.546996	2393.933056
335.939833	2408.552402
336.332606	2425.344486
336.725315	2440.417536
337.117960	2444.664708
337.510540	2457.247428
337.903056	2466.160188
338.295508	2474.652012
338.687896	2485.404793
339.080220	2488.777325
339.472480	2498.040445
339.864676	2502.632936
340.256807	2505.226610
340.648875	2509.345232
341.040879	2510.250119
341.432818	2514.804802
341.824694	2515.434946
342.216506	2514.104082
342.608253	2515.369411
342.999937	2514.625841
343.391557	2515.596263
343.783113	2512.995028
344.174605	2512.629544
344.566033	2511.570902
344.957397	2509.239368
345.348697	2508.644512
345.739934	2505.002278
346.131106	2507.548061
346.522215	2502.758965
346.913260	2501.145796
347.304241	2501.402894
347.695159	2498.625219
348.086012	2497.052379
348.476802	2496.780156
348.867528	2490.647593
349.258191	2491.859990
349.648789	2494.282265
350.039324	2488.414362
350.429796	2490.667757
350.820203	2489.178096
351.210548	2486.917139
351.600828	2485.230873
351.991045	2487.446460
352.381198	2483.716006
352.771288	2484.194916
353.161314	2483.244658
353.551276	2482.102837
353.941175	2483.254741
354.331010	2485.273723
354.720782	2484.157107
355.110490	2481.414719
355.500135	2485.142653
355.889717	2485.298928
356.279235	2486.191213
356.668689	2487.229690
357.058080	2486.690287
357.447408	2481.404637
357.836672	2483.494195
358.225873	2485.185503
358.615010	2482.576705
359.004084	2486.798672
359.393095	2487.711121
359.782043	2488.454691
360.170927	2488.689104
360.559748	2489.888899
360.948505	2491.393683
361.337199	2489.147849
361.725830	2492.016266
362.114398	2492.835453
362.502903	2493.604229
362.891344	2494.511637
363.279722	2494.425938
363.668037	2495.350989
364.056289	2497.216216
364.444478	2496.502893
364.832603	2495.595485
365.220665	2495.547594
365.608665	2499.545229
365.996601	2495.913078
366.384474	2500.588748
366.772284	2500.979438
367.160031	2502.259891
367.547715	2504.810714
367.935336	2506.028153
368.322893	2508.705006
368.710388	2512.042250
369.097820	2519.402334
369.485189	2520.939886
369.872495	2529.681247
370.259738	2534.934129
370.646918	2541.623740
371.034035	2550.223949
371.421090	2557.856256
371.808081	2570.144068
372.195010	2581.113619
372.581875	2590.374219
372.968678	2607.330140
373.355418	2614.919597
373.742096	2636.518420
374.128710	2648.166006
374.515262	2663.423058
374.901751	2678.954853
375.288177	2692.568489
375.674540	2715.276367
376.060841	2732.202041
376.447079	2752.608632
376.833254	2774.572939
377.219367	2785.537449
377.605417	2823.071360
377.991404	2832.790704
378.377329	2858.611494
378.763191	2869.092053
379.148991	2910.298445
379.534727	2933.548246
379.920402	2961.940025
380.306013	2976.582056
380.691563	3027.049047
381.077049	3046.770041
381.462474	3067.529512
381.847835	3106.560646
382.233134	3125.946403
382.618371	3125.845580
383.003545	3193.956610
383.388657	3199.136395
383.773706	3232.639904
384.158693	3249.316041
384.543618	3273.233795
384.928480	3311.165957
385.313280	3356.468286
385.698017	3359.339223
386.082692	3412.783016
386.467305	3415.192688
386.851856	3446.145372
387.236344	3466.700677
387.620770	3499.024555
388.005133	3529.800800
388.389435	3553.509346
388.773674	3567.758168
389.157851	3608.520937
389.541965	3624.224132
389.926018	3588.958740
390.310008	3661.195954
390.693936	3680.017102
391.077802	3719.554872
391.461606	3708.613047
391.845348	3773.669138
392.229027	3775.746093
392.612645	3782.450828
392.996200	3862.106099
393.379694	3903.320053
393.763125	3967.062922
394.146494	3935.888427
394.529801	3994.658199
394.913047	4042.859191
395.296230	4012.040097
395.679351	4061.846697
396.062410	4087.410388
396.445408	4068.707707
396.828343	4107.093573
397.211217	4127.054022
397.594028	4047.832289
397.976778	4112.081795
398.359466	4137.927791
398.742092	4167.320238
399.124656	4093.061522
399.507158	4168.162111
399.889598	4196.876523
400.271977	4260.059825
400.654294	4229.394486
401.036549	4236.862956
401.418742	4208.778688
401.800874	4311.323319
402.182944	4331.893747
402.564952	4395.049322
402.946898	4381.662538
403.328783	4381.425604
403.710606	4294.770690
404.092367	4487.579701
404.474067	4450.081078
404.855705	4454.464362
405.237282	4384.541037
405.618797	4496.336185
406.000250	4529.360784
406.381642	4607.289461
406.762972	4568.787648
407.144240	4584.977314
407.525447	4584.470678
407.906593	4642.219616
408.287677	4684.950957
408.668700	4613.260708
409.049661	4665.040919
409.430560	4705.901992
409.811399	4631.739057
410.192176	4796.824243
410.572891	4734.031630
410.953545	4837.148432
411.334138	4712.999937
411.714669	4782.333446
412.095139	4681.054145
412.475547	4818.730577
412.855894	4800.721055
413.236180	4808.847395
413.616405	4761.034571
413.996568	4852.889435
414.376670	4791.284015
414.756711	4748.434207
415.136691	4781.534423
415.516609	4855.455382
415.896466	4894.110950
416.276262	4926.636475
416.655997	4907.434720
417.035670	5091.913224
417.415283	5182.044014
417.794834	5121.857678
418.174324	5079.212037
418.553753	4988.491433
418.933121	5176.629815
419.312428	5239.500565
419.691674	5183.405125
420.070859	5306.452129
420.449983	5221.717895
420.829045	5330.795861
421.208047	5239.188013
421.586988	5310.270803
421.965867	5321.114325
422.344686	5455.166167
422.723444	5308.788704
423.102141	5128.101147
423.480777	5429.168937
423.859352	5192.249830
424.237866	5453.986537
424.616319	5445.421617
424.994712	5553.178801
425.373044	5434.215132
425.751314	5574.323921
426.129524	5376.141040
426.507673	5572.287295
426.885762	5656.812321
427.263789	5584.580148
427.641756	5466.546572
428.019662	5588.560139
428.397508	5597.044401
428.775292	5538.567017
429.153016	5643.352441
429.530679	5565.630451
429.908282	5654.833668
430.285824	5522.042114
430.663305	5802.116019
431.040726	5531.194329
431.418086	5531.947982
431.795385	5640.748685
432.172624	5652.860057
432.549802	5644.852184
432.926920	5661.034288
433.303977	5662.927241
433.680974	5703.243869
434.057910	5717.752310
434.434786	5724.903186
434.811601	5695.162899
435.188355	5924.842910
435.565050	5796.850534
435.941683	5786.768226
436.318257	5993.407643
436.694770	5982.995140
437.071222	6017.446385
437.447614	5945.919974
437.823946	5861.780596
438.200218	6011.134861
438.576429	5880.480756
438.952580	5976.272761
439.328670	6018.361355
439.704700	5927.338281
440.080670	5913.606178
440.456580	6177.230797
440.832429	6060.180246
441.208218	5900.731071
441.583947	6058.040277
441.959616	6064.407254
442.335224	5981.187886
442.710773	6117.445233
443.086261	6141.078163
443.461689	5935.540238
443.837057	6078.784625
444.212365	6226.180401
444.587612	6116.532785
444.962800	6261.758345
445.337927	6239.108440
445.712995	5851.463874
446.088002	6411.762918
446.462949	6234.636937
446.837837	6162.956770
447.212664	6326.126317
447.587431	6450.209278
447.962139	6966.380582
448.336786	7851.259358
448.711374	7591.420645
449.085901	6687.758530
449.460369	6594.575322
449.834776	6519.620926
450.209124	6874.775255
450.583412	6995.342011
450.957640	7129.103987
451.331808	6889.916361
451.705917	6447.766839
452.079965	6355.256625
452.453954	6534.446959
452.827883	6407.367032
453.201752	6477.418906
453.575562	6268.742863
453.949311	6433.742349
454.323001	6311.207023
454.696632	6354.732345
455.070202	6452.319001
455.443713	6561.638943
455.817164	6622.163036
456.190556	6661.405898
456.563888	6695.637853
456.937160	6698.745725
457.310373	6379.436519
457.683526	6366.362287
458.056619	6237.661629
458.429653	6192.896183
458.802628	6108.537515
459.175542	6158.694475
459.548398	6406.547845
459.921194	6489.593293
460.293930	6446.355316
460.666607	6788.148068
461.039224	6969.803526
461.411782	7017.175248
461.784280	6982.053530
462.156719	6852.994950
462.529099	6712.266099
462.901419	6359.226534
463.273680	6236.023254
463.645882	6197.324837
464.018024	6038.120157
464.390106	6099.488643
464.762130	6304.204860
465.134094	6532.496032
465.505999	7103.875533
465.877845	7800.436966
466.249631	8137.274263
466.621358	7826.625760
466.993026	7344.154569
467.364634	7104.999710
467.736184	6804.839328
468.107674	6536.349995
468.479105	6457.256811
468.850477	6271.744870
469.221790	6062.713426
469.593043	5805.538963
469.964238	5654.619419
470.335373	5588.492084
470.706449	5548.878697
471.077467	5469.442715
471.448425	6000.435012
471.819324	6405.791672
472.190164	6341.085942
472.560945	5708.562286
472.931667	5278.962717
473.302330	5156.727339
473.672934	4942.868990
474.043479	5011.010267
474.413965	4920.955094
474.784393	4804.411179
475.154761	4790.510197
475.525070	4754.733129
475.895321	4633.692504
476.265513	4618.942088
476.635645	4613.774905
477.005719	4540.842012
477.375734	4514.696068
477.745691	4519.296121
478.115588	4485.454855
478.485427	4482.014267
478.855207	4564.759767
479.224928	4703.285633
479.594591	4798.775169
479.964194	4657.610259
480.333739	4568.467535
480.703226	4444.936581
481.072653	4401.164242
481.442022	4388.117736
481.811333	4360.056153
482.180584	4245.896703
482.549777	4114.809059
482.918912	4030.001728
483.287988	3969.591061
483.657005	3916.119542
484.025964	3805.738438
484.394864	3762.371912
484.763706	3703.460988
485.132489	3621.012917
485.501213	3564.604926
485.869879	3527.514636
486.238487	3457.404789
486.607036	3433.388732
486.975527	3365.204606
487.343959	3344.571163
487.712333	3307.652273
488.080648	3266.468567
488.448905	3233.746437
488.817104	3193.631455
489.185244	3178.545802
489.553326	3157.559479
489.921350	3171.221006
490.289315	3207.252653
490.657222	3199.007846
491.025070	3155.585867
491.392861	3119.576905
491.760593	3061.374264
492.128267	3016.039167
492.495883	2971.268680
492.863440	2933.908689
493.230939	2896.311763
493.598380	2876.404247
493.965763	2846.411902
494.333088	2833.498986
494.700354	2810.806232
495.067563	2802.861374
495.434713	2781.035698
495.801805	2771.177722
496.168839	2758.595002
496.535815	2747.373393
496.902733	2738.490880
497.269593	2727.652400
497.636395	2719.778117
498.003139	2712.012220
498.369825	2702.388657
498.736453	2697.375230
499.103023	2691.035979
499.469535	2684.742098
499.835989	2681.218332
500.202385	2675.720953
500.568723	2665.487411
500.935003	2665.661331
501.301226	2658.013900
501.667390	2656.189003
502.033497	2655.475679
502.399546	2650.754639
502.765537	2645.877322
503.131470	2643.742394
503.497345	2643.530665
503.863163	2637.914820
504.228923	2639.684265
504.594625	2635.759727
504.960269	2629.480970
505.325856	2632.490538
505.691385	2626.491565
506.056856	2628.414766
506.422270	2625.742954
506.787625	2624.701956
507.152924	2623.461832
507.518164	2625.203551
507.883347	2621.888992
508.248472	2617.382200
508.613540	2619.028137
508.978550	2618.445884
509.343503	2615.211984
509.708398	2616.668877
510.073236	2616.517642
510.438016	2617.649382
510.802738	2611.748711
511.167403	2612.525049
511.532010	2609.991869
511.896561	2615.141408
512.261053	2611.100923
512.625488	2608.018257
512.989866	2607.007506
513.354186	2607.783843
513.718449	2600.648090
514.082655	2607.383072
514.446803	2607.509101
514.810894	2608.262753
515.174927	2609.439862
515.538904	2605.913575
515.902822	2606.553802
516.266684	2605.646394
516.630488	2602.541043
516.994235	2603.629933
517.357925	2602.745210
517.721558	2604.184460
518.085133	2605.447269
518.448651	2603.884511
518.812112	2599.460898
519.175516	2605.263267
519.538863	2602.974583
519.902152	2604.774275
520.265385	2604.171857
520.628560	2607.231837
520.991678	2603.148502
521.354739	2605.243102
521.717743	2603.947525
522.080690	2603.960128
522.443580	2605.790067
522.806413	2603.657659
523.169189	2602.147833
523.531908	2606.642022
523.894569	2600.983327
524.257174	2604.595314
524.619722	2603.952567
524.982213	2605.807711
525.344647	2601.742021
525.707025	2601.981475
526.069345	2602.775457
526.431608	2601.079109
526.793815	2599.516351
527.155964	2600.572473
527.518057	2602.200766
527.880093	2601.527772
528.242072	2605.986672
528.603995	2604.791919
528.965860	2601.948708
529.327669	2599.019797
529.689421	2599.387802
530.051117	2598.341762
530.412755	2602.543564
530.774337	2601.162288
531.135862	2600.602720
531.497331	2596.128696
531.858743	2594.835640
532.220098	2597.981320
532.581396	2595.763212
532.942638	2597.167173
533.303824	2595.740527
533.664953	2599.239088
534.026025	2597.840167
534.387040	2600.214551
534.747999	2596.824375
535.108902	2600.191866
535.469748	2596.932760
535.830537	2598.422421
536.191270	2600.484253
536.551947	2600.070878
536.912567	2597.940991
537.273131	2595.992585
537.633638	2597.066350
537.994089	2599.292020
538.354483	2598.750096
538.714821	2599.909561
539.075103	2597.951073
539.435328	2596.836978
539.795497	2596.718511
540.155609	2601.386619
540.515665	2597.109200
540.875665	2598.308995
541.235609	2598.097266
541.595496	2600.799325
541.955328	2600.542226
542.315102	2597.502410
542.674821	2597.096597
543.034483	2601.444592
543.394090	2597.973758
543.753640	2600.131372
544.113134	2598.296392
544.472571	2599.100456
544.831953	2596.337904
545.191278	2597.267997
545.550548	2597.152050
545.909761	2599.047524
546.268918	2597.646083
546.628019	2599.717997
546.987064	2599.576845
547.346053	2596.085846
547.704986	2596.048037
548.063863	2601.011053
548.422684	2598.437544
548.781449	2599.907041
549.140158	2598.374530
549.498811	2599.536516
549.857408	2596.491659
550.215949	2596.446288
550.574434	2593.570310
550.932864	2598.397215
551.291237	2595.143150
551.649555	2601.890735
552.007817	2599.362596
552.366022	2597.890579
552.724173	2599.468460
553.082267	2600.524582
553.440305	2601.056424
553.798288	2598.198089
554.156215	2599.647421
554.514086	2598.190528
554.871902	2598.361927
555.229661	2599.609613
555.587365	2598.830754
555.945014	2597.094077
556.302606	2596.161463
556.660143	2598.803028
557.017625	2599.148347
557.375050	2596.698346
557.732421	2598.485435
558.089735	2599.448296
558.446994	2600.708584
558.804197	2598.815631
559.161345	2600.688419
559.518437	2598.470312
559.875474	2598.737493
560.232455	2600.025508
560.589381	2597.653645
560.946251	2600.643049
561.303065	2599.390322
561.659825	2603.645056
562.016528	2599.803697
562.373177	2599.080291
562.729770	2599.559201
563.086307	2597.346134
563.442789	2601.880652
563.799216	2598.127513
564.155587	2596.970568
564.511904	2596.635332
564.868164	2599.372678
565.224370	2598.984509
565.580520	2598.901330
565.936615	2599.201279
566.292654	2596.791607
566.648638	2598.934098
567.004567	2595.664910
567.360441	2594.586103
567.716260	2594.956628
568.072023	2598.687081
568.427732	2593.567790
568.783385	2592.650300
569.138982	2593.986205
569.494525	2594.906216
569.850013	2591.856318
570.205445	2596.272369
570.560823	2596.297574
570.916145	2593.156936
571.271412	2594.336566
571.626625	2596.799169
571.981782	2595.521237
572.336884	2594.724734
572.691931	2596.884869
573.046923	2593.010742
573.401860	2593.595516
573.756743	2596.375712
574.111570	2597.076433
574.466342	2593.923191
574.821059	2594.371854
575.175722	2593.449323
575.530330	2594.061823
575.884882	2594.719693
576.239380	2593.724065
576.593823	2593.585434
576.948211	2596.625249
577.302544	2591.760536
577.656823	2591.110227
578.011047	2594.598706
578.365216	2593.361102
578.719330	2591.919332
579.073389	2591.203488
579.427394	2592.703232
579.781344	2590.906060
580.135239	2591.364805
580.489080	2591.299270
580.842866	2591.415217
581.196597	2595.710280
581.550273	2592.509147
581.903895	2593.303129
582.257463	2592.756164
582.610975	2589.628128
582.964434	2591.861359
583.317837	2592.874631
583.671186	2592.292378
584.024481	2591.503437
584.377721	2590.122161
584.730906	2589.555031
585.084037	2589.088724
585.437113	2589.791965
585.790135	2591.485793
586.143103	2586.517736
586.496016	2589.118971
586.848874	2585.010431
587.201679	2588.871955
587.554428	2586.242993
587.907124	2586.953796
588.259765	2586.820205
588.612352	2587.190730
588.964884	2588.249372
589.317362	2590.376739
589.669786	2587.546131
590.022155	2590.638879
590.374470	2587.631831
590.726731	2590.744743
591.078937	2586.497571
591.431090	2589.829774
591.783188	2586.353898
592.135232	2588.067891
592.487222	2588.733323
592.839157	2587.911615
593.191038	2585.706110
593.542866	2587.997315
593.894639	2585.844742
594.246358	2586.830288
594.598022	2587.228539
594.949633	2585.602767
595.301190	2585.443970
595.652692	2586.487489
596.004141	2585.920359
596.355535	2588.924887
596.706876	2584.776017
597.058162	2582.207549
597.409395	2587.863724
597.760573	2585.633013
598.111698	2583.251068
598.462768	2586.709300
598.813785	2584.193764
599.164748	2583.520770
599.515657	2585.627972
599.866511	2584.697879
600.217312	2584.012282
600.568060	2585.154104
600.918753	2586.169896
601.269392	2584.352560
601.619978	2584.755853
601.970510	2586.227870
602.320988	2583.119998
602.671412	2587.367170
603.021783	2584.150914
603.372100	2586.873137
603.722363	2582.396593
604.072572	2583.205698
604.422728	2586.079156
604.772830	2580.291911
605.122878	2578.986252
605.472872	2579.613876
605.822813	2579.311407
606.172701	2579.830645
606.522534	2582.767118
606.872314	2586.628641
607.222041	2583.785431
607.571714	2586.434557
607.921333	2583.185533
608.270899	2584.009762
608.620411	2583.414906
608.969870	2584.501274
609.319276	2586.081676
609.668627	2587.692325
610.017926	2589.522264
610.367171	2591.052254
610.716362	2588.904722
611.065500	2591.140474
611.414585	2586.661409
611.763616	2585.383476
612.112594	2585.948086
612.461518	2590.354054
612.810389	2583.369535
613.159207	2585.822057
613.507971	2584.798702
613.856682	2585.917839
614.205340	2583.558579
614.553945	2586.961358
614.902496	2585.680904
615.250994	2589.255082
615.599439	2585.340627
615.947830	2585.660740
616.296169	2585.093610
616.644454	2585.743919
616.992686	2586.842890
617.340864	2582.419278
617.688990	2586.474886
618.037063	2586.520257
618.385082	2584.163517
618.733048	2588.370360
619.080961	2583.515729
619.428821	2587.883889
619.776628	2584.710482
620.124382	2585.887592
620.472083	2584.854155
620.819731	2585.300297
621.167326	2581.978177
621.514868	2582.580595
621.862357	2584.660071
622.209793	2584.130750
622.557176	2585.340627
622.904506	2581.413568
623.251783	2578.376272
623.599007	2580.647312
623.946179	2579.813001
624.293297	2577.481468
624.640363	2580.054977
624.987376	2581.290059
625.334336	2578.787127
625.681243	2580.299473
626.028097	2580.586818
626.374899	2579.013978
626.721647	2579.109760
627.068343	2581.484144
627.414987	2578.424163
627.761577	2579.863413
628.108115	2578.837538
628.454600	2579.825604
628.801032	2580.927096
629.147412	2577.879719
629.493739	2576.679924
629.840014	2578.338464
630.186236	2574.605489
630.532405	2578.635892
630.878521	2577.811663
631.224585	2581.569843
631.570597	2573.879563
631.916556	2575.467527
632.262462	2578.618248
632.608316	2574.315623
632.954117	2574.557598
633.299866	2576.894173
633.645562	2574.827300
633.991206	2575.969122
634.336797	2573.947619
634.682336	2576.190932
635.027823	2575.031467
635.373257	2574.111456
635.718639	2575.071796
636.063968	2571.835375
636.409245	2571.230437
636.754470	2571.759758
637.099642	2572.873853
637.444762	2573.269584
637.789829	2572.775551
638.134845	2572.576425
638.479808	2574.328226
638.824719	2570.703636
639.169577	2572.256312
639.514383	2569.294634
639.859137	2569.529048
640.203839	2572.931826
640.548489	2571.449727
640.893086	2568.689695
641.237632	2564.664334
641.582125	2566.390929
641.926566	2565.370096
642.270955	2570.295303
642.615292	2568.185580
642.959576	2571.747155
643.303809	2571.744635
643.647990	2570.701116
643.992118	2569.135837
644.336195	2568.362020
