Dividing Wavelength (nm)	Counts (n)	Blue Motor Position (mm): 0.000000	Red Motor Position (mm): 0.900000	
326.493990	2128.909516
326.888308	2128.909516
327.282561	2128.909516
327.676750	2096.454568
328.070874	2094.120513
328.464933	2099.154106
328.858929	2104.984200
329.252859	2115.547938
329.646726	2122.388784
330.040528	2136.705661
330.434265	2156.035965
330.827938	2170.897287
331.221547	2190.688857
331.615091	2208.158975
332.008571	2228.278220
332.401986	2248.566344
332.795338	2266.898500
333.188625	2288.809875
333.581847	2307.739408
333.975006	2324.788590
334.368100	2344.071003
334.761129	2358.728158
335.154095	2374.680890
335.546996	2395.153015
335.939833	2407.385375
336.332606	2423.443971
336.725315	2433.392688
337.117960	2444.813422
337.510540	2455.188117
337.903056	2465.419138
338.295508	2473.416929
338.687896	2476.973463
339.080220	2489.299084
339.472480	2493.639518
339.864676	2499.184787
340.256807	2502.446413
340.648875	2509.751045
341.040879	2506.784326
341.432818	2512.037208
341.824694	2512.805984
342.216506	2511.165089
342.608253	2513.118536
342.999937	2512.843793
343.391557	2511.701972
343.783113	2506.512104
344.174605	2511.094513
344.566033	2509.834224
344.957397	2503.996568
345.348697	2505.486229
345.739934	2503.792401
346.131106	2503.850375
346.522215	2502.000271
346.913260	2496.994405
347.304241	2495.217399
347.695159	2495.446771
348.086012	2495.166987
348.476802	2491.837305
348.867528	2489.548621
349.258191	2487.270020
349.648789	2485.886223
350.039324	2485.714824
350.429796	2488.525267
350.820203	2483.025368
351.210548	2484.358753
351.600828	2482.120481
351.991045	2477.875829
352.381198	2478.778196
352.771288	2481.573516
353.161314	2477.825418
353.551276	2478.352218
353.941175	2480.789616
354.331010	2480.073773
354.720782	2479.617548
355.110490	2481.712147
355.500135	2478.551344
355.889717	2478.868937
356.279235	2480.096458
356.668689	2479.751139
357.058080	2480.255254
357.447408	2476.829790
357.836672	2479.912456
358.225873	2479.418422
358.615010	2475.879532
359.004084	2481.165182
359.393095	2481.359267
359.782043	2481.845738
360.170927	2484.242807
360.559748	2481.530666
360.948505	2485.576192
361.337199	2486.193733
361.725830	2485.394710
362.114398	2484.817498
362.502903	2486.178610
362.891344	2488.066522
363.279722	2488.999135
363.668037	2491.423930
364.056289	2486.523929
364.444478	2488.956286
364.832603	2490.090545
365.220665	2489.291522
365.608665	2490.178765
365.996601	2491.575165
366.384474	2491.197078
366.772284	2492.139774
367.160031	2492.112048
367.547715	2490.398056
367.935336	2489.886378
368.322893	2493.316884
368.710388	2495.540032
369.097820	2492.038951
369.485189	2493.253869
369.872495	2494.010042
370.259738	2492.928715
370.646918	2492.147336
371.034035	2492.875783
371.421090	2495.194713
371.808081	2493.820999
372.195010	2494.955259
372.581875	2495.189672
372.968678	2496.835609
373.355418	2494.340238
373.742096	2497.226298
374.128710	2498.831906
374.515262	2494.778818
374.901751	2497.175887
375.288177	2497.236381
375.674540	2495.388798
376.060841	2496.074395
376.447079	2497.180928
376.833254	2496.288644
377.219367	2493.379898
377.605417	2498.930208
377.991404	2495.338386
378.377329	2497.889210
378.763191	2494.667913
379.148991	2496.548263
379.534727	2500.341732
379.920402	2497.117914
380.306013	2502.479181
380.691563	2498.620178
381.077049	2498.894920
381.462474	2499.106649
381.847835	2498.552122
382.233134	2502.302740
382.618371	2500.724859
383.003545	2500.044303
383.388657	2501.980107
383.773706	2499.860301
384.158693	2500.437513
384.543618	2500.858450
384.928480	2499.983810
385.313280	2503.384068
385.698017	2501.488594
386.082692	2502.494304
386.467305	2503.162257
386.851856	2506.096209
387.236344	2501.518841
387.620770	2503.154695
388.005133	2505.234171
388.389435	2504.898935
388.773674	2506.282731
389.157851	2503.323574
389.541965	2503.827689
389.926018	2505.468585
390.310008	2503.414315
390.693936	2506.249964
391.077802	2503.971362
391.461606	2503.946157
391.845348	2504.677124
392.229027	2507.376662
392.612645	2503.805004
392.996200	2507.830366
393.379694	2508.268946
393.763125	2506.111332
394.146494	2506.930520
394.529801	2504.747700
394.913047	2508.962105
395.296230	2506.668380
395.679351	2507.830366
396.062410	2508.657115
396.445408	2506.930520
396.828343	2508.591580
397.211217	2502.088491
397.594028	2505.851713
397.976778	2503.590755
398.359466	2508.047135
398.742092	2503.174860
399.124656	2508.697444
399.507158	2509.904800
399.889598	2507.411950
400.271977	2507.787516
400.654294	2511.409585
401.036549	2508.543689
401.418742	2511.505367
401.800874	2509.713237
402.182944	2510.482013
402.564952	2512.135511
402.946898	2510.648371
403.328783	2511.742301
403.710606	2510.398833
404.092367	2509.514111
404.474067	2514.318331
404.855705	2509.960253
405.237282	2512.959740
405.618797	2507.792557
406.000250	2510.797085
406.381642	2512.753052
406.762972	2512.006962
407.144240	2510.635768
407.525447	2515.162724
407.906593	2513.395799
408.287677	2510.643329
408.668700	2513.743639
409.049661	2512.019564
409.430560	2512.513598
409.811399	2514.434277
410.192176	2511.021416
410.572891	2514.202384
410.953545	2514.341016
411.334138	2513.526869
411.714669	2511.664163
412.095139	2514.056191
412.475547	2513.892353
412.855894	2513.852024
413.236180	2515.757580
413.616405	2516.450739
413.996568	2513.985614
414.376670	2514.804802
414.756711	2515.061901
415.136691	2517.703465
415.516609	2516.221366
415.896466	2514.381345
416.276262	2516.354957
416.655997	2514.691376
417.035670	2512.735408
417.415283	2514.643485
417.794834	2512.727847
418.174324	2513.584843
418.553753	2518.247910
418.933121	2518.252951
419.312428	2516.133146
419.691674	2515.908815
420.070859	2519.339320
420.449983	2516.637261
420.829045	2516.561644
421.208047	2519.689680
421.586988	2515.805471
421.965867	2519.505678
422.344686	2518.860410
422.723444	2519.014165
423.102141	2519.732530
423.480777	2516.445697
423.859352	2519.659433
424.237866	2518.837725
424.616319	2519.934176
424.994712	2521.239835
425.373044	2517.343023
425.751314	2521.774197
426.129524	2518.230266
426.507673	2518.487365
426.885762	2517.597601
427.263789	2519.241017
427.641756	2520.090452
428.019662	2519.099865
428.397508	2519.500637
428.775292	2519.220853
429.153016	2520.377798
429.530679	2524.456091
429.908282	2520.092972
430.285824	2519.946779
430.663305	2520.271933
431.040726	2521.965761
431.418086	2520.183713
431.795385	2519.099865
432.172624	2520.828981
432.549802	2520.317304
432.926920	2519.513240
433.303977	2523.871317
433.680974	2523.407531
434.057910	2520.783610
434.434786	2521.544825
434.811601	2522.517767
435.188355	2520.271933
435.565050	2519.818229
435.941683	2521.060874
436.318257	2519.765297
436.694770	2520.458456
437.071222	2521.431399
437.447614	2516.980060
437.823946	2519.679598
438.200218	2521.716224
438.576429	2524.693025
438.952580	2522.638755
439.328670	2521.960720
439.704700	2522.810154
440.080670	2523.478107
440.456580	2524.294774
440.832429	2523.609177
441.208218	2524.231760
441.583947	2522.490041
441.959616	2522.568179
442.335224	2527.942049
442.710773	2523.508354
443.086261	2525.403828
443.461689	2523.568848
443.837057	2524.884589
444.212365	2523.944414
444.587612	2522.817716
444.962800	2524.761081
445.337927	2527.379960
445.712995	2525.222346
446.088002	2523.856194
446.462949	2526.754857
446.837837	2525.527336
447.212664	2524.282171
447.587431	2525.928108
447.962139	2522.399300
448.336786	2528.398273
448.711374	2523.778056
449.085901	2526.618746
449.460369	2523.997346
449.834776	2526.641431
450.209124	2523.916687
450.583412	2524.120854
450.957640	2525.638242
451.331808	2525.176976
451.705917	2524.193951
452.079965	2528.567152
452.453954	2528.539426
452.827883	2527.700073
453.201752	2526.336441
453.575562	2525.303005
453.949311	2526.994312
454.323001	2526.185207
454.696632	2529.136802
455.070202	2527.037162
455.443713	2526.971627
455.817164	2525.945752
456.190556	2522.898374
456.563888	2524.627490
456.937160	2520.977695
457.310373	2525.698735
457.683526	2527.821061
458.056619	2530.497914
458.429653	2529.066226
458.802628	2528.806607
459.175542	2526.233098
459.548398	2528.420958
459.921194	2526.437264
460.293930	2530.341638
460.666607	2527.377440
461.039224	2528.176463
461.411782	2527.102697
461.784280	2527.579086
462.156719	2529.484642
462.529099	2529.383819
462.901419	2525.176976
463.273680	2528.655372
463.645882	2527.563962
464.018024	2527.967255
464.390106	2527.997502
464.762130	2529.207378
465.134094	2529.648479
465.505999	2526.311236
465.877845	2529.608150
466.249631	2530.056813
466.621358	2529.489683
466.993026	2530.525640
467.364634	2530.795342
467.736184	2532.549663
468.107674	2527.649662
468.479105	2528.209230
468.850477	2531.092770
469.221790	2529.903058
469.593043	2529.577903
469.964238	2527.332069
470.335373	2528.599919
470.706449	2530.853315
471.077467	2529.522451
471.448425	2530.676875
471.819324	2528.788963
472.190164	2531.276772
472.560945	2528.549508
472.931667	2531.007070
473.302330	2528.761236
473.672934	2528.841895
474.043479	2529.502286
474.413965	2531.445651
474.784393	2529.149405
475.154761	2527.906761
475.525070	2526.129754
475.895321	2526.888448
476.265513	2528.872142
476.635645	2532.902544
477.005719	2531.153264
477.375734	2529.484642
477.745691	2529.411545
478.115588	2532.837009
478.485427	2530.061854
478.855207	2530.190403
479.224928	2531.826258
479.594591	2530.099663
479.964194	2532.048069
480.333739	2530.190403
480.703226	2531.496062
481.072653	2533.562935
481.442022	2530.316432
481.811333	2532.574869
482.180584	2530.374406
482.549777	2532.007739
482.918912	2532.605116
483.287988	2532.516896
483.657005	2531.705270
484.025964	2532.380785
484.394864	2531.478418
484.763706	2532.254756
485.132489	2532.388347
485.501213	2531.569159
485.869879	2532.935312
486.238487	2531.052441
486.607036	2530.218130
486.975527	2535.183666
487.343959	2531.891793
487.712333	2534.397246
488.080648	2530.071936
488.448905	2532.269879
488.817104	2533.648635
489.185244	2530.112266
489.553326	2533.789787
489.921350	2534.868594
490.289315	2532.345497
490.657222	2531.780888
491.025070	2532.776515
491.392861	2532.640404
491.760593	2533.220137
492.128267	2532.128727
492.495883	2533.205013
492.863440	2534.757689
493.230939	2532.658048
493.598380	2533.895652
493.965763	2528.713345
494.333088	2527.453057
494.700354	2530.049251
495.067563	2531.929602
495.434713	2527.243849
495.801805	2529.691329
496.168839	2533.295754
496.535815	2532.786598
496.902733	2533.192411
497.269593	2532.453882
497.636395	2533.605785
498.003139	2536.542257
498.369825	2531.612009
498.736453	2536.201979
499.103023	2535.271887
499.469535	2531.659900
499.835989	2531.715353
500.202385	2534.387164
500.568723	2533.532688
500.935003	2533.840199
501.301226	2533.053779
501.667390	2537.873122
502.033497	2537.011085
502.399546	2537.316074
502.765537	2533.220137
503.131470	2532.751310
503.497345	2532.632843
503.863163	2536.738862
504.228923	2532.262318
504.594625	2531.695188
504.960269	2534.780374
505.325856	2532.469005
505.691385	2534.135106
506.056856	2535.395395
506.422270	2534.929088
506.787625	2534.581248
507.152924	2534.258615
507.518164	2534.528316
507.883347	2535.624767
508.248472	2535.939839
508.613540	2534.044366
508.978550	2534.760209
509.343503	2534.024201
509.708398	2534.717360
510.073236	2534.571166
510.438016	2533.908254
510.802738	2533.411701
511.167403	2532.736186
511.532010	2534.364479
511.896561	2534.036804
512.261053	2539.098122
512.625488	2532.867256
512.989866	2530.762574
513.354186	2533.628470
513.718449	2529.363654
514.082655	2532.232071
514.446803	2533.573018
514.810894	2536.146527
515.174927	2538.233564
515.538904	2534.563604
515.902822	2534.283820
516.266684	2533.182328
516.630488	2534.389685
516.994235	2535.425642
517.357925	2534.268697
517.721558	2535.652494
518.085133	2533.026053
518.448651	2534.903882
518.812112	2534.258615
519.175516	2532.922709
519.538863	2535.823893
519.902152	2535.377751
520.265385	2536.885056
520.628560	2532.635363
520.991678	2535.223996
521.354739	2535.256763
521.717743	2532.534540
522.080690	2536.796836
522.443580	2534.374561
522.806413	2536.333049
523.169189	2531.397760
523.531908	2536.272556
523.894569	2535.128214
524.257174	2536.219623
524.619722	2535.405477
524.982213	2537.512679
525.344647	2536.690971
525.707025	2534.084695
526.069345	2535.191228
526.431608	2534.440096
526.793815	2535.022349
527.155964	2536.973276
527.518057	2537.159799
527.880093	2535.569315
528.242072	2533.850281
528.603995	2537.729449
528.965860	2536.811959
529.327669	2538.397402
529.689421	2535.050076
530.051117	2535.851619
530.412755	2535.140817
530.774337	2537.981507
531.135862	2537.631147
531.497331	2535.072761
531.858743	2531.964890
532.220098	2532.784077
532.581396	2533.023532
532.942638	2533.825075
533.303824	2537.386651
533.664953	2534.298944
534.026025	2538.989738
534.387040	2534.987061
534.747999	2536.839685
535.108902	2536.086033
535.469748	2535.097967
535.830537	2539.105684
536.191270	2537.668955
536.551947	2533.875487
536.912567	2535.496218
537.273131	2537.263142
537.633638	2533.782226
537.994089	2536.983358
538.354483	2536.627957
538.714821	2535.067720
539.075103	2537.197607
539.435328	2533.883049
539.795497	2537.013605
540.155609	2536.726259
540.515665	2537.195087
540.875665	2537.792463
541.235609	2534.117462
541.595496	2537.132072
541.955328	2536.363296
542.315102	2536.834644
542.674821	2535.745755
543.034483	2536.466640
543.394090	2537.913451
543.753640	2538.591486
544.113134	2535.841537
544.472571	2538.783050
544.831953	2535.130734
545.191278	2537.316074
545.550548	2537.069058
545.909761	2537.207690
546.268918	2536.738862
546.628019	2537.142155
546.987064	2534.563604
547.346053	2537.850437
547.704986	2536.506969
548.063863	2535.334901
548.422684	2536.149047
548.781449	2536.312885
549.140158	2536.781712
549.498811	2536.514531
549.857408	2537.568132
550.215949	2537.283307
550.574434	2530.734848
550.932864	2532.889941
551.291237	2536.522093
551.649555	2535.813811
552.007817	2534.193080
552.366022	2539.498894
552.724173	2537.855478
553.082267	2536.237267
553.440305	2531.647297
553.798288	2536.103677
554.156215	2534.432534
554.514086	2535.622247
554.871902	2537.532844
555.229661	2536.988399
555.587365	2536.229706
555.945014	2535.428162
556.302606	2535.032432
556.660143	2537.840354
557.017625	2537.066537
557.375050	2535.864222
557.732421	2535.735673
558.089735	2537.699202
558.446994	2538.813297
558.804197	2536.451517
559.161345	2536.753986
559.518437	2534.427493
559.875474	2538.122659
560.232455	2539.105684
560.589381	2535.614685
560.946251	2538.289017
561.303065	2536.988399
561.659825	2535.607123
562.016528	2537.439583
562.373177	2537.426980
562.729770	2536.847247
563.086307	2538.694830
563.442789	2534.664427
563.799216	2536.932947
564.155587	2533.628470
564.511904	2539.211548
564.868164	2536.708615
565.224370	2535.382792
565.580520	2538.173071
565.936615	2537.578214
566.292654	2538.382278
566.648638	2535.770961
567.004567	2538.223482
567.360441	2535.392874
567.716260	2535.304654
568.072023	2539.256919
568.427732	2533.530168
568.783385	2534.324150
569.138982	2534.278779
569.494525	2535.990251
569.850013	2529.179652
570.205445	2537.540406
570.560823	2536.138965
570.916145	2534.339273
571.271412	2538.261291
571.626625	2537.832793
571.981782	2536.880015
572.336884	2537.348842
572.691931	2535.980169
573.046923	2538.125180
573.401860	2539.324974
573.756743	2536.590148
574.111570	2536.350693
574.466342	2536.907741
574.821059	2536.264994
575.175722	2536.391023
575.530330	2538.369676
575.884882	2535.851619
576.239380	2537.316074
576.593823	2539.856816
576.948211	2538.117618
577.302544	2539.072917
577.656823	2536.630478
578.011047	2536.612833
578.365216	2537.573173
578.719330	2539.332536
579.073389	2537.852957
579.427394	2534.561084
579.781344	2539.138452
580.135239	2538.231044
580.489080	2538.349511
580.842866	2538.503266
581.196597	2537.313554
581.550273	2539.445962
581.903895	2536.683410
582.257463	2539.352701
582.610975	2534.629139
582.964434	2537.807587
583.317837	2540.388658
583.671186	2538.997299
584.024481	2537.043852
584.377721	2539.188863
584.730906	2535.738193
585.084037	2536.464119
585.437113	2535.176105
585.790135	2539.962680
586.143103	2536.988399
586.496016	2536.955632
586.848874	2534.011598
587.201679	2534.372041
587.554428	2533.867925
587.907124	2538.251208
588.259765	2533.293234
588.612352	2538.624254
588.964884	2535.861702
589.317362	2539.246836
589.669786	2537.328677
590.022155	2539.912269
590.374470	2534.790456
590.726731	2537.817669
591.078937	2537.487474
591.431090	2535.062679
591.783188	2536.383461
592.135232	2538.170550
592.487222	2537.462268
592.839157	2537.202648
593.191038	2537.202648
593.542866	2537.333718
593.894639	2538.069727
594.246358	2538.402443
594.598022	2535.481094
594.949633	2538.251208
595.301190	2535.823893
595.652692	2541.018802
596.004141	2537.081661
596.355535	2538.152906
596.706876	2537.610982
597.058162	2539.128369
597.409395	2538.478060
597.760573	2538.818338
598.111698	2538.326826
598.462768	2536.506969
598.813785	2536.874973
599.164748	2538.407484
599.515657	2536.212062
599.866511	2538.626774
600.217312	2538.790612
600.568060	2536.171733
600.918753	2541.835469
601.269392	2537.280786
601.619978	2535.075282
601.970510	2537.661393
602.320988	2538.929244
602.671412	2539.158616
603.021783	2536.645601
603.372100	2536.312885
603.722363	2538.215920
604.072572	2537.550488
604.422728	2537.192566
604.772830	2532.322812
605.122878	2533.620909
605.472872	2535.299613
605.822813	2532.443799
606.172701	2533.845240
606.522534	2536.086033
606.872314	2537.747093
607.222041	2536.685930
607.571714	2536.141486
607.921333	2537.868081
608.270899	2537.167360
608.620411	2540.698689
608.969870	2535.944881
609.319276	2540.552495
609.668627	2541.275901
610.017926	2543.468803
610.367171	2545.475182
610.716362	2542.347146
611.065500	2543.483926
611.414585	2542.773123
611.763616	2541.696837
612.112594	2542.231199
612.461518	2539.924872
612.810389	2540.683565
613.159207	2538.788091
613.507971	2538.735159
613.856682	2538.455375
614.205340	2534.561084
614.553945	2539.768596
614.902496	2536.080992
615.250994	2540.358411
615.599439	2536.663245
615.947830	2540.421425
616.296169	2537.263142
616.644454	2540.612989
616.992686	2538.047042
617.340864	2535.586959
617.688990	2538.127700
618.037063	2537.850437
618.385082	2536.393543
618.733048	2537.132072
619.080961	2537.610982
619.428821	2539.612320
619.776628	2538.374717
620.124382	2540.560057
620.472083	2539.748431
620.819731	2537.323636
621.167326	2535.402957
621.514868	2536.708615
621.862357	2537.366486
622.209793	2536.874973
622.557176	2535.488656
622.904506	2534.520755
623.251783	2534.571166
623.599007	2534.374561
623.946179	2533.336083
624.293297	2532.456402
624.640363	2538.286497
624.987376	2540.023174
625.334336	2537.202648
625.681243	2537.666435
626.028097	2537.863040
626.374899	2538.354552
626.721647	2536.519572
627.068343	2539.730787
627.414987	2537.411856
627.761577	2540.297917
628.108115	2537.520241
628.454600	2537.926054
628.801032	2538.175591
629.147412	2540.171888
629.493739	2539.811446
629.840014	2539.360262
630.186236	2539.350180
630.532405	2536.111239
630.878521	2540.791950
631.224585	2539.758513
631.570597	2537.565612
631.916556	2538.868750
632.262462	2537.641229
632.608316	2538.485622
632.954117	2536.343132
633.299866	2539.128369
633.645562	2536.025539
633.991206	2537.426980
634.336797	2538.404964
634.682336	2538.682227
635.027823	2533.598223
635.373257	2536.151568
635.718639	2536.902700
636.063968	2536.743903
636.409245	2536.355735
636.754470	2537.641229
637.099642	2538.099974
637.444762	2542.163144
637.789829	2537.016126
638.134845	2535.498738
638.479808	2537.797505
638.824719	2536.259953
639.169577	2537.689120
639.514383	2535.118131
639.859137	2536.723739
640.203839	2537.769778
640.548489	2535.594520
640.893086	2533.890610
641.237632	2534.067051
641.582125	2535.135775
641.926566	2532.663089
642.270955	2536.496887
642.615292	2535.844058
642.959576	2537.520241
643.303809	2536.471681
643.647990	2539.138452
643.992118	2535.007226
644.336195	2536.786753
