Dividing Wavelength (nm)	Counts (n)	Blue Motor Position (mm): 0.000000	Red Motor Position (mm): 28.300000	
326.493990	2127.165277
326.888308	2127.165277
327.282561	2127.165277
327.676750	2093.215626
328.070874	2095.345514
328.464933	2096.149578
328.858929	2106.352873
329.252859	2113.148349
329.646726	2124.324587
330.040528	2138.694396
330.434265	2153.505306
330.827938	2170.299910
331.221547	2191.112313
331.615091	2207.397761
332.008571	2226.223950
332.401986	2248.654564
332.795338	2268.846906
333.188625	2286.100255
333.581847	2305.924592
333.975006	2323.387149
334.368100	2342.641836
334.761129	2361.755371
335.154095	2376.291538
335.546996	2394.958931
335.939833	2412.166910
336.332606	2425.528488
336.725315	2438.038111
337.117960	2448.014555
337.510540	2456.776080
337.903056	2468.947946
338.295508	2476.693679
338.687896	2483.592498
339.080220	2491.370998
339.472480	2498.315188
339.864676	2501.133193
340.256807	2507.537979
340.648875	2509.705675
341.040879	2512.155676
341.432818	2512.871519
341.824694	2515.039216
342.216506	2517.237159
342.608253	2516.004597
342.999937	2515.303876
343.391557	2516.544000
343.783113	2513.889833
344.174605	2514.033505
344.566033	2512.390089
344.957397	2513.075686
345.348697	2510.683659
345.739934	2507.893380
346.131106	2508.591580
346.522215	2504.830879
346.913260	2502.338028
347.304241	2500.853409
347.695159	2500.765188
348.086012	2499.918275
348.476802	2496.719663
348.867528	2494.836792
349.258191	2493.392501
349.648789	2492.238077
350.039324	2489.866214
350.429796	2490.849239
350.820203	2487.607777
351.210548	2487.191882
351.600828	2486.390338
351.991045	2486.450832
352.381198	2484.736840
352.771288	2485.974443
353.161314	2484.179792
353.551276	2488.759681
353.941175	2484.111737
354.331010	2487.491830
354.720782	2482.987559
355.110490	2482.032261
355.500135	2484.295739
355.889717	2482.985039
356.279235	2486.133239
356.668689	2485.480410
357.058080	2485.006542
357.447408	2486.629793
357.836672	2483.002683
358.225873	2483.831953
358.615010	2483.620224
359.004084	2491.572644
359.393095	2488.472335
359.782043	2488.401759
360.170927	2489.389825
360.559748	2489.415031
360.948505	2490.365288
361.337199	2491.854949
361.725830	2492.681698
362.114398	2492.487614
362.502903	2493.654641
362.891344	2494.438540
363.279722	2494.383088
363.668037	2496.996926
364.056289	2496.848212
364.444478	2495.923160
364.832603	2495.666061
365.220665	2499.494818
365.608665	2497.251504
365.996601	2502.219561
366.384474	2500.334170
366.772284	2504.198214
367.160031	2504.964470
367.547715	2504.293996
367.935336	2503.928512
368.322893	2509.872033
368.710388	2515.823115
369.097820	2520.864269
369.485189	2523.518436
369.872495	2528.773839
370.259738	2537.989068
370.646918	2544.371169
371.034035	2550.415513
371.421090	2559.824826
371.808081	2571.648853
372.195010	2579.220666
372.581875	2593.582913
372.968678	2607.241919
373.355418	2618.057715
373.742096	2633.453399
374.128710	2649.567447
374.515262	2664.058244
374.901751	2680.752025
375.288177	2693.130578
375.674540	2715.500698
376.060841	2735.362844
376.447079	2753.637027
376.833254	2773.978083
377.219367	2786.422171
377.605417	2827.142091
377.991404	2834.913030
378.377329	2854.881040
378.763191	2873.508104
379.148991	2909.242323
379.534727	2934.032197
379.920402	2963.323821
380.306013	2977.300420
380.691563	3024.067205
381.077049	3048.292469
381.462474	3063.027762
381.847835	3106.318671
382.233134	3126.024541
382.618371	3125.591002
383.003545	3193.470138
383.388657	3201.931715
383.773706	3233.030593
384.158693	3250.846031
384.543618	3274.179012
384.928480	3311.682676
385.313280	3357.398379
385.698017	3357.184130
386.082692	3413.113212
386.467305	3413.014909
386.851856	3444.267542
387.236344	3468.452478
387.620770	3502.959176
388.005133	3528.490100
388.389435	3553.481620
388.773674	3565.484607
389.157851	3608.478088
389.541965	3623.732619
389.926018	3584.943461
390.310008	3658.214112
390.693936	3675.038963
391.077802	3719.774162
391.461606	3705.913509
391.845348	3770.941873
392.229027	3767.579424
392.612645	3780.096609
392.996200	3860.442519
393.379694	3902.765526
393.763125	3966.150474
394.146494	3931.437088
394.529801	3992.072087
394.913047	4044.399264
395.296230	4008.854088
395.679351	4061.670257
396.062410	4086.802929
396.445408	4068.811051
396.828343	4102.899333
397.211217	4127.132160
397.594028	4042.153430
397.976778	4114.219244
398.359466	4138.757061
398.742092	4168.756967
399.124656	4088.322837
399.507158	4167.773942
399.889598	4192.440308
400.271977	4254.567488
400.654294	4224.451635
401.036549	4235.211978
401.418742	4204.246690
401.800874	4307.900375
402.182944	4325.839321
402.564952	4394.832553
402.946898	4384.031881
403.328783	4375.046024
403.710606	4292.789517
404.092367	4482.644412
404.474067	4448.961942
404.855705	4455.318837
405.237282	4382.948032
405.618797	4493.377028
406.000250	4527.742574
406.381642	4606.986992
406.762972	4570.340324
407.144240	4576.626643
407.525447	4577.292075
407.906593	4636.218122
408.287677	4680.751675
408.668700	4613.369093
409.049661	4661.554962
409.430560	4698.282288
409.811399	4630.748470
410.192176	4790.979025
410.572891	4729.557606
410.953545	4834.648020
411.334138	4710.222261
411.714669	4782.139362
412.095139	4676.950645
412.475547	4815.559691
412.855894	4800.365653
413.236180	4804.973268
413.616405	4760.807719
413.996568	4846.487170
414.376670	4788.337460
414.756711	4746.417745
415.136691	4777.733393
415.516609	4854.646277
415.896466	4893.480806
416.276262	4923.130352
416.655997	4904.901540
417.035670	5087.872739
417.415283	5183.087533
417.794834	5122.828100
418.174324	5075.773970
418.553753	4984.307275
418.933121	5169.491541
419.312428	5238.273044
419.691674	5176.344989
420.070859	5302.459535
420.449983	5211.257500
420.829045	5331.037836
421.208047	5234.918156
421.586988	5303.992046
421.965867	5319.717925
422.344686	5446.195434
422.723444	5304.604546
423.102141	5123.261639
423.480777	5423.129635
423.859352	5186.139951
424.237866	5448.652997
424.616319	5440.594712
424.994712	5547.114293
425.373044	5426.363535
425.751314	5569.527263
426.129524	5375.662130
426.507673	5567.248662
426.885762	5655.783926
427.263789	5580.695939
427.641756	5464.542714
428.019662	5587.030149
428.397508	5593.177836
428.775292	5541.392583
429.153016	5636.166276
429.530679	5561.531993
429.908282	5650.435262
430.285824	5519.768554
430.663305	5790.644874
431.040726	5529.669380
431.418086	5528.242734
431.795385	5635.997397
432.172624	5647.435775
432.549802	5635.364732
432.926920	5652.265201
433.303977	5660.023536
433.680974	5697.882602
434.057910	5718.256425
434.434786	5724.162137
434.811601	5696.539134
435.188355	5927.325678
435.565050	5799.398837
435.941683	5777.250528
436.318257	5997.019630
436.694770	5979.675540
437.071222	6010.918091
437.447614	5943.454850
437.823946	5855.912693
438.200218	6012.616960
438.576429	5873.405496
438.952580	5973.956351
439.328670	6019.757754
439.704700	5928.427170
440.080670	5913.666672
440.456580	6188.016346
440.832429	6064.475309
441.208218	5911.151136
441.583947	6067.724333
441.959616	6074.648358
442.335224	5998.592470
442.710773	6134.660774
443.086261	6165.535321
443.461689	5954.074040
443.837057	6104.668429
444.212365	6259.900679
444.587612	6149.007898
444.962800	6306.261651
445.337927	6289.212468
445.712995	5900.531945
446.088002	6474.149718
446.462949	6305.394572
446.837837	6231.690383
447.212664	6405.375777
447.587431	6548.945318
447.962139	7086.700322
448.336786	8011.101744
448.711374	7750.829491
449.085901	6825.719787
449.460369	6745.305822
449.834776	6680.466501
450.209124	7063.548823
450.583412	7214.700259
450.957640	7354.539346
451.331808	7120.574355
451.705917	6675.138001
452.079965	6594.038439
452.453954	6801.600387
452.827883	6675.659761
453.201752	6767.565036
453.575562	6557.469909
453.949311	6762.654953
454.323001	6648.190513
454.696632	6717.040072
455.070202	6844.077149
455.443713	6990.782287
455.817164	7081.649086
456.190556	7158.156157
456.563888	7219.857359
456.937160	7261.361179
457.310373	6911.119454
457.683526	6928.609737
458.056619	6812.872407
458.429653	6790.396422
458.802628	6716.251131
459.175542	6813.200082
459.548398	7140.376007
459.921194	7278.148221
460.293930	7270.273939
460.666607	7750.501816
461.039224	8029.552367
461.411782	8132.777553
461.784280	8135.562791
462.156719	8017.879575
462.529099	7883.769759
462.901419	7476.603325
463.273680	7356.361723
463.645882	7356.092022
464.018024	7205.626182
464.390106	7335.171233
464.762130	7664.509814
465.134094	8052.300573
465.505999	8908.122138
465.877845	9942.944994
466.249631	10494.883285
466.621358	10132.273089
466.993026	9552.931086
467.364634	9293.478021
467.736184	8931.576107
468.107674	8602.224923
468.479105	8574.238957
468.850477	8337.942433
469.221790	8103.372503
469.593043	7782.102289
469.964238	7610.138449
470.335373	7575.853562
470.706449	7574.570588
471.077467	7512.115733
471.448425	8494.724838
471.819324	9274.130072
472.190164	9254.993852
472.560945	8225.980926
472.931667	7546.682925
473.302330	7391.947228
473.672934	7066.487815
474.043479	7273.275946
474.413965	7173.519073
474.784393	7014.158118
475.154761	7075.950061
475.525070	7075.544248
475.895321	6897.851137
476.265513	6952.734179
476.635645	7008.643096
477.005719	6932.546878
477.375734	6940.655574
477.745691	7024.913420
478.115588	7034.680655
478.485427	7112.264013
478.855207	7358.433638
479.224928	7752.218329
479.594591	8051.136067
479.964194	7845.068821
480.333739	7724.348310
480.703226	7559.346303
481.072653	7523.347424
481.442022	7544.825260
481.811333	7561.733290
482.180584	7355.668565
482.549777	7103.182374
482.918912	6929.592762
483.287988	6839.348547
483.657005	6762.813749
484.025964	6520.810638
484.394864	6485.676316
484.763706	6377.094903
485.132489	6197.501277
485.501213	6085.186890
485.869879	6040.580240
486.238487	5873.544128
486.607036	5849.076888
486.975527	5671.663561
487.343959	5666.327499
487.712333	5595.038022
488.080648	5497.138814
488.448905	5416.460188
488.817104	5327.773689
489.185244	5329.966591
489.553326	5300.120440
489.921350	5389.656373
490.289315	5621.672958
490.657222	5646.447709
491.025070	5522.584038
491.392861	5403.834618
491.760593	5214.216658
492.128267	5032.064646
492.495883	4860.413357
492.863440	4704.954255
493.230939	4554.919434
493.598380	4466.946258
493.965763	4364.179817
494.333088	4295.075680
494.700354	4205.983368
495.067563	4170.455836
495.434713	4072.733069
495.801805	4042.274417
496.168839	3974.773367
496.535815	3908.288110
496.902733	3863.104248
497.269593	3793.319555
497.636395	3763.634721
498.003139	3708.517265
498.369825	3651.085920
498.736453	3620.919655
499.103023	3573.293354
499.469535	3531.419010
499.835989	3490.860407
500.202385	3444.857357
500.568723	3390.715365
500.935003	3380.486864
501.301226	3319.171310
501.667390	3316.978408
502.033497	3288.604273
502.399546	3246.263622
502.765537	3203.192004
503.131470	3179.559074
503.497345	3161.844460
503.863163	3113.288066
504.228923	3101.927826
504.594625	3080.011409
504.960269	3038.235368
505.325856	3027.285981
505.691385	2993.177534
506.056856	2979.871409
506.422270	2953.856534
506.787625	2936.668720
507.152924	2921.217584
507.518164	2903.079512
507.883347	2880.795092
508.248472	2863.725745
508.613540	2854.134950
508.978550	2835.404542
509.343503	2820.465083
509.708398	2812.883188
510.073236	2803.408339
510.438016	2788.496606
510.802738	2774.945984
511.167403	2769.176384
511.532010	2756.260948
511.896561	2752.646440
512.261053	2746.755852
512.625488	2731.886969
512.989866	2723.201061
513.354186	2718.495144
513.718449	2706.414018
514.082655	2707.399564
514.446803	2696.180476
514.810894	2696.162832
515.174927	2688.134795
515.538904	2684.331244
515.902822	2680.973836
516.266684	2675.877229
516.630488	2669.230468
516.994235	2669.618637
517.357925	2666.288954
517.721558	2662.394663
518.085133	2658.447440
518.448651	2658.097079
518.812112	2655.722696
519.175516	2653.207160
519.538863	2647.792961
519.902152	2649.859834
520.265385	2646.341109
520.628560	2644.770789
520.991678	2642.250212
521.354739	2643.510501
521.717743	2634.002885
522.080690	2638.169398
522.443580	2636.611682
522.806413	2637.488842
523.169189	2634.685961
523.531908	2634.292751
523.894569	2629.975003
524.257174	2626.242028
524.619722	2630.642956
524.982213	2629.518778
525.344647	2628.397122
525.707025	2627.772018
526.069345	2623.129116
526.431608	2623.043416
526.793815	2623.262706
527.155964	2622.864455
527.518057	2621.878910
527.880093	2620.154835
528.242072	2621.430247
528.603995	2621.276492
528.965860	2617.152828
529.327669	2618.634927
529.689421	2617.790534
530.051117	2615.761469
530.412755	2618.962602
530.774337	2618.765997
531.135862	2614.700307
531.497331	2612.134359
531.858743	2606.899121
532.220098	2614.029833
532.581396	2607.950202
532.942638	2609.213011
533.303824	2611.985645
533.664953	2612.867847
534.026025	2611.506736
534.387040	2607.970366
534.747999	2611.289966
535.108902	2609.601179
535.469748	2606.135386
535.830537	2610.654781
536.191270	2607.630088
536.551947	2609.429780
536.912567	2608.749224
537.273131	2608.229986
537.633638	2604.857454
537.994089	2608.076230
538.354483	2607.930037
538.714821	2608.391302
539.075103	2607.151179
539.435328	2606.747886
539.795497	2605.106991
540.155609	2606.200921
540.515665	2608.751745
540.875665	2605.424583
541.235609	2604.222268
541.595496	2607.539347
541.955328	2607.950202
542.315102	2606.102619
542.674821	2607.325098
543.034483	2608.625716
543.394090	2605.711929
543.753640	2606.710078
544.113134	2605.182608
544.472571	2604.000457
544.831953	2607.320057
545.191278	2607.325098
545.550548	2602.440220
545.909761	2606.521034
546.268918	2605.951384
546.628019	2604.678493
546.987064	2606.621857
547.346053	2606.032042
547.704986	2599.660024
548.063863	2605.628750
548.422684	2602.326794
548.781449	2604.502052
549.140158	2604.822166
549.498811	2606.823504
549.857408	2602.520879
550.215949	2602.334356
550.574434	2600.587596
550.932864	2602.223451
551.291237	2602.125148
551.649555	2606.246292
552.007817	2605.999275
552.366022	2605.190170
552.724173	2605.984152
553.082267	2604.930550
553.440305	2605.522886
553.798288	2602.725046
554.156215	2604.368462
554.514086	2607.889708
554.871902	2605.343925
555.229661	2602.989706
555.587365	2602.029366
555.945014	2600.136413
556.302606	2604.466764
556.660143	2605.442227
557.017625	2605.157402
557.375050	2603.433328
557.732421	2606.442897
558.089735	2604.686054
558.446994	2605.021291
558.804197	2603.534151
559.161345	2604.988524
559.518437	2605.275869
559.875474	2601.764706
560.232455	2606.120263
560.589381	2602.914089
560.946251	2605.853082
561.303065	2604.441558
561.659825	2603.400560
562.016528	2603.924840
562.373177	2601.469798
562.729770	2604.166816
563.086307	2601.021136
563.442789	2602.987186
563.799216	2603.483739
564.155587	2604.975921
564.511904	2603.675303
564.868164	2601.280755
565.224370	2601.356372
565.580520	2604.035746
565.936615	2602.866198
566.292654	2601.260590
566.648638	2601.316043
567.004567	2604.542382
567.360441	2603.410642
567.716260	2597.711618
568.072023	2603.526589
568.427732	2598.752616
568.783385	2597.373861
569.138982	2598.709767
569.494525	2599.997781
569.850013	2597.769591
570.205445	2600.088522
570.560823	2601.910899
570.916145	2600.413677
571.271412	2598.886207
571.626625	2599.554160
571.981782	2599.811259
572.336884	2600.779160
572.691931	2600.454006
573.046923	2601.855447
573.401860	2599.201279
573.756743	2599.090374
574.111570	2597.615836
574.466342	2599.130703
574.821059	2596.080805
575.175722	2599.261773
575.530330	2597.136927
575.884882	2598.485435
576.239380	2598.392174
576.593823	2599.259252
576.948211	2598.646752
577.302544	2598.190528
577.656823	2596.963007
578.011047	2597.386464
578.365216	2597.653645
578.719330	2599.070209
579.073389	2598.586258
579.427394	2595.264138
579.781344	2597.225147
580.135239	2596.600044
580.489080	2595.682554
580.842866	2597.905702
581.196597	2596.400918
581.550273	2595.279261
581.903895	2597.434355
582.257463	2597.177256
582.610975	2596.017790
582.964434	2594.699529
583.317837	2595.722883
583.671186	2597.449478
584.024481	2593.640886
584.377721	2595.463263
584.730906	2592.957810
585.084037	2594.081987
585.437113	2595.808582
585.790135	2593.214909
586.143103	2592.708273
586.496016	2592.408324
586.848874	2590.230546
587.201679	2589.983529
587.554428	2589.812130
587.907124	2591.203488
588.259765	2591.727768
588.612352	2593.043510
588.964884	2595.808582
589.317362	2591.334558
589.669786	2593.015783
590.022155	2592.393201
590.374470	2593.978644
590.726731	2594.296236
591.078937	2587.919177
591.431090	2591.863880
591.783188	2591.425299
592.135232	2595.178438
592.487222	2590.855649
592.839157	2591.921853
593.191038	2589.945721
593.542866	2589.686101
593.894639	2590.560741
594.246358	2592.632656
594.598022	2590.815320
594.949633	2588.781214
595.301190	2585.779207
595.652692	2591.011925
596.004141	2588.365319
596.355535	2590.346492
596.706876	2589.043354
597.058162	2585.854824
597.409395	2589.431523
597.760573	2589.043354
598.111698	2589.003025
598.462768	2590.880855
598.813785	2590.888416
599.164748	2587.662078
599.515657	2587.097469
599.866511	2586.605956
600.217312	2589.282809
600.568060	2589.456729
600.918753	2589.549990
601.269392	2587.427664
601.619978	2586.399269
601.970510	2588.622418
602.320988	2590.336410
602.671412	2586.333734
603.021783	2586.835329
603.372100	2586.686615
603.722363	2588.377922
604.072572	2589.081163
604.422728	2587.107551
604.772830	2582.709144
605.122878	2582.005903
605.472872	2584.418095
605.822813	2584.460945
606.172701	2583.714854
606.522534	2586.348857
606.872314	2588.773652
607.222041	2587.621749
607.571714	2589.794486
607.921333	2587.717531
608.270899	2586.807602
608.620411	2588.758529
608.969870	2588.491348
609.319276	2587.858683
609.668627	2591.823550
610.017926	2594.732296
610.367171	2595.160794
610.716362	2594.271031
611.065500	2590.875813
611.414585	2591.478231
611.763616	2590.752305
612.112594	2591.478231
612.461518	2588.468662
612.810389	2592.617532
613.159207	2589.854980
613.507971	2587.747777
613.856682	2588.612335
614.205340	2588.819023
614.553945	2589.915474
614.902496	2586.762232
615.250994	2587.248703
615.599439	2589.043354
615.947830	2592.420927
616.296169	2590.217943
616.644454	2588.519074
616.992686	2588.246852
617.340864	2588.521595
617.688990	2587.962027
618.037063	2589.043354
618.385082	2587.278950
618.733048	2591.551328
619.080961	2589.108889
619.428821	2586.308528
619.776628	2587.783066
620.124382	2591.037130
620.472083	2587.352047
620.819731	2589.479414
621.167326	2588.531677
621.514868	2588.125864
621.862357	2587.616708
622.209793	2585.683425
622.557176	2584.160997
622.904506	2582.585636
623.251783	2581.418609
623.599007	2581.965574
623.946179	2581.816860
624.293297	2582.759556
624.640363	2582.396593
624.987376	2584.143352
625.334336	2583.588826
625.681243	2584.009762
626.028097	2582.106726
626.374899	2582.381469
626.721647	2584.408013
627.068343	2583.336768
627.414987	2583.029257
627.761577	2579.530697
628.108115	2582.502457
628.454600	2581.400965
628.801032	2581.025399
629.147412	2579.258474
629.493739	2580.543969
629.840014	2582.653692
630.186236	2583.856007
630.532405	2580.208732
630.878521	2580.178485
631.224585	2581.577405
631.570597	2579.439956
631.916556	2579.155131
632.262462	2579.525656
632.608316	2581.411047
632.954117	2579.853331
633.299866	2579.709658
633.645562	2579.029102
633.991206	2578.920717
634.336797	2579.417271
634.682336	2575.475088
635.027823	2579.071952
635.373257	2577.332754
635.718639	2575.785119
636.063968	2576.271591
636.409245	2572.931826
636.754470	2577.121025
637.099642	2576.906776
637.444762	2573.221693
637.789829	2573.488874
638.134845	2574.076168
638.479808	2574.870150
638.824719	2572.652042
639.169577	2573.083061
639.514383	2574.396282
639.859137	2570.554922
640.203839	2570.585169
640.548489	2573.879563
640.893086	2567.714232
641.237632	2569.261866
641.582125	2570.131465
641.926566	2565.564180
642.270955	2571.401836
642.615292	2572.006775
642.959576	2573.798905
643.303809	2574.892835
643.647990	2571.076682
643.992118	2572.843606
644.336195	2570.650704
