Dividing Wavelength (nm)	Counts (n)	Blue Motor Position (mm): 0.000000	Red Motor Position (mm): 20.700000	
326.493990	2128.571759
326.888308	2128.571759
327.282561	2128.571759
327.676750	2094.511203
328.070874	2095.582448
328.464933	2097.873653
328.858929	2104.303644
329.252859	2113.017279
329.646726	2126.114196
330.040528	2139.684983
330.434265	2154.458084
330.827938	2172.076917
331.221547	2190.497293
331.615091	2207.987576
332.008571	2231.159240
332.401986	2249.065418
332.795338	2266.006216
333.188625	2287.617642
333.581847	2306.683286
333.975006	2322.837663
334.368100	2342.031857
334.761129	2359.103724
335.154095	2374.320447
335.546996	2392.725700
335.939833	2408.615417
336.332606	2423.925401
336.725315	2437.816300
337.117960	2446.063628
337.510540	2452.604525
337.903056	2466.951649
338.295508	2475.377938
338.687896	2480.955974
339.080220	2493.730258
339.472480	2497.712770
339.864676	2505.118225
340.256807	2503.878101
340.648875	2508.024450
341.040879	2510.776920
341.432818	2514.396468
341.824694	2513.441170
342.216506	2514.116684
342.608253	2514.252796
342.999937	2513.892353
343.391557	2512.589215
343.783113	2514.116684
344.174605	2511.089472
344.566033	2509.952691
344.957397	2509.531755
345.348697	2510.426560
345.739934	2503.968842
346.131106	2504.586383
346.522215	2502.355673
346.913260	2499.378871
347.304241	2500.432472
347.695159	2495.144302
348.086012	2494.294868
348.476802	2495.013232
348.867528	2493.979795
349.258191	2491.754126
349.648789	2488.679022
350.039324	2489.248672
350.429796	2485.457725
350.820203	2489.132726
351.210548	2485.508136
351.600828	2485.266161
351.991045	2482.052425
352.381198	2483.080821
352.771288	2483.176603
353.161314	2484.275574
353.551276	2484.918321
353.941175	2482.730461
354.331010	2482.027220
354.720782	2480.106540
355.110490	2484.552838
355.500135	2482.957312
355.889717	2482.087713
356.279235	2483.557210
356.668689	2482.927066
357.058080	2486.307159
357.447408	2483.660553
357.836672	2482.218783
358.225873	2482.795996
358.615010	2482.236428
359.004084	2485.586274
359.393095	2485.712303
359.782043	2486.942345
360.170927	2487.743888
360.559748	2491.345793
360.948505	2492.837974
361.337199	2489.974599
361.725830	2492.371667
362.114398	2492.298571
362.502903	2492.238077
362.891344	2491.731441
363.279722	2492.661534
363.668037	2495.933243
364.056289	2494.551966
364.444478	2492.956441
364.832603	2496.023983
365.220665	2495.381236
365.608665	2493.233705
365.996601	2498.065651
366.384474	2500.530775
366.772284	2499.199910
367.160031	2502.219561
367.547715	2501.662514
367.935336	2502.254849
368.322893	2510.875223
368.710388	2509.627537
369.097820	2518.406706
369.485189	2521.920391
369.872495	2527.692512
370.259738	2533.333563
370.646918	2540.761703
371.034035	2545.812939
371.421090	2559.187120
371.808081	2567.862946
372.195010	2574.935685
372.581875	2592.899837
372.968678	2604.877618
373.355418	2616.363887
373.742096	2633.612195
374.128710	2648.813795
374.515262	2664.330466
374.901751	2678.740604
375.288177	2691.187213
375.674540	2714.232848
376.060841	2732.116341
376.447079	2753.700042
376.833254	2771.626385
377.219367	2783.775565
377.605417	2824.573623
377.991404	2831.379181
378.377329	2851.919362
378.763191	2868.003164
379.148991	2906.787281
379.534727	2932.300561
379.920402	2961.221660
380.306013	2970.958649
380.691563	3021.919673
381.077049	3039.979607
381.462474	3060.587844
381.847835	3100.354986
382.233134	3125.318780
382.618371	3125.114613
383.003545	3192.315714
383.388657	3197.739996
383.773706	3231.044379
384.158693	3243.725401
384.543618	3273.397633
384.928480	3304.085657
385.313280	3351.999303
385.698017	3348.765403
386.082692	3406.978127
386.467305	3414.701175
386.851856	3445.444652
387.236344	3463.398721
387.620770	3498.497755
388.005133	3521.341743
388.389435	3548.652194
388.773674	3563.064853
389.157851	3602.254783
389.541965	3615.984366
389.926018	3580.340888
390.310008	3658.309893
390.693936	3673.017460
391.077802	3712.739232
391.461606	3703.347562
391.845348	3766.427520
392.229027	3763.034823
392.612645	3776.293058
392.996200	3854.476313
393.379694	3895.813775
393.763125	3957.895584
394.146494	3926.164041
394.529801	3989.566633
394.913047	4038.806103
395.296230	4005.917616
395.679351	4055.961150
396.062410	4078.285900
396.445408	4061.423240
396.828343	4095.874486
397.211217	4119.711582
397.594028	4040.961197
397.976778	4107.333028
398.359466	4132.495948
398.742092	4158.939320
399.124656	4081.481991
399.507158	4160.577695
399.889598	4187.404195
400.271977	4247.668669
400.654294	4216.148855
401.036549	4231.932707
401.418742	4196.397614
401.800874	4296.459477
402.182944	4318.297755
402.564952	4384.541037
402.946898	4373.884038
403.328783	4368.396742
403.710606	4281.514976
404.092367	4471.475735
404.474067	4437.442906
404.855705	4444.908854
405.237282	4374.962845
405.618797	4482.465451
406.000250	4518.038353
406.381642	4593.816977
406.762972	4560.207605
407.144240	4568.510385
407.525447	4567.234973
407.906593	4625.896360
408.287677	4667.823636
408.668700	4597.189509
409.049661	4647.033918
409.430560	4687.612686
409.811399	4615.531748
410.192176	4777.456130
410.572891	4714.789546
410.953545	4814.823682
411.334138	4697.521074
411.714669	4761.979787
412.095139	4652.848889
412.475547	4793.124036
412.855894	4772.593937
413.236180	4778.696253
413.616405	4730.588522
413.996568	4813.122293
414.376670	4751.219444
414.756711	4701.564079
415.136691	4728.125919
415.516609	4797.101506
415.896466	4826.219211
416.276262	4854.926061
416.655997	4829.155683
417.035670	4994.790354
417.415283	5070.906736
417.794834	5005.661603
418.174324	4950.249239
418.553753	4845.851984
418.933121	5006.591695
419.312428	5056.151279
419.691674	4987.205938
420.070859	5085.944498
420.449983	4985.244929
420.829045	5071.725924
421.208047	4971.835460
421.586988	5013.966903
421.965867	4999.523998
422.344686	5087.051031
422.723444	4935.892033
423.102141	4758.398047
423.480777	4988.274663
423.859352	4763.035909
424.237866	4947.174136
424.616319	4915.583745
424.994712	4973.025173
425.373044	4841.176314
425.751314	4917.083488
426.129524	4726.434612
426.507673	4836.566179
426.885762	4869.701683
427.263789	4771.268113
427.641756	4652.690092
428.019662	4692.290877
428.397508	4658.303417
428.775292	4575.026076
429.153016	4596.156073
429.530679	4504.802803
429.908282	4511.638608
430.285824	4387.414495
430.663305	4504.301208
431.040726	4296.789672
431.418086	4257.534207
431.795385	4265.622738
432.172624	4227.385587
432.549802	4168.086494
432.926920	4128.495792
433.303977	4087.644802
433.680974	4055.323444
434.057910	4009.917771
434.434786	3965.177531
434.811601	3901.966503
435.188355	3956.549596
435.565050	3856.560830
435.941683	3799.215185
436.318257	3824.010100
436.694770	3767.115638
437.071222	3731.411665
437.447614	3656.787465
437.823946	3588.240376
438.200218	3587.350612
438.576429	3502.898682
438.952580	3479.986638
439.328670	3450.725260
439.704700	3387.559603
440.080670	3344.417408
440.456580	3357.577340
440.832429	3290.363636
441.208218	3220.583984
441.583947	3214.249775
441.959616	3182.089734
442.335224	3132.089049
442.710773	3116.131277
443.086261	3087.994077
443.461689	3029.483924
443.837057	3013.742922
444.212365	3005.745131
444.587612	2965.698205
444.962800	2948.586008
445.337927	2925.129519
445.712995	2859.728110
446.088002	2887.714075
446.462949	2851.039681
446.837837	2822.957934
447.212664	2816.104485
447.587431	2804.424132
447.962139	2817.417706
448.336786	2856.789117
448.711374	2820.281081
449.085901	2748.868096
449.460369	2725.845146
449.834776	2706.240099
450.209124	2707.518031
450.583412	2701.571990
450.957640	2696.858511
451.331808	2674.445541
451.705917	2652.254382
452.079965	2637.902217
452.453954	2635.346352
452.827883	2627.308232
453.201752	2617.735081
453.575562	2608.905500
453.949311	2607.304934
454.323001	2601.845364
454.696632	2597.782194
455.070202	2595.977461
455.443713	2590.941348
455.817164	2591.410176
456.190556	2585.481779
456.563888	2584.410534
456.937160	2580.070100
457.310373	2575.817887
457.683526	2571.598441
458.056619	2573.725808
458.429653	2573.022567
458.802628	2566.990827
459.175542	2568.185580
459.548398	2571.716908
459.921194	2570.559963
460.293930	2567.641135
460.666607	2572.717577
461.039224	2573.375448
461.411782	2576.284194
461.784280	2573.851837
462.156719	2570.907803
462.529099	2569.087947
462.901419	2567.164746
463.273680	2563.235167
463.645882	2565.826320
464.018024	2562.085784
464.390106	2563.366237
464.762130	2566.166598
465.134094	2567.825137
465.505999	2575.802763
465.877845	2579.999524
466.249631	2584.672674
466.621358	2582.757035
466.993026	2582.537745
467.364634	2580.339802
467.736184	2576.851323
468.107674	2572.299162
468.479105	2574.794533
468.850477	2572.246229
469.221790	2568.500652
469.593043	2566.186762
469.964238	2568.724983
470.335373	2564.704663
470.706449	2566.287586
471.077467	2565.717935
471.448425	2578.484657
471.819324	2581.136304
472.190164	2581.360636
472.560945	2575.197825
472.931667	2572.644481
473.302330	2569.156002
473.672934	2568.745148
474.043479	2569.299675
474.413965	2570.111301
474.784393	2563.318346
475.154761	2566.262380
475.525070	2566.645508
475.895321	2565.395301
476.265513	2565.659962
476.635645	2566.743810
477.005719	2566.857236
477.375734	2573.637588
477.745691	2578.144379
478.115588	2575.240675
478.485427	2577.481468
478.855207	2579.104719
479.224928	2585.257447
479.594591	2587.415061
479.964194	2585.801892
480.333739	2583.072107
480.703226	2584.685277
481.072653	2587.354568
481.442022	2586.263158
481.811333	2587.538570
482.180584	2585.882551
482.549777	2583.417426
482.918912	2587.152921
483.287988	2585.922880
483.657005	2585.081007
484.025964	2582.744432
484.394864	2582.580595
484.763706	2584.077817
485.132489	2582.699062
485.501213	2582.308373
485.869879	2581.597570
486.238487	2580.163362
486.607036	2580.044894
486.975527	2582.212591
487.343959	2581.710996
487.712333	2580.932137
488.080648	2582.242837
488.448905	2582.595718
488.817104	2581.158989
489.185244	2584.962540
489.553326	2583.162848
489.921350	2586.923549
490.289315	2592.862028
490.657222	2593.393870
491.025070	2591.518561
491.392861	2591.142995
491.760593	2592.367995
492.128267	2588.635021
492.495883	2584.962540
492.863440	2585.607808
493.230939	2583.551017
493.598380	2581.529514
493.965763	2573.660273
494.333088	2577.143710
494.700354	2575.192784
495.067563	2576.780747
495.434713	2575.031467
495.801805	2580.138156
496.168839	2579.129925
496.535815	2578.809812
496.902733	2575.727146
497.269593	2577.398289
497.636395	2577.403330
498.003139	2576.879050
498.369825	2576.332085
498.736453	2578.139338
499.103023	2575.472568
499.469535	2573.448545
499.835989	2576.435428
500.202385	2577.128587
500.568723	2577.829307
500.935003	2574.698751
501.301226	2576.677404
501.667390	2577.869637
502.033497	2578.071283
502.399546	2577.002558
502.765537	2574.597928
503.131470	2575.535582
503.497345	2576.695048
503.863163	2576.155644
504.228923	2574.920562
504.594625	2576.909297
504.960269	2573.362845
505.325856	2579.097157
505.691385	2571.956363
506.056856	2575.144893
506.422270	2577.665470
506.787625	2575.706982
507.152924	2573.720767
507.518164	2579.432394
507.883347	2577.985583
508.248472	2574.555078
508.613540	2582.058835
508.978550	2577.645305
509.343503	2576.203535
509.708398	2578.328382
510.073236	2578.474575
510.438016	2578.149421
510.802738	2578.358628
511.167403	2579.734863
511.532010	2576.115315
511.896561	2579.533217
512.261053	2580.067580
512.625488	2578.209914
512.989866	2576.563978
513.354186	2576.445511
513.718449	2576.576581
514.082655	2576.233782
514.446803	2578.842579
514.810894	2579.588670
515.174927	2581.663105
515.538904	2580.170923
515.902822	2579.250913
516.266684	2581.869792
516.630488	2580.294432
516.994235	2581.088413
517.357925	2580.808629
517.721558	2583.510688
518.085133	2582.096644
518.448651	2581.302662
518.812112	2581.751325
519.175516	2579.926427
519.538863	2579.283680
519.902152	2581.867272
520.265385	2579.850810
520.628560	2582.898187
520.991678	2581.509350
521.354739	2581.894998
521.717743	2579.044225
522.080690	2580.453228
522.443580	2581.421129
522.806413	2581.920204
523.169189	2580.193608
523.531908	2582.242837
523.894569	2580.112950
524.257174	2584.634865
524.619722	2583.503126
524.982213	2582.943558
525.344647	2581.174113
525.707025	2582.482292
526.069345	2582.532704
526.431608	2584.312231
526.793815	2584.332396
527.155964	2583.593867
527.518057	2583.664443
527.880093	2583.026737
528.242072	2584.478589
528.603995	2585.048240
528.965860	2586.842890
529.327669	2584.249217
529.689421	2582.338619
530.051117	2584.566809
530.412755	2580.370049
530.774337	2582.454566
531.135862	2583.341809
531.497331	2580.460790
531.858743	2576.798391
532.220098	2582.033630
532.581396	2576.997517
532.942638	2578.754359
533.303824	2579.208063
533.664953	2582.464648
534.026025	2579.273598
534.387040	2582.484813
534.747999	2581.983218
535.108902	2580.574216
535.469748	2579.318968
535.830537	2581.655543
536.191270	2582.822570
536.551947	2581.461459
536.912567	2579.694534
537.273131	2582.499936
537.633638	2581.239648
537.994089	2579.510532
538.354483	2578.950964
538.714821	2582.109247
539.075103	2581.408527
539.435328	2581.600090
539.795497	2582.739391
540.155609	2583.246027
540.515665	2584.105544
540.875665	2584.715523
541.235609	2582.948599
541.595496	2582.751994
541.955328	2580.662436
542.315102	2582.694021
542.674821	2582.373907
543.034483	2581.312745
543.394090	2583.682087
543.753640	2582.326017
544.113134	2579.336612
544.472571	2582.799885
544.831953	2581.736202
545.191278	2582.386510
545.550548	2581.791654
545.909761	2585.121336
546.268918	2580.758218
546.628019	2581.300142
546.987064	2582.631006
547.346053	2581.421129
547.704986	2580.889288
548.063863	2582.903229
548.422684	2583.651840
548.781449	2580.102868
549.140158	2582.895667
549.498811	2583.225862
549.857408	2581.393403
550.215949	2580.407857
550.574434	2576.518607
550.932864	2579.447518
551.291237	2579.941551
551.649555	2582.313414
552.007817	2584.438260
552.366022	2583.525811
552.724173	2581.111098
553.082267	2583.011613
553.440305	2579.855851
553.798288	2580.024730
554.156215	2581.574885
554.514086	2586.003538
554.871902	2580.264185
555.229661	2581.184195
555.587365	2581.466500
555.945014	2581.428691
556.302606	2584.632344
556.660143	2581.942889
557.017625	2580.619586
557.375050	2583.346850
557.732421	2581.474062
558.089735	2580.649833
558.446994	2582.777200
558.804197	2582.174782
559.161345	2581.864751
559.518437	2582.540266
559.875474	2582.457087
560.232455	2579.865933
560.589381	2580.312076
560.946251	2582.562951
561.303065	2581.877354
561.659825	2581.854669
562.016528	2583.263671
562.373177	2583.740060
562.729770	2581.557241
563.086307	2580.685121
563.442789	2580.274267
563.799216	2580.843917
564.155587	2579.654205
564.511904	2582.504978
564.868164	2577.625141
565.224370	2581.922724
565.580520	2579.462641
565.936615	2583.525811
566.292654	2579.543300
566.648638	2582.225193
567.004567	2580.107909
567.360441	2580.571695
567.716260	2579.538258
568.072023	2580.317117
568.427732	2575.192784
568.783385	2577.315110
569.138982	2577.945254
569.494525	2577.093299
569.850013	2577.844431
570.205445	2580.927096
570.560823	2580.899370
570.916145	2579.989442
571.271412	2579.686972
571.626625	2581.673187
571.981782	2575.780078
572.336884	2576.662280
572.691931	2580.397775
573.046923	2577.511715
573.401860	2578.678742
573.756743	2576.808474
574.111570	2579.518094
574.466342	2578.892991
574.821059	2576.130438
575.175722	2577.536920
575.530330	2576.357290
575.884882	2577.236972
576.239380	2574.043401
576.593823	2578.872826
576.948211	2578.285532
577.302544	2574.008113
577.656823	2576.926941
578.011047	2580.019689
578.365216	2578.832497
578.719330	2576.778227
579.073389	2577.809143
579.427394	2574.424008
579.781344	2574.849985
580.135239	2575.681776
580.489080	2577.431056
580.842866	2573.929975
581.196597	2579.104719
581.550273	2575.011302
581.903895	2575.782599
582.257463	2577.080696
582.610975	2575.941395
582.964434	2575.742270
583.317837	2573.130952
583.671186	2575.039029
584.024481	2573.766137
584.377721	2573.937537
584.730906	2570.852350
585.084037	2574.562640
585.437113	2575.097002
585.790135	2572.490725
586.143103	2573.630026
586.496016	2572.599110
586.848874	2568.329253
587.201679	2571.958884
587.554428	2568.823286
587.907124	2570.927968
588.259765	2567.936043
588.612352	2570.622978
588.964884	2570.222206
589.317362	2576.074986
589.669786	2574.146744
590.022155	2573.556929
590.374470	2571.479974
590.726731	2577.521797
591.078937	2569.085426
591.431090	2575.318813
591.783188	2572.581466
592.135232	2571.028791
592.487222	2571.651373
592.839157	2572.178174
593.191038	2571.890828
593.542866	2570.701116
593.894639	2572.687330
594.246358	2573.471230
594.598022	2569.801270
594.949633	2570.133986
595.301190	2570.776733
595.652692	2571.419480
596.004141	2569.279510
596.355535	2570.993503
596.706876	2568.135168
597.058162	2569.826476
597.409395	2567.444530
597.760573	2570.532237
598.111698	2566.232133
598.462768	2569.912175
598.813785	2569.098029
599.164748	2571.353945
599.515657	2570.166753
599.866511	2567.941084
600.217312	2571.071641
600.568060	2569.723132
600.918753	2569.788667
601.269392	2566.579973
601.619978	2567.076526
601.970510	2568.752710
602.320988	2566.171639
602.671412	2570.073492
603.021783	2568.979562
603.372100	2567.308419
603.722363	2568.273800
604.072572	2565.947308
604.422728	2568.384706
604.772830	2563.988819
605.122878	2563.386402
605.472872	2567.633574
605.822813	2562.211813
606.172701	2563.419169
606.522534	2568.127607
606.872314	2568.861095
607.222041	2572.342011
607.571714	2567.663821
607.921333	2571.411918
608.270899	2567.429407
608.620411	2566.494273
608.969870	2569.087947
609.319276	2569.818914
609.668627	2573.304872
610.017926	2571.991651
610.367171	2577.151272
610.716362	2574.013154
611.065500	2574.045921
611.414585	2569.350087
611.763616	2570.113821
612.112594	2571.328739
612.461518	2572.747824
612.810389	2569.017370
613.159207	2569.405539
613.507971	2569.524006
613.856682	2569.947463
614.205340	2568.568708
614.553945	2570.186918
614.902496	2566.925292
615.250994	2569.531568
615.599439	2570.106260
615.947830	2567.794891
616.296169	2567.560477
616.644454	2569.410580
616.992686	2569.627350
617.340864	2570.076013
617.688990	2566.839592
618.037063	2568.656928
618.385082	2570.829665
618.733048	2571.606003
619.080961	2568.460323
619.428821	2566.821948
619.776628	2568.281362
620.124382	2568.936712
620.472083	2565.027297
620.819731	2570.290262
621.167326	2568.324212
621.514868	2566.842112
621.862357	2566.673234
622.209793	2568.969479
622.557176	2565.728017
622.904506	2563.623336
623.251783	2563.492266
623.599007	2561.639642
623.946179	2560.336503
624.293297	2562.952862
624.640363	2564.099725
624.987376	2562.388253
625.334336	2565.866649
625.681243	2567.089129
626.028097	2564.649211
626.374899	2565.032338
626.721647	2564.288768
627.068343	2564.218192
627.414987	2563.474622
627.761577	2562.647873
628.108115	2563.890517
628.454600	2564.084601
628.801032	2563.373799
629.147412	2564.621484
629.493739	2563.772050
629.840014	2564.339180
630.186236	2562.448747
630.532405	2565.589386
630.878521	2562.854560
631.224585	2563.371278
631.570597	2561.803479
631.916556	2561.253993
632.262462	2562.443706
632.608316	2563.966134
632.954117	2558.899775
633.299866	2561.006977
633.645562	2560.031514
633.991206	2563.283058
634.336797	2558.554456
634.682336	2562.431103
635.027823	2556.969013
635.373257	2558.226781
635.718639	2557.402552
636.063968	2559.091338
636.409245	2557.896585
636.754470	2560.734755
637.099642	2559.363561
637.444762	2560.223078
637.789829	2559.232491
638.134845	2559.340876
638.479808	2558.902295
638.824719	2558.844322
639.169577	2560.018911
639.514383	2557.596636
639.859137	2558.612429
640.203839	2561.017059
640.548489	2555.844835
640.893086	2553.808209
641.237632	2552.928528
641.582125	2555.111347
641.926566	2553.004145
642.270955	2558.062943
642.615292	2556.195196
642.959576	2556.822819
643.303809	2556.744681
643.647990	2556.439692
643.992118	2553.891388
644.336195	2558.214178
