Dividing Wavelength (nm)	Counts (n)	Blue Motor Position (mm): 0.000000	Red Motor Position (mm): 17.500000	
326.493990	2145.205046
326.888308	2145.205046
327.282561	2145.205046
327.676750	2119.374174
328.070874	2119.356530
328.464933	2125.983126
328.858929	2133.980917
329.252859	2147.861734
329.646726	2162.281955
330.040528	2176.598832
330.434265	2196.768488
330.827938	2214.150387
331.221547	2233.684858
331.615091	2253.978023
332.008571	2273.893101
332.401986	2295.612912
332.795338	2309.723102
333.188625	2334.649087
333.581847	2352.386387
333.975006	2372.571167
334.368100	2392.246790
334.761129	2405.361352
335.154095	2426.319949
335.546996	2439.401743
335.939833	2455.210802
336.332606	2467.397791
336.725315	2480.739205
337.117960	2489.026862
337.510540	2495.227481
337.903056	2509.327588
338.295508	2514.388907
338.687896	2517.748836
339.080220	2526.623787
339.472480	2531.884231
339.864676	2534.611495
340.256807	2539.776157
340.648875	2542.248843
341.040879	2543.168854
341.432818	2540.665921
341.824694	2544.754297
342.216506	2544.744215
342.608253	2544.280428
342.999937	2544.585418
343.391557	2543.849410
343.783113	2542.475695
344.174605	2540.207176
344.566033	2540.008051
344.957397	2536.176774
345.348697	2535.372710
345.739934	2533.729293
346.131106	2533.404139
346.522215	2532.615198
346.913260	2530.749972
347.304241	2527.863911
347.695159	2524.816533
348.086012	2524.924918
348.476802	2522.285874
348.867528	2523.107582
349.258191	2519.603980
349.648789	2518.421830
350.039324	2518.346213
350.429796	2519.220853
350.820203	2516.491068
351.210548	2514.900584
351.600828	2517.559792
351.991045	2512.826149
352.381198	2512.349760
352.771288	2512.558968
353.161314	2513.715913
353.551276	2515.281191
353.941175	2513.897394
354.331010	2514.701458
354.720782	2510.141735
355.110490	2514.078876
355.500135	2514.346057
355.889717	2517.708507
356.279235	2517.002745
356.668689	2513.572240
357.058080	2514.661129
357.447408	2512.087620
357.836672	2512.513597
358.225873	2515.533249
358.615010	2512.533762
359.004084	2520.158507
359.393095	2518.157169
359.782043	2517.131294
360.170927	2516.975019
360.559748	2517.451408
360.948505	2519.402334
361.337199	2517.663136
361.725830	2523.861235
362.114398	2518.305883
362.502903	2523.795700
362.891344	2521.254958
363.279722	2524.309897
363.668037	2520.294618
364.056289	2525.842408
364.444478	2525.234949
364.832603	2523.384846
365.220665	2523.538601
365.608665	2523.836029
365.996601	2527.700073
366.384474	2525.557583
366.772284	2523.031965
367.160031	2526.462470
367.547715	2528.670496
367.935336	2526.618746
368.322893	2525.431554
368.710388	2525.630680
369.097820	2527.921884
369.485189	2531.145702
369.872495	2528.741072
370.259738	2527.838705
370.646918	2527.143026
371.034035	2530.092101
371.421090	2532.826927
371.808081	2529.651000
372.195010	2531.347348
372.581875	2532.756351
372.968678	2530.707122
373.355418	2534.551002
373.742096	2534.218285
374.128710	2533.923378
374.515262	2535.428162
374.901751	2534.951773
375.288177	2535.939839
375.674540	2538.525951
376.060841	2541.359080
376.447079	2542.881508
376.833254	2542.498381
377.219367	2543.776313
377.605417	2546.687579
377.991404	2547.554658
378.377329	2550.440718
378.763191	2552.016079
379.148991	2562.423541
379.534727	2560.230639
379.920402	2566.559808
380.306013	2570.421332
380.691563	2577.330233
381.077049	2579.724781
381.462474	2582.383990
381.847835	2586.568147
382.233134	2593.048551
382.618371	2594.419745
383.003545	2605.570777
383.388657	2611.002620
383.773706	2617.684670
384.158693	2622.410751
384.543618	2630.378295
384.928480	2636.775519
385.313280	2645.532003
385.698017	2654.613642
386.082692	2660.781494
386.467305	2665.132010
386.851856	2674.221210
387.236344	2686.410720
387.620770	2690.189065
388.005133	2698.701053
388.389435	2712.181098
388.773674	2719.528580
389.157851	2726.845815
389.541965	2738.715212
389.926018	2741.349215
390.310008	2752.391862
390.693936	2762.441402
391.077802	2771.830551
391.461606	2781.827159
391.845348	2790.124899
392.229027	2797.144705
392.612645	2812.371511
392.996200	2820.986842
393.379694	2836.868998
393.763125	2852.337778
394.146494	2859.960003
394.529801	2871.945346
394.913047	2886.957902
395.296230	2890.706000
395.679351	2896.541136
396.062410	2914.036460
396.445408	2908.453382
396.828343	2920.370670
397.211217	2930.372319
397.594028	2921.893098
397.976778	2936.661159
398.359466	2950.060546
398.742092	2947.272788
399.124656	2962.769294
399.507158	2976.158599
399.889598	2982.956595
400.271977	2993.999243
400.654294	3003.078361
401.036549	3015.865247
401.418742	3019.787265
401.800874	3042.427087
402.182944	3051.102913
402.564952	3082.534507
402.946898	3069.921540
403.328783	3079.920669
403.710606	3095.696960
404.092367	3113.426698
404.474067	3141.090029
404.855705	3133.619039
405.237282	3133.974441
405.618797	3162.560304
406.000250	3183.927234
406.381642	3215.326061
406.762972	3219.661453
407.144240	3208.676779
407.525447	3231.172928
407.906593	3232.811303
408.287677	3249.913417
408.668700	3269.808331
409.049661	3268.422014
409.430560	3286.474386
409.811399	3287.792648
410.192176	3308.738642
410.572891	3313.736946
410.953545	3351.354036
411.334138	3320.310610
411.714669	3367.236191
412.095139	3311.917089
412.475547	3361.396014
412.855894	3349.277080
413.236180	3375.498642
413.616405	3356.213708
413.996568	3380.723798
414.376670	3377.263046
414.756711	3369.298023
415.136691	3391.037999
415.516609	3410.695978
415.896466	3411.552974
416.276262	3431.768001
416.655997	3457.112402
417.035670	3456.114254
417.415283	3514.087523
417.794834	3527.479348
418.174324	3503.675020
418.553753	3498.265862
418.933121	3529.851211
419.312428	3510.077285
419.691674	3501.275431
420.070859	3524.394162
420.449983	3499.281654
420.829045	3534.226933
421.208047	3506.553519
421.586988	3533.669885
421.965867	3549.047925
422.344686	3541.445865
422.723444	3564.337745
423.102141	3473.675113
423.480777	3539.086605
423.859352	3501.595544
424.237866	3562.684246
424.616319	3534.824309
424.994712	3565.091397
425.373044	3539.936039
425.751314	3569.769588
426.129524	3503.443127
426.507673	3558.815161
426.885762	3520.724202
427.263789	3516.272863
427.641756	3503.077643
428.019662	3505.169722
428.397508	3483.545693
428.775292	3483.863285
429.153016	3466.652786
429.530679	3453.548307
429.908282	3438.664300
430.285824	3404.598703
430.663305	3420.475817
431.040726	3376.587531
431.418086	3351.906042
431.795385	3368.388095
432.172624	3361.617825
432.549802	3320.222390
432.926920	3304.055410
433.303977	3282.297790
433.680974	3275.512397
434.057910	3262.332300
434.434786	3240.983013
434.811601	3214.280022
435.188355	3232.135788
435.565050	3197.739996
435.941683	3176.519259
436.318257	3176.524300
436.694770	3157.894716
437.071222	3150.708551
437.447614	3103.200717
437.823946	3084.104826
438.200218	3069.659400
438.576429	3044.814073
438.952580	3025.264479
439.328670	3009.528517
439.704700	2996.187103
440.080670	2971.561067
440.456580	2961.907257
440.832429	2949.886626
441.208218	2912.181316
441.583947	2902.477094
441.959616	2887.043602
442.335224	2875.592621
442.710773	2859.022348
443.086261	2851.022037
443.461689	2826.756443
443.837057	2815.413847
444.212365	2809.619041
444.587612	2797.157308
444.962800	2776.889349
445.337927	2768.712598
445.712995	2743.088413
446.088002	2751.308014
446.462949	2740.333422
446.837837	2729.936042
447.212664	2716.375338
447.587431	2722.182748
447.962139	2729.386557
448.336786	2740.940881
448.711374	2729.363871
449.085901	2698.759026
449.460369	2683.794361
449.834776	2672.355983
450.209124	2672.875222
450.583412	2669.679130
450.957640	2665.621002
451.331808	2653.408806
451.705917	2641.678041
452.079965	2639.409522
452.453954	2633.120683
452.827883	2629.186062
453.201752	2623.850001
453.575562	2618.070318
453.949311	2615.418671
454.323001	2614.123094
454.696632	2610.453134
455.070202	2610.536313
455.443713	2609.167640
455.817164	2605.321240
456.190556	2603.866867
456.563888	2601.280755
456.937160	2597.421752
457.310373	2596.106011
457.683526	2596.955445
458.056619	2596.973089
458.429653	2591.241297
458.802628	2593.850094
459.175542	2593.305650
459.548398	2591.992429
459.921194	2593.232553
460.293930	2593.262800
460.666607	2595.909406
461.039224	2595.705239
461.411782	2594.341607
461.784280	2594.623911
462.156719	2592.615012
462.529099	2593.015783
462.901419	2590.734661
463.273680	2589.582758
463.645882	2587.467993
464.018024	2588.531677
464.390106	2589.197109
464.762130	2587.349526
465.134094	2589.060998
465.505999	2595.359920
465.877845	2599.032400
466.249631	2603.156064
466.621358	2598.805548
466.993026	2599.143306
467.364634	2599.181114
467.736184	2594.288675
468.107674	2592.063005
468.479105	2592.672985
468.850477	2592.776328
469.221790	2591.821030
469.593043	2591.112748
469.964238	2589.192068
470.335373	2590.709455
470.706449	2590.835484
471.077467	2591.478231
471.448425	2593.005701
471.819324	2597.406628
472.190164	2599.173553
472.560945	2596.080805
472.931667	2592.249528
473.302330	2591.122830
473.672934	2590.641400
474.043479	2594.049220
474.413965	2588.637541
474.784393	2584.592015
475.154761	2587.800710
475.525070	2586.134608
475.895321	2588.798858
476.265513	2587.939341
476.635645	2590.149887
477.005719	2591.521081
477.375734	2593.517378
477.745691	2591.453026
478.115588	2594.959148
478.485427	2597.714139
478.855207	2598.800507
479.224928	2599.891917
479.594591	2602.220930
479.964194	2599.942329
480.333739	2603.511466
480.703226	2602.833430
481.072653	2601.114397
481.442022	2602.707402
481.811333	2602.238574
482.180584	2601.396702
482.549777	2600.363265
482.918912	2601.285796
483.287988	2602.997268
483.657005	2599.407966
484.025964	2600.239757
484.394864	2603.032556
484.763706	2599.075250
485.132489	2600.948039
485.501213	2601.026177
485.869879	2598.213213
486.238487	2596.158943
486.607036	2599.085332
486.975527	2600.270004
487.343959	2597.537698
487.712333	2599.440734
488.080648	2599.453337
488.448905	2600.302771
488.817104	2598.823192
489.185244	2598.697164
489.553326	2599.438213
489.921350	2604.416353
490.289315	2602.868718
490.657222	2605.666559
491.025070	2603.670262
491.392861	2604.368462
491.760593	2600.764037
492.128267	2600.350662
492.495883	2600.741352
492.863440	2599.995261
493.230939	2599.781012
493.598380	2596.194231
493.965763	2590.911102
494.333088	2595.130547
494.700354	2593.512337
495.067563	2592.730958
495.434713	2590.268354
495.801805	2597.774632
496.168839	2596.935280
496.535815	2595.062492
496.902733	2594.018973
497.269593	2596.375712
497.636395	2595.516196
498.003139	2594.346648
498.369825	2592.546956
498.736453	2593.605598
499.103023	2596.879828
499.469535	2592.864549
499.835989	2595.516196
500.202385	2593.030907
500.568723	2590.555700
500.935003	2591.261462
501.301226	2593.633325
501.667390	2595.221288
502.033497	2592.907398
502.399546	2592.703232
502.765537	2591.692480
503.131470	2594.263469
503.497345	2594.533171
503.863163	2595.223809
504.228923	2593.638366
504.594625	2594.817996
504.960269	2593.855135
505.325856	2596.753799
505.691385	2592.362954
506.056856	2592.352872
506.422270	2591.780701
506.787625	2594.863366
507.152924	2591.931935
507.518164	2593.124168
507.883347	2595.987543
508.248472	2594.795311
508.613540	2595.715321
508.978550	2594.364292
509.343503	2593.408993
509.708398	2596.655496
510.073236	2594.114755
510.438016	2596.232039
510.802738	2593.850094
511.167403	2593.653489
511.532010	2596.910075
511.896561	2596.998295
512.261053	2596.037955
512.625488	2590.399424
512.989866	2588.902202
513.354186	2593.542584
513.718449	2589.615525
514.082655	2593.789600
514.446803	2593.272882
514.810894	2593.260279
515.174927	2597.825044
515.538904	2595.339755
515.902822	2594.828078
516.266684	2593.598037
516.630488	2593.401432
516.994235	2596.763881
517.357925	2592.408324
517.721558	2595.405290
518.085133	2592.864549
518.448651	2595.629622
518.812112	2593.121647
519.175516	2594.936463
519.538863	2594.124837
519.902152	2593.756833
520.265385	2594.777667
520.628560	2595.324632
520.991678	2594.490321
521.354739	2594.011411
521.717743	2590.641400
522.080690	2594.487800
522.443580	2593.393870
522.806413	2594.313880
523.169189	2595.995105
523.531908	2593.940835
523.894569	2591.319435
524.257174	2595.944694
524.619722	2594.346648
524.982213	2596.935280
525.344647	2594.424786
525.707025	2598.450147
526.069345	2594.573500
526.431608	2592.589806
526.793815	2592.922522
527.155964	2596.466453
527.518057	2593.393870
527.880093	2593.648448
528.242072	2594.704570
528.603995	2597.273038
528.965860	2596.065681
529.327669	2591.349682
529.689421	2595.090218
530.051117	2594.739858
530.412755	2595.974941
530.774337	2596.741196
531.135862	2595.861515
531.497331	2592.299939
531.858743	2591.521081
532.220098	2594.374374
532.581396	2590.354054
532.942638	2588.143508
533.303824	2593.958479
533.664953	2593.986205
534.026025	2591.700042
534.387040	2592.070567
534.747999	2594.543253
535.108902	2592.073088
535.469748	2593.590475
535.830537	2593.083839
536.191270	2594.689446
536.551947	2594.286154
536.912567	2594.739858
537.273131	2594.291195
537.633638	2592.993098
537.994089	2592.413365
538.354483	2592.420927
538.714821	2595.027204
539.075103	2591.236256
539.435328	2595.574169
539.795497	2593.983685
540.155609	2595.932091
540.515665	2593.623242
540.875665	2592.161308
541.235609	2592.819178
541.595496	2594.260948
541.955328	2593.807244
542.315102	2592.617532
542.674821	2591.447984
543.034483	2593.613160
543.394090	2592.582244
543.753640	2593.983685
544.113134	2592.892275
544.472571	2594.424786
544.831953	2591.175762
545.191278	2591.032089
545.550548	2591.942017
545.909761	2592.960331
546.268918	2591.016966
546.628019	2593.368664
546.987064	2591.977306
547.346053	2590.923704
547.704986	2592.917481
548.063863	2592.017635
548.422684	2592.085690
548.781449	2594.462594
549.140158	2589.567634
549.498811	2595.097780
549.857408	2592.052923
550.215949	2590.558221
550.574434	2590.880855
550.932864	2588.796337
551.291237	2587.730133
551.649555	2591.289188
552.007817	2592.766246
552.366022	2593.005701
552.724173	2592.020155
553.082267	2593.986205
553.440305	2591.332038
553.798288	2592.907398
554.156215	2592.015114
554.514086	2589.933118
554.871902	2593.270362
555.229661	2595.894282
555.587365	2592.551997
555.945014	2593.003180
556.302606	2594.845722
556.660143	2593.383787
557.017625	2593.068715
557.375050	2594.255907
557.732421	2593.996288
558.089735	2594.840681
558.446994	2589.174424
558.804197	2594.807913
559.161345	2594.268510
559.518437	2591.631987
559.875474	2592.355392
560.232455	2593.610639
560.589381	2593.109045
560.946251	2594.747420
561.303065	2591.979826
561.659825	2592.307501
562.016528	2594.318922
562.373177	2589.623087
562.729770	2592.715835
563.086307	2594.427306
563.442789	2592.985536
563.799216	2592.302460
564.155587	2592.463777
564.511904	2591.949579
564.868164	2592.912440
565.224370	2593.804724
565.580520	2592.148705
565.936615	2591.568972
566.292654	2590.689291
566.648638	2591.470670
567.004567	2591.397573
567.360441	2594.608788
567.716260	2593.081318
568.072023	2590.787593
568.427732	2592.322625
568.783385	2589.572675
569.138982	2587.667119
569.494525	2589.348344
569.850013	2588.511512
570.205445	2590.570824
570.560823	2591.838674
570.916145	2592.345310
571.271412	2591.137953
571.626625	2590.901019
571.981782	2591.846236
572.336884	2593.348499
572.691931	2591.410176
573.046923	2593.240115
573.401860	2589.628128
573.756743	2592.904878
574.111570	2593.935794
574.466342	2593.706421
574.821059	2591.858838
575.175722	2592.178952
575.530330	2590.545618
575.884882	2592.806575
576.239380	2592.587285
576.593823	2592.514188
576.948211	2591.954620
577.302544	2593.582913
577.656823	2590.696852
578.011047	2592.110896
578.365216	2590.452357
578.719330	2590.938828
579.073389	2593.277923
579.427394	2590.018817
579.781344	2590.901019
580.135239	2591.649631
580.489080	2589.242480
580.842866	2591.357244
581.196597	2592.045361
581.550273	2590.182655
581.903895	2591.758015
582.257463	2590.023858
582.610975	2588.856831
582.964434	2588.735844
583.317837	2588.955134
583.671186	2591.148036
584.024481	2590.593509
584.377721	2588.342634
584.730906	2591.011925
585.084037	2590.621235
585.437113	2589.103848
585.790135	2590.255752
586.143103	2587.997315
586.496016	2590.744743
586.848874	2586.583271
587.201679	2587.478076
587.554428	2587.263827
587.907124	2591.334558
588.259765	2586.409351
588.612352	2591.105186
588.964884	2589.497058
589.317362	2590.076791
589.669786	2590.419589
590.022155	2592.201637
590.374470	2588.587130
590.726731	2590.701894
591.078937	2590.674167
591.431090	2587.455391
591.783188	2587.304156
592.135232	2589.265165
592.487222	2589.555031
592.839157	2589.305494
593.191038	2589.681060
593.542866	2590.134764
593.894639	2590.444795
594.246358	2585.882551
594.598022	2589.038313
594.949633	2589.696183
595.301190	2588.216605
595.652692	2589.663416
596.004141	2584.534042
596.355535	2587.558734
596.706876	2589.204671
597.058162	2587.228539
597.409395	2589.832295
597.760573	2587.818354
598.111698	2586.250555
598.462768	2590.492686
598.813785	2587.790627
599.164748	2588.816502
599.515657	2586.908425
599.866511	2588.483786
600.217312	2590.323807
600.568060	2588.324990
600.918753	2588.700556
601.269392	2587.669640
601.619978	2587.205853
601.970510	2586.058991
602.320988	2590.212902
602.671412	2587.657037
603.021783	2583.803075
603.372100	2589.786924
603.722363	2584.584453
604.072572	2588.977819
604.422728	2587.276430
604.772830	2583.049422
605.122878	2581.887436
605.472872	2585.955647
605.822813	2584.886923
606.172701	2584.231573
606.522534	2586.568147
606.872314	2589.650813
607.222041	2588.309866
607.571714	2586.855493
607.921333	2588.188878
608.270899	2583.545976
608.620411	2586.716862
608.969870	2585.338106
609.319276	2587.654516
609.668627	2585.204515
610.017926	2588.534197
610.367171	2587.163004
610.716362	2586.275761
611.065500	2589.134095
611.414585	2586.789958
611.763616	2587.283991
612.112594	2590.381780
612.461518	2586.946234
612.810389	2586.190061
613.159207	2590.648962
613.507971	2587.289032
613.856682	2587.140318
614.205340	2585.938003
614.553945	2590.291040
614.902496	2587.246183
615.250994	2590.311204
615.599439	2587.170565
615.947830	2588.768611
616.296169	2589.038313
616.644454	2589.673498
616.992686	2583.530852
617.340864	2588.849270
617.688990	2590.165011
618.037063	2586.860534
618.385082	2587.430185
618.733048	2588.909763
619.080961	2586.132088
619.428821	2589.313056
619.776628	2589.572675
620.124382	2589.746595
620.472083	2585.713672
620.819731	2588.637541
621.167326	2587.997315
621.514868	2585.907756
621.862357	2586.033785
622.209793	2588.130905
622.557176	2588.133426
622.904506	2584.103023
623.251783	2582.179823
623.599007	2585.723754
623.946179	2583.987077
624.293297	2581.290059
624.640363	2586.232911
624.987376	2585.287694
625.334336	2587.213415
625.681243	2585.569999
626.028097	2584.481110
626.374899	2587.024372
626.721647	2584.052612
627.068343	2584.072776
627.414987	2584.052612
627.761577	2588.017479
628.108115	2586.424475
628.454600	2585.267530
628.801032	2584.952458
629.147412	2585.222159
629.493739	2585.081007
629.840014	2586.104361
630.186236	2586.185020
630.532405	2588.108220
630.878521	2586.356419
631.224585	2584.735688
631.570597	2584.100503
631.916556	2588.231728
632.262462	2586.192582
632.608316	2584.629824
632.954117	2586.263158
633.299866	2584.738209
633.645562	2585.259968
633.991206	2586.608477
634.336797	2581.801737
634.682336	2587.412541
635.027823	2582.827611
635.373257	2584.072776
635.718639	2584.435739
636.063968	2584.690318
636.409245	2584.206367
636.754470	2584.975143
637.099642	2583.510688
637.444762	2586.159814
637.789829	2584.019844
638.134845	2583.135122
638.479808	2583.908939
638.824719	2582.484813
639.169577	2582.704103
639.514383	2580.808629
639.859137	2582.774679
640.203839	2583.737540
640.548489	2581.285018
640.893086	2580.811150
641.237632	2579.387024
641.582125	2580.125553
641.926566	2577.594894
642.270955	2582.628486
642.615292	2582.431881
642.959576	2583.119998
643.303809	2584.440781
643.647990	2584.037488
643.992118	2584.833991
644.336195	2585.537232
