Dividing Wavelength (nm)	Counts (n)	Blue Motor Position (mm): 0.000000	Red Motor Position (mm): 13.000000	
326.493990	2084.963258
326.888308	2084.963258
327.282561	2084.963258
327.676750	2060.869063
328.070874	2059.797818
328.464933	2065.673282
328.858929	2080.264902
329.252859	2090.415265
329.646726	2104.780033
330.040528	2120.581530
330.434265	2141.391413
330.827938	2159.710966
331.221547	2180.193174
331.615091	2199.941894
332.008571	2221.185317
332.401986	2243.810015
332.795338	2259.898858
333.188625	2282.407610
333.581847	2299.996195
333.975006	2318.656026
334.368100	2335.364931
334.761129	2353.404700
335.154095	2370.136289
335.546996	2386.847714
335.939833	2402.200548
336.332606	2415.209246
336.725315	2425.682243
337.117960	2432.734817
337.510540	2440.969542
337.903056	2452.720472
338.295508	2456.597119
338.687896	2462.974179
339.080220	2474.248719
339.472480	2474.987248
339.864676	2478.992445
340.256807	2481.540748
340.648875	2485.518219
341.040879	2486.844042
341.432818	2484.721716
341.824694	2489.137767
342.216506	2488.351347
342.608253	2487.020482
342.999937	2486.347488
343.391557	2488.537870
343.783113	2481.296252
344.174605	2483.688280
344.566033	2480.819863
344.957397	2481.013948
345.348697	2480.048567
345.739934	2473.190077
346.131106	2471.980200
346.522215	2472.239819
346.913260	2468.721094
347.304241	2470.296455
347.695159	2469.058851
348.086012	2468.128758
348.476802	2464.662965
348.867528	2463.826134
349.258191	2461.827316
349.648789	2462.651545
350.039324	2463.722790
350.429796	2465.104066
350.820203	2461.187090
351.210548	2462.507872
351.600828	2457.469239
351.991045	2459.221040
352.381198	2457.055864
352.771288	2457.791872
353.161314	2457.774228
353.551276	2460.330093
353.941175	2458.868159
354.331010	2459.349589
354.720782	2459.836060
355.110490	2459.271451
355.500135	2460.559466
355.889717	2457.668364
356.279235	2462.427213
356.668689	2461.834878
357.058080	2462.717080
357.447408	2456.609722
357.836672	2458.444702
358.225873	2461.625670
358.615010	2460.236832
359.004084	2466.429890
359.393095	2463.463171
359.782043	2465.356124
360.170927	2468.020374
360.559748	2464.156329
360.948505	2468.942905
361.337199	2466.913840
361.725830	2468.784108
362.114398	2471.256794
362.502903	2468.065744
362.891344	2471.881898
363.279722	2469.479788
363.668037	2471.597072
364.056289	2472.438945
364.444478	2474.677217
364.832603	2473.764768
365.220665	2476.532362
365.608665	2475.193936
365.996601	2476.688638
366.384474	2474.881384
366.772284	2477.190233
367.160031	2476.721405
367.547715	2478.498412
367.935336	2477.643936
368.322893	2479.690645
368.710388	2480.487147
369.097820	2485.830770
369.485189	2483.970584
369.872495	2483.002683
370.259738	2485.929073
370.646918	2484.331027
371.034035	2486.743219
371.421090	2488.769763
371.808081	2492.006184
372.195010	2494.138592
372.581875	2501.110507
372.968678	2504.611589
373.355418	2513.872188
373.742096	2520.460977
374.128710	2529.300640
374.515262	2539.571991
374.901751	2552.031202
375.288177	2570.575087
375.674540	2585.151583
376.060841	2602.699840
376.447079	2623.139198
376.833254	2644.332209
377.219367	2668.607885
377.605417	2699.084181
377.991404	2725.338510
378.377329	2759.971237
378.763191	2793.643624
379.148991	2836.876559
379.534727	2881.135370
379.920402	2923.791093
380.306013	2968.894296
380.691563	3030.040972
381.077049	3085.039960
381.462474	3134.158443
381.847835	3202.284596
382.233134	3269.014349
382.618371	3323.690704
383.003545	3404.825555
383.388657	3481.912359
383.773706	3569.930905
384.158693	3634.170328
384.543618	3723.492013
384.928480	3798.141419
385.313280	3898.876276
385.698017	3994.111233
386.082692	4105.223305
386.467305	4168.005835
386.851856	4284.020429
387.236344	4434.740847
387.620770	4492.840145
388.005133	4603.818627
388.389435	4747.264659
388.773674	4827.252647
389.157851	4946.687664
389.541965	5075.799176
389.926018	5101.874544
390.310008	5265.840594
390.693936	5385.320981
391.077802	5492.558926
391.461606	5618.403770
391.845348	5728.424432
392.229027	5844.779304
392.612645	6055.416356
392.996200	6169.119581
393.379694	6325.652449
393.763125	6540.861827
394.146494	6628.663604
394.529801	6759.113542
394.913047	6979.666543
395.296230	6973.682694
395.679351	7019.728593
396.062410	7259.662310
396.445408	7155.481825
396.828343	7288.870756
397.211217	7401.737149
397.594028	7285.294057
397.976778	7460.869884
398.359466	7600.376255
398.742092	7560.871253
399.124656	7674.017430
399.507158	7828.493507
399.889598	7822.343300
400.271977	7985.089390
400.654294	7977.731826
401.036549	8126.087942
401.418742	8105.290662
401.800874	8328.336514
402.182944	8354.424485
402.564952	8616.902243
402.946898	8407.538082
403.328783	8389.894044
403.710606	8492.486566
404.092367	8639.809246
404.474067	8865.670582
404.855705	8610.285728
405.237282	8488.914908
405.618797	8749.456862
406.000250	8852.309004
406.381642	9024.870220
406.762972	8882.273622
407.144240	8641.195563
407.525447	8717.755566
407.906593	8571.151251
408.287677	8651.928179
408.668700	8627.977657
409.049661	8490.346596
409.430560	8476.821180
409.811399	8328.288623
410.192176	8309.291035
410.572891	8225.824651
410.953545	8383.393476
411.334138	7931.680885
411.714669	8129.500803
412.095139	7618.327803
412.475547	7742.269612
412.855894	7535.801594
413.236180	7550.950262
413.616405	7256.012515
413.996568	7248.549087
414.376670	7090.652586
414.756711	6905.911942
415.136691	6879.897067
415.516609	6815.866852
415.896466	6706.325099
416.276262	6671.626838
416.655997	6698.428132
417.035670	6572.237969
417.415283	6648.011552
417.794834	6517.458271
418.174324	6289.295647
418.553753	6104.436536
418.933121	6110.334686
419.312428	5910.173152
419.691674	5742.093521
420.070859	5728.764710
420.449983	5498.401623
420.829045	5496.107898
421.208047	5307.929187
421.586988	5269.883599
421.965867	5191.670097
422.344686	5067.607301
422.723444	5044.652407
423.102141	4684.585473
423.480777	4770.148977
423.859352	4575.913319
424.237866	4632.036485
424.616319	4476.337928
424.994712	4451.802632
425.373044	4318.592663
425.751314	4290.165596
426.129524	4088.448866
426.507673	4104.706587
426.885762	3982.211590
427.263789	3903.360382
427.641756	3828.229546
428.019662	3749.625354
428.397508	3670.464115
428.775292	3618.313379
429.153016	3537.354969
429.530679	3471.298209
429.908282	3405.967376
430.285824	3331.383505
430.663305	3304.632622
431.040726	3230.187382
431.418086	3170.900893
431.795385	3148.941627
432.172624	3118.309055
432.549802	3059.163718
432.926920	3023.439581
433.303977	2985.303252
433.680974	2955.225208
434.057910	2929.296033
434.434786	2899.578431
434.811601	2870.841333
435.188355	2864.822196
435.565050	2838.298165
435.941683	2810.927220
436.318257	2804.799697
436.694770	2782.248096
437.071222	2774.310799
437.447614	2744.613362
437.823946	2734.336970
438.200218	2723.410269
438.576429	2709.877291
438.952580	2703.424614
439.328670	2696.482945
439.704700	2691.146884
440.080670	2681.692200
440.456580	2679.736232
440.832429	2674.553926
441.208218	2662.558501
441.583947	2659.984992
441.959616	2658.023983
442.335224	2654.490134
442.710773	2648.511325
443.086261	2653.164310
443.461689	2643.679379
443.837057	2641.297434
444.212365	2645.098464
444.587612	2640.316930
444.962800	2636.278966
445.337927	2635.578245
445.712995	2626.552059
446.088002	2636.014305
446.462949	2632.571197
446.837837	2633.687812
447.212664	2630.443830
447.587431	2648.755821
447.962139	2660.587409
448.336786	2674.690037
448.711374	2663.715445
449.085901	2644.385141
449.460369	2638.910448
449.834776	2636.019346
450.209124	2649.025523
450.583412	2646.361273
450.957640	2645.204328
451.331808	2638.756693
451.705917	2631.232771
452.079965	2629.274282
452.453954	2630.917698
452.827883	2629.526340
453.201752	2629.735548
453.575562	2631.459622
453.949311	2632.533388
454.323001	2631.484828
454.696632	2629.680095
455.070202	2641.168885
455.443713	2638.444141
455.817164	2639.964049
456.190556	2640.495891
456.563888	2638.771816
456.937160	2638.975983
457.310373	2635.585807
457.683526	2635.427011
458.056619	2637.304840
458.429653	2635.845426
458.802628	2636.785602
459.175542	2636.034470
459.548398	2645.784061
459.921194	2651.016779
460.293930	2653.814619
460.666607	2663.680157
461.039224	2671.012516
461.411782	2673.008812
461.784280	2670.825993
462.156719	2664.821979
462.529099	2662.782832
462.901419	2655.856287
463.273680	2653.461738
463.645882	2654.401914
464.018024	2654.323776
464.390106	2659.327121
464.762130	2671.594769
465.134094	2690.670495
465.505999	2716.516491
465.877845	2736.839902
466.249631	2746.110584
466.621358	2737.142372
466.993026	2727.725496
467.364634	2719.410113
467.736184	2710.353680
468.107674	2705.511652
468.479105	2701.448482
468.850477	2700.057123
469.221790	2693.904395
469.593043	2688.001204
469.964238	2685.021882
470.335373	2684.938703
470.706449	2694.322811
471.077467	2708.206149
471.448425	2730.992164
471.819324	2745.354411
472.190164	2736.736559
472.560945	2722.407079
472.931667	2705.231868
473.302330	2700.420087
473.672934	2695.109231
474.043479	2698.864891
474.413965	2697.009746
474.784393	2690.466328
475.154761	2697.980168
475.525070	2697.871783
475.895321	2696.825744
476.265513	2700.785570
476.635645	2708.934595
477.005719	2706.098946
477.375734	2708.180943
477.745691	2713.847200
478.115588	2720.526729
478.485427	2729.494941
478.855207	2746.697879
479.224928	2758.413520
479.594591	2762.141454
479.964194	2762.365785
480.333739	2758.995774
480.703226	2761.261772
481.072653	2759.794797
481.442022	2765.244284
481.811333	2762.970723
482.180584	2756.049219
482.549777	2751.897829
482.918912	2748.502612
483.287988	2746.861716
483.657005	2737.013822
484.025964	2732.685992
484.394864	2731.158522
484.763706	2726.727348
485.132489	2721.943293
485.501213	2721.053529
485.869879	2719.200905
486.238487	2714.368959
486.607036	2716.067828
486.975527	2711.397199
487.343959	2709.683207
487.712333	2707.906200
488.080648	2708.128011
488.448905	2706.431662
488.817104	2705.806559
489.185244	2710.250337
489.553326	2714.240410
489.921350	2728.559807
490.289315	2734.715056
490.657222	2738.574059
491.025070	2737.659090
491.392861	2735.403174
491.760593	2729.378995
492.128267	2720.345247
492.495883	2708.233875
492.863440	2708.029708
493.230939	2694.975640
493.598380	2690.824250
493.965763	2686.148580
494.333088	2682.667663
494.700354	2679.191788
495.067563	2680.865451
495.434713	2676.981242
495.801805	2678.899401
496.168839	2680.091634
496.535815	2676.459482
496.902733	2674.732887
497.269593	2677.059380
497.636395	2673.621313
498.003139	2673.775068
498.369825	2672.855057
498.736453	2669.976558
499.103023	2671.065448
499.469535	2670.009326
499.835989	2666.261228
500.202385	2665.840292
500.568723	2667.332473
500.935003	2668.615447
501.301226	2667.408091
501.667390	2668.733914
502.033497	2668.663338
502.399546	2664.615291
502.765537	2661.535146
503.131470	2661.305774
503.497345	2662.530774
503.863163	2658.729744
504.228923	2659.145639
504.594625	2663.637307
504.960269	2657.290495
505.325856	2659.634631
505.691385	2654.994249
506.056856	2655.780669
506.422270	2656.501554
506.787625	2655.367295
507.152924	2654.280926
507.518164	2654.689259
507.883347	2652.100627
508.248472	2652.370329
508.613540	2651.253713
508.978550	2651.258754
509.343503	2650.406799
509.708398	2650.926038
510.073236	2653.449136
510.438016	2653.002993
510.802738	2648.949906
511.167403	2648.513846
511.532010	2651.921666
511.896561	2648.468476
512.261053	2654.875782
512.625488	2647.359422
512.989866	2647.399751
513.354186	2645.743732
513.718449	2642.580408
514.082655	2648.463434
514.446803	2642.187198
514.810894	2646.424288
515.174927	2645.680717
515.538904	2645.085861
515.902822	2642.633340
516.266684	2640.208545
516.630488	2641.673000
516.994235	2642.335912
517.357925	2643.386992
517.721558	2643.313896
518.085133	2642.494708
518.448651	2640.657208
518.812112	2640.843730
519.175516	2637.975314
519.538863	2639.419604
519.902152	2640.523617
520.265385	2640.016981
520.628560	2637.471198
520.991678	2638.550005
521.354739	2638.245016
521.717743	2637.834162
522.080690	2636.760396
522.443580	2635.870632
522.806413	2635.164871
523.169189	2634.360807
523.531908	2633.806280
523.894569	2630.554735
524.257174	2632.170425
524.619722	2634.512041
524.982213	2633.322329
525.344647	2631.343676
525.707025	2627.653551
526.069345	2631.187400
526.431608	2631.021042
526.793815	2627.666154
527.155964	2626.630197
527.518057	2629.115486
527.880093	2624.931328
528.242072	2626.315125
528.603995	2626.599950
528.965860	2624.104579
529.327669	2623.892851
529.689421	2624.137347
530.051117	2624.374281
530.412755	2623.527367
530.774337	2625.107769
531.135862	2621.183230
531.497331	2619.053343
531.858743	2616.436984
532.220098	2615.453959
532.581396	2613.182919
532.942638	2613.848352
533.303824	2617.251130
533.664953	2617.707355
534.026025	2616.936058
534.387040	2618.425719
534.747999	2616.411778
535.108902	2616.908332
535.469748	2614.412961
535.830537	2614.107971
536.191270	2611.930192
536.551947	2612.451952
536.912567	2609.412136
537.273131	2613.079576
537.633638	2611.279884
537.994089	2609.777620
538.354483	2608.683689
538.714821	2608.653442
539.075103	2607.546909
539.435328	2608.698813
539.795497	2609.744852
540.155609	2606.561364
540.515665	2609.213011
540.875665	2611.249637
541.235609	2605.401898
541.595496	2610.357353
541.955328	2607.796446
542.315102	2607.012547
542.674821	2605.081785
543.034483	2604.691096
543.394090	2603.317381
543.753640	2605.585900
544.113134	2606.112701
544.472571	2602.707402
544.831953	2604.832248
545.191278	2602.455344
545.550548	2602.911568
545.909761	2603.652618
546.268918	2602.848554
546.628019	2605.389295
546.987064	2604.121445
547.346053	2601.235385
547.704986	2600.743872
548.063863	2600.053234
548.422684	2602.162957
548.781449	2600.078440
549.140158	2602.974583
549.498811	2601.618512
549.857408	2599.783532
550.215949	2597.320929
550.574434	2599.660024
550.932864	2598.613985
551.291237	2596.557194
551.649555	2596.053078
552.007817	2598.961824
552.366022	2597.414190
552.724173	2598.495518
553.082267	2600.557349
553.440305	2599.811259
553.798288	2600.842175
554.156215	2597.484766
554.514086	2599.589448
554.871902	2599.450816
555.229661	2597.353696
555.587365	2598.177925
555.945014	2596.426124
556.302606	2598.004005
556.660143	2596.587441
557.017625	2594.795311
557.375050	2594.540732
557.732421	2598.092225
558.089735	2597.477204
558.446994	2594.623911
558.804197	2594.016452
559.161345	2596.852101
559.518437	2593.681216
559.875474	2593.492172
560.232455	2595.690115
560.589381	2594.739858
560.946251	2595.964858
561.303065	2595.420414
561.659825	2596.998295
562.016528	2593.338417
562.373177	2593.325814
562.729770	2593.497213
563.086307	2594.802872
563.442789	2591.329517
563.799216	2595.826227
564.155587	2592.988057
564.511904	2594.210537
564.868164	2591.180803
565.224370	2595.765733
565.580520	2592.804055
565.936615	2590.694332
566.292654	2589.416399
566.648638	2591.624425
567.004567	2592.665423
567.360441	2591.546287
567.716260	2589.832295
568.072023	2589.865062
568.427732	2587.175607
568.783385	2587.697366
569.138982	2587.525967
569.494525	2584.881882
569.850013	2587.770463
570.205445	2589.159301
570.560823	2590.858169
570.916145	2589.169383
571.271412	2590.270875
571.626625	2587.513364
571.981782	2589.378591
572.336884	2588.453539
572.691931	2586.079156
573.046923	2586.847932
573.401860	2587.916656
573.756743	2589.481934
574.111570	2586.618559
574.466342	2587.755339
574.821059	2584.206367
575.175722	2588.236769
575.530330	2586.074114
575.884882	2587.082345
576.239380	2584.246696
576.593823	2583.336768
576.948211	2584.276943
577.302544	2585.759042
577.656823	2581.693352
578.011047	2583.419947
578.365216	2581.169072
578.719330	2582.993969
579.073389	2584.365163
579.427394	2580.407857
579.781344	2582.424319
580.135239	2582.797364
580.489080	2580.911973
580.842866	2579.921386
581.196597	2581.889957
581.550273	2579.911304
581.903895	2583.235945
582.257463	2579.981880
582.610975	2580.720409
582.964434	2579.079513
583.317837	2580.584298
583.671186	2578.401478
584.024481	2579.984401
584.377721	2578.933320
584.730906	2578.567836
585.084037	2579.200501
585.437113	2577.491550
585.790135	2578.101530
586.143103	2576.253947
586.496016	2577.410892
586.848874	2571.953842
587.201679	2576.538772
587.554428	2573.856878
587.907124	2575.480130
588.259765	2569.219017
588.612352	2575.296127
588.964884	2574.154306
589.317362	2576.148082
589.669786	2575.522979
590.022155	2577.811663
590.374470	2575.578432
590.726731	2573.551888
591.078937	2575.023905
591.431090	2576.145562
591.783188	2570.885118
592.135232	2573.773699
592.487222	2572.662125
592.839157	2572.972156
593.191038	2570.872515
593.542866	2571.414439
593.894639	2570.345714
594.246358	2571.986610
594.598022	2570.769171
594.949633	2568.218347
595.301190	2569.309757
595.652692	2569.216496
596.004141	2569.778585
596.355535	2567.547874
596.706876	2568.180539
597.058162	2569.292113
597.409395	2566.476629
597.760573	2569.221537
598.111698	2567.817576
598.462768	2568.185580
598.813785	2567.857905
599.164748	2567.189952
599.515657	2567.953687
599.866511	2568.745148
600.217312	2566.285065
600.568060	2565.160888
600.918753	2571.535427
601.269392	2564.946639
601.619978	2566.249777
601.970510	2567.721794
602.320988	2568.785477
602.671412	2569.566856
603.021783	2564.959242
603.372100	2564.056875
603.722363	2566.317832
604.072572	2564.114848
604.422728	2565.561659
604.772830	2561.664847
605.122878	2559.154353
605.472872	2560.747358
605.822813	2559.013201
606.172701	2562.478994
606.522534	2565.833882
606.872314	2565.082750
607.222041	2563.850188
607.571714	2563.073850
607.921333	2565.980075
608.270899	2563.971175
608.620411	2565.712894
608.969870	2565.380178
609.319276	2563.048644
609.668627	2562.804148
610.017926	2563.192317
610.367171	2564.092163
610.716362	2562.998233
611.065500	2564.757595
611.414585	2563.651062
611.763616	2566.287586
612.112594	2562.990671
612.461518	2565.291958
612.810389	2564.495455
613.159207	2564.626525
613.507971	2563.391443
613.856682	2565.849005
614.205340	2567.086608
614.553945	2568.674572
614.902496	2564.369427
615.250994	2566.645507
615.599439	2565.816238
615.947830	2564.182904
616.296169	2563.706515
616.644454	2568.452761
616.992686	2563.890517
617.340864	2566.395970
617.688990	2563.915723
618.037063	2566.532082
618.385082	2565.118038
618.733048	2564.447564
619.080961	2563.383881
619.428821	2566.242215
619.776628	2563.792214
620.124382	2567.179870
620.472083	2565.107956
620.819731	2561.806000
621.167326	2564.319015
621.514868	2564.951680
621.862357	2565.796073
622.209793	2561.722821
622.557176	2562.133675
622.904506	2560.833057
623.251783	2556.656461
623.599007	2557.553787
623.946179	2556.858107
624.293297	2558.441030
624.640363	2561.894220
624.987376	2557.460525
625.334336	2561.117882
625.681243	2556.676626
626.028097	2557.183262
626.374899	2557.959599
626.721647	2559.169476
627.068343	2562.221895
627.414987	2557.790721
627.761577	2557.241235
628.108115	2559.227450
628.454600	2557.311811
628.801032	2558.196534
629.147412	2557.049671
629.493739	2558.912378
629.840014	2556.147305
630.186236	2553.551110
630.532405	2555.549928
630.878521	2557.301729
631.224585	2556.270813
631.570597	2555.973385
631.916556	2554.145967
632.262462	2553.288970
632.608316	2555.978426
632.954117	2552.608415
633.299866	2552.986501
633.645562	2553.621687
633.991206	2555.202088
634.336797	2552.792417
634.682336	2553.704866
635.027823	2551.804351
635.373257	2550.967519
635.718639	2554.337530
636.063968	2550.647406
636.409245	2552.742005
636.754470	2550.102961
637.099642	2551.491799
637.444762	2551.643034
637.789829	2549.619010
638.134845	2549.780327
638.479808	2549.341747
638.824719	2547.574822
639.169577	2549.729916
639.514383	2548.086500
639.859137	2550.029864
640.203839	2549.931562
640.548489	2547.784030
640.893086	2542.001827
641.237632	2544.983669
641.582125	2545.008875
641.926566	2543.224307
642.270955	2547.035419
642.615292	2547.844524
642.959576	2549.674463
643.303809	2546.722867
643.647990	2548.280584
643.992118	2544.199770
644.336195	2547.068187
