Dividing Wavelength (nm)	Counts (n)	Blue Motor Position (mm): 0.000000	Red Motor Position (mm): 48.500000	
326.493990	2136.572070
326.888308	2136.572070
327.282561	2136.572070
327.676750	2110.370673
328.070874	2111.923348
328.464933	2119.124637
328.858929	2127.417335
329.252859	2138.785137
329.646726	2154.473207
330.040528	2167.176915
330.434265	2187.480162
330.827938	2202.591021
331.221547	2221.258413
331.615091	2244.210787
332.008571	2265.053438
332.401986	2285.603701
332.795338	2304.840744
333.188625	2322.633497
333.581847	2346.362208
333.975006	2361.024404
334.368100	2382.061139
334.761129	2400.776423
335.154095	2417.233269
335.546996	2439.356373
335.939833	2472.910293
336.332606	2483.295070
336.725315	2496.200424
337.117960	2505.440859
337.510540	2514.530059
337.903056	2520.246727
338.295508	2529.363654
338.687896	2536.113759
339.080220	2541.616179
339.472480	2547.864689
339.864676	2552.497509
340.256807	2555.338199
340.648875	2555.847356
341.040879	2560.442368
341.432818	2564.560990
341.824694	2563.517472
342.216506	2563.555280
342.608253	2562.247101
342.999937	2562.179045
343.391557	2561.127965
343.783113	2560.230639
344.174605	2558.831719
344.566033	2554.831563
344.957397	2554.914743
345.348697	2554.881975
345.739934	2550.339895
346.131106	2551.806871
346.522215	2546.407795
346.913260	2544.746735
347.304241	2546.934596
347.695159	2542.097609
348.086012	2540.413863
348.476802	2541.462423
348.867528	2540.101312
349.258191	2535.879346
349.648789	2537.207690
350.039324	2535.239119
350.429796	2536.726259
350.820203	2532.138809
351.210548	2531.783408
351.600828	2531.125538
351.991045	2529.497245
352.381198	2530.422297
352.771288	2526.827954
353.161314	2531.813655
353.551276	2530.540764
353.941175	2529.305681
354.331010	2531.102852
354.720782	2527.959693
355.110490	2531.914478
355.500135	2532.980682
355.889717	2531.725435
356.279235	2531.743079
356.668689	2535.123172
357.058080	2532.900024
357.447408	2530.200486
357.836672	2529.557739
358.225873	2530.881042
358.615010	2530.082019
359.004084	2533.583100
359.393095	2535.057638
359.782043	2535.581917
360.170927	2537.404295
360.559748	2535.402957
360.948505	2536.597710
361.337199	2536.620395
361.725830	2540.466796
362.114398	2540.436549
362.502903	2539.579552
362.891344	2539.188863
363.279722	2539.622402
363.668037	2543.032743
364.056289	2540.638195
364.444478	2545.238248
364.832603	2541.190201
365.220665	2542.470654
365.608665	2541.502753
365.996601	2544.945861
366.384474	2542.979811
366.772284	2546.294369
367.160031	2542.316899
367.547715	2544.792106
367.935336	2544.489636
368.322893	2544.981149
368.710388	2545.505429
369.097820	2548.124308
369.485189	2544.131714
369.872495	2547.277394
370.259738	2548.966181
370.646918	2546.722868
371.034035	2546.639688
371.421090	2549.606408
371.808081	2548.915769
372.195010	2550.309648
372.581875	2550.372663
372.968678	2550.632282
373.355418	2552.318548
373.742096	2552.489947
374.128710	2555.189485
374.515262	2554.166131
374.901751	2555.960782
375.288177	2557.102603
375.674540	2558.125957
376.060841	2560.283571
376.447079	2561.047306
376.833254	2565.667524
377.219367	2560.369271
377.605417	2567.116855
377.991404	2566.126269
378.377329	2568.172977
378.763191	2571.361507
379.148991	2579.427353
379.534727	2581.753846
379.920402	2584.962540
380.306013	2588.128385
380.691563	2596.799169
381.077049	2598.210692
381.462474	2601.777309
381.847835	2606.969697
382.233134	2613.934051
382.618371	2618.239197
383.003545	2622.249434
383.388657	2630.189252
383.773706	2633.697895
384.158693	2642.741725
384.543618	2648.806233
384.928480	2655.475679
385.313280	2661.709066
385.698017	2671.781292
386.082692	2677.316478
386.467305	2685.694876
386.851856	2696.024200
387.236344	2704.700026
387.620770	2708.947198
388.005133	2716.657643
388.389435	2731.846640
388.773674	2735.980386
389.157851	2745.782909
389.541965	2756.966709
389.926018	2761.037441
390.310008	2771.709564
390.693936	2779.722478
391.077802	2790.442491
391.461606	2799.267031
391.845348	2806.901859
392.229027	2815.159269
392.612645	2833.022597
392.996200	2840.438135
393.379694	2854.291225
393.763125	2869.981817
394.146494	2877.719988
394.529801	2890.756412
394.913047	2907.127559
395.296230	2909.007909
395.679351	2915.263981
396.062410	2933.016404
396.445408	2928.673450
396.828343	2941.412446
397.211217	2947.373611
397.594028	2939.937909
397.976778	2956.450208
398.359466	2971.677013
398.742092	2964.853812
399.124656	2983.944661
399.507158	2996.381188
399.889598	3000.986282
400.271977	3014.350381
400.654294	3021.828932
401.036549	3032.843853
401.418742	3040.826521
401.800874	3063.224367
402.182944	3071.396077
402.564952	3096.637135
402.946898	3086.529621
403.328783	3097.569748
403.710606	3114.422326
404.092367	3136.895789
404.474067	3165.590037
404.855705	3150.711072
405.237282	3153.458500
405.618797	3183.770958
406.000250	3207.421532
406.381642	3237.555029
406.762972	3241.784557
407.144240	3233.121334
407.525447	3252.592791
407.906593	3255.025147
408.287677	3273.793363
408.668700	3294.351189
409.049661	3291.964202
409.430560	3308.587407
409.811399	3313.116884
410.192176	3335.078671
410.572891	3341.934640
410.953545	3378.883777
411.334138	3347.497553
411.714669	3398.443454
412.095139	3342.199300
412.475547	3394.617218
412.855894	3387.751167
413.236180	3416.720157
413.616405	3396.101838
413.996568	3422.814912
414.376670	3424.780962
414.756711	3420.110333
415.136691	3446.102522
415.516609	3464.956438
415.896466	3474.000268
416.276262	3498.719566
416.655997	3530.844318
417.035670	3540.374620
417.415283	3605.672686
417.794834	3630.064308
418.174324	3611.747276
418.553753	3609.579580
418.933121	3656.343843
419.312428	3644.068634
419.691674	3641.626195
420.070859	3675.270856
420.449983	3657.382321
420.829045	3708.237481
421.208047	3692.861962
421.586988	3736.525916
421.965867	3768.048251
422.344686	3775.448665
422.723444	3816.647495
423.102141	3718.957495
423.480777	3819.165551
423.859352	3786.781179
424.237866	3886.401940
424.616319	3868.886451
424.994712	3932.518416
425.373044	3917.851179
425.751314	3983.524810
426.129524	3916.941250
426.507673	4020.607538
426.885762	3993.067715
427.263789	4017.295500
427.641756	4020.670552
428.019662	4051.756828
428.397508	4056.089699
428.775292	4094.510853
429.153016	4100.527471
429.530679	4111.002988
429.908282	4114.405767
430.285824	4096.413889
430.663305	4170.392822
431.040726	4130.522336
431.418086	4118.794092
431.795385	4194.461811
432.172624	4228.265268
432.549802	4192.044578
432.926920	4215.211200
433.303977	4209.275241
433.680974	4247.608175
434.057910	4266.114251
434.434786	4276.899800
434.811601	4271.508286
435.188355	4374.390674
435.565050	4349.205069
435.941683	4342.407073
436.318257	4431.527112
436.694770	4439.721507
437.071222	4498.829036
437.447614	4429.775311
437.823946	4431.985857
438.200218	4449.687868
438.576429	4432.762194
438.952580	4459.026606
439.328670	4464.148418
439.704700	4507.000746
440.080670	4470.517916
440.456580	4530.464797
440.832429	4569.450560
441.208218	4467.445333
441.583947	4522.046070
441.959616	4536.196589
442.335224	4562.755908
442.710773	4580.626798
443.086261	4638.088390
443.461689	4591.344291
443.837057	4600.950210
444.212365	4676.602806
444.587612	4676.491900
444.962800	4648.163136
445.337927	4684.235113
445.712995	4576.624122
446.088002	4767.855252
446.462949	4787.795536
446.837837	4808.229853
447.212664	4795.508502
447.587431	5017.457903
447.962139	5314.855732
448.336786	5653.056662
448.711374	5648.421321
449.085901	5290.600221
449.460369	5225.657556
449.834776	5162.564995
450.209124	5393.800202
450.583412	5405.188168
450.957640	5527.027816
451.331808	5388.751486
451.705917	5239.039299
452.079965	5229.992949
452.453954	5272.346203
452.827883	5233.163834
453.201752	5241.380915
453.575562	5265.454945
453.949311	5404.169855
454.323001	5407.640690
454.696632	5401.087190
455.070202	5554.862547
455.443713	5589.119707
455.817164	5682.476836
456.190556	5751.865798
456.563888	5724.893104
456.937160	5799.875226
457.310373	5640.594929
457.683526	5703.228745
458.056619	5694.920924
458.429653	5673.548952
458.802628	5722.178443
459.175542	5752.977372
459.548398	5892.471140
459.921194	6072.677267
460.293930	6139.238142
460.666607	6384.943980
461.039224	6599.245951
461.411782	6729.350570
461.784280	6646.337889
462.156719	6652.956924
462.529099	6613.255317
462.901419	6471.979501
463.273680	6341.592577
463.645882	6321.987530
464.018024	6330.839796
464.390106	6396.604169
464.762130	6651.913405
465.134094	7035.409102
465.505999	7659.466139
465.877845	8370.278914
466.249631	8725.458449
466.621358	8659.436978
466.993026	8465.942370
467.364634	8255.315401
467.736184	7970.835527
468.107674	7816.699728
468.479105	7731.272335
468.850477	7663.403281
469.221790	7494.320460
469.593043	7270.185719
469.964238	7169.962539
470.335373	7144.179558
470.706449	7299.099257
471.077467	7478.874365
471.448425	8126.231615
471.819324	8718.292449
472.190164	8762.097556
472.560945	8286.086604
472.931667	7813.624624
473.302330	7621.476004
473.672934	7499.570822
474.043479	7574.275681
474.413965	7476.401679
474.784393	7425.148267
475.154761	7579.503357
475.525070	7590.510717
475.895321	7538.722943
476.265513	7644.307390
476.635645	7804.956360
477.005719	7790.788197
477.375734	7876.628965
477.745691	7991.017787
478.115588	8194.241822
478.485427	8429.522554
478.855207	8888.438953
479.224928	9333.489659
479.594591	9708.571670
479.964194	9716.413184
480.333739	9801.260845
480.703226	9809.288882
481.072653	9913.119007
481.442022	10015.537610
481.811333	10174.898565
482.180584	10020.659422
482.549777	9956.041912
482.918912	9891.968847
483.287988	9882.219255
483.657005	9784.418350
484.025964	9704.274086
484.394864	9772.009550
484.763706	9730.662006
485.132489	9630.547211
485.501213	9629.183579
485.869879	9688.853196
486.238487	9624.848187
486.607036	9696.654382
486.975527	9646.015992
487.343959	9707.197955
487.712333	9754.272250
488.080648	9791.428074
488.448905	9894.431450
488.817104	9903.235825
489.185244	10064.411596
489.553326	10273.712742
489.921350	10735.076622
490.289315	11365.288908
490.657222	11656.599545
491.025070	11837.118223
491.392861	11750.879204
491.760593	11597.786923
492.128267	11342.835609
492.495883	11111.423962
492.863440	10878.182376
493.230939	10652.129476
493.598380	10475.371499
493.965763	10448.348394
494.333088	10314.450306
494.700354	10243.538916
495.067563	10218.935564
495.434713	10219.439680
495.801805	10267.794427
496.168839	10229.146422
496.535815	10193.243324
496.902733	10239.327032
497.269593	10196.852790
497.636395	10202.922339
498.003139	10310.006529
498.369825	10237.028266
498.736453	10333.263892
499.103023	10271.915571
499.469535	10282.635584
499.835989	10329.185599
500.202385	10304.443616
500.568723	10318.510956
500.935003	10375.521365
501.301226	10351.739721
501.667390	10518.559064
502.033497	10615.646646
502.399546	10545.733404
502.765537	10449.480133
503.131470	10554.472244
503.497345	10645.883487
503.863163	10421.857130
504.228923	10554.459641
504.594625	10675.008753
504.960269	10577.928733
505.325856	10729.057484
505.691385	10613.080698
506.056856	10676.284165
506.422270	10781.866091
506.787625	10714.143230
507.152924	10770.334452
507.518164	10835.531694
507.883347	10695.064983
508.248472	10763.652402
508.613540	10877.713549
508.978550	10952.362955
509.343503	10941.355596
509.708398	10979.007974
510.073236	11114.090732
510.438016	11125.135900
510.802738	11037.576099
511.167403	11169.462766
511.532010	11223.430839
511.896561	11323.734677
512.261053	11517.859429
512.625488	11441.092738
512.989866	11425.813001
513.354186	11405.154353
513.718449	11414.384705
514.082655	11551.156250
514.446803	11506.360557
514.810894	11615.244439
515.174927	11617.840633
515.538904	11601.431678
515.902822	11757.712488
516.266684	11627.358332
516.630488	11732.728529
516.994235	11715.573483
517.357925	11833.536483
517.721558	11900.251113
518.085133	11966.466669
518.448651	11988.307468
518.812112	11951.355810
519.175516	11949.853546
519.538863	12046.615974
519.902152	12048.173690
520.265385	12156.755103
520.628560	12187.821213
520.991678	12125.099177
521.354739	12181.892817
521.717743	12256.653128
522.080690	12223.467212
522.443580	12356.372192
522.806413	12363.187832
523.169189	12360.455527
523.531908	12426.298037
523.894569	12378.749874
524.257174	12399.463975
524.619722	12504.672856
524.982213	12488.279024
525.344647	12466.460910
525.707025	12480.293836
526.069345	12577.451994
526.431608	12561.403481
526.793815	12648.287768
527.155964	12539.393803
527.518057	12570.507805
527.880093	12524.734128
528.242072	12641.477169
528.603995	12567.730129
528.965860	12590.788367
529.327669	12620.183335
529.689421	12559.576063
530.051117	12577.184813
530.412755	12614.398611
530.774337	12626.935960
531.135862	12571.533680
531.497331	12640.915080
531.858743	12596.230292
532.220098	12684.198427
532.581396	12601.730191
532.942638	12528.436855
533.303824	12591.663007
533.664953	12589.424735
534.026025	12538.619986
534.387040	12644.527067
534.747999	12623.505455
535.108902	12665.589008
535.469748	12539.033361
535.830537	12568.796333
536.191270	12600.868154
536.551947	12533.084799
536.912567	12597.359511
537.273131	12628.186167
537.633638	12503.112619
537.994089	12564.226527
538.354483	12482.070843
538.714821	12600.525355
539.075103	12693.731249
539.435328	12621.017646
539.795497	12600.984100
540.155609	12591.597472
540.515665	12705.320862
540.875665	12566.124522
541.235609	12661.064572
541.595496	12624.208696
541.955328	12796.787557
542.315102	12633.930561
542.674821	12573.472003
543.034483	12586.216040
543.394090	12591.080754
543.753640	12571.707599
544.113134	12817.282368
544.472571	12570.152403
544.831953	12848.892923
545.191278	12667.204697
545.550548	12606.310079
545.909761	12720.497255
546.268918	12760.211465
546.628019	12815.563334
546.987064	12714.120196
547.346053	12569.000500
547.704986	12761.575097
548.063863	12639.619503
548.422684	12693.378368
548.781449	12646.767860
549.140158	12748.508427
549.498811	12692.395343
549.857408	12572.148700
550.215949	12770.122374
550.574434	12737.506108
550.932864	12678.509485
551.291237	12867.933361
551.649555	12771.052467
552.007817	12826.807628
552.366022	12749.579672
552.724173	12788.905713
553.082267	12884.067574
553.440305	12967.937251
553.798288	12789.777833
554.156215	12867.285573
554.514086	12912.476997
554.871902	12853.631608
555.229661	12879.306204
555.587365	12829.759224
555.945014	12838.883712
556.302606	12821.350579
556.660143	12890.578224
557.017625	12916.686360
557.375050	12874.204557
557.732421	12983.300167
558.089735	12980.525012
558.446994	12948.891771
558.804197	13070.222262
559.161345	13058.088205
559.518437	12877.211605
559.875474	12968.758959
560.232455	12998.965552
560.589381	13045.283674
560.946251	12987.411228
561.303065	13158.631498
561.659825	13109.656688
562.016528	13017.630425
562.373177	12962.341570
562.729770	13087.891506
563.086307	12968.784164
563.442789	13085.542329
563.799216	13121.057257
564.155587	13057.957135
564.511904	13078.898088
564.868164	13089.519799
565.224370	13146.358809
565.580520	13099.040018
565.936615	13165.918486
566.292654	13099.778547
566.648638	13172.824866
567.004567	13167.932427
567.360441	13169.626254
567.716260	13139.011327
568.072023	13220.647772
568.427732	13202.625647
568.783385	13104.771810
569.138982	13218.129716
569.494525	13213.466649
569.850013	13159.370027
570.205445	13159.309533
570.560823	13174.629599
570.916145	13123.144295
571.271412	13144.244045
571.626625	13087.571393
571.981782	13088.009973
572.336884	13028.161395
572.691931	13123.298050
573.046923	13013.249662
573.401860	12998.542096
573.756743	12990.861898
574.111570	13017.590095
574.466342	12986.937359
574.821059	13046.347358
575.175722	12919.033017
575.530330	12945.050412
575.884882	12873.362684
576.239380	12870.383362
576.593823	12859.907844
576.948211	12856.230322
577.302544	12730.221641
577.656823	12746.186975
578.011047	12807.338692
578.365216	12738.526942
578.719330	12686.224971
579.073389	12659.600117
579.427394	12674.325327
579.781344	12646.745174
580.135239	12575.778331
580.489080	12597.969490
580.842866	12478.216881
581.196597	12572.599884
581.550273	12561.557236
581.903895	12528.542720
582.257463	12641.449442
582.610975	12487.127120
582.964434	12558.499776
583.317837	12477.001963
583.671186	12426.920620
584.024481	12488.432779
584.377721	12379.911860
584.730906	12440.083072
585.084037	12462.218779
585.437113	12372.834080
585.790135	12402.632341
586.143103	12316.978096
586.496016	12331.234479
586.848874	12341.730161
587.201679	12338.861744
587.554428	12212.495141
587.907124	12255.516348
588.259765	12201.328985
588.612352	12266.309458
588.964884	12129.185032
589.317362	12186.596213
589.669786	12178.439626
590.022155	12132.839869
590.374470	12233.395765
590.726731	12109.237187
591.078937	12003.849345
591.431090	12028.515711
591.783188	11961.982562
592.135232	11880.071374
592.487222	11944.036055
592.839157	11955.076182
593.191038	11890.695606
593.542866	11839.422030
593.894639	11698.103364
594.246358	11761.803384
594.598022	11765.070052
594.949633	11669.857779
595.301190	11654.411684
595.652692	11616.446754
596.004141	11702.418592
596.355535	11482.765437
596.706876	11467.914197
597.058162	11432.306007
597.409395	11522.093998
597.760573	11550.115252
598.111698	11444.727410
598.462768	11449.254366
598.813785	11453.907351
599.164748	11316.727473
599.515657	11392.838814
599.866511	11271.447829
600.217312	11404.249465
600.568060	11173.450319
600.918753	11335.117602
601.269392	11333.017962
601.619978	11236.298384
601.970510	11274.681729
602.320988	11319.477422
602.671412	11388.475695
603.021783	11310.378140
603.372100	11246.279868
603.722363	11262.406520
604.072572	11262.250244
604.422728	11270.684094
604.772830	11220.421270
605.122878	11227.080634
605.472872	11197.673063
605.822813	11251.442010
606.172701	11210.275948
606.522534	11253.188770
606.872314	11301.490585
607.222041	11237.407438
607.571714	11313.770836
607.921333	11170.987715
608.270899	11228.754297
608.620411	11290.672269
608.969870	11236.288302
609.319276	11221.043852
609.668627	11241.286606
610.017926	11324.760552
610.367171	11354.009326
610.716362	11345.162101
611.065500	11319.270735
611.414585	11335.624238
611.763616	11393.839483
612.112594	11350.717453
612.461518	11384.601568
612.810389	11426.690162
613.159207	11381.513862
613.507971	11369.841070
613.856682	11469.287912
614.205340	11421.533061
614.553945	11566.483878
614.902496	11431.965729
615.250994	11504.575989
615.599439	11492.356232
615.947830	11525.143896
616.296169	11495.801860
616.644454	11509.420538
616.992686	11520.803463
617.340864	11618.183432
617.688990	11507.376350
618.037063	11631.968467
618.385082	11614.064809
618.733048	11650.771971
619.080961	11641.894499
619.428821	11624.920934
619.776628	11627.229782
620.124382	11575.908316
620.472083	11599.899167
620.819731	11617.888524
621.167326	11541.686443
621.514868	11524.339832
621.862357	11424.935840
622.209793	11414.793039
622.557176	11327.918834
622.904506	11276.627615
623.251783	11191.041425
623.599007	11140.282047
623.946179	11090.591394
624.293297	11062.887733
624.640363	10923.131825
624.987376	10913.107490
625.334336	10845.339259
625.681243	10763.360015
626.028097	10734.401107
626.374899	10693.643378
626.721647	10674.325677
627.068343	10630.233224
627.414987	10569.741899
627.761577	10501.154480
628.108115	10548.793384
628.454600	10420.624568
628.801032	10440.726169
629.147412	10421.529455
629.493739	10400.134798
629.840014	10318.770575
630.186236	10364.468635
630.532405	10265.944324
630.878521	10292.599425
631.224585	10244.915151
631.570597	10177.033494
631.916556	10178.868474
632.262462	10169.834726
632.608316	10142.725921
632.954117	10118.546027
633.299866	10105.055899
633.645562	10084.462786
633.991206	9985.499894
634.336797	9881.596672
634.682336	9872.734324
635.027823	9822.542076
635.373257	9777.174212
635.718639	9709.761382
636.063968	9675.269807
636.409245	9574.048479
636.754470	9554.554337
637.099642	9510.159416
637.444762	9403.899455
637.789829	9411.733408
638.134845	9341.424435
638.479808	9314.693717
