Dividing Wavelength (nm)	Counts (n)	Blue Motor Position (mm): 0.000000	Red Motor Position (mm): 10.000000	
326.493990	2147.115643
326.888308	2147.115643
327.282561	2147.115643
327.676750	2120.795779
328.070874	2121.045316
328.464933	2127.467746
328.858929	2136.239354
329.252859	2146.455252
329.646726	2162.528971
330.040528	2175.353667
330.434265	2193.968127
330.827938	2215.387990
331.221547	2233.742831
331.615091	2254.676222
332.008571	2273.250354
332.401986	2295.181893
332.795338	2313.549338
333.188625	2333.603048
333.581847	2354.395287
333.975006	2371.893132
334.368100	2391.346944
334.761129	2409.001065
335.154095	2425.052099
335.546996	2439.656322
335.939833	2456.425720
336.332606	2470.488018
336.725315	2477.769965
337.117960	2488.598364
337.510540	2495.282934
337.903056	2506.101250
338.295508	2512.899246
338.687896	2516.085255
339.080220	2526.964065
339.472480	2532.295085
339.864676	2536.796836
340.256807	2539.791281
340.648875	2539.839172
341.040879	2545.044163
341.432818	2542.463092
341.824694	2544.764379
342.216506	2546.443083
342.608253	2543.980480
342.999937	2544.792106
343.391557	2546.054915
343.783113	2542.218597
344.174605	2541.170037
344.566033	2537.684079
344.957397	2539.345139
345.348697	2537.749614
345.739934	2533.820034
346.131106	2534.780374
346.522215	2532.050589
346.913260	2526.744775
347.304241	2526.543129
347.695159	2525.600433
348.086012	2524.002387
348.476802	2523.745288
348.867528	2521.295288
349.258191	2517.262364
349.648789	2518.706655
350.039324	2519.971985
350.429796	2521.227232
350.820203	2514.711541
351.210548	2516.090296
351.600828	2516.733043
351.991045	2515.147600
352.381198	2512.513597
352.771288	2514.600635
353.161314	2513.007631
353.551276	2515.298835
353.941175	2512.110305
354.331010	2514.948475
354.720782	2512.987466
355.110490	2512.478309
355.500135	2514.661129
355.889717	2512.919410
356.279235	2512.261540
356.668689	2514.522497
357.058080	2517.320338
357.447408	2515.591222
357.836672	2513.504184
358.225873	2513.047960
358.615010	2515.286232
359.004084	2517.630369
359.393095	2519.636748
359.782043	2518.172293
360.170927	2519.319155
360.559748	2518.492406
360.948505	2517.388393
361.337199	2519.603980
361.725830	2522.132119
362.114398	2523.105062
362.502903	2521.907788
362.891344	2519.820750
363.279722	2522.726975
363.668037	2527.508510
364.056289	2522.653878
364.444478	2527.566483
364.832603	2523.087418
365.220665	2525.802079
365.608665	2526.399456
365.996601	2525.544980
366.384474	2527.069929
366.772284	2527.425331
367.160031	2527.374919
367.547715	2528.892306
367.935336	2526.817872
368.322893	2527.112779
368.710388	2527.271575
369.097820	2532.801721
369.485189	2529.356093
369.872495	2531.206196
370.259738	2529.403983
370.646918	2528.531864
371.034035	2531.092770
371.421090	2530.742410
371.808081	2529.943387
372.195010	2534.097298
372.581875	2530.381967
372.968678	2531.727955
373.355418	2533.189890
373.742096	2535.425642
374.128710	2532.779036
374.515262	2532.244674
374.901751	2538.657021
375.288177	2536.837165
375.674540	2539.415715
376.060841	2540.900335
376.447079	2541.137269
376.833254	2544.018288
377.219367	2544.308155
377.605417	2547.214380
377.991404	2548.756973
378.377329	2549.480379
378.763191	2550.632282
379.148991	2558.312480
379.534727	2563.469581
379.920402	2564.624005
380.306013	2567.167267
380.691563	2573.251940
381.077049	2576.213618
381.462474	2580.349884
381.847835	2587.029413
382.233134	2593.988726
382.618371	2595.692636
383.003545	2602.725046
383.388657	2607.415839
383.773706	2615.738784
384.158693	2620.283384
384.543618	2627.051133
384.928480	2634.910292
385.313280	2641.826755
385.698017	2651.596512
386.082692	2657.633293
386.467305	2664.632935
386.851856	2673.177691
387.236344	2685.493230
387.620770	2687.860052
388.005133	2699.568132
388.389435	2708.170861
388.773674	2712.057590
389.157851	2722.472614
389.541965	2730.818244
389.926018	2732.537278
390.310008	2742.801067
390.693936	2752.343971
391.077802	2759.948552
391.461606	2765.912237
391.845348	2772.813576
392.229027	2776.423042
392.612645	2789.053653
392.996200	2795.032462
393.379694	2803.209213
393.763125	2815.113898
394.146494	2819.013231
394.529801	2825.549087
394.913047	2835.240705
395.296230	2832.034531
395.679351	2831.537977
396.062410	2843.243537
396.445408	2834.424038
396.828343	2838.247753
397.211217	2836.783298
397.594028	2827.142091
397.976778	2833.625015
398.359466	2834.754234
398.742092	2828.326762
399.124656	2834.096363
399.507158	2836.206086
399.889598	2832.384891
400.271977	2832.163081
400.654294	2832.120231
401.036549	2829.360199
401.418742	2823.678819
401.800874	2831.290961
402.182944	2821.964826
402.564952	2828.430106
402.946898	2814.992911
403.328783	2808.867909
403.710606	2808.673824
404.092367	2810.831438
404.474067	2809.593835
404.855705	2794.598923
405.237282	2787.011986
405.618797	2787.256482
406.000250	2788.703293
406.381642	2787.385032
406.762972	2776.811211
407.144240	2763.555497
407.525447	2761.591968
407.906593	2752.384300
408.287677	2743.940368
408.668700	2742.380131
409.049661	2730.115003
409.430560	2725.630897
409.811399	2715.800647
410.192176	2709.849565
410.572891	2699.205168
410.953545	2698.900179
411.334138	2687.071111
411.714669	2684.994156
412.095139	2668.509583
412.475547	2665.663851
412.855894	2657.403921
413.236180	2652.196409
413.616405	2644.538896
413.996568	2637.047742
414.376670	2630.300157
414.756711	2623.345885
415.136691	2620.663992
415.516609	2616.573095
415.896466	2613.185440
416.276262	2609.989348
416.655997	2602.218410
417.035670	2596.531988
417.415283	2595.339755
417.794834	2591.490834
418.174324	2589.658375
418.553753	2588.022520
418.933121	2585.512026
419.312428	2579.933989
419.691674	2579.082034
420.070859	2578.509863
420.449983	2571.726991
420.829045	2572.760427
421.208047	2569.239181
421.586988	2568.851012
421.965867	2569.791188
422.344686	2567.691547
422.723444	2565.370096
423.102141	2563.643500
423.480777	2565.019735
423.859352	2564.475291
424.237866	2560.943962
424.616319	2560.369271
424.994712	2562.743654
425.373044	2563.217523
425.751314	2560.563355
426.129524	2561.712738
426.507673	2564.598799
426.885762	2559.814744
427.263789	2561.692574
427.641756	2561.939590
428.019662	2561.044786
428.397508	2562.297512
428.775292	2558.188972
429.153016	2559.076215
429.530679	2562.317677
429.908282	2558.625032
430.285824	2557.352140
430.663305	2560.306257
431.040726	2563.197358
431.418086	2559.880279
431.795385	2563.920764
432.172624	2560.016390
432.549802	2562.567214
432.926920	2560.868345
433.303977	2560.943962
433.680974	2561.606874
434.057910	2560.298695
434.434786	2558.216698
434.811601	2562.529405
435.188355	2560.616287
435.565050	2563.149467
435.941683	2561.821123
436.318257	2559.943293
436.694770	2560.023952
437.071222	2557.412634
437.447614	2558.715772
437.823946	2558.950186
438.200218	2562.899930
438.576429	2564.525702
438.952580	2561.601833
439.328670	2563.114179
439.704700	2563.666186
440.080670	2564.334138
440.456580	2562.836916
440.832429	2565.296999
441.208218	2565.909499
441.583947	2562.857080
441.959616	2565.430589
442.335224	2562.952862
442.710773	2563.174673
443.086261	2561.037224
443.461689	2565.332287
443.837057	2562.874724
444.212365	2563.096535
444.587612	2565.470919
444.962800	2565.498645
445.337927	2564.613923
445.712995	2563.726679
446.088002	2564.888665
446.462949	2563.983778
446.837837	2564.266083
447.212664	2565.785991
447.587431	2565.521330
447.962139	2567.048800
448.336786	2567.091650
448.711374	2566.784139
449.085901	2567.840261
449.460369	2565.506207
449.834776	2565.725497
450.209124	2566.882442
450.583412	2566.927812
450.957640	2566.395970
451.331808	2566.877401
451.705917	2565.463357
452.079965	2569.458471
452.453954	2567.048800
452.827883	2567.991496
453.201752	2565.728017
453.575562	2568.588872
453.949311	2565.881773
454.323001	2568.341856
454.696632	2570.363358
455.070202	2570.549881
455.443713	2566.890003
455.817164	2565.695250
456.190556	2567.797411
456.563888	2566.068295
456.937160	2566.040569
457.310373	2566.970662
457.683526	2570.234809
458.056619	2569.420663
458.429653	2569.985272
458.802628	2569.642473
459.175542	2570.267577
459.548398	2570.297823
459.921194	2568.787998
460.293930	2566.544684
460.666607	2570.600293
461.039224	2573.647670
461.411782	2569.576938
461.784280	2573.632547
462.156719	2571.449727
462.529099	2573.597259
462.901419	2573.534244
463.273680	2573.851837
463.645882	2572.379820
464.018024	2572.515931
464.390106	2571.709347
464.762130	2574.119018
465.134094	2576.974832
465.505999	2576.942064
465.877845	2576.939544
466.249631	2578.537589
466.621358	2576.392578
466.993026	2577.670511
467.364634	2579.734863
467.736184	2576.805953
468.107674	2574.968452
468.479105	2575.225551
468.850477	2575.354101
469.221790	2576.962229
469.593043	2576.208576
469.964238	2572.750345
470.335373	2576.488360
470.706449	2574.751683
471.077467	2575.956519
471.448425	2576.637074
471.819324	2578.240161
472.190164	2578.434246
472.560945	2578.761921
472.931667	2574.688668
473.302330	2574.010633
473.672934	2576.735377
474.043479	2576.006930
474.413965	2573.246898
474.784393	2571.875705
475.154761	2571.487536
475.525070	2571.883266
475.895321	2570.756568
476.265513	2569.329922
476.635645	2572.296641
477.005719	2576.342167
477.375734	2576.480799
477.745691	2575.283525
478.115588	2575.356621
478.485427	2576.311920
478.855207	2576.216138
479.224928	2578.424163
479.594591	2577.781416
479.964194	2577.904925
480.333739	2575.548185
480.703226	2580.125553
481.072653	2575.492733
481.442022	2578.194791
481.811333	2579.704617
482.180584	2581.416088
482.549777	2577.857034
482.918912	2580.460790
483.287988	2575.664132
483.657005	2580.675039
484.025964	2578.318299
484.394864	2577.078175
484.763706	2579.205542
485.132489	2575.817887
485.501213	2577.821746
485.869879	2576.173288
486.238487	2575.396951
486.607036	2577.297466
486.975527	2576.468196
487.343959	2577.736046
487.712333	2576.727815
488.080648	2580.496078
488.448905	2574.413926
488.817104	2577.148752
489.185244	2578.814853
489.553326	2576.972311
489.921350	2579.782754
490.289315	2579.316448
490.657222	2581.519432
491.025070	2581.116140
491.392861	2578.207394
491.760593	2578.953485
492.128267	2578.993814
492.495883	2578.860223
492.863440	2581.416088
493.230939	2578.187229
493.598380	2578.169585
493.965763	2576.914338
494.333088	2575.059193
494.700354	2574.875191
495.067563	2576.077506
495.434713	2572.263873
495.801805	2575.989286
496.168839	2577.516756
496.535815	2577.234451
496.902733	2576.400140
497.269593	2578.008268
497.636395	2578.663618
498.003139	2577.383165
498.369825	2573.849316
498.736453	2577.652867
499.103023	2576.264029
499.469535	2577.052970
499.835989	2577.536920
500.202385	2578.872826
500.568723	2576.606828
500.935003	2575.079358
501.301226	2575.172619
501.667390	2576.019533
502.033497	2579.346695
502.399546	2576.102712
502.765537	2575.901066
503.131470	2574.658422
503.497345	2578.164544
503.863163	2579.422312
504.228923	2574.918041
504.594625	2578.172106
504.960269	2577.332754
505.325856	2577.786457
505.691385	2575.422156
506.056856	2577.269739
506.422270	2576.276632
506.787625	2577.569688
507.152924	2576.589183
507.518164	2579.873495
507.883347	2576.034657
508.248472	2577.166396
508.613540	2579.475244
508.978550	2574.010633
509.343503	2574.880232
509.708398	2578.885429
510.073236	2576.823597
510.438016	2576.571539
510.802738	2575.225551
511.167403	2579.790316
511.532010	2579.392065
511.896561	2577.579770
512.261053	2579.066911
512.625488	2572.982238
512.989866	2573.693041
513.354186	2572.001733
513.718449	2573.481312
514.082655	2576.148082
514.446803	2578.648495
514.810894	2575.076837
515.174927	2580.596901
515.538904	2576.823597
515.902822	2577.630182
516.266684	2575.870819
516.630488	2576.574060
516.994235	2577.216807
517.357925	2578.063721
517.721558	2576.347208
518.085133	2579.039184
518.448651	2580.664956
518.812112	2576.286714
519.175516	2577.972980
519.538863	2578.214956
519.902152	2578.640933
520.265385	2574.671024
520.628560	2579.636561
520.991678	2577.491550
521.354739	2577.509194
521.717743	2577.925089
522.080690	2581.710996
522.443580	2579.944071
522.806413	2577.604976
523.169189	2580.165882
523.531908	2576.669842
523.894569	2577.080696
524.257174	2577.786458
524.619722	2579.071952
524.982213	2579.734863
525.344647	2576.458113
525.707025	2576.836200
526.069345	2578.618248
526.431608	2579.129925
526.793815	2577.788978
527.155964	2577.211766
527.518057	2578.847620
527.880093	2579.528176
528.242072	2579.452559
528.603995	2580.264185
528.965860	2577.773855
529.327669	2579.729822
529.689421	2578.956005
530.051117	2575.974163
530.412755	2577.471385
530.774337	2578.199832
531.135862	2578.880388
531.497331	2576.143041
531.858743	2574.260170
532.220098	2577.269739
532.581396	2576.778227
532.942638	2577.398289
533.303824	2577.640264
533.664953	2578.764441
534.026025	2578.542631
534.387040	2579.119843
534.747999	2576.493402
535.108902	2578.812332
535.469748	2577.405850
535.830537	2580.591860
536.191270	2576.536251
536.551947	2579.528176
536.912567	2577.642785
537.273131	2578.963567
537.633638	2577.403330
537.994089	2578.867785
538.354483	2577.985583
538.714821	2580.627148
539.075103	2577.630182
539.435328	2581.975656
539.795497	2579.308886
540.155609	2580.957343
540.515665	2578.348546
540.875665	2580.710327
541.235609	2577.453741
541.595496	2579.543300
541.955328	2577.728484
542.315102	2576.289235
542.674821	2577.297466
543.034483	2576.400140
543.394090	2577.496591
543.753640	2578.570357
544.113134	2576.304358
544.472571	2578.716550
544.831953	2577.909966
545.191278	2580.004565
545.550548	2580.281829
545.909761	2578.449369
546.268918	2575.868298
546.628019	2576.193453
546.987064	2577.796540
547.346053	2579.762590
547.704986	2576.410222
548.063863	2580.007086
548.422684	2577.519276
548.781449	2578.711509
549.140158	2576.805953
549.498811	2580.027250
549.857408	2579.858372
550.215949	2577.990624
550.574434	2575.245716
550.932864	2576.168247
551.291237	2578.325861
551.649555	2577.756211
552.007817	2580.233938
552.366022	2581.126222
552.724173	2580.400296
553.082267	2578.585480
553.440305	2579.011458
553.798288	2578.424163
554.156215	2578.376272
554.514086	2579.704617
554.871902	2579.076993
555.229661	2579.061869
555.587365	2576.357290
555.945014	2578.164544
556.302606	2578.237641
556.660143	2579.651684
557.017625	2578.746797
557.375050	2578.925758
557.732421	2579.495409
558.089735	2577.869637
558.446994	2577.927610
558.804197	2579.225707
559.161345	2576.753021
559.518437	2577.516756
559.875474	2576.415264
560.232455	2578.093968
560.589381	2578.169585
560.946251	2582.235276
561.303065	2575.936354
561.659825	2577.158834
562.016528	2577.297466
562.373177	2576.213617
562.729770	2578.109091
563.086307	2579.588670
563.442789	2577.451221
563.799216	2577.915007
564.155587	2579.732343
564.511904	2579.807960
564.868164	2577.685634
565.224370	2581.698393
565.580520	2579.059349
565.936615	2580.864082
566.292654	2579.276118
566.648638	2580.070100
567.004567	2578.532548
567.360441	2578.562795
567.716260	2577.095819
568.072023	2577.839390
568.427732	2575.170099
568.783385	2575.896025
569.138982	2573.211610
569.494525	2574.998699
569.850013	2574.454255
570.205445	2577.446180
570.560823	2580.347364
570.916145	2578.925758
571.271412	2578.648495
571.626625	2577.196642
571.981782	2579.631520
572.336884	2578.572877
572.691931	2577.806622
573.046923	2580.042374
573.401860	2577.836869
573.756743	2577.857034
574.111570	2577.761252
574.466342	2577.050449
574.821059	2580.508681
575.175722	2578.401478
575.530330	2577.854513
575.884882	2579.707137
576.239380	2578.414081
576.593823	2578.403999
576.948211	2577.743608
577.302544	2577.602455
577.656823	2578.272929
578.011047	2577.305027
578.365216	2577.662949
578.719330	2577.617579
579.073389	2577.524317
579.427394	2575.459965
579.781344	2581.438773
580.135239	2579.704617
580.489080	2579.588670
580.842866	2578.658577
581.196597	2584.720565
581.550273	2579.770152
581.903895	2578.633371
582.257463	2579.921386
582.610975	2577.748649
582.964434	2577.763772
583.317837	2577.882239
583.671186	2578.151941
584.024481	2579.419791
584.377721	2580.571695
584.730906	2577.937692
585.084037	2578.519945
585.437113	2577.945254
585.790135	2581.166551
586.143103	2578.288052
586.496016	2579.573547
586.848874	2573.627506
587.201679	2575.187743
587.554428	2575.379307
587.907124	2574.217321
588.259765	2576.432908
588.612352	2577.947774
588.964884	2578.409040
589.317362	2578.777044
589.669786	2575.631364
590.022155	2579.936510
590.374470	2578.403999
590.726731	2580.785944
591.078937	2578.794688
591.431090	2579.225707
591.783188	2580.004565
592.135232	2577.665470
592.487222	2575.507856
592.839157	2580.291911
593.191038	2576.251426
593.542866	2580.937179
593.894639	2576.901735
594.246358	2577.955336
594.598022	2580.911973
594.949633	2578.015830
595.301190	2576.115315
595.652692	2577.264698
596.004141	2576.785788
596.355535	2580.614545
596.706876	2579.818042
597.058162	2580.496078
597.409395	2579.918866
597.760573	2577.254616
598.111698	2578.353587
598.462768	2578.527507
598.813785	2579.339133
599.164748	2577.078175
599.515657	2575.525500
599.866511	2576.770665
600.217312	2579.883577
600.568060	2576.654718
600.918753	2578.406519
601.269392	2577.481468
601.619978	2577.100861
601.970510	2577.799060
602.320988	2578.993814
602.671412	2575.389389
603.021783	2579.709658
603.372100	2578.078844
603.722363	2577.723443
604.072572	2578.895511
604.422728	2576.773186
604.772830	2573.761096
605.122878	2574.189594
605.472872	2576.526169
605.822813	2574.668504
606.172701	2575.419636
606.522534	2577.383165
606.872314	2576.352249
607.222041	2576.722774
607.571714	2580.952302
607.921333	2577.645305
608.270899	2579.558423
608.620411	2578.845100
608.969870	2575.477609
609.319276	2578.623289
609.668627	2578.764441
610.017926	2576.085068
610.367171	2577.433577
610.716362	2578.620768
611.065500	2577.907445
611.414585	2576.332085
611.763616	2577.423494
612.112594	2577.657908
612.461518	2578.222517
612.810389	2578.446849
613.159207	2577.819225
613.507971	2576.382496
613.856682	2577.552044
614.205340	2577.037846
614.553945	2577.269739
614.902496	2578.507342
615.250994	2578.716550
615.599439	2580.937179
615.947830	2576.536251
616.296169	2580.244020
616.644454	2578.943402
616.992686	2578.275449
617.340864	2578.041036
617.688990	2577.741087
618.037063	2575.782599
618.385082	2576.727815
618.733048	2578.628330
619.080961	2579.707137
619.428821	2577.337795
619.776628	2577.882239
620.124382	2579.487847
620.472083	2577.113463
620.819731	2576.417784
621.167326	2577.637743
621.514868	2575.502815
621.862357	2580.657395
622.209793	2578.882908
622.557176	2581.158989
622.904506	2575.480130
623.251783	2574.116497
623.599007	2574.451734
623.946179	2574.139183
624.293297	2574.822259
624.640363	2575.515418
624.987376	2577.617579
625.334336	2577.010120
625.681243	2577.413412
626.028097	2577.196643
626.374899	2576.392578
626.721647	2576.747980
627.068343	2577.904925
627.414987	2577.168916
627.761577	2576.243864
628.108115	2577.947774
628.454600	2575.941395
628.801032	2579.558423
629.147412	2576.677404
629.493739	2578.716550
629.840014	2575.369224
630.186236	2577.728484
630.532405	2576.962229
630.878521	2577.756211
631.224585	2576.455593
631.570597	2578.030953
631.916556	2576.296797
632.262462	2577.637743
632.608316	2580.909452
632.954117	2578.756880
633.299866	2578.628330
633.645562	2576.732856
633.991206	2578.058680
634.336797	2578.772003
634.682336	2577.841910
635.027823	2576.009451
635.373257	2577.768813
635.718639	2575.306210
636.063968	2575.160016
636.409245	2576.455593
636.754470	2577.698237
637.099642	2576.909297
637.444762	2576.795871
637.789829	2575.835531
638.134845	2575.333936
638.479808	2576.853844
638.824719	2575.371745
639.169577	2577.834348
639.514383	2576.823597
639.859137	2574.792012
640.203839	2577.415933
640.548489	2578.736715
640.893086	2574.832341
641.237632	2572.790674
641.582125	2572.049624
641.926566	2572.261353
642.270955	2579.008937
642.615292	2576.541292
642.959576	2575.031467
643.303809	2576.347208
643.647990	2575.764955
643.992118	2574.252609
644.336195	2578.300655
