Dividing Wavelength (nm)	Counts (n)	Blue Motor Position (mm): 0.000000	Red Motor Position (mm): 1.500000	
326.493990	2127.374485
326.888308	2127.374485
327.282561	2127.374485
327.676750	2095.229567
328.070874	2092.772005
328.464933	2097.934146
328.858929	2105.586618
329.252859	2115.046343
329.646726	2124.309463
330.040528	2138.149951
330.434265	2156.759371
330.827938	2174.995745
331.221547	2187.613753
331.615091	2207.642257
332.008571	2228.051368
332.401986	2246.834708
332.795338	2266.734662
333.188625	2285.051695
333.581847	2304.762606
333.975006	2324.193734
334.368100	2340.557319
334.761129	2361.357120
335.154095	2375.996631
335.546996	2393.678478
335.939833	2407.415622
336.332606	2423.073446
336.725315	2436.369489
337.117960	2443.752259
337.510540	2452.160904
337.903056	2464.773871
338.295508	2471.758389
338.687896	2477.170068
339.080220	2489.324290
339.472480	2494.456184
339.864676	2498.174035
340.256807	2501.891886
340.648875	2508.989831
341.040879	2508.878926
341.432818	2511.467558
341.824694	2511.775068
342.216506	2512.490912
342.608253	2512.833711
342.999937	2512.392610
343.391557	2513.602487
343.783113	2510.282887
344.174605	2512.160717
344.566033	2506.852382
344.957397	2506.136538
345.348697	2506.121414
345.739934	2503.386588
346.131106	2502.640498
346.522215	2500.661845
346.913260	2499.421721
347.304241	2496.071874
347.695159	2494.952738
348.086012	2493.347131
348.476802	2489.949393
348.867528	2489.790597
349.258191	2487.693477
349.648789	2486.213898
350.039324	2485.770276
350.429796	2485.119968
350.820203	2482.065028
351.210548	2481.079483
351.600828	2479.630151
351.991045	2479.216776
352.381198	2480.832466
352.771288	2479.249544
353.161314	2479.410861
353.551276	2481.555872
353.941175	2476.784420
354.331010	2479.514204
354.720782	2479.181488
355.110490	2479.748618
355.500135	2479.277270
355.889717	2480.197281
356.279235	2478.637044
356.668689	2483.282467
357.058080	2478.727784
357.447408	2478.064873
357.836672	2475.083030
358.225873	2478.800881
358.615010	2474.341981
359.004084	2481.288691
359.393095	2480.172075
359.782043	2483.007724
360.170927	2481.260964
360.559748	2483.398413
360.948505	2484.673825
361.337199	2485.674494
361.725830	2483.748774
362.114398	2488.311018
362.502903	2483.615183
362.891344	2486.173569
363.279722	2485.293887
363.668037	2487.012921
364.056289	2488.016110
364.444478	2491.406286
364.832603	2489.495689
365.220665	2490.261944
365.608665	2487.761532
365.996601	2488.648775
366.384474	2491.310504
366.772284	2492.958962
367.160031	2493.573982
367.547715	2494.020125
367.935336	2490.173724
368.322893	2493.032058
368.710388	2491.814620
369.097820	2493.223622
369.485189	2493.205978
369.872495	2492.197747
370.259738	2491.728920
370.646918	2491.607933
371.034035	2492.328818
371.421090	2495.325783
371.808081	2491.229846
372.195010	2494.665392
372.581875	2495.187152
372.968678	2495.711432
373.355418	2492.913591
373.742096	2496.245794
374.128710	2494.725886
374.515262	2495.038438
374.901751	2494.307470
375.288177	2499.353665
375.674540	2498.254694
376.060841	2498.171515
376.447079	2496.215547
376.833254	2497.294354
377.219367	2491.592809
377.605417	2497.574138
377.991404	2492.076760
378.377329	2495.240084
378.763191	2493.629435
379.148991	2498.229488
379.534727	2497.659838
379.920402	2499.608244
380.306013	2500.583707
380.691563	2502.022956
381.077049	2498.852071
381.462474	2499.817452
381.847835	2499.492297
382.233134	2503.074037
382.618371	2501.533964
383.003545	2502.678306
383.388657	2499.663696
383.773706	2503.139572
384.158693	2500.205620
384.543618	2499.492297
384.928480	2502.693430
385.313280	2500.969355
385.698017	2504.566218
386.082692	2500.797956
386.467305	2502.020436
386.851856	2501.685199
387.236344	2502.330467
387.620770	2502.113697
388.005133	2502.494304
388.389435	2504.233502
388.773674	2502.953049
389.157851	2502.637977
389.541965	2504.757782
389.926018	2503.794922
390.310008	2505.065293
390.693936	2504.861126
391.077802	2506.257526
391.461606	2505.392968
391.845348	2506.292814
392.229027	2504.150323
392.612645	2506.771723
392.996200	2506.718791
393.379694	2506.433966
393.763125	2507.875736
394.146494	2506.590242
394.529801	2506.532268
394.913047	2507.437156
395.296230	2507.250633
395.679351	2506.018071
396.062410	2507.255674
396.445408	2507.870695
396.828343	2508.188287
397.211217	2504.523369
397.594028	2503.263080
397.976778	2505.256857
398.359466	2507.348935
398.742092	2502.733759
399.124656	2507.825324
399.507158	2508.294152
399.889598	2509.511590
400.271977	2508.634430
400.654294	2509.209121
401.036549	2510.517301
401.418742	2507.351456
401.800874	2507.061590
402.182944	2508.896570
402.564952	2511.530573
402.946898	2511.379338
403.328783	2509.052845
403.710606	2512.334637
404.092367	2511.326406
404.474067	2513.095851
404.855705	2509.572084
405.237282	2512.478309
405.618797	2511.215500
406.000250	2512.329595
406.381642	2511.308762
406.762972	2511.938906
407.144240	2512.490912
407.525447	2512.644667
407.906593	2509.665346
408.287677	2513.985614
408.668700	2513.108454
409.049661	2513.093330
409.430560	2512.347239
409.811399	2512.836231
410.192176	2512.127949
410.572891	2514.151972
410.953545	2513.317662
411.334138	2513.799092
411.714669	2512.717764
412.095139	2514.615759
412.475547	2512.528721
412.855894	2513.761283
413.236180	2514.320851
413.616405	2516.622138
413.996568	2510.439163
414.376670	2516.856552
414.756711	2517.219515
415.136691	2516.642302
415.516609	2515.913856
415.896466	2516.473424
416.276262	2515.697086
416.655997	2510.361025
417.035670	2510.298010
417.415283	2514.003258
417.794834	2511.759945
418.174324	2516.276819
418.553753	2515.099709
418.933121	2515.944103
419.312428	2516.072652
419.691674	2516.193640
420.070859	2514.404030
420.449983	2512.790861
420.829045	2516.549041
421.208047	2516.095337
421.586988	2516.465862
421.965867	2519.422499
422.344686	2517.799247
422.723444	2517.446367
423.102141	2519.147756
423.480777	2517.186747
423.859352	2520.884433
424.237866	2518.676408
424.616319	2518.557941
424.994712	2519.697242
425.373044	2519.175482
425.751314	2518.515091
426.129524	2518.492406
426.507673	2519.402334
426.885762	2519.833353
427.263789	2519.588857
427.641756	2521.406193
428.019662	2521.161697
428.397508	2518.603311
428.775292	2521.081038
429.153016	2519.167921
429.530679	2520.523991
429.908282	2519.104906
430.285824	2520.934845
430.663305	2520.692870
431.040726	2521.441481
431.418086	2523.901564
431.795385	2523.669671
432.172624	2522.487520
432.549802	2521.562469
432.926920	2520.455935
433.303977	2525.066071
433.680974	2522.139681
434.057910	2523.306708
434.434786	2522.215298
434.811601	2523.213447
435.188355	2520.599608
435.565050	2519.364526
435.941683	2522.464835
436.318257	2521.471728
436.694770	2520.468538
437.071222	2521.819568
437.447614	2520.322345
437.823946	2518.434433
438.200218	2523.021883
438.576429	2522.162366
438.952580	2521.471728
439.328670	2522.570699
439.704700	2524.461132
440.080670	2522.933662
440.456580	2524.113293
440.832429	2520.728158
441.208218	2524.098169
441.583947	2524.108251
441.959616	2522.621111
442.335224	2524.239321
442.710773	2524.355268
443.086261	2522.699249
443.461689	2525.476925
443.837057	2523.689836
444.212365	2524.551873
444.587612	2522.669002
444.962800	2524.992974
445.337927	2526.591020
445.712995	2525.492048
446.088002	2525.358458
446.462949	2524.627490
446.837837	2524.967768
447.212664	2524.864424
447.587431	2527.168232
447.962139	2526.328880
448.336786	2528.239477
448.711374	2523.147912
449.085901	2527.379960
449.460369	2523.994825
449.834776	2526.117151
450.209124	2523.755371
450.583412	2527.639580
450.957640	2526.046575
451.331808	2525.368540
451.705917	2526.124713
452.079965	2527.291740
452.453954	2524.566996
452.827883	2527.488345
453.201752	2523.674712
453.575562	2528.040351
453.949311	2525.512213
454.323001	2524.642614
454.696632	2522.641276
455.070202	2527.069929
455.443713	2526.016328
455.817164	2524.186389
456.190556	2520.874351
456.563888	2521.864938
456.937160	2521.638086
457.310373	2529.194776
457.683526	2527.044723
458.056619	2526.540608
458.429653	2526.631349
458.802628	2527.453057
459.175542	2525.587830
459.548398	2529.066226
459.921194	2528.342821
460.293930	2529.005732
460.666607	2526.333921
461.039224	2524.143539
461.411782	2525.923067
461.784280	2528.748633
462.156719	2526.752337
462.529099	2527.432892
462.901419	2528.108407
463.273680	2527.110258
463.645882	2525.297964
464.018024	2530.323994
464.390106	2525.154291
464.762130	2527.480783
465.134094	2527.223684
465.505999	2529.144364
465.877845	2529.497245
466.249631	2530.268541
466.621358	2527.284178
466.993026	2531.264169
467.364634	2533.603265
467.736184	2529.545136
468.107674	2529.441792
468.479105	2525.950793
468.850477	2529.530012
469.221790	2529.494724
469.593043	2526.795186
469.964238	2530.528161
470.335373	2527.768129
470.706449	2529.144364
471.077467	2529.857687
471.448425	2529.661082
471.819324	2529.890455
472.190164	2527.082532
472.560945	2529.807276
472.931667	2527.533715
473.302330	2529.570342
473.672934	2530.071936
474.043479	2529.172090
474.413965	2531.571680
474.784393	2527.876514
475.154761	2527.974816
475.525070	2527.495907
475.895321	2527.425331
476.265513	2525.091276
476.635645	2530.749972
477.005719	2529.091432
477.375734	2529.522451
477.745691	2531.165867
478.115588	2529.988757
478.485427	2531.438089
478.855207	2530.684437
479.224928	2530.371885
479.594591	2531.049920
479.964194	2532.090918
480.333739	2531.811134
480.703226	2530.543284
481.072653	2530.908768
481.442022	2529.638397
481.811333	2531.866587
482.180584	2531.702750
482.549777	2532.499252
482.918912	2529.905578
483.287988	2531.347348
483.657005	2530.515558
484.025964	2529.885414
484.394864	2531.173428
484.763706	2530.691998
485.132489	2531.659900
485.501213	2534.838347
485.869879	2528.362985
486.238487	2531.299457
486.607036	2531.395239
486.975527	2532.158974
487.343959	2534.677030
487.712333	2531.864067
488.080648	2530.578572
488.448905	2531.584283
488.817104	2531.095291
489.185244	2533.762061
489.553326	2532.741227
489.921350	2534.135106
490.289315	2530.939015
490.657222	2531.710311
491.025070	2530.079498
491.392861	2531.750641
491.760593	2533.353727
492.128267	2532.660569
492.495883	2533.878007
492.863440	2531.284334
493.230939	2534.314067
493.598380	2530.392050
493.965763	2528.607481
494.333088	2528.257121
494.700354	2527.725279
495.067563	2532.070754
495.434713	2526.868283
495.801805	2531.526309
496.168839	2531.599406
496.535815	2535.435724
496.902733	2532.743748
497.269593	2532.839530
497.636395	2532.148892
498.003139	2532.852133
498.369825	2532.524458
498.736453	2535.042514
499.103023	2533.535209
499.469535	2532.388347
499.835989	2534.142668
500.202385	2532.206865
500.568723	2531.788449
500.935003	2535.803728
501.301226	2535.039993
501.667390	2532.955476
502.033497	2534.692154
502.399546	2532.511855
502.765537	2531.501103
503.131470	2532.816845
503.497345	2532.642925
503.863163	2531.944725
504.228923	2532.093439
504.594625	2532.108562
504.960269	2535.002185
505.325856	2534.051927
505.691385	2533.663758
506.056856	2531.705270
506.422270	2532.733666
506.787625	2533.089067
507.152924	2530.737369
507.518164	2532.418593
507.883347	2532.683254
508.248472	2533.036135
508.613540	2536.053265
508.978550	2536.227185
509.343503	2535.181146
509.708398	2535.274407
510.073236	2531.307019
510.438016	2533.933460
510.802738	2533.177287
511.167403	2535.735673
511.532010	2534.621578
511.896561	2534.651825
512.261053	2535.082843
512.625488	2530.250897
512.989866	2529.608150
513.354186	2530.823068
513.718449	2526.795186
514.082655	2533.366330
514.446803	2530.268541
514.810894	2535.670138
515.174927	2536.703574
515.538904	2533.152081
515.902822	2535.158461
516.266684	2536.663245
516.630488	2535.140817
516.994235	2535.937319
517.357925	2534.926567
517.721558	2535.894469
518.085133	2534.046886
518.448651	2534.548481
518.812112	2534.535878
519.175516	2534.487987
519.538863	2533.222658
519.902152	2536.307844
520.265385	2534.482946
520.628560	2533.280631
520.991678	2536.443955
521.354739	2535.186187
521.717743	2534.271218
522.080690	2534.755168
522.443580	2535.907072
522.806413	2534.281300
523.169189	2533.421783
523.531908	2536.844727
523.894569	2534.619057
524.257174	2536.128883
524.619722	2534.659386
524.982213	2537.442103
525.344647	2536.539737
525.707025	2535.254243
526.069345	2533.452030
526.431608	2534.913965
526.793815	2533.116793
527.155964	2537.205169
527.518057	2536.043183
527.880093	2535.773481
528.242072	2535.004705
528.603995	2536.297761
528.965860	2537.081661
529.327669	2535.062679
529.689421	2537.527803
530.051117	2535.816331
530.412755	2534.566125
530.774337	2535.559232
531.135862	2534.261135
531.497331	2532.615198
531.858743	2528.647810
532.220098	2533.189890
532.581396	2531.357431
532.942638	2532.171577
533.303824	2535.581917
533.664953	2535.886907
534.026025	2536.161650
534.387040	2535.934798
534.747999	2535.554191
535.108902	2535.440765
535.469748	2536.653163
535.830537	2538.014274
536.191270	2534.467822
536.551947	2535.980169
536.912567	2535.581917
537.273131	2537.482433
537.633638	2533.729293
537.994089	2538.407484
538.354483	2534.881197
538.714821	2534.447658
539.075103	2533.066382
539.435328	2535.937319
539.795497	2536.970755
540.155609	2534.271217
540.515665	2537.008564
540.875665	2537.318595
541.235609	2537.255581
541.595496	2537.401774
541.955328	2535.365148
542.315102	2540.635674
542.674821	2536.017977
543.034483	2535.342463
543.394090	2533.893131
543.753640	2536.915303
544.113134	2534.102339
544.472571	2536.514531
544.831953	2533.515044
545.191278	2536.093595
545.550548	2537.447144
545.909761	2534.417411
546.268918	2534.828265
546.628019	2537.900848
546.987064	2536.605272
547.346053	2535.178625
547.704986	2533.449509
548.063863	2535.150899
548.422684	2536.353214
548.781449	2537.258101
549.140158	2536.113759
549.498811	2537.162319
549.857408	2536.227185
550.215949	2535.133255
550.574434	2533.237781
550.932864	2537.028729
551.291237	2534.130065
551.649555	2534.702236
552.007817	2534.984541
552.366022	2537.353883
552.724173	2537.734490
553.082267	2537.187525
553.440305	2535.740714
553.798288	2535.140817
554.156215	2538.185673
554.514086	2537.439583
554.871902	2537.127031
555.229661	2538.697351
555.587365	2538.785571
555.945014	2535.546629
556.302606	2535.730632
556.660143	2537.588297
557.017625	2536.391023
557.375050	2535.254242
557.732421	2536.690971
558.089735	2537.658873
558.446994	2533.731814
558.804197	2537.777340
559.161345	2537.248019
559.518437	2540.194573
559.875474	2534.165353
560.232455	2536.554860
560.589381	2537.875643
560.946251	2541.381765
561.303065	2536.824562
561.659825	2538.329346
562.016528	2534.097298
562.373177	2537.353883
562.729770	2537.303472
563.086307	2537.230375
563.442789	2537.989068
563.799216	2536.569984
564.155587	2535.702905
564.511904	2536.413708
564.868164	2535.460930
565.224370	2537.169881
565.580520	2536.128883
565.936615	2536.746424
566.292654	2537.389171
566.648638	2537.260622
567.004567	2537.658873
567.360441	2535.443286
567.716260	2534.518234
568.072023	2539.403112
568.427732	2532.075795
568.783385	2531.967410
569.138982	2530.419776
569.494525	2535.554191
569.850013	2533.850281
570.205445	2533.835158
570.560823	2537.961342
570.916145	2537.210210
571.271412	2537.938657
571.626625	2535.980169
571.981782	2532.640404
572.336884	2535.163502
572.691931	2537.409336
573.046923	2535.337422
573.401860	2535.995292
573.756743	2539.294727
574.111570	2534.246012
574.466342	2537.502597
574.821059	2539.577032
575.175722	2538.987217
575.530330	2535.821372
575.884882	2537.898328
576.239380	2536.280117
576.593823	2538.120138
576.948211	2536.562422
577.302544	2538.740200
577.656823	2535.526465
578.011047	2536.993441
578.365216	2536.675848
578.719330	2535.597041
579.073389	2535.095446
579.427394	2535.801208
579.781344	2535.768440
580.135239	2539.811446
580.489080	2537.512679
580.842866	2539.128369
581.196597	2541.906045
581.550273	2536.980838
581.903895	2535.133255
582.257463	2536.673327
582.610975	2539.108205
582.964434	2534.624098
583.317837	2537.411856
583.671186	2538.266332
584.024481	2533.648635
584.377721	2537.096784
584.730906	2536.058307
585.084037	2537.046373
585.437113	2540.476878
585.790135	2537.381609
586.143103	2538.233564
586.496016	2538.306661
586.848874	2534.467822
587.201679	2534.326670
587.554428	2535.024870
587.907124	2536.685930
588.259765	2531.281813
588.612352	2537.416898
588.964884	2537.023687
589.317362	2538.042001
589.669786	2536.045704
590.022155	2536.814480
590.374470	2537.787422
590.726731	2535.297092
591.078937	2536.353214
591.431090	2533.467153
591.783188	2535.052596
592.135232	2537.507638
592.487222	2537.737011
592.839157	2534.293903
593.191038	2536.111239
593.542866	2537.114428
593.894639	2538.243647
594.246358	2538.425128
594.598022	2537.651311
594.949633	2535.781043
595.301190	2537.177443
595.652692	2537.898328
596.004141	2536.627957
596.355535	2538.319264
596.706876	2536.229706
597.058162	2539.052752
597.409395	2538.422608
597.760573	2537.941178
598.111698	2537.583256
598.462768	2540.557536
598.813785	2540.446631
599.164748	2536.567463
599.515657	2535.153419
599.866511	2537.258101
600.217312	2537.121990
600.568060	2536.862371
600.918753	2539.052752
601.269392	2537.830272
601.619978	2537.754655
601.970510	2537.283307
602.320988	2536.025539
602.671412	2535.022349
603.021783	2537.305992
603.372100	2537.157278
603.722363	2537.162319
604.072572	2538.243647
604.422728	2537.358924
604.772830	2533.981351
605.122878	2534.321629
605.472872	2535.849099
605.822813	2534.503111
606.172701	2535.561753
606.522534	2537.086702
606.872314	2537.149716
607.222041	2535.649973
607.571714	2538.692309
607.921333	2538.851106
608.270899	2537.036290
608.620411	2538.473019
608.969870	2536.922864
609.319276	2539.849254
609.668627	2542.722712
610.017926	2545.283618
610.367171	2543.746066
610.716362	2544.867723
611.065500	2543.748587
611.414585	2537.825231
611.763616	2543.831766
612.112594	2539.385468
612.461518	2538.810777
612.810389	2538.024357
613.159207	2541.016281
613.507971	2537.376568
613.856682	2540.484440
614.205340	2539.483771
614.553945	2542.747918
614.902496	2536.479243
615.250994	2539.786240
615.599439	2536.322967
615.947830	2537.984027
616.296169	2536.459078
616.644454	2538.379758
616.992686	2538.599048
617.340864	2537.439583
617.688990	2536.575025
618.037063	2538.175591
618.385082	2536.423790
618.733048	2538.742721
619.080961	2539.856816
619.428821	2540.365973
619.776628	2538.319264
620.124382	2541.066693
620.472083	2539.012423
620.819731	2538.203317
621.167326	2536.312885
621.514868	2538.830941
621.862357	2535.655014
622.209793	2537.759696
622.557176	2535.728111
622.904506	2538.659542
623.251783	2534.649304
623.599007	2534.094777
623.946179	2532.161495
624.293297	2536.078471
624.640363	2536.658204
624.987376	2537.820190
625.334336	2536.446475
625.681243	2538.483102
626.028097	2533.086546
626.374899	2536.154088
626.721647	2537.043852
627.068343	2539.340098
627.414987	2537.530323
627.761577	2539.793802
628.108115	2535.420601
628.454600	2533.991433
628.801032	2535.720549
629.147412	2537.873122
629.493739	2536.368338
629.840014	2537.389171
630.186236	2537.220293
630.532405	2537.797505
630.878521	2538.034439
631.224585	2536.764068
631.570597	2536.824562
631.916556	2539.977804
632.262462	2538.485622
632.608316	2539.624923
632.954117	2536.577545
633.299866	2536.965714
633.645562	2535.413039
633.991206	2540.519728
634.336797	2536.499408
634.682336	2538.057124
635.027823	2537.152237
635.373257	2537.023687
635.718639	2534.760209
636.063968	2537.772299
636.409245	2536.073430
636.754470	2540.865047
637.099642	2537.391692
637.444762	2538.362114
637.789829	2534.543440
638.134845	2537.300951
638.479808	2535.463450
638.824719	2537.437062
639.169577	2535.241640
639.514383	2537.865560
639.859137	2534.593851
640.203839	2536.534696
640.548489	2535.511341
640.893086	2536.312885
641.237632	2532.728624
641.582125	2537.807587
641.926566	2533.106711
642.270955	2539.816487
642.615292	2536.567463
642.959576	2536.869932
643.303809	2536.542257
643.647990	2535.907072
643.992118	2538.490663
644.336195	2536.481763
