Dividing Wavelength (nm)	Counts (n)	Blue Motor Position (mm): 0.000000	Red Motor Position (mm): 27.900000	
326.493990	2125.937756
326.888308	2125.937756
327.282561	2125.937756
327.676750	2095.418611
328.070874	2094.773343
328.464933	2096.373909
328.858929	2101.599065
329.252859	2111.081476
329.646726	2123.613784
330.040528	2138.054169
330.434265	2152.749133
330.827938	2172.122287
331.221547	2187.921263
331.615091	2210.031764
332.008571	2226.042468
332.401986	2248.132805
332.795338	2266.449837
333.188625	2286.208640
333.581847	2303.635908
333.975006	2321.925215
334.368100	2340.358194
334.761129	2360.079188
335.154095	2375.943699
335.546996	2392.392984
335.939833	2411.768658
336.332606	2426.231729
336.725315	2439.091712
337.117960	2446.252671
337.510540	2455.818261
337.903056	2469.192442
338.295508	2472.431383
338.687896	2483.058136
339.080220	2491.628097
339.472480	2497.380054
339.864676	2503.195025
340.256807	2504.929182
340.648875	2509.541837
341.040879	2512.838752
341.432818	2511.691889
341.824694	2516.337313
342.216506	2517.456449
342.608253	2516.405368
342.999937	2514.615759
343.391557	2518.421830
343.783113	2512.932013
344.174605	2512.334637
344.566033	2513.219359
344.957397	2511.102074
345.348697	2507.336332
345.739934	2507.119563
346.131106	2505.675272
346.522215	2502.953049
346.913260	2502.937926
347.304241	2500.757627
347.695159	2499.310816
348.086012	2498.854591
348.476802	2495.701349
348.867528	2492.928715
349.258191	2495.101452
349.648789	2492.018787
350.039324	2491.214722
350.429796	2486.639875
350.820203	2486.468476
351.210548	2487.602736
351.600828	2485.563589
351.991045	2485.971923
352.381198	2482.934627
352.771288	2486.486120
353.161314	2484.608290
353.551276	2485.031747
353.941175	2486.828919
354.331010	2483.247179
354.720782	2487.847232
355.110490	2485.301449
355.500135	2485.760194
355.889717	2485.699700
356.279235	2484.943527
356.668689	2486.155925
357.058080	2487.733806
357.447408	2482.642240
357.836672	2482.806078
358.225873	2486.072746
358.615010	2483.842035
359.004084	2484.872951
359.393095	2488.495020
359.782043	2488.069042
360.170927	2488.679022
360.559748	2489.137767
360.948505	2490.582058
361.337199	2490.627428
361.725830	2493.019456
362.114398	2493.137923
362.502903	2493.233705
362.891344	2495.739158
363.279722	2495.771926
363.668037	2496.989364
364.056289	2495.207316
364.444478	2498.163953
364.832603	2498.153871
365.220665	2496.109683
365.608665	2496.618839
365.996601	2498.020280
366.384474	2500.868532
366.772284	2502.325426
367.160031	2502.942967
367.547715	2505.665190
367.935336	2511.520490
368.322893	2509.851868
368.710388	2512.974863
369.097820	2520.972654
369.485189	2525.267717
369.872495	2526.986750
370.259738	2537.293389
370.646918	2542.087527
371.034035	2548.202446
371.421090	2559.476987
371.808081	2573.935016
372.195010	2576.337126
372.581875	2595.874117
372.968678	2607.720829
373.355418	2615.169134
373.742096	2632.692185
374.128710	2649.103661
374.515262	2662.437513
374.901751	2676.741787
375.288177	2691.698890
375.674540	2715.903991
376.060841	2732.040724
376.447079	2753.125350
376.833254	2775.313989
377.219367	2783.659619
377.605417	2825.919612
377.991404	2833.783812
378.377329	2854.182841
378.763191	2872.648587
379.148991	2911.208373
379.534727	2934.327104
379.920402	2963.656538
380.306013	2973.950574
380.691563	3025.080477
381.077049	3046.389434
381.462474	3063.937690
381.847835	3103.369596
382.233134	3125.144860
382.618371	3121.971453
383.003545	3191.037782
383.388657	3201.631767
383.773706	3233.116293
384.158693	3249.200094
384.543618	3273.490894
384.928480	3313.706699
385.313280	3357.594984
385.698017	3354.537524
386.082692	3408.455185
386.467305	3416.216042
386.851856	3447.874488
387.236344	3469.566573
387.620770	3497.817199
388.005133	3525.389790
388.389435	3554.426836
388.773674	3564.257086
389.157851	3607.250567
389.541965	3626.154894
389.926018	3588.789861
390.310008	3657.553720
390.693936	3677.685568
391.077802	3716.459603
391.461606	3707.740928
391.845348	3772.313067
392.229027	3771.536729
392.612645	3782.808749
392.996200	3862.040564
393.379694	3900.756626
393.763125	3965.916060
394.146494	3932.896502
394.529801	3990.350533
394.913047	4043.007905
395.296230	4009.295189
395.679351	4064.110175
396.062410	4085.618258
396.445408	4069.373140
396.828343	4096.943210
397.211217	4124.593939
397.594028	4043.108728
397.976778	4110.887042
398.359466	4138.033655
398.742092	4171.910209
399.124656	4089.384000
399.507158	4168.078932
399.889598	4192.392417
400.271977	4255.298455
400.654294	4227.720823
401.036549	4234.216350
401.418742	4203.621587
401.800874	4305.503307
402.182944	4328.170855
402.564952	4395.172831
402.946898	4375.406466
403.328783	4374.892269
403.710606	4289.376655
404.092367	4484.043332
404.474067	4448.725008
404.855705	4456.448056
405.237282	4380.747569
405.618797	4492.381400
406.000250	4525.353067
406.381642	4606.702167
406.762972	4569.175817
407.144240	4578.985903
407.525447	4578.902724
407.906593	4636.248369
408.287677	4680.121531
408.668700	4610.840954
409.049661	4664.115868
409.430560	4702.884861
409.811399	4632.961537
410.192176	4791.286535
410.572891	4727.016865
410.953545	4835.552907
411.334138	4711.999268
411.714669	4779.649032
412.095139	4676.837219
412.475547	4817.669414
412.855894	4800.842042
413.236180	4808.300429
413.616405	4761.402575
413.996568	4849.660576
414.376670	4791.437770
414.756711	4743.347683
415.136691	4776.883959
415.516609	4854.369014
415.896466	4889.664652
416.276262	4923.100105
416.655997	4903.903392
417.035670	5087.056073
417.415283	5180.879507
417.794834	5122.475219
418.174324	5078.644907
418.553753	4980.672603
418.933121	5172.622097
419.312428	5235.069391
419.691674	5173.857180
420.070859	5299.485254
420.449983	5215.592893
420.829045	5328.930634
421.208047	5237.476542
421.586988	5303.959278
421.965867	5319.760775
422.344686	5449.704077
422.723444	5303.041788
423.102141	5121.582935
423.480777	5419.978914
423.859352	5193.621024
424.237866	5449.545281
424.616319	5437.733857
424.994712	5555.038987
425.373044	5424.684831
425.751314	5568.811419
426.129524	5372.319845
426.507673	5569.887706
426.885762	5652.744110
427.263789	5582.440179
427.641756	5465.213187
428.019662	5585.621147
428.397508	5590.732877
428.775292	5539.928128
429.153016	5639.213653
429.530679	5561.998300
429.908282	5652.418956
430.285824	5521.666548
430.663305	5793.878774
431.040726	5532.187437
431.418086	5529.576119
431.795385	5639.178365
432.172624	5643.680116
432.549802	5642.039220
432.926920	5656.542620
433.303977	5658.990100
433.680974	5703.110278
434.057910	5717.154933
434.434786	5726.198763
434.811601	5696.808836
435.188355	5929.780720
435.565050	5801.430422
435.941683	5783.458709
436.318257	5994.940154
436.694770	5977.165045
437.071222	6011.500344
437.447614	5947.714625
437.823946	5855.945460
438.200218	6014.058730
438.576429	5878.174428
438.952580	5973.648841
439.328670	6023.992323
439.704700	5927.202170
440.080670	5915.489049
440.456580	6186.178846
440.832429	6067.351288
441.208218	5912.545015
441.583947	6074.222380
441.959616	6072.999901
442.335224	6001.450804
442.710773	6136.173120
443.086261	6158.913765
443.461689	5955.961952
443.837057	6108.635817
444.212365	6261.327326
444.587612	6150.149719
444.962800	6306.644778
445.337927	6284.655265
445.712995	5899.616976
446.088002	6473.219625
446.462949	6301.359129
446.837837	6229.023612
447.212664	6399.999386
447.587431	6542.926180
447.962139	7082.788386
448.336786	7995.239753
448.711374	7735.441369
449.085901	6814.843498
449.460369	6734.810139
449.834776	6665.632906
450.209124	7049.063067
450.583412	7195.838782
450.957640	7338.160637
451.331808	7099.504852
451.705917	6654.507079
452.079965	6569.079686
452.453954	6773.982425
452.827883	6646.658003
453.201752	6733.159161
453.575562	6525.761051
453.949311	6722.053499
454.323001	6606.820284
454.696632	6676.199164
455.070202	6795.200642
455.443713	6940.743794
455.817164	7023.169180
456.190556	7086.304591
456.563888	7148.867831
456.937160	7183.619025
457.310373	6839.154462
457.683526	6855.918819
458.056619	6737.366004
458.429653	6709.944648
458.802628	6634.022350
459.175542	6721.191462
459.548398	7034.526900
459.921194	7168.856006
460.293930	7147.491596
460.666607	7605.528314
461.039224	7867.537244
461.411782	7959.981923
461.784280	7946.310314
462.156719	7829.925195
462.529099	7693.463681
462.901419	7291.882845
463.273680	7180.433016
463.645882	7158.960221
464.018024	7010.099989
464.390106	7126.157433
464.762130	7431.225378
465.134094	7791.672920
465.505999	8592.981967
465.877845	9556.527949
466.249631	10068.242873
466.621358	9716.632475
466.993026	9142.697109
467.364634	8887.788644
467.736184	8540.034729
468.107674	8208.654481
468.479105	8167.667379
468.850477	7937.044673
469.221790	7693.569545
469.593043	7383.064715
469.964238	7213.326545
470.335373	7176.833632
470.706449	7155.098697
471.077467	7087.776608
471.448425	7974.903738
471.819324	8663.979058
472.190164	8630.588975
472.560945	7676.661515
472.931667	7045.801441
473.302330	6894.239150
473.672934	6584.175421
474.043479	6765.477999
474.413965	6658.814745
474.784393	6510.854359
475.154761	6548.340379
475.525070	6533.358070
475.895321	6361.903386
476.265513	6398.093830
476.635645	6430.573984
477.005719	6352.456264
477.375734	6351.299319
477.745691	6406.028606
478.115588	6397.935033
478.485427	6446.231808
478.855207	6651.515154
479.224928	6970.605069
479.594591	7208.522325
479.964194	7016.139291
480.333739	6901.795840
480.703226	6738.502784
481.072653	6696.333533
481.442022	6700.560540
481.811333	6697.901331
482.180584	6517.405338
482.549777	6286.437313
482.918912	6123.648373
483.287988	6042.286671
483.657005	5964.307583
484.025964	5753.181539
484.394864	5702.689342
484.763706	5605.132933
485.132489	5441.179486
485.501213	5341.402449
485.869879	5291.598369
486.238487	5147.509589
486.607036	5117.423983
486.975527	4964.918997
487.343959	4944.893013
487.712333	4882.682654
488.080648	4793.993635
488.448905	4728.594746
488.817104	4642.698526
489.185244	4639.031086
489.553326	4603.584213
489.921350	4673.568031
490.289315	4837.443340
490.657222	4847.717211
491.025070	4739.375253
491.392861	4639.530160
491.760593	4483.829083
492.128267	4340.269624
492.495883	4205.350703
492.863440	4084.451231
493.230939	3969.177687
493.598380	3900.776791
493.965763	3820.100685
494.333088	3766.102366
494.700354	3697.782128
495.067563	3666.171573
495.434713	3592.222887
495.801805	3565.542580
496.168839	3514.899149
496.535815	3462.932414
496.902733	3425.887495
497.269593	3380.408726
497.636395	3350.839838
498.003139	3308.723518
498.369825	3269.684823
498.736453	3245.746904
499.103023	3208.754917
499.469535	3181.363808
499.835989	3152.029333
500.202385	3119.150928
500.568723	3082.090885
500.935003	3072.928588
501.301226	3030.774460
501.667390	3026.499561
502.033497	3003.562311
502.399546	2973.597693
502.765537	2947.449228
503.131470	2926.876279
503.497345	2918.586102
503.863163	2886.398334
504.228923	2874.276880
504.594625	2864.066023
504.960269	2836.748010
505.325856	2830.786846
505.691385	2810.067703
506.056856	2800.575211
506.422270	2790.102213
506.787625	2777.025460
507.152924	2766.265117
507.518164	2756.165166
507.883347	2745.102354
508.248472	2734.783112
508.613540	2731.425703
508.978550	2719.934393
509.343503	2713.612786
509.708398	2708.750593
510.073236	2703.348997
510.438016	2697.647452
510.802738	2692.137471
511.167403	2687.418951
511.532010	2680.439473
511.896561	2677.828156
512.261053	2676.666170
512.625488	2669.109480
512.989866	2661.325938
513.354186	2660.721000
513.718449	2653.600370
514.082655	2657.819816
514.446803	2652.274547
514.810894	2654.714465
515.174927	2649.408651
515.538904	2645.350522
515.902822	2643.477733
516.266684	2642.124183
516.630488	2638.421456
516.994235	2638.295427
517.357925	2635.830303
517.721558	2634.789305
518.085133	2634.491877
518.448651	2634.567494
518.812112	2630.088429
519.175516	2627.882924
519.538863	2627.789662
519.902152	2628.147584
520.265385	2628.437451
520.628560	2626.272275
520.991678	2623.595422
521.354739	2626.325207
521.717743	2622.809002
522.080690	2621.669702
522.443580	2620.968981
522.806413	2619.070987
523.169189	2623.202212
523.531908	2622.209105
523.894569	2618.708024
524.257174	2619.746502
524.619722	2615.776593
524.982213	2617.528394
525.344647	2618.443363
525.707025	2615.312807
526.069345	2617.178034
526.431608	2613.659308
526.793815	2614.667539
527.155964	2613.077055
527.518057	2611.320213
527.880093	2610.223762
528.242072	2611.549585
528.603995	2612.204935
528.965860	2610.788371
529.327669	2613.208125
529.689421	2609.729729
530.051117	2611.322733
530.412755	2611.143772
530.774337	2608.734101
531.135862	2607.919955
531.497331	2605.611106
531.858743	2602.399891
532.220098	2606.642022
532.581396	2604.033225
532.942638	2606.684872
533.303824	2606.364759
533.664953	2605.480036
534.026025	2605.386775
534.387040	2605.757300
534.747999	2605.091867
535.108902	2605.104470
535.469748	2603.070365
535.830537	2610.009513
536.191270	2606.705037
536.551947	2605.245622
536.912567	2603.090529
537.273131	2603.866867
537.633638	2602.596496
537.994089	2605.525407
538.354483	2602.069696
538.714821	2605.452310
539.075103	2604.002978
539.435328	2602.256218
539.795497	2603.506424
540.155609	2607.141096
540.515665	2603.897114
540.875665	2605.480036
541.235609	2602.964500
541.595496	2604.915427
541.955328	2601.615992
542.315102	2605.966508
542.674821	2600.605240
543.034483	2606.548761
543.394090	2603.791250
543.753640	2602.654469
544.113134	2604.484408
544.472571	2603.108173
544.831953	2604.418873
545.191278	2602.873760
545.550548	2603.355190
545.909761	2604.164295
546.268918	2604.630602
546.628019	2604.393667
546.987064	2602.440220
547.346053	2601.966352
547.704986	2602.495673
548.063863	2602.901486
548.422684	2604.176898
548.781449	2600.083481
549.140158	2602.856116
549.498811	2606.538678
549.857408	2602.135231
550.215949	2601.242946
550.574434	2596.068202
550.932864	2599.644901
551.291237	2597.250352
551.649555	2601.454675
552.007817	2601.283276
552.366022	2603.042638
552.724173	2602.626743
553.082267	2604.106322
553.440305	2602.551126
553.798288	2604.746548
554.156215	2601.318564
554.514086	2602.178080
554.871902	2601.820158
555.229661	2602.886362
555.587365	2601.852926
555.945014	2600.350662
556.302606	2602.740169
556.660143	2602.442741
557.017625	2603.161105
557.375050	2601.086671
557.732421	2601.114397
558.089735	2601.220261
558.446994	2602.415015
558.804197	2603.735797
559.161345	2604.844851
559.518437	2602.271342
559.875474	2603.584562
560.232455	2601.764706
560.589381	2602.785539
560.946251	2605.404419
561.303065	2601.777309
561.659825	2603.869388
562.016528	2599.622215
562.373177	2601.895776
562.729770	2601.903337
563.086307	2600.534664
563.442789	2602.956939
563.799216	2599.972576
564.155587	2601.215220
564.511904	2601.789912
564.868164	2601.000971
565.224370	2602.687237
565.580520	2600.648090
565.936615	2598.911413
566.292654	2601.263111
566.648638	2601.472319
567.004567	2600.418718
567.360441	2601.192535
567.716260	2600.942998
568.072023	2600.706063
568.427732	2597.807400
568.783385	2596.466453
569.138982	2595.364961
569.494525	2597.646083
569.850013	2591.783221
570.205445	2599.448296
570.560823	2600.020467
570.916145	2598.619026
571.271412	2598.152719
571.626625	2598.871083
571.981782	2599.198758
572.336884	2600.965683
572.691931	2600.751434
573.046923	2597.388984
573.401860	2597.522575
573.756743	2598.964345
574.111570	2594.941504
574.466342	2601.101794
574.821059	2598.805548
575.175722	2599.496187
575.530330	2598.442585
575.884882	2598.795466
576.239380	2597.845209
576.593823	2597.646083
576.948211	2595.370002
577.302544	2596.844540
577.656823	2595.281782
578.011047	2597.434355
578.365216	2595.700198
578.719330	2595.826227
579.073389	2596.259766
579.427394	2594.354210
579.781344	2595.301947
580.135239	2597.388984
580.489080	2595.271700
580.842866	2592.312542
581.196597	2594.752461
581.550273	2594.971751
581.903895	2595.380084
582.257463	2594.712132
582.610975	2593.182141
582.964434	2594.881010
583.317837	2592.405804
583.671186	2595.049889
584.024481	2593.807244
584.377721	2592.201637
584.730906	2593.807244
585.084037	2594.079467
585.437113	2591.329517
585.790135	2596.221957
586.143103	2589.751636
586.496016	2590.401945
586.848874	2589.539908
587.201679	2589.797007
587.554428	2587.155442
587.907124	2588.803899
588.259765	2584.297108
588.612352	2591.848756
588.964884	2592.297419
589.317362	2590.928746
589.669786	2591.654672
590.022155	2594.359251
590.374470	2589.847418
590.726731	2591.102665
591.078937	2589.154259
591.431090	2591.160639
591.783188	2590.820361
592.135232	2589.683581
592.487222	2589.895309
592.839157	2591.127871
593.191038	2589.242480
593.542866	2589.373550
593.894639	2587.006728
594.246358	2591.652151
594.598022	2589.779362
594.949633	2587.745257
595.301190	2585.774166
595.652692	2589.045875
596.004141	2589.600402
596.355535	2587.558734
596.706876	2588.531677
597.058162	2586.366501
597.409395	2587.636872
597.760573	2589.071080
598.111698	2585.433888
598.462768	2587.243662
598.813785	2587.606625
599.164748	2586.311049
599.515657	2587.856162
599.866511	2583.515729
600.217312	2587.357088
600.568060	2586.621080
600.918753	2588.014959
601.269392	2588.140987
601.619978	2586.104361
601.970510	2587.790627
602.320988	2583.482961
602.671412	2585.897674
603.021783	2587.735175
603.372100	2590.112079
603.722363	2584.105544
604.072572	2586.167376
604.422728	2584.423137
604.772830	2581.496747
605.122878	2581.945409
605.472872	2582.447004
605.822813	2581.171592
606.172701	2582.416757
606.522534	2582.701582
606.872314	2586.883220
607.222041	2582.676377
607.571714	2588.624938
607.921333	2585.166707
608.270899	2585.244845
608.620411	2586.174938
608.969870	2587.057139
609.319276	2589.118971
609.668627	2588.322469
610.017926	2592.630135
610.367171	2594.999477
610.716362	2593.351020
611.065500	2591.884044
611.414585	2590.858169
611.763616	2589.650813
612.112594	2590.001173
612.461518	2590.555700
612.810389	2590.802717
613.159207	2585.184351
613.507971	2586.487489
613.856682	2587.006728
614.205340	2586.426995
614.553945	2592.010073
614.902496	2584.884402
615.250994	2590.533015
615.599439	2586.023703
615.947830	2584.793661
616.296169	2587.155442
616.644454	2588.178796
616.992686	2587.747777
617.340864	2587.740216
617.688990	2585.005390
618.037063	2588.458580
618.385082	2583.583784
618.733048	2588.728282
619.080961	2587.379773
619.428821	2590.351533
619.776628	2586.971440
620.124382	2589.862542
620.472083	2583.367015
620.819731	2590.434713
621.167326	2584.539083
621.514868	2584.554207
621.862357	2582.615883
622.209793	2586.452201
622.557176	2585.491861
622.904506	2583.074628
623.251783	2581.668146
623.599007	2584.665112
623.946179	2576.760583
624.293297	2579.631520
624.640363	2580.208732
624.987376	2582.825091
625.334336	2580.498598
625.681243	2580.470872
626.028097	2581.350553
626.374899	2580.483475
626.721647	2580.440625
627.068343	2582.242837
627.414987	2580.382652
627.761577	2580.024730
628.108115	2580.296952
628.454600	2581.569843
628.801032	2578.555233
629.147412	2581.542117
629.493739	2579.815522
629.840014	2578.310737
630.186236	2579.820563
630.532405	2576.387537
630.878521	2582.809967
631.224585	2578.182188
631.570597	2578.235120
631.916556	2577.199163
632.262462	2579.588670
632.608316	2578.388875
632.954117	2578.615727
633.299866	2576.836200
633.645562	2580.105388
633.991206	2577.783937
634.336797	2574.522310
634.682336	2576.170768
635.027823	2576.664801
635.373257	2574.963411
635.718639	2571.961404
636.063968	2577.045408
636.409245	2575.880901
636.754470	2573.715726
637.099642	2570.020560
637.444762	2575.628844
637.789829	2572.699933
638.134845	2572.062227
638.479808	2573.340160
638.824719	2574.865109
639.169577	2572.130283
639.514383	2572.914182
639.859137	2569.002247
640.203839	2571.606003
640.548489	2570.761610
640.893086	2569.985272
641.237632	2567.215158
641.582125	2568.336815
641.926566	2566.895045
642.270955	2571.288410
642.615292	2571.351425
642.959576	2570.718760
643.303809	2573.756055
643.647990	2572.311764
643.992118	2569.486198
644.336195	2572.263873
