Dividing Wavelength (nm)	Counts (n)	Blue Motor Position (mm): 0.000000	Red Motor Position (mm): 29.700000	
326.493990	2128.649897
326.888308	2128.649897
327.282561	2128.649897
327.676750	2095.509351
328.070874	2094.012129
328.464933	2095.867273
328.858929	2099.990937
329.252859	2113.670108
329.646726	2124.314504
330.040528	2137.121556
330.434265	2153.187713
330.827938	2171.960970
331.221547	2188.369926
331.615091	2206.724767
332.008571	2227.312839
332.401986	2247.898391
332.795338	2265.262645
333.188625	2286.012035
333.581847	2302.688172
333.975006	2322.575523
334.368100	2341.580673
334.761129	2359.723786
335.154095	2374.229706
335.546996	2393.267624
335.939833	2410.094995
336.332606	2426.700556
336.725315	2435.363779
337.117960	2445.665377
337.510540	2456.372788
337.903056	2467.062554
338.295508	2473.316106
338.687896	2484.147025
339.080220	2491.887717
339.472480	2497.294354
339.864676	2503.900786
340.256807	2506.698627
340.648875	2511.250788
341.040879	2512.039729
341.432818	2513.801612
341.824694	2515.510563
342.216506	2515.220697
342.608253	2516.024761
342.999937	2515.868485
343.391557	2516.518794
343.783113	2516.607014
344.174605	2514.593073
344.566033	2511.155007
344.957397	2512.942096
345.348697	2505.516476
345.739934	2507.858092
346.131106	2506.406240
346.522215	2507.797598
346.913260	2504.404902
347.304241	2500.303923
347.695159	2499.295692
348.086012	2497.561535
348.476802	2495.202275
348.867528	2493.173211
349.258191	2493.644559
349.648789	2491.950731
350.039324	2490.370329
350.429796	2490.017448
350.820203	2489.402428
351.210548	2485.067035
351.600828	2485.051912
351.991045	2486.859166
352.381198	2484.172231
352.771288	2484.593167
353.161314	2483.690800
353.551276	2484.421768
353.941175	2483.320276
354.331010	2484.542755
354.720782	2485.427478
355.110490	2484.651140
355.500135	2483.539566
355.889717	2485.568630
356.279235	2484.212560
356.668689	2486.652478
357.058080	2490.617346
357.447408	2487.166676
357.836672	2486.166007
358.225873	2484.094093
358.615010	2482.712817
359.004084	2488.936121
359.393095	2486.637355
359.782043	2490.440905
360.170927	2492.603560
360.559748	2491.975937
360.948505	2491.880155
361.337199	2493.510968
361.725830	2494.173880
362.114398	2493.513489
362.502903	2497.571617
362.891344	2493.999960
363.279722	2494.869559
363.668037	2497.800990
364.056289	2496.767553
364.444478	2499.499859
364.832603	2498.264776
365.220665	2498.942811
365.608665	2499.658655
365.996601	2499.701505
366.384474	2499.154540
366.772284	2502.953049
367.160031	2503.036228
367.547715	2506.413801
367.935336	2506.519666
368.322893	2514.033505
368.710388	2515.049298
369.097820	2522.053981
369.485189	2523.049609
369.872495	2531.485980
370.259738	2534.606454
370.646918	2544.184647
371.034035	2551.179248
371.421090	2559.275341
371.808081	2571.079202
372.195010	2581.209401
372.581875	2593.219950
372.968678	2605.548092
373.355418	2618.778600
373.742096	2634.302833
374.128710	2650.333702
374.515262	2666.851043
374.901751	2680.573064
375.288177	2695.598223
375.674540	2716.564382
376.060841	2733.575755
376.447079	2752.694331
376.833254	2774.749379
377.219367	2786.079373
377.605417	2821.415341
377.991404	2831.769871
378.377329	2854.908767
378.763191	2871.128679
379.148991	2911.278949
379.534727	2933.243256
379.920402	2963.565797
380.306013	2974.875625
380.691563	3025.811444
381.077049	3044.340205
381.462474	3066.591858
381.847835	3104.178701
382.233134	3126.475724
382.618371	3125.797689
383.003545	3192.592978
383.388657	3198.977599
383.773706	3233.693505
384.158693	3248.713623
384.543618	3274.461316
384.928480	3310.656801
385.313280	3358.567927
385.698017	3355.996938
386.082692	3408.656832
386.467305	3414.766710
386.851856	3446.518418
387.236344	3467.282930
387.620770	3501.419103
388.005133	3527.668392
388.389435	3555.261147
388.773674	3560.498906
389.157851	3601.155812
389.541965	3622.558030
389.926018	3587.801795
390.310008	3657.858710
390.693936	3677.486443
391.077802	3716.729305
391.461606	3706.727656
391.845348	3770.899023
392.229027	3768.685957
392.612645	3781.876136
392.996200	3859.741798
393.379694	3899.221595
393.763125	3966.110144
394.146494	3930.083538
394.529801	3991.262982
394.913047	4037.318963
395.296230	4005.738655
395.679351	4061.196388
396.062410	4081.958380
396.445408	4066.892892
396.828343	4097.959003
397.211217	4125.844145
397.594028	4041.394736
397.976778	4108.038790
398.359466	4137.698418
398.742092	4162.889064
399.124656	4087.054987
399.507158	4163.912418
399.889598	4190.141542
400.271977	4252.424998
400.654294	4224.534814
401.036549	4234.392790
401.418742	4205.842216
401.800874	4302.816372
402.182944	4325.279753
402.564952	4392.359867
402.946898	4378.625243
403.328783	4373.233729
403.710606	4288.804484
404.092367	4480.010409
404.474067	4439.587917
404.855705	4454.398827
405.237282	4380.417373
405.618797	4486.720184
406.000250	4524.475906
406.381642	4601.436681
406.762972	4567.020724
407.144240	4578.615378
407.525447	4578.449020
407.906593	4634.690653
408.287677	4680.439124
408.668700	4606.974389
409.049661	4657.695958
409.430560	4699.439233
409.811399	4629.979694
410.192176	4788.075320
410.572891	4726.989138
410.953545	4830.252134
411.334138	4711.714442
411.714669	4777.090646
412.095139	4674.142723
412.475547	4814.375020
412.855894	4797.305673
413.236180	4806.893947
413.616405	4759.302935
413.996568	4849.955484
414.376670	4791.087410
414.756711	4744.159308
415.136691	4774.617960
415.516609	4852.178632
415.896466	4890.362852
416.276262	4923.868881
416.655997	4903.704266
417.035670	5085.427780
417.415283	5182.908572
417.794834	5121.610662
418.174324	5075.723559
418.553753	4979.989527
418.933121	5167.636396
419.312428	5232.382456
419.691674	5174.479763
420.070859	5299.676818
420.449983	5211.474270
420.829045	5329.182692
421.208047	5231.386828
421.586988	5304.793589
421.965867	5318.505528
422.344686	5447.238953
422.723444	5302.560358
423.102141	5122.376917
423.480777	5421.012350
423.859352	5184.415877
424.237866	5447.274241
424.616319	5435.576244
424.994712	5550.098656
425.373044	5428.090130
425.751314	5567.077262
426.129524	5370.394124
426.507673	5563.780348
426.885762	5650.314274
427.263789	5579.584365
427.641756	5459.988031
428.019662	5582.188121
428.397508	5591.736066
428.775292	5536.434609
429.153016	5636.287263
429.530679	5556.200973
429.908282	5648.212113
430.285824	5516.776629
430.663305	5794.927334
431.040726	5524.610582
431.418086	5528.373804
431.795385	5632.912211
432.172624	5643.904447
432.549802	5638.293643
432.926920	5653.084388
433.303977	5658.274256
433.680974	5696.980235
434.057910	5713.938677
434.434786	5721.954111
434.811601	5690.653587
435.188355	5923.973311
435.565050	5802.189116
435.941683	5785.959121
436.318257	5996.674311
436.694770	5981.896168
437.071222	6007.772411
437.447614	5944.692453
437.823946	5859.081058
438.200218	6009.110837
438.576429	5872.848449
438.952580	5973.230425
439.328670	6018.767167
439.704700	5923.897693
440.080670	5913.275982
440.456580	6181.876221
440.832429	6068.301545
441.208218	5911.763636
441.583947	6065.165948
441.959616	6072.268933
442.335224	6000.997100
442.710773	6135.346371
443.086261	6162.135062
443.461689	5957.862467
443.837057	6102.846052
444.212365	6259.099136
444.587612	6151.929246
444.962800	6309.084697
445.337927	6281.547394
445.712995	5898.066821
446.088002	6474.391693
446.462949	6303.814171
446.837837	6241.934007
447.212664	6409.512043
447.587431	6552.574948
447.962139	7089.145281
448.336786	8017.168772
448.711374	7753.372753
449.085901	6833.929306
449.460369	6755.075578
449.834776	6687.108221
450.209124	7079.418375
450.583412	7232.109884
450.957640	7375.029116
451.331808	7139.340050
451.705917	6693.177770
452.079965	6614.437468
452.453954	6827.534603
452.827883	6697.528286
453.201752	6798.258102
453.575562	6593.395692
453.949311	6798.348842
454.323001	6684.602768
454.696632	6761.175374
455.070202	6899.615541
455.443713	7054.943573
455.817164	7154.738255
456.190556	7231.948567
456.563888	7307.366749
456.937160	7349.518357
457.310373	7008.265009
457.683526	7031.587907
458.056619	6924.201248
458.429653	6910.277581
458.802628	6840.392065
459.175542	6944.607839
459.548398	7297.299565
459.921194	7460.985830
460.293930	7453.348482
460.666607	7981.734502
461.039224	8284.657437
461.411782	8409.607476
461.784280	8422.222963
462.156719	8312.134246
462.529099	8176.880088
462.901419	7776.584746
463.273680	7660.718866
463.645882	7668.731780
464.018024	7535.300000
464.390106	7692.810852
464.762130	8071.217503
465.134094	8519.267695
465.505999	9505.914764
465.877845	10685.746411
466.249631	11318.817031
466.621358	10944.529002
466.993026	10312.350666
467.364634	10058.014372
467.736184	9689.271612
468.107674	9350.899284
468.479105	9367.025935
468.850477	9130.595819
469.221790	8895.572186
469.593043	8566.652021
469.964238	8410.698886
470.335373	8414.711644
470.706449	8451.617931
471.077467	8422.742202
471.448425	9638.073654
471.819324	10628.254572
472.190164	10635.130705
472.560945	9441.793808
472.931667	8670.305706
473.302330	8529.037452
473.672934	8167.256525
474.043479	8479.235893
474.413965	8399.046258
474.784393	8264.891072
475.154761	8383.285091
475.525070	8432.499355
475.895321	8245.739729
476.265513	8383.930359
476.635645	8503.748503
477.005719	8462.695867
477.375734	8531.558028
477.745691	8705.019091
478.115588	8780.545658
478.485427	8953.966392
478.855207	9368.964258
479.224928	9989.747067
479.594591	10482.005657
479.964194	10267.708728
480.333739	10186.611686
480.703226	10048.695799
481.072653	10063.443695
481.442022	10176.274800
481.811333	10270.158729
482.180584	10057.384228
482.549777	9749.526003
482.918912	9549.152741
483.287988	9491.209719
483.657005	9436.903889
484.025964	9123.525601
484.394864	9154.115323
484.763706	9061.658041
485.132489	8824.892688
485.501213	8725.579437
485.869879	8716.923776
486.238487	8516.646295
486.607036	8538.948360
486.975527	8295.228736
487.343959	8360.385650
487.712333	8312.343453
488.080648	8196.122172
488.448905	8136.530692
488.817104	8029.506996
489.185244	8119.315152
489.553326	8134.226885
489.921350	8378.362404
490.289315	8914.564733
490.657222	9038.894710
491.025070	8880.305052
491.392861	8724.934169
491.760593	8418.207684
492.128267	8128.792521
492.495883	7851.292126
492.863440	7568.806029
493.230939	7290.809079
493.598380	7171.905904
493.965763	7007.521439
494.333088	6890.612040
494.700354	6753.293530
495.067563	6723.006278
495.434713	6541.335696
495.801805	6530.305651
496.168839	6418.858342
496.535815	6298.218490
496.902733	6235.985446
497.269593	6113.729903
497.636395	6086.447178
498.003139	5989.165512
498.369825	5867.270412
498.736453	5852.434296
499.103023	5755.510552
499.469535	5684.135375
499.835989	5609.513695
500.202385	5520.181929
500.568723	5400.648609
500.935003	5416.349283
501.301226	5257.003451
501.667390	5285.095281
502.033497	5248.262090
502.399546	5138.095235
502.765537	5038.860121
503.131470	4986.041432
503.497345	4964.866065
503.863163	4801.187361
504.228923	4815.547088
504.594625	4774.554946
504.960269	4645.692971
505.325856	4635.172083
505.691385	4523.263509
506.056856	4502.435982
506.422270	4446.577476
506.787625	4374.453688
507.152924	4329.461390
507.518164	4277.398874
507.883347	4199.056823
508.248472	4135.356803
508.613540	4127.175010
508.978550	4051.552661
509.343503	3999.984178
509.708398	3965.401862
510.073236	3939.434879
510.438016	3890.195409
510.802738	3834.079805
511.167403	3797.304587
511.532010	3738.307964
511.896561	3733.808734
512.261053	3699.443188
512.625488	3634.664361
512.989866	3589.911518
513.354186	3552.024726
513.718449	3497.300481
514.082655	3489.206908
514.446803	3442.785443
514.810894	3418.628234
515.174927	3370.386912
515.538904	3343.210052
515.902822	3324.530056
516.266684	3282.703603
516.630488	3248.552306
516.994235	3227.518092
517.357925	3200.086653
517.721558	3183.657532
518.085133	3155.336330
518.448651	3134.576859
518.812112	3098.570417
519.175516	3075.824731
519.538863	3058.702452
519.902152	3038.048845
520.265385	3019.814991
520.628560	2998.732886
520.991678	2974.268166
521.354739	2961.864407
521.717743	2937.911365
522.080690	2922.258582
522.443580	2907.130079
522.806413	2892.548542
523.169189	2881.034547
523.531908	2868.388812
523.894569	2845.166737
524.257174	2838.162054
524.619722	2823.353664
524.982213	2816.795123
525.344647	2803.892290
525.707025	2793.005918
526.069345	2787.437964
526.431608	2773.239554
526.793815	2764.888882
527.155964	2755.754312
527.518057	2747.892632
527.880093	2739.879718
528.242072	2732.902761
528.603995	2723.760629
528.965860	2716.924824
529.327669	2713.146479
529.689421	2705.007537
530.051117	2700.243646
530.412755	2695.588141
530.774337	2690.920032
531.135862	2686.816533
531.497331	2680.094154
531.858743	2672.431600
532.220098	2673.079389
532.581396	2665.366423
532.942638	2665.142092
533.303824	2664.411125
533.664953	2662.561021
534.026025	2658.792759
534.387040	2656.136071
534.747999	2655.929383
535.108902	2656.491472
535.469748	2647.573671
535.830537	2648.511325
536.191270	2646.746922
536.551947	2645.063176
536.912567	2641.249543
537.273131	2640.405150
537.633638	2639.144862
537.994089	2638.257618
538.354483	2634.103708
538.714821	2634.983389
539.075103	2637.251908
539.435328	2632.039355
539.795497	2632.336783
540.155609	2630.600106
540.515665	2633.541619
540.875665	2630.151443
541.235609	2628.359313
541.595496	2630.824437
541.955328	2625.551390
542.315102	2629.034827
542.674821	2627.582975
543.034483	2627.905609
543.394090	2625.495937
543.753640	2621.624331
544.113134	2625.437964
544.472571	2621.374794
544.831953	2621.589043
545.191278	2621.435288
545.550548	2621.954527
545.909761	2619.723816
546.268918	2618.939917
546.628019	2621.110134
546.987064	2617.934207
547.346053	2616.552931
547.704986	2615.154010
548.063863	2618.282046
548.422684	2616.011007
548.781449	2616.426902
549.140158	2617.853548
549.498811	2614.624689
549.857408	2612.867847
550.215949	2613.379524
550.574434	2610.017075
550.932864	2610.707713
551.291237	2609.013885
551.649555	2612.527569
552.007817	2615.353136
552.366022	2614.420522
552.724173	2613.193002
553.082267	2612.900615
553.440305	2613.944133
553.798288	2611.927672
554.156215	2610.647219
554.514086	2613.593773
554.871902	2610.511108
555.229661	2610.624534
555.587365	2609.691920
555.945014	2608.807198
556.302606	2612.121756
556.660143	2610.543875
557.017625	2610.319544
557.375050	2609.326437
557.732421	2610.430449
558.089735	2609.989348
558.446994	2610.929523
558.804197	2610.024636
559.161345	2612.305758
559.518437	2609.845675
559.875474	2608.940788
560.232455	2609.439862
560.589381	2610.813577
560.946251	2610.584204
561.303065	2608.724019
561.659825	2609.583535
562.016528	2611.156375
562.373177	2608.895418
562.729770	2611.473968
563.086307	2606.883997
563.442789	2608.590428
563.799216	2605.737135
564.155587	2607.012547
564.511904	2609.951540
564.868164	2608.550099
565.224370	2608.582866
565.580520	2606.924327
565.936615	2607.660335
566.292654	2608.595469
566.648638	2607.811570
567.004567	2607.156220
567.360441	2606.226127
567.716260	2605.172526
568.072023	2605.144799
568.427732	2603.715632
568.783385	2601.331167
569.138982	2602.253698
569.494525	2605.953905
569.850013	2597.895620
570.205445	2605.338884
570.560823	2607.123452
570.916145	2606.949532
571.271412	2603.244284
571.626625	2606.256374
571.981782	2604.111363
572.336884	2603.594645
572.691931	2605.409460
573.046923	2600.365786
573.401860	2605.185129
573.756743	2602.987186
574.111570	2601.580704
574.466342	2604.784357
574.821059	2603.483739
575.175722	2602.954418
575.530330	2598.067019
575.884882	2602.031887
576.239380	2603.403081
576.593823	2601.603389
576.948211	2603.440889
577.302544	2601.709253
577.656823	2601.212699
578.011047	2602.783019
578.365216	2602.662031
578.719330	2600.988368
579.073389	2597.825044
579.427394	2596.894951
579.781344	2598.669437
580.135239	2599.372678
580.489080	2600.544747
580.842866	2603.206476
581.196597	2598.656834
581.550273	2599.781012
581.903895	2599.627257
582.257463	2601.121959
582.610975	2598.994592
582.964434	2599.080291
583.317837	2599.654983
583.671186	2598.866042
584.024481	2597.661207
584.377721	2596.912595
584.730906	2598.026690
585.084037	2596.400918
585.437113	2597.567945
585.790135	2595.919488
586.143103	2598.089705
586.496016	2594.785228
586.848874	2593.469487
587.201679	2596.113572
587.554428	2593.330855
587.907124	2594.702049
588.259765	2591.521081
588.612352	2594.893613
588.964884	2594.621391
589.317362	2597.073912
589.669786	2592.272213
590.022155	2595.559045
590.374470	2595.165835
590.726731	2596.499221
591.078937	2595.745568
591.431090	2593.141812
591.783188	2592.783890
592.135232	2593.804724
592.487222	2596.070722
592.839157	2593.608119
593.191038	2593.461925
593.542866	2592.181472
593.894639	2592.362954
594.246358	2592.549477
594.598022	2588.914805
594.949633	2591.279106
595.301190	2592.511668
595.652692	2590.747264
596.004141	2592.529312
596.355535	2591.395052
596.706876	2591.541246
597.058162	2589.436564
597.409395	2588.839187
597.760573	2592.105855
598.111698	2593.494693
598.462768	2590.454877
598.813785	2592.887234
599.164748	2590.510330
599.515657	2591.667275
599.866511	2591.022007
600.217312	2592.206678
600.568060	2590.596029
600.918753	2591.465628
601.269392	2590.041502
601.619978	2590.089393
601.970510	2591.168200
602.320988	2590.144846
602.671412	2590.321287
603.021783	2589.270206
603.372100	2591.639548
603.722363	2589.171903
604.072572	2589.784404
604.422728	2591.347161
604.772830	2585.373394
605.122878	2584.004721
605.472872	2585.416244
605.822813	2584.196285
606.172701	2584.743250
606.522534	2591.238777
606.872314	2589.192068
607.222041	2587.001687
607.571714	2589.716348
607.921333	2590.565782
608.270899	2588.917325
608.620411	2590.976637
608.969870	2590.273396
609.319276	2591.095104
609.668627	2593.184662
610.017926	2595.133068
610.367171	2595.866556
610.716362	2596.529467
611.065500	2592.007553
611.414585	2593.961000
611.763616	2593.567790
612.112594	2593.104003
612.461518	2593.439240
612.810389	2591.679877
613.159207	2593.358582
613.507971	2589.335741
613.856682	2592.380598
614.205340	2591.284147
614.553945	2590.714497
614.902496	2588.057808
615.250994	2589.736513
615.599439	2591.871441
615.947830	2590.623756
616.296169	2590.749785
616.644454	2590.628797
616.992686	2588.763570
617.340864	2592.252048
617.688990	2589.625607
618.037063	2590.530494
618.385082	2591.427820
618.733048	2592.171390
619.080961	2592.635176
619.428821	2588.670309
619.776628	2590.222984
620.124382	2589.204671
620.472083	2588.670309
620.819731	2589.461770
621.167326	2587.573858
621.514868	2591.112748
621.862357	2587.112592
622.209793	2589.068560
622.557176	2589.819692
622.904506	2582.089082
623.251783	2582.620924
623.599007	2584.130750
623.946179	2582.225193
624.293297	2585.459094
624.640363	2584.569330
624.987376	2588.148549
625.334336	2585.491861
625.681243	2584.460945
626.028097	2587.006728
626.374899	2583.062025
626.721647	2582.837694
627.068343	2585.194433
627.414987	2583.205698
627.761577	2583.029258
628.108115	2584.977663
628.454600	2583.626634
628.801032	2583.437591
629.147412	2583.014134
629.493739	2583.188054
629.840014	2582.368866
630.186236	2584.924731
630.532405	2582.716706
630.878521	2583.026737
631.224585	2583.639237
631.570597	2579.286201
631.916556	2581.952971
632.262462	2582.326017
632.608316	2579.664287
632.954117	2579.248392
633.299866	2582.414237
633.645562	2578.048597
633.991206	2578.721592
634.336797	2578.051118
634.682336	2580.256623
635.027823	2577.403330
635.373257	2576.473237
635.718639	2575.762434
636.063968	2578.416602
636.409245	2577.617579
636.754470	2576.042218
637.099642	2577.778896
637.444762	2578.101530
637.789829	2575.162537
638.134845	2576.485840
638.479808	2575.951478
638.824719	2573.695561
639.169577	2573.687999
639.514383	2574.088771
639.859137	2575.008782
640.203839	2573.766137
640.548489	2573.239337
640.893086	2574.524831
641.237632	2570.164233
641.582125	2568.475446
641.926566	2572.347052
642.270955	2572.112639
642.615292	2576.420305
642.959576	2574.149265
643.303809	2573.864440
643.647990	2574.466858
643.992118	2572.657083
644.336195	2571.207752
