Dividing Wavelength (nm)	Counts (n)	Blue Motor Position (mm): 0.000000	Red Motor Position (mm): 32.500000	
326.493990	2127.132509
326.888308	2127.132509
327.282561	2127.132509
327.676750	2093.969279
328.070874	2091.690677
328.464933	2096.177304
328.858929	2102.859354
329.252859	2113.276898
329.646726	2123.870883
330.040528	2139.672380
330.434265	2154.606798
330.827938	2170.902328
331.221547	2189.257169
331.615091	2208.713502
332.008571	2226.927191
332.401986	2248.483165
332.795338	2266.616195
333.188625	2285.044133
333.581847	2304.578604
333.975006	2323.387149
334.368100	2339.692761
334.761129	2360.205216
335.154095	2376.087372
335.546996	2396.047820
335.939833	2411.884605
336.332606	2426.758529
336.725315	2438.973245
337.117960	2449.705862
337.510540	2457.479321
337.903056	2471.375262
338.295508	2475.118318
338.687896	2484.933445
339.080220	2495.661020
339.472480	2497.324601
339.864676	2505.433297
340.256807	2510.353463
340.648875	2512.049811
341.040879	2517.716068
341.432818	2515.606345
341.824694	2517.272447
342.216506	2520.403003
342.608253	2515.553413
342.999937	2517.721109
343.391557	2518.704134
343.783113	2518.701614
344.174605	2516.498630
344.566033	2514.378824
344.957397	2513.431088
345.348697	2512.884122
345.739934	2508.223576
346.131106	2510.368587
346.522215	2502.592607
346.913260	2505.372803
347.304241	2503.195025
347.695159	2500.813079
348.086012	2498.128665
348.476802	2497.566576
348.867528	2496.447440
349.258191	2493.657162
349.648789	2495.439209
350.039324	2491.696153
350.429796	2494.408293
350.820203	2492.714466
351.210548	2489.712459
351.600828	2486.050060
351.991045	2488.484938
352.381198	2485.044350
352.771288	2485.719865
353.161314	2485.520739
353.551276	2489.047026
353.941175	2483.791623
354.331010	2487.436378
354.720782	2487.645586
355.110490	2487.207005
355.500135	2487.539721
355.889717	2487.396048
356.279235	2485.440081
356.668689	2488.006028
357.058080	2486.072746
357.447408	2484.018475
357.836672	2482.218783
358.225873	2487.058291
358.615010	2487.832108
359.004084	2491.867552
359.393095	2490.166162
359.782043	2493.634476
360.170927	2490.178765
360.559748	2493.011894
360.948505	2494.594816
361.337199	2492.243118
361.725830	2492.916112
362.114398	2496.172697
362.502903	2495.141781
362.891344	2496.036586
363.279722	2495.567759
363.668037	2497.521206
364.056289	2499.371309
364.444478	2498.116062
364.832603	2498.065651
365.220665	2500.016577
365.608665	2499.189828
365.996601	2498.365599
366.384474	2502.312823
366.772284	2503.736949
367.160031	2506.252484
367.547715	2506.522186
367.935336	2509.493946
368.322893	2511.205418
368.710388	2514.245234
369.097820	2524.637572
369.485189	2522.066584
369.872495	2530.606299
370.259738	2538.437731
370.646918	2547.032898
371.034035	2550.481048
371.421090	2565.105435
371.808081	2575.102043
372.195010	2581.710996
372.581875	2597.063830
372.968678	2608.698813
373.355418	2618.279526
373.742096	2635.535395
374.128710	2651.581388
374.515262	2668.002947
374.901751	2680.999041
375.288177	2693.589323
375.674540	2717.885164
376.060841	2736.993658
376.447079	2756.200454
376.833254	2778.187446
377.219367	2788.610032
377.605417	2823.908191
377.991404	2834.371106
378.377329	2858.583768
378.763191	2873.036756
379.148991	2911.294073
379.534727	2937.008998
379.920402	2967.071919
380.306013	2979.548775
380.691563	3028.105169
381.077049	3051.609549
381.462474	3067.912640
381.847835	3108.829165
382.233134	3128.204840
382.618371	3127.650313
383.003545	3199.930377
383.388657	3204.185111
383.773706	3240.378075
384.158693	3251.292173
384.543618	3278.048097
384.928480	3314.644353
385.313280	3361.471632
385.698017	3362.000953
386.082692	3413.329981
386.467305	3415.124632
386.851856	3450.475723
387.236344	3475.358859
387.620770	3504.589989
388.005133	3531.620656
388.389435	3554.595715
388.773674	3565.363619
389.157851	3613.536886
389.541965	3626.396869
389.926018	3589.283894
390.310008	3664.258455
390.693936	3681.650436
391.077802	3721.299111
391.461606	3713.129921
391.845348	3770.193262
392.229027	3772.560084
392.612645	3785.541055
392.996200	3867.593395
393.379694	3903.677975
393.763125	3972.005774
394.146494	3937.138633
394.529801	3997.861852
394.913047	4045.692320
395.296230	4015.397506
395.679351	4067.916246
396.062410	4091.647478
396.445408	4068.889189
396.828343	4103.025362
397.211217	4131.742295
397.594028	4046.037639
397.976778	4118.284935
398.359466	4142.704284
398.742092	4170.614633
399.124656	4094.856173
399.507158	4176.739634
399.889598	4198.219991
400.271977	4263.202985
400.654294	4229.878437
401.036549	4241.899068
401.418742	4208.158626
401.800874	4316.863547
402.182944	4336.705528
402.564952	4396.609559
402.946898	4382.859812
403.328783	4381.231520
403.710606	4295.904950
404.092367	4491.584898
404.474067	4451.621151
404.855705	4457.610042
405.237282	4389.315010
405.618797	4497.382225
406.000250	4527.878685
406.381642	4611.309781
406.762972	4576.422476
407.144240	4584.979835
407.525447	4585.804063
407.906593	4639.915809
408.287677	4685.394578
408.668700	4617.921254
409.049661	4667.286753
409.430560	4708.858629
409.811399	4634.967916
410.192176	4798.301301
410.572891	4740.184359
410.953545	4841.098176
411.334138	4717.791553
411.714669	4786.517604
412.095139	4680.900389
412.475547	4824.699303
412.855894	4802.475376
413.236180	4813.021470
413.616405	4769.481024
413.996568	4855.525959
414.376670	4797.403975
414.756711	4751.758848
415.136691	4781.257160
415.516609	4859.667267
415.896466	4894.373090
416.276262	4932.239717
416.655997	4911.248353
417.035670	5092.245940
417.415283	5187.254046
417.794834	5130.530983
418.174324	5082.403088
418.553753	4992.047967
418.933121	5176.342469
419.312428	5242.066512
419.691674	5179.657028
420.070859	5308.955062
420.449983	5220.805446
420.829045	5334.438095
421.208047	5242.399228
421.586988	5314.649045
421.965867	5320.900076
422.344686	5455.327484
422.723444	5308.561852
423.102141	5134.846211
423.480777	5429.693217
423.859352	5195.755952
424.237866	5457.971570
424.616319	5449.532678
424.994712	5557.005037
425.373044	5433.453918
425.751314	5575.932049
426.129524	5378.933839
426.507673	5575.291822
426.885762	5655.723432
427.263789	5588.333287
427.641756	5470.735771
428.019662	5591.070634
428.397508	5601.457932
428.775292	5546.118665
429.153016	5644.990816
429.530679	5571.425257
429.908282	5656.308206
430.285824	5527.042939
430.663305	5806.577440
431.040726	5537.039547
431.418086	5533.785482
431.795385	5642.497965
432.172624	5653.593545
432.549802	5649.800076
432.926920	5658.526314
433.303977	5668.051574
433.680974	5710.702256
434.057910	5725.704730
434.434786	5732.046501
434.811601	5700.430905
435.188355	5936.921514
435.565050	5806.758922
435.941683	5792.444566
436.318257	5998.978118
436.694770	5984.240305
437.071222	6024.564494
437.447614	5950.618329
437.823946	5865.284198
438.200218	6018.411766
438.576429	5891.016767
438.952580	5984.971272
439.328670	6028.670514
439.704700	5936.087203
440.080670	5921.334267
440.456580	6192.374424
440.832429	6074.466876
441.208218	5922.864257
441.583947	6079.253452
441.959616	6080.664975
442.335224	6009.947669
442.710773	6146.903216
443.086261	6173.717113
443.461689	5965.658612
443.837057	6117.472960
444.212365	6273.168996
444.587612	6166.162944
444.962800	6319.471994
445.337927	6297.676566
445.712995	5903.050002
446.088002	6484.078270
446.462949	6317.853784
446.837837	6252.084370
447.212664	6417.782056
447.587431	6560.250105
447.962139	7107.132118
448.336786	8029.219651
448.711374	7771.888911
449.085901	6846.305339
449.460369	6765.215859
449.834776	6704.001128
450.209124	7093.737772
450.583412	7243.510453
450.957640	7387.919346
451.331808	7150.939745
451.705917	6708.220573
452.079965	6628.729139
452.453954	6835.643298
452.827883	6719.462346
453.201752	6807.301932
453.575562	6611.274144
453.949311	6816.930535
454.323001	6703.073555
454.696632	6780.112468
455.070202	6917.128509
455.443713	7075.264464
455.817164	7170.978332
456.190556	7255.699963
456.563888	7323.453071
456.937160	7374.444342
457.310373	7032.276025
457.683526	7050.063736
458.056619	6943.886954
458.429653	6929.053359
458.802628	6867.745366
459.175542	6974.128836
459.548398	7331.884401
459.921194	7489.627146
460.293930	7493.884400
460.666607	8026.189917
461.039224	8330.234508
461.411782	8455.688663
461.784280	8479.122467
462.156719	8367.753296
462.529099	8245.187723
462.901419	7838.359045
463.273680	7723.970223
463.645882	7733.455154
464.018024	7607.837162
464.390106	7770.966380
464.762130	8156.730596
465.134094	8634.034604
465.505999	9647.795519
465.877845	10871.386901
466.249631	11523.006447
466.621358	11135.903805
466.993026	10512.706284
467.364634	10255.748590
467.736184	9884.455007
468.107674	9561.269154
468.479105	9590.671684
468.850477	9351.877267
469.221790	9126.419223
469.593043	8800.985016
469.964238	8651.154362
470.335373	8672.702774
470.706449	8728.281496
471.077467	8707.385913
471.448425	10019.628506
471.819324	11089.000910
472.190164	11116.208017
472.560945	9865.903561
472.931667	9075.498528
473.302330	8945.109084
473.672934	8586.302439
474.043479	8942.795195
474.413965	8884.063232
474.784393	8765.906147
475.154761	8924.261392
475.525070	9002.963886
475.895321	8831.504162
476.265513	9013.497377
476.635645	9175.920834
477.005719	9175.419239
477.375734	9284.484602
477.745691	9521.408751
478.115588	9653.161827
478.485427	9901.630218
478.855207	10433.918091
479.224928	11237.566234
479.594591	11867.370187
479.964194	11677.603512
480.333739	11619.489091
480.703226	11533.907942
481.072653	11620.761982
481.442022	11843.621311
481.811333	12034.524766
482.180584	11840.591578
482.549777	11546.578883
482.918912	11366.231604
483.287988	11384.062165
483.657005	11394.943495
484.025964	11068.581716
484.394864	11192.089985
484.763706	11159.017495
485.132489	10910.934753
485.501213	10873.390760
485.869879	10949.081164
486.238487	10773.885944
486.607036	10878.560463
486.975527	10652.815073
487.343959	10836.308032
487.712333	10867.570748
488.080648	10787.527307
488.448905	10819.405043
488.817104	10750.527758
489.185244	11002.517395
489.553326	11143.987295
489.921350	11647.424645
490.289315	12655.388233
490.657222	12982.828819
491.025070	12871.716747
491.392861	12729.344480
491.760593	12353.904547
492.128267	12006.924449
492.495883	11677.313646
492.863440	11341.426606
493.230939	10994.756538
493.598380	10911.701008
493.965763	10761.882957
494.333088	10654.090485
494.700354	10551.838241
495.067563	10586.193704
495.434713	10408.074616
495.801805	10506.747640
496.168839	10414.154247
496.535815	10316.197066
496.902733	10305.401435
497.269593	10207.580365
497.636395	10285.866964
498.003139	10237.418955
498.369825	10089.493857
498.736453	10196.283140
499.103023	10107.465571
499.469535	10106.790056
499.835989	10066.896885
500.202385	10005.089818
500.568723	9827.379063
500.935003	10000.845167
501.301226	9765.027552
501.667390	9974.353903
502.033497	10020.409885
502.399546	9862.377273
502.765537	9741.298840
503.131470	9768.818499
503.497345	9875.234736
503.863163	9502.643056
504.228923	9729.235359
504.594625	9742.360003
504.960269	9487.832146
505.325856	9618.125808
505.691385	9402.440041
506.056856	9481.792843
506.422270	9447.260939
506.787625	9319.064397
507.152924	9362.317497
507.518164	9304.810535
507.883347	9177.244137
508.248472	9064.256755
508.613540	9196.350110
508.978550	9043.585504
509.343503	8972.490111
509.708398	9010.139969
510.073236	9035.769195
510.438016	8983.270619
510.802738	8889.658912
511.167403	8868.959935
511.532010	8719.272954
511.896561	8848.669291
512.261053	8832.046086
512.625488	8667.649018
512.989866	8588.659178
513.354186	8522.068056
513.718449	8383.338023
514.082655	8461.521278
514.446803	8324.976585
514.810894	8341.783792
515.174927	8178.591560
515.538904	8146.174420
515.902822	8169.358686
516.266684	8030.495062
516.630488	7919.113289
516.994235	7905.766834
517.357925	7862.725462
517.721558	7853.416972
518.085133	7786.049512
518.448651	7737.150320
518.812112	7593.492559
519.175516	7524.821961
519.538863	7527.695419
519.902152	7419.529902
520.265385	7425.324708
520.628560	7315.825805
520.991678	7218.763429
521.354739	7192.206631
521.717743	7095.358503
522.080690	7015.471338
522.443580	7002.220666
522.806413	6913.171203
523.169189	6857.320260
523.531908	6815.057747
523.894569	6667.115005
524.257174	6593.851916
524.619722	6580.850780
524.982213	6497.931361
525.344647	6442.413134
525.707025	6367.088213
526.069345	6334.688717
526.431608	6225.845165
526.793815	6205.662905
527.155964	6056.709412
527.518057	6016.561663
527.880093	5928.601090
528.242072	5897.928189
528.603995	5790.733094
528.965860	5701.960895
529.327669	5660.142003
529.689421	5583.140899
530.051117	5508.844374
530.412755	5479.209951
530.774337	5392.668463
531.135862	5318.800435
531.497331	5280.709477
531.858743	5164.881406
532.220098	5168.017003
532.581396	5075.443775
532.942638	5015.244836
533.303824	4953.324343
533.664953	4895.220004
534.026025	4821.077234
534.387040	4795.004386
534.747999	4747.146192
535.108902	4708.341910
535.469748	4599.649592
535.830537	4576.752672
536.191270	4521.688148
536.551947	4480.396057
536.912567	4429.208181
537.273131	4373.987382
537.633638	4323.457376
537.994089	4276.708236
538.354483	4223.866861
538.714821	4214.830593
539.075103	4172.217719
539.435328	4120.492960
539.795497	4054.113567
540.155609	4036.061195
540.515665	4015.515973
540.875665	3933.435906
541.235609	3901.585896
541.595496	3871.447357
541.955328	3846.927185
542.315102	3801.677788
542.674821	3760.680605
543.034483	3727.136767
543.394090	3692.156200
543.753640	3649.379489
544.113134	3641.976555
544.472571	3592.366560
544.831953	3578.493305
545.191278	3530.325080
545.550548	3504.083353
545.909761	3487.404696
546.268918	3458.100468
546.628019	3436.731017
546.987064	3394.629821
547.346053	3365.917929
547.704986	3346.171730
548.063863	3319.614931
548.422684	3298.800007
548.781449	3265.893875
549.140158	3250.523397
549.498811	3219.076679
549.857408	3190.972247
550.215949	3178.712161
550.574434	3148.641678
550.932864	3141.266470
551.291237	3123.819036
551.649555	3102.686519
552.007817	3087.258068
552.366022	3070.662590
552.724173	3051.317162
553.082267	3032.576672
553.440305	3022.965713
553.798288	3001.734893
554.156215	2990.452791
554.514086	2974.449648
554.871902	2954.406020
555.229661	2944.008640
555.587365	2929.661517
555.945014	2914.873292
556.302606	2902.015829
556.660143	2889.601988
557.017625	2881.677294
557.375050	2869.044162
557.732421	2861.595857
558.089735	2849.935668
558.446994	2839.560974
558.804197	2829.277020
559.161345	2819.340906
559.518437	2811.456541
559.875474	2802.536219
560.232455	2795.634880
560.589381	2784.572068
560.946251	2780.539145
561.303065	2773.615120
561.659825	2764.667072
562.016528	2755.671133
562.373177	2747.958167
562.729770	2745.586304
563.086307	2738.228740
563.442789	2736.865108
563.799216	2728.388408
564.155587	2724.340362
564.511904	2719.442881
564.868164	2714.580688
565.224370	2713.595142
565.580520	2703.361600
565.936615	2699.747092
566.292654	2694.957996
566.648638	2694.043027
567.004567	2688.845597
567.360441	2686.491378
567.716260	2681.462827
568.072023	2680.278156
568.427732	2671.105777
568.783385	2672.852537
569.138982	2668.040755
569.494525	2666.712411
569.850013	2663.740651
570.205445	2666.011691
570.560823	2663.004643
570.916145	2658.714621
571.271412	2658.621359
571.626625	2657.981133
571.981782	2654.958961
572.336884	2651.904022
572.691931	2652.997952
573.046923	2650.016110
573.401860	2649.282622
573.756743	2646.865389
574.111570	2647.296407
574.466342	2643.870943
574.821059	2643.381951
575.175722	2640.498411
575.530330	2637.171250
575.884882	2637.272073
576.239380	2635.822741
576.593823	2634.829634
576.948211	2633.627319
577.302544	2629.952317
577.656823	2629.906947
578.011047	2628.893675
578.365216	2629.307050
578.719330	2628.936525
579.073389	2625.256483
579.427394	2624.260855
579.781344	2626.693212
580.135239	2626.972996
580.489080	2622.894702
580.842866	2621.846142
581.196597	2623.013169
581.550273	2620.847994
581.903895	2622.375463
582.257463	2619.975874
582.610975	2619.580143
582.964434	2621.397479
583.317837	2618.783641
583.671186	2620.890843
584.024481	2617.057046
584.377721	2613.906325
584.730906	2616.656274
585.084037	2617.092334
585.437113	2617.203239
585.790135	2616.721809
586.143103	2615.053187
586.496016	2611.577312
586.848874	2609.283587
587.201679	2607.602362
587.554428	2607.541868
587.907124	2608.507249
588.259765	2605.086826
588.612352	2608.386261
588.964884	2609.691920
589.317362	2609.074379
589.669786	2608.716457
590.022155	2609.066817
590.374470	2609.071858
590.726731	2605.243102
591.078937	2609.560850
591.431090	2607.037753
591.783188	2605.112032
592.135232	2604.580190
592.487222	2607.995572
592.839157	2606.160592
593.191038	2605.313678
593.542866	2606.321909
593.894639	2603.546754
594.246358	2601.058944
594.598022	2604.675972
594.949633	2603.332505
595.301190	2600.209510
595.652692	2603.544233
596.004141	2603.035077
596.355535	2604.912906
596.706876	2599.954932
597.058162	2602.772937
597.409395	2601.288317
597.760573	2599.143306
598.111698	2600.295209
598.462768	2599.400405
598.813785	2600.287648
599.164748	2600.562391
599.515657	2596.547112
599.866511	2601.275714
600.217312	2598.296392
600.568060	2597.469643
600.918753	2600.446444
601.269392	2598.059458
601.619978	2595.944694
601.970510	2599.894438
602.320988	2597.164653
602.671412	2595.269179
603.021783	2597.426793
603.372100	2599.922164
603.722363	2598.553491
604.072572	2598.336721
604.422728	2596.204313
604.772830	2593.552666
605.122878	2589.600402
605.472872	2593.673654
605.822813	2592.657861
606.172701	2593.610639
606.522534	2594.258428
606.872314	2598.024170
607.222041	2595.745568
607.571714	2596.975610
607.921333	2596.504262
608.270899	2593.320773
608.620411	2595.465784
608.969870	2596.224478
609.319276	2598.384612
609.668627	2600.174222
610.017926	2603.904676
610.367171	2603.261928
610.716362	2602.130189
611.065500	2599.355034
611.414585	2601.580704
611.763616	2597.688933
612.112594	2599.206320
612.461518	2599.712956
612.810389	2598.790425
613.159207	2599.934767
613.507971	2599.599530
613.856682	2595.803541
614.205340	2597.262955
614.553945	2597.522575
614.902496	2597.245311
615.250994	2597.575507
615.599439	2595.264138
615.947830	2597.504931
616.296169	2596.650455
616.644454	2600.179263
616.992686	2596.106011
617.340864	2598.603902
617.688990	2596.126175
618.037063	2597.043665
618.385082	2597.116762
618.733048	2596.015270
619.080961	2596.715990
619.428821	2594.465115
619.776628	2596.312698
620.124382	2596.665579
620.472083	2594.145002
620.819731	2595.370002
621.167326	2592.148705
621.514868	2596.050558
621.862357	2595.312029
622.209793	2595.054930
622.557176	2593.356061
622.904506	2589.751636
623.251783	2589.897830
623.599007	2591.730289
623.946179	2591.957141
624.293297	2589.181986
624.640363	2589.824733
624.987376	2589.497058
625.334336	2589.096286
625.681243	2589.998653
626.028097	2588.103179
626.374899	2590.195258
626.721647	2586.963878
627.068343	2590.825402
627.414987	2585.244845
627.761577	2590.820361
628.108115	2588.120823
628.454600	2587.740216
628.801032	2587.311718
629.147412	2587.931780
629.493739	2585.449011
629.840014	2588.453539
630.186236	2589.129054
630.532405	2587.629310
630.878521	2589.393714
631.224585	2585.590164
631.570597	2587.097469
631.916556	2587.175607
632.262462	2585.144022
632.608316	2585.154104
632.954117	2586.157293
633.299866	2587.208374
633.645562	2582.565471
633.991206	2583.298959
634.336797	2585.572520
634.682336	2584.518918
635.027823	2581.418609
635.373257	2580.536407
635.718639	2579.465162
636.063968	2583.062025
636.409245	2582.240317
636.754470	2581.980697
637.099642	2578.537589
637.444762	2581.153948
637.789829	2578.270408
638.134845	2581.597570
638.479808	2576.737897
638.824719	2579.558423
639.169577	2578.668659
639.514383	2578.358628
639.859137	2576.511046
640.203839	2577.312589
640.548489	2577.073134
640.893086	2579.016499
641.237632	2573.834193
641.582125	2575.318813
641.926566	2574.887794
642.270955	2575.517938
642.615292	2577.078175
642.959576	2577.274780
643.303809	2576.299317
