Dividing Wavelength (nm)	Counts (n)	Blue Motor Position (mm): 0.000000	Red Motor Position (mm): 40.700000	
326.493990	2127.170318
326.888308	2127.170318
327.282561	2127.170318
327.676750	2094.117993
328.070874	2093.588672
328.464933	2095.534557
328.858929	2102.851792
329.252859	2112.256064
329.646726	2123.132354
330.040528	2137.035856
330.434265	2154.284164
330.827938	2171.771927
331.221547	2191.283713
331.615091	2207.470858
332.008571	2225.397201
332.401986	2248.049626
332.795338	2269.192225
333.188625	2285.641510
333.581847	2304.934006
333.975006	2325.065853
334.368100	2342.404902
334.761129	2356.963754
335.154095	2376.168030
335.546996	2396.403222
335.939833	2417.160173
336.332606	2435.338573
336.725315	2444.556323
337.117960	2455.702314
337.510540	2461.421503
337.903056	2475.246868
338.295508	2481.974288
338.687896	2488.903353
339.080220	2496.117245
339.472480	2506.171826
339.864676	2507.706857
340.256807	2511.601149
340.648875	2514.787158
341.040879	2518.689011
341.432818	2522.822757
341.824694	2521.063394
342.216506	2521.317973
342.608253	2524.188910
342.999937	2522.169928
343.391557	2523.132788
343.783113	2521.776718
344.174605	2520.438291
344.566033	2518.328568
344.957397	2516.460821
345.348697	2516.917045
345.739934	2512.488392
346.131106	2511.865809
346.522215	2510.338340
346.913260	2506.912876
347.304241	2509.514111
347.695159	2508.392454
348.086012	2508.095026
348.476802	2504.001609
348.867528	2501.327277
349.258191	2495.739158
349.648789	2497.622029
350.039324	2495.310660
350.429796	2496.102121
350.820203	2494.647748
351.210548	2498.511793
351.600828	2492.086842
351.991045	2493.763026
352.381198	2491.416369
352.771288	2489.651965
353.161314	2491.131543
353.551276	2492.636328
353.941175	2493.377377
354.331010	2491.653303
354.720782	2487.706079
355.110490	2492.467449
355.500135	2491.625577
355.889717	2490.216574
356.279235	2491.691112
356.668689	2493.674806
357.058080	2492.797645
357.447408	2491.043323
357.836672	2490.244300
358.225873	2492.540546
358.615010	2489.450319
359.004084	2494.786380
359.393095	2492.366626
359.782043	2495.300578
360.170927	2494.980464
360.559748	2498.635301
360.948505	2497.899293
361.337199	2498.753768
361.725830	2501.274345
362.114398	2501.334839
362.502903	2502.388440
362.891344	2501.473471
363.279722	2501.672596
363.668037	2501.236536
364.056289	2502.632936
364.444478	2504.843482
364.832603	2504.369613
365.220665	2504.367093
365.608665	2505.392968
365.996601	2508.359687
366.384474	2508.112670
366.772284	2506.557474
367.160031	2510.630727
367.547715	2512.949657
367.935336	2513.385717
368.322893	2519.077180
368.710388	2520.660102
369.097820	2530.565969
369.485189	2532.002698
369.872495	2536.237268
370.259738	2541.369162
370.646918	2549.712272
371.034035	2557.710062
371.421090	2564.855898
371.808081	2577.461303
372.195010	2588.766091
372.581875	2598.518203
372.968678	2612.809874
373.355418	2626.126082
373.742096	2642.225007
374.128710	2656.859476
374.515262	2671.919923
374.901751	2683.295287
375.288177	2697.647452
375.674540	2722.734754
376.060841	2740.938361
376.447079	2758.547111
376.833254	2782.013682
377.219367	2790.941566
377.605417	2829.715600
377.991404	2840.906962
378.377329	2862.780528
378.763191	2879.048332
379.148991	2916.151224
379.534727	2942.271963
379.920402	2969.123669
380.306013	2984.859631
380.691563	3031.969213
381.077049	3050.349260
381.462474	3068.237795
381.847835	3109.963425
382.233134	3132.391518
382.618371	3135.068371
383.003545	3198.309646
383.388657	3207.882797
383.773706	3240.781367
384.158693	3258.551435
384.543618	3282.625465
384.928480	3316.088644
385.313280	3363.936756
385.698017	3363.825850
386.082692	3416.820980
386.467305	3421.378183
386.851856	3453.485292
387.236344	3475.240392
387.620770	3506.616533
388.005133	3533.473280
388.389435	3561.459246
388.773674	3569.018456
389.157851	3614.598048
389.541965	3631.362406
389.926018	3592.485027
390.310008	3665.561593
390.693936	3684.894418
391.077802	3725.200964
391.461606	3715.234603
391.845348	3778.954787
392.229027	3774.195938
392.612645	3788.996766
392.996200	3871.094477
393.379694	3907.879776
393.763125	3972.656083
394.146494	3939.084519
394.529801	4002.655989
394.913047	4051.774472
395.296230	4019.052342
395.679351	4072.786001
396.062410	4095.874486
396.445408	4076.029983
396.828343	4110.173718
397.211217	4131.288591
397.594028	4050.247002
397.976778	4118.161427
398.359466	4142.845437
398.742092	4175.978420
399.124656	4099.264662
399.507158	4180.167619
399.889598	4203.563614
400.271977	4267.021659
400.654294	4233.712235
401.036549	4243.023246
401.418742	4214.018967
401.800874	4316.944205
402.182944	4334.681505
402.564952	4400.881937
402.946898	4388.205956
403.328783	4384.465420
403.710606	4297.734888
404.092367	4490.042305
404.474067	4454.469403
404.855705	4459.397131
405.237282	4390.681163
405.618797	4498.347606
406.000250	4533.456722
406.381642	4614.488229
406.762972	4576.745110
407.144240	4588.175926
407.525447	4590.557871
407.906593	4647.089371
408.287677	4691.282646
408.668700	4620.981235
409.049661	4669.396476
409.430560	4710.552456
409.811399	4637.518740
410.192176	4801.066374
410.572891	4737.736878
410.953545	4840.215974
411.334138	4716.407757
411.714669	4785.751348
412.095139	4687.315258
412.475547	4827.066125
412.855894	4809.192714
413.236180	4816.300741
413.616405	4771.421868
413.996568	4858.724571
414.376670	4797.318276
414.756711	4753.611472
415.136691	4785.564826
415.516609	4861.252709
415.896466	4902.597733
416.276262	4932.300211
416.655997	4914.449485
417.035670	5100.392445
417.415283	5189.111712
417.794834	5130.168020
418.174324	5087.923151
418.553753	4995.909490
418.933121	5175.170401
419.312428	5245.756637
419.691674	5182.122152
420.070859	5311.649559
420.449983	5222.864757
420.829045	5335.123692
421.208047	5248.572121
421.586988	5316.191638
421.965867	5326.715047
422.344686	5461.618844
422.723444	5313.116534
423.102141	5133.719513
423.480777	5432.682621
423.859352	5201.434812
424.237866	5460.935768
424.616319	5453.865550
424.994712	5560.788423
425.373044	5438.180000
425.751314	5580.073357
426.129524	5381.842585
426.507673	5572.766204
426.885762	5663.544782
427.263789	5593.361838
427.641756	5473.563858
428.019662	5595.461479
428.397508	5602.758549
428.775292	5544.926432
429.153016	5650.556249
429.530679	5574.056740
429.908282	5662.092930
430.285824	5533.457807
430.663305	5806.897554
431.040726	5540.535587
431.418086	5540.429723
431.795385	5642.518130
432.172624	5658.700233
432.549802	5653.951467
432.926920	5665.515873
433.303977	5674.206823
433.680974	5713.915992
434.057910	5729.490636
434.434786	5738.103448
434.811601	5706.109765
435.188355	5941.428306
435.565050	5814.943235
435.941683	5796.502694
436.318257	6012.349779
436.694770	5992.510318
437.071222	6030.273601
437.447614	5963.453107
437.823946	5872.130084
438.200218	6024.935019
438.576429	5893.499536
438.952580	5990.997972
439.328670	6035.632348
439.704700	5942.728923
440.080670	5931.580412
440.456580	6199.863058
440.832429	6080.533905
441.208218	5929.798364
441.583947	6082.177321
441.959616	6085.247384
442.335224	6011.709552
442.710773	6154.064175
443.086261	6177.044275
443.461689	5976.285364
443.837057	6120.921109
444.212365	6276.050016
444.587612	6168.570095
444.962800	6323.318395
445.337927	6303.143697
445.712995	5915.337814
446.088002	6492.141596
446.462949	6320.694474
446.837837	6251.043372
447.212664	6425.321102
447.587431	6568.905766
447.962139	7106.441480
448.336786	8035.032101
448.711374	7777.562730
449.085901	6850.469332
449.460369	6768.190139
449.834776	6706.201591
450.209124	7091.673420
450.583412	7247.084631
450.957640	7390.709625
451.331808	7161.717732
451.705917	6716.309105
452.079965	6638.960161
452.453954	6846.277613
452.827883	6721.662810
453.201752	6820.963458
453.575562	6613.467046
453.949311	6818.483211
454.323001	6707.502209
454.696632	6785.672861
455.070202	6920.203613
455.443713	7080.456853
455.817164	7177.080648
456.190556	7257.678616
456.563888	7332.554874
456.937160	7382.593367
457.310373	7033.455655
457.683526	7059.319295
458.056619	6946.357119
458.429653	6933.310613
458.802628	6871.889195
459.175542	6984.105279
459.548398	7332.285172
459.921194	7495.326170
460.293930	7498.441603
460.666607	8025.839557
461.039224	8338.738935
461.411782	8460.606309
461.784280	8486.399372
462.156719	8371.839151
462.529099	8249.470183
462.901419	7843.188471
463.273680	7734.168478
463.645882	7744.361691
464.018024	7614.710776
464.390106	7777.361084
464.762130	8170.298862
465.134094	8633.853122
465.505999	9654.805243
465.877845	10882.071627
466.249631	11534.502798
466.621358	11151.170939
466.993026	10516.562767
467.364634	10254.619372
467.736184	9892.354495
468.107674	9561.145646
468.479105	9596.579916
468.850477	9361.445378
469.221790	9138.460019
469.593043	8804.783526
469.964238	8667.054162
470.335373	8674.474740
470.706449	8728.518430
471.077467	8711.310451
471.448425	10016.046766
471.819324	11101.775193
472.190164	11128.626899
472.560945	9874.884376
472.931667	9085.661495
473.302330	8945.832490
473.672934	8596.283923
474.043479	8955.740878
474.413965	8894.289212
474.784393	8780.207901
475.154761	8936.811345
475.525070	9024.492134
475.895321	8842.677879
476.265513	9027.897433
476.635645	9191.215694
477.005719	9192.443215
477.375734	9305.450761
477.745691	9547.378255
478.115588	9680.651239
478.485427	9920.912631
478.855207	10450.642119
479.224928	11264.750656
479.594591	11901.498798
479.964194	11714.696322
480.333739	11652.755665
480.703226	11568.369270
481.072653	11664.877119
481.442022	11897.254147
481.811333	12087.625760
482.180584	11893.846327
482.549777	11605.721699
482.918912	11430.309710
483.287988	11444.508120
483.657005	11458.724174
484.025964	11138.741975
484.394864	11272.360278
484.763706	11243.494631
485.132489	11002.701397
485.501213	10961.648761
485.869879	11043.570031
486.238487	10872.420338
486.607036	10988.946609
486.975527	10772.673547
487.343959	10955.327154
487.712333	11003.273568
488.080648	10940.856522
488.448905	10987.323357
488.817104	10922.637792
489.185244	11187.598317
489.553326	11336.261944
489.921350	11876.719007
490.289315	12940.379783
490.657222	13291.024801
491.025070	13200.089947
491.392861	13070.083630
491.760593	12689.685723
492.128267	12345.677384
492.495883	12011.796724
492.863440	11676.086125
493.230939	11339.067346
493.598380	11271.601584
493.965763	11143.528550
494.333088	11039.408559
494.700354	10961.202618
495.067563	11015.027018
495.434713	10850.735814
495.801805	10981.271452
496.168839	10894.548482
496.535815	10837.180152
496.902733	10836.229894
497.269593	10765.391600
497.636395	10869.367919
498.003139	10855.718995
498.369825	10725.329551
498.736453	10878.255473
499.103023	10811.129989
499.469535	10838.143012
499.835989	10827.082720
500.202385	10793.243975
500.568723	10639.458536
500.935003	10860.041784
501.301226	10672.841057
501.667390	10928.014182
502.033497	11021.877946
502.399546	10885.043387
502.765537	10791.003182
503.131470	10862.600170
503.497345	11036.020903
503.863163	10646.760647
504.228923	10966.329472
504.594625	11022.946671
504.960269	10775.912488
505.325856	10992.051959
505.691385	10785.427666
506.056856	10940.478435
506.422270	10960.617845
506.787625	10856.351660
507.152924	10966.904163
507.518164	10955.332195
507.883347	10871.601150
508.248472	10792.132401
508.613540	11024.910200
508.978550	10906.556511
509.343503	10888.035312
509.708398	11005.055616
510.073236	11113.228695
510.438016	11119.852771
510.802738	11070.109186
511.167403	11117.410332
511.532010	11019.755620
511.896561	11252.762792
512.261053	11325.988073
512.625488	11187.956239
512.989866	11174.718169
513.354186	11160.769296
513.718449	11061.849255
514.082655	11261.184040
514.446803	11155.113122
514.810894	11277.015783
515.174927	11142.537963
515.538904	11167.524442
515.902822	11314.456433
516.266684	11202.008455
516.630488	11147.690023
516.994235	11202.628517
517.357925	11263.253433
517.721558	11349.464726
518.085133	11369.934331
518.448651	11372.449867
518.812112	11258.083730
519.175516	11275.642069
519.538863	11394.459545
519.902152	11308.656586
520.265385	11470.903602
520.628560	11383.936136
520.991678	11361.785306
521.354739	11422.024574
521.717743	11358.805984
522.080690	11333.995945
522.443580	11468.105761
522.806413	11425.755028
523.169189	11452.188318
523.531908	11506.418530
523.894569	11322.895325
524.257174	11329.852117
524.619722	11450.257556
524.982213	11397.912735
525.344647	11451.812752
525.707025	11398.384083
526.069345	11491.773978
526.431608	11412.128789
526.793815	11521.597445
527.155964	11315.951135
527.518057	11362.100378
527.880093	11313.604478
528.242072	11384.031918
528.603995	11287.145982
528.965860	11211.022038
529.327669	11260.526169
529.689421	11205.628004
530.051117	11183.590600
530.412755	11284.194387
530.774337	11170.337406
531.135862	11154.850982
531.497331	11179.756802
531.858743	11023.743173
532.220098	11195.396982
532.581396	11073.879969
532.942638	11050.521782
533.303824	11012.042655
533.664953	11021.429283
534.026025	10940.513723
534.387040	11037.934021
534.747999	11043.396111
535.108902	11092.154151
535.469748	10851.260094
535.830537	10955.874119
536.191270	10926.469068
536.551947	10957.716661
536.912567	10953.408995
537.273131	10881.433921
537.633638	10861.143276
537.994089	10846.407984
538.354483	10794.325303
538.714821	10939.508013
539.075103	10948.977820
539.435328	10916.719477
539.795497	10743.260935
540.155609	10903.607436
540.515665	10988.941568
540.875665	10720.341329
541.235609	10786.947574
541.595496	10784.754672
541.955328	10942.106728
542.315102	10827.975005
542.674821	10774.879052
543.034483	10779.693354
543.394090	10779.716039
543.753640	10709.177694
544.113134	10931.482496
544.472571	10788.343974
544.831953	10928.445201
545.191278	10731.252906
545.550548	10762.591239
545.909761	10907.395863
546.268918	10872.929494
546.628019	10963.178751
546.987064	10822.099540
547.346053	10737.869421
547.704986	10840.582930
548.063863	10828.660602
548.422684	10816.982769
548.781449	10732.331713
549.140158	10833.316107
549.498811	10711.640297
549.857408	10562.860724
550.215949	10793.128029
550.574434	10645.757458
550.932864	10745.337890
551.291237	10806.640842
551.649555	10758.553275
552.007817	10763.448235
552.366022	10723.676052
552.724173	10722.844262
553.082267	10706.019411
553.440305	10849.624240
553.798288	10648.124279
554.156215	10795.308328
554.514086	10776.353589
554.871902	10622.885743
555.229661	10656.593418
555.587365	10638.367126
555.945014	10536.926508
556.302606	10662.683132
556.660143	10551.223220
557.017625	10704.418844
557.375050	10603.031158
557.732421	10735.386652
558.089735	10656.777420
558.446994	10646.891717
558.804197	10688.685403
559.161345	10685.887563
559.518437	10538.607733
559.875474	10624.703079
560.232455	10656.472430
560.589381	10602.637948
560.946251	10606.365882
561.303065	10709.548218
561.659825	10639.113217
562.016528	10569.998998
562.373177	10460.805085
562.729770	10568.942876
563.086307	10485.360545
563.442789	10578.826058
563.799216	10453.031626
564.155587	10497.996197
564.511904	10453.465165
564.868164	10447.307395
565.224370	10451.794022
565.580520	10379.090502
565.936615	10389.876050
566.292654	10253.432180
566.648638	10385.089475
567.004567	10339.086425
567.360441	10325.860958
567.716260	10244.295089
568.072023	10329.183078
568.427732	10281.183732
568.783385	10186.142859
569.138982	10255.509136
569.494525	10278.355645
569.850013	10143.376230
570.205445	10226.885464
570.560823	10122.342016
570.916145	10044.446106
571.271412	10115.551581
571.626625	10053.164782
571.981782	10036.748264
572.336884	10010.035190
572.691931	10011.663483
573.046923	9955.164751
573.401860	9907.508203
573.756743	9845.481846
574.111570	9886.410974
574.466342	9867.453715
574.821059	9899.943952
575.175722	9785.451786
575.530330	9797.386718
575.884882	9790.467734
576.239380	9707.858346
576.593823	9695.356285
576.948211	9705.665444
577.302544	9585.128935
577.656823	9597.013456
578.011047	9593.774514
578.365216	9565.644876
578.719330	9488.789965
579.073389	9498.910081
579.427394	9444.170712
579.781344	9416.613245
580.135239	9370.325370
580.489080	9373.115649
580.842866	9270.669320
581.196597	9280.421432
581.550273	9315.250764
581.903895	9278.014281
582.257463	9338.740021
582.610975	9214.581443
582.964434	9242.058252
583.317837	9157.119850
583.671186	9145.583170
584.024481	9128.763360
584.377721	9052.967091
584.730906	9022.364767
585.084037	9050.769148
585.437113	8984.707348
585.790135	9002.953804
586.143103	8898.725428
586.496016	8867.344245
586.848874	8920.503212
587.201679	8906.456037
587.554428	8791.089231
587.907124	8836.356272
588.259765	8794.817165
588.612352	8804.639853
588.964884	8679.873816
589.317362	8683.616872
589.669786	8676.672683
590.022155	8721.097851
590.374470	8730.983554
590.726731	8670.807301
591.078937	8519.814661
591.431090	8625.504972
591.783188	8495.604519
592.135232	8484.249320
592.487222	8480.085327
592.839157	8527.376391
593.191038	8456.265875
593.542866	8398.317812
593.894639	8292.337634
594.246358	8340.155499
594.598022	8346.025923
594.949633	8240.675890
595.301190	8210.802012
595.652692	8236.600117
596.004141	8334.970673
596.355535	8115.945141
596.706876	8087.250893
597.058162	8012.185592
597.409395	8085.352899
597.760573	8137.796022
598.111698	8049.084317
598.462768	8017.030141
598.813785	7982.057136
599.164748	7944.714789
599.515657	7933.009229
599.866511	7832.455854
600.217312	7952.231149
600.568060	7802.040053
600.918753	7898.348776
601.269392	7857.485183
601.619978	7765.902541
601.970510	7815.147053
602.320988	7806.488871
602.671412	7850.861107
603.021783	7779.233873
603.372100	7752.112465
603.722363	7737.293993
604.072572	7709.343316
604.422728	7710.248203
604.772830	7630.693754
605.122878	7630.000595
605.472872	7617.412834
605.822813	7634.583004
606.172701	7573.143942
606.522534	7629.793908
606.872314	7621.037424
607.222041	7578.351453
607.571714	7624.745192
607.921333	7573.955567
608.270899	7571.177892
608.620411	7632.876573
608.969870	7532.761779
609.319276	7522.029162
609.668627	7521.555294
610.017926	7542.750825
610.367171	7566.131697
610.716362	7541.707306
611.065500	7512.934921
611.414585	7521.542691
611.763616	7499.200297
612.112594	7466.647046
612.461518	7460.978268
612.810389	7508.173551
613.159207	7437.453724
613.507971	7375.039198
613.856682	7462.382230
614.205340	7412.149652
614.553945	7464.769216
614.902496	7361.854060
615.250994	7389.855149
615.599439	7360.132506
615.947830	7356.233174
616.296169	7317.940569
616.644454	7310.900598
616.992686	7295.983824
617.340864	7322.853174
617.688990	7225.427834
618.037063	7288.598533
618.385082	7221.102524
618.733048	7273.429701
619.080961	7207.998045
619.428821	7204.156686
619.776628	7187.727565
620.124382	7132.985676
620.472083	7099.441838
620.819731	7112.992460
621.167326	7007.256778
621.514868	7001.645974
621.862357	6897.631847
622.209793	6898.977835
622.557176	6830.478636
622.904506	6791.727287
623.251783	6729.776547
623.599007	6680.537077
623.946179	6667.997207
624.293297	6615.798579
624.640363	6547.659823
624.987376	6509.397466
625.334336	6458.373427
625.681243	6397.441000
626.028097	6378.627414
626.374899	6344.478638
626.721647	6317.637014
627.068343	6251.633187
627.414987	6215.689760
627.761577	6164.282594
628.108115	6177.500499
628.454600	6083.830820
628.801032	6095.070072
629.147412	6055.290327
629.493739	6027.649681
629.840014	5964.728519
630.186236	5992.248178
630.532405	5890.618516
630.878521	5910.566362
631.224585	5865.052304
631.570597	5792.426922
631.916556	5796.779958
632.262462	5783.214213
632.608316	5733.601697
632.954117	5699.039547
633.299866	5682.285272
633.645562	5653.298637
633.991206	5590.054842
634.336797	5534.418147
634.682336	5497.723588
635.027823	5452.232216
635.373257	5440.319969
635.718639	5377.930649
636.063968	5373.292788
636.409245	5294.630623
636.754470	5275.312922
637.099642	5235.245831
637.444762	5180.882028
637.789829	5170.749309
638.134845	5122.298779
638.479808	5098.688535
638.824719	5092.021609
639.169577	5032.357033
639.514383	5025.402761
639.859137	4967.371518
640.203839	4961.347340
640.548489	4934.475469
