Dividing Wavelength (nm)	Counts (n)	Blue Motor Position (mm): 0.000000	Red Motor Position (mm): 29.000000	
326.493990	2144.073307
326.888308	2144.073307
327.282561	2144.073307
327.676750	2118.766715
328.070874	2118.123968
328.464933	2123.213012
328.858929	2135.987296
329.252859	2147.695376
329.646726	2160.386481
330.040528	2174.582370
330.434265	2194.757068
330.827938	2210.573688
331.221547	2232.411966
331.615091	2252.019534
332.008571	2274.596342
332.401986	2294.193827
332.795338	2313.355253
333.188625	2332.078098
333.581847	2354.072653
333.975006	2370.874818
334.368100	2389.413662
334.761129	2408.156672
335.154095	2424.608477
335.546996	2442.345777
335.939833	2458.772377
336.332606	2469.152113
336.725315	2479.637713
337.117960	2488.391676
337.510540	2497.180928
337.903056	2507.832886
338.295508	2515.687004
338.687896	2520.314783
339.080220	2531.589324
339.472480	2534.215765
339.864676	2538.399923
340.256807	2541.548123
340.648875	2543.584749
341.040879	2542.090047
341.432818	2546.705223
341.824694	2545.770089
342.216506	2549.921480
342.608253	2547.048022
342.999937	2543.844369
343.391557	2544.595501
343.783113	2545.303783
344.174605	2543.549461
344.566033	2544.172044
344.957397	2539.733308
345.348697	2538.243647
345.739934	2536.675848
346.131106	2534.092257
346.522215	2533.008408
346.913260	2530.470188
347.304241	2529.131761
347.695159	2526.845598
348.086012	2525.701256
348.476802	2524.687984
348.867528	2520.806296
349.258191	2521.411234
349.648789	2520.123219
350.039324	2519.039371
350.429796	2516.748167
350.820203	2518.865451
351.210548	2518.000893
351.600828	2519.573733
351.991045	2516.274298
352.381198	2515.303876
352.771288	2517.176665
353.161314	2516.735564
353.551276	2516.049967
353.941175	2512.831190
354.331010	2515.661798
354.720782	2514.638444
355.110490	2516.929648
355.500135	2515.258506
355.889717	2516.433095
356.279235	2516.158352
356.668689	2520.138343
357.058080	2517.590039
357.447408	2515.661798
357.836672	2515.187930
358.225873	2517.050636
358.615010	2516.138187
359.004084	2520.002232
359.393095	2519.893847
359.782043	2520.491223
360.170927	2521.239835
360.559748	2522.326203
360.948505	2522.875689
361.337199	2521.305370
361.725830	2523.573889
362.114398	2527.150588
362.502903	2523.767973
362.891344	2523.909126
363.279722	2526.560773
363.668037	2527.543798
364.056289	2526.112110
364.444478	2527.871473
364.832603	2527.442975
365.220665	2529.610671
365.608665	2524.929959
365.996601	2526.623787
366.384474	2527.831143
366.772284	2528.728469
367.160031	2528.433561
367.547715	2528.204189
367.935336	2531.385157
368.322893	2530.797863
368.710388	2530.303829
369.097820	2534.614016
369.485189	2531.894313
369.872495	2530.255938
370.259738	2529.199817
370.646918	2531.435568
371.034035	2532.537061
371.421090	2534.039324
371.808081	2531.304498
372.195010	2533.573018
372.581875	2533.336083
372.968678	2534.969417
373.355418	2534.626619
373.742096	2540.252547
374.128710	2536.922864
374.515262	2539.534182
374.901751	2541.114584
375.288177	2542.765562
375.674540	2544.356046
376.060841	2543.141128
376.447079	2544.764379
376.833254	2546.382590
377.219367	2548.744370
377.605417	2548.809905
377.991404	2550.357539
378.377329	2554.012376
378.763191	2556.338868
379.148991	2565.221382
379.534727	2566.085939
379.920402	2568.089798
380.306013	2572.641960
380.691563	2577.620099
381.077049	2581.728640
381.462474	2585.098651
381.847835	2592.247007
382.233134	2599.400405
382.618371	2601.857967
383.003545	2606.566405
383.388657	2612.633433
383.773706	2621.359671
384.158693	2626.791514
384.543618	2631.976341
384.928480	2639.278452
385.313280	2648.007210
385.698017	2657.829898
386.082692	2664.272493
386.467305	2670.216013
386.851856	2677.417302
387.236344	2687.229907
387.620770	2695.925898
388.005133	2705.395705
388.389435	2716.047663
388.773674	2721.431616
389.157851	2728.716083
389.541965	2739.763772
389.926018	2742.720408
390.310008	2753.949579
390.693936	2766.607916
391.077802	2774.169647
391.461606	2784.599794
391.845348	2793.404169
392.229027	2801.759882
392.612645	2815.575164
392.996200	2828.178048
393.379694	2839.185408
393.763125	2852.725947
394.146494	2863.740868
394.529801	2875.418701
394.913047	2895.792524
395.296230	2893.574417
395.679351	2900.453071
396.062410	2917.648447
396.445408	2914.069228
396.828343	2923.927204
397.211217	2935.189142
397.594028	2926.157915
397.976778	2942.150975
398.359466	2954.267388
398.742092	2951.613221
399.124656	2970.273052
399.507158	2981.240082
399.889598	2987.523880
400.271977	3001.313957
400.654294	3008.414422
401.036549	3018.942872
401.418742	3024.636855
401.800874	3047.392623
402.182944	3054.377142
402.564952	3082.602562
402.946898	3074.511511
403.328783	3082.952923
403.710606	3097.678133
404.092367	3122.415075
404.474067	3145.460710
404.855705	3138.070378
405.237282	3141.069865
405.618797	3170.318639
406.000250	3195.879810
406.381642	3222.890312
406.762972	3229.073287
407.144240	3214.690876
407.525447	3239.553846
407.906593	3238.691809
408.287677	3260.635952
408.668700	3280.059517
409.049661	3278.683282
409.430560	3290.398924
409.811399	3297.849749
410.192176	3318.682318
410.572891	3325.744974
410.953545	3364.387939
411.334138	3337.105214
411.714669	3383.166237
412.095139	3330.345027
412.475547	3382.289076
412.855894	3373.038559
413.236180	3400.780029
413.616405	3381.648850
413.996568	3408.097263
414.376670	3409.546595
414.756711	3401.853794
415.136691	3431.019390
415.516609	3453.097123
415.896466	3461.833443
416.276262	3486.870333
416.655997	3518.029705
417.035670	3523.670757
417.415283	3589.916559
417.794834	3613.413377
418.174324	3594.060388
418.553753	3594.995522
418.933121	3636.554794
419.312428	3631.254021
419.691674	3627.006849
420.070859	3663.182169
420.449983	3643.599807
420.829045	3689.786858
421.208047	3673.302285
421.586988	3723.844893
421.965867	3751.404882
422.344686	3763.037344
422.723444	3797.939773
423.102141	3702.540977
423.480777	3804.120227
423.859352	3774.266514
424.237866	3873.743603
424.616319	3859.426726
424.994712	3916.520314
425.373044	3905.081936
425.751314	3971.582317
426.129524	3905.785177
426.507673	4006.905682
426.885762	3982.347701
427.263789	4005.063140
427.641756	4007.036752
428.019662	4034.082542
428.397508	4040.711660
428.775292	4076.866815
429.153016	4083.816046
429.530679	4098.621914
429.908282	4103.574848
430.285824	4084.574739
430.663305	4153.983866
431.040726	4115.356025
431.418086	4106.443265
431.795385	4179.088812
432.172624	4217.167168
432.549802	4182.216848
432.926920	4200.511195
433.303977	4193.168755
433.680974	4231.849528
434.057910	4256.558744
434.434786	4262.232563
434.811601	4254.675873
435.188355	4361.573540
435.565050	4333.433819
435.941683	4329.287470
436.318257	4422.485802
436.694770	4426.584260
437.071222	4480.194411
437.447614	4412.443824
437.823946	4416.885080
438.200218	4434.521557
438.576429	4413.618412
438.952580	4442.360551
439.328670	4449.292138
439.704700	4489.974249
440.080670	4455.835555
440.456580	4514.655738
440.832429	4549.848033
441.208218	4453.403199
441.583947	4508.316488
441.959616	4516.785626
442.335224	4546.672107
442.710773	4565.289088
443.086261	4620.681286
443.461689	4574.572372
443.837057	4583.275925
444.212365	4661.002955
444.587612	4664.685518
444.962800	4633.057319
445.337927	4669.550232
445.712995	4561.578798
446.088002	4753.233385
446.462949	4773.861787
446.837837	4791.430208
447.212664	4776.107621
447.587431	4999.140870
447.962139	5297.685562
448.336786	5635.717613
448.711374	5623.437362
449.085901	5272.653713
449.460369	5208.406728
449.834776	5139.952900
450.209124	5379.402666
450.583412	5386.757710
450.957640	5509.000649
451.331808	5371.039392
451.705917	5223.343667
452.079965	5211.186924
452.453954	5250.117235
452.827883	5213.115166
453.201752	5222.549685
453.575562	5254.482874
453.949311	5391.967742
454.323001	5388.035642
454.696632	5384.214448
455.070202	5539.900402
455.443713	5567.931738
455.817164	5656.275438
456.190556	5730.040122
456.563888	5702.545669
456.937160	5782.253873
457.310373	5623.908710
457.683526	5683.601013
458.056619	5674.068191
458.429653	5652.078678
458.802628	5698.646337
459.175542	5728.575667
459.548398	5869.516246
459.921194	6053.341921
460.293930	6111.635304
460.666607	6364.340784
461.039224	6576.659061
461.411782	6708.374328
461.784280	6620.678416
462.156719	6628.661083
462.529099	6584.366985
462.901419	6436.693945
463.273680	6314.856818
463.645882	6297.623634
464.018024	6297.767307
464.390106	6368.784561
464.762130	6616.700946
465.134094	7005.353743
465.505999	7629.841799
465.877845	8332.603851
466.249631	8684.685597
466.621358	8609.882436
466.993026	8420.927387
467.364634	8203.814973
467.736184	7918.727641
468.107674	7767.394723
468.479105	7685.266765
468.850477	7613.140456
469.221790	7441.968077
469.593043	7219.978347
469.964238	7116.808613
470.335373	7091.897751
470.706449	7241.168837
471.077467	7416.598471
471.448425	8062.420690
471.819324	8638.241447
472.190164	8677.703599
472.560945	8194.014970
472.931667	7727.748568
473.302330	7535.647839
473.672934	7404.096409
474.043479	7475.506874
474.413965	7372.029629
474.784393	7322.079357
475.154761	7463.995399
475.525070	7477.704817
475.895321	7409.792913
476.265513	7507.006524
476.635645	7654.921539
477.005719	7643.082389
477.375734	7716.574851
477.745691	7809.498440
478.115588	7998.113211
478.485427	8215.424750
478.855207	8651.812233
479.224928	9053.289725
479.594591	9411.274663
479.964194	9406.321729
480.333739	9475.866967
480.703226	9462.351633
481.072653	9528.617601
481.442022	9622.476324
481.811333	9742.992668
482.180584	9572.573942
482.549777	9494.083176
482.918912	9411.952698
483.287988	9376.004230
483.657005	9267.392570
484.025964	9169.967231
484.394864	9209.991472
484.763706	9150.142893
485.132489	9041.581645
485.501213	9005.973455
485.869879	9039.570225
486.238487	8948.337943
486.607036	8986.943099
486.975527	8912.994414
487.343959	8930.552752
487.712333	8939.954504
488.080648	8942.079351
488.448905	9002.600923
488.817104	8967.925347
489.185244	9079.891894
489.553326	9217.732164
489.921350	9574.759282
490.289315	10057.381707
490.657222	10260.572975
491.025070	10371.490962
491.392861	10250.712478
491.760593	10076.863246
492.128267	9821.362446
492.495883	9579.036701
492.863440	9341.305968
493.230939	9108.828117
493.598380	8913.942151
493.965763	8847.537552
494.333088	8694.067184
494.700354	8589.001977
495.067563	8517.384824
495.434713	8469.945046
495.801805	8450.687838
496.168839	8369.704223
496.535815	8284.879247
496.902733	8272.495653
497.269593	8184.346037
497.636395	8131.920557
498.003139	8157.615318
498.369825	8047.627424
498.736453	8056.033548
499.103023	7959.722304
499.469535	7903.397492
499.835989	7877.518728
500.202385	7798.894372
500.568723	7750.317814
500.935003	7731.035401
501.301226	7636.811194
501.667390	7688.036879
502.033497	7686.572424
502.399546	7576.854231
502.765537	7454.689429
503.131470	7453.096424
503.497345	7445.252389
503.863163	7245.151349
504.228923	7258.757423
504.594625	7257.643328
504.960269	7139.012375
505.325856	7156.351424
505.691385	7015.415886
506.056856	6986.376319
506.422270	6971.152034
506.787625	6875.057560
507.152924	6828.326064
507.518164	6792.180991
507.883347	6655.721997
508.248472	6631.915148
508.613540	6613.464525
508.978550	6577.442960
509.343503	6500.204922
509.708398	6453.738086
510.073236	6446.486386
510.438016	6379.759153
510.802738	6275.694614
511.167403	6264.898983
511.532010	6214.918464
511.896561	6189.168250
512.261053	6194.935330
512.625488	6087.906593
512.989866	6014.068812
513.354186	5940.994767
513.718449	5868.553386
514.082655	5853.480336
514.446803	5771.427995
514.810894	5740.384570
515.174927	5673.909395
515.538904	5599.925421
515.902822	5583.148461
516.266684	5478.642821
516.630488	5440.410710
516.994235	5371.530905
517.357925	5342.025031
517.721558	5296.102640
518.085133	5248.312502
518.448651	5188.877298
518.812112	5117.739055
519.175516	5056.725970
519.538863	5019.895300
519.902152	4957.662256
520.265385	4921.802008
520.628560	4870.399883
520.991678	4796.310045
521.354739	4750.070061
521.717743	4704.981981
522.080690	4645.667765
522.443580	4613.873208
522.806413	4561.535949
523.169189	4507.824975
523.531908	4463.470383
523.894569	4406.076846
524.257174	4354.042056
524.619722	4318.658198
524.982213	4266.782204
525.344647	4218.354359
525.707025	4170.208820
526.069345	4136.148264
526.431608	4085.197322
526.793815	4050.720871
527.155964	3992.540914
527.518057	3952.166313
527.880093	3904.852563
528.242072	3871.255794
528.603995	3830.142663
528.965860	3787.998617
529.327669	3754.021240
529.689421	3708.885269
530.051117	3674.736493
530.412755	3639.718118
530.774337	3607.646297
531.135862	3570.757654
531.497331	3537.665000
531.858743	3500.451202
532.220098	3479.951350
532.581396	3438.233281
532.942638	3404.439906
533.303824	3383.390568
533.664953	3353.317565
534.026025	3323.161383
534.387040	3305.166984
534.747999	3275.492232
535.108902	3253.071700
535.469748	3224.584140
535.830537	3200.550439
536.191270	3180.993283
536.551947	3154.807009
536.912567	3137.795635
537.273131	3118.414919
537.633638	3094.353492
537.994089	3076.059145
538.354483	3054.460321
538.714821	3039.823331
539.075103	3030.746733
539.435328	3009.851151
539.795497	2990.770383
540.155609	2977.108857
540.515665	2967.460088
540.875665	2947.444187
541.235609	2937.119904
541.595496	2923.745723
541.955328	2913.701223
542.315102	2899.646487
542.674821	2883.373642
543.034483	2874.125645
543.394090	2861.489993
543.753640	2851.034640
544.113134	2846.437108
544.472571	2829.239211
544.831953	2825.624704
545.191278	2813.067190
545.550548	2802.851292
545.909761	2798.785601
546.268918	2790.976854
546.628019	2783.503343
546.987064	2779.508229
547.346053	2765.642535
547.704986	2764.399891
548.063863	2757.672471
548.422684	2750.362798
548.781449	2747.980852
549.140158	2742.899369
549.498811	2737.449882
549.857408	2730.951835
550.215949	2727.201216
550.574434	2719.039588
550.932864	2715.364587
551.291237	2712.286963
551.649555	2711.500543
552.007817	2706.411498
552.366022	2705.604913
552.724173	2700.422607
553.082267	2699.973944
553.440305	2698.023018
553.798288	2693.186031
554.156215	2689.889116
554.514086	2689.863910
554.871902	2687.066070
555.229661	2685.894002
555.587365	2679.058197
555.945014	2680.389062
556.302606	2679.363187
556.660143	2677.956705
557.017625	2674.727846
557.375050	2670.810869
557.732421	2670.667197
558.089735	2668.559994
558.446994	2668.166784
558.804197	2668.454130
559.161345	2665.331135
559.518437	2661.913233
559.875474	2660.418531
560.232455	2662.971875
560.589381	2660.239570
560.946251	2661.880465
561.303065	2660.045485
561.659825	2659.513644
562.016528	2654.447284
562.373177	2653.943169
562.729770	2654.711945
563.086307	2654.291008
563.442789	2654.502737
563.799216	2654.119609
564.155587	2650.006028
564.511904	2650.928559
564.868164	2651.692293
565.224370	2647.495533
565.580520	2651.934269
565.936615	2649.219607
566.292654	2649.481747
566.648638	2646.494864
567.004567	2648.029895
567.360441	2647.717344
567.716260	2646.545275
568.072023	2645.884884
568.427732	2641.468833
568.783385	2643.147538
569.138982	2638.915489
569.494525	2639.785088
569.850013	2637.987917
570.205445	2643.603762
570.560823	2640.972280
570.916145	2641.252064
571.271412	2640.858854
571.626625	2639.212917
571.981782	2639.815335
572.336884	2641.347846
572.691931	2637.877011
573.046923	2638.368524
573.401860	2637.836682
573.756743	2638.870119
574.111570	2638.444141
574.466342	2638.121507
574.821059	2638.665952
575.175722	2637.753503
575.530330	2635.873153
575.884882	2636.531023
576.239380	2635.694192
576.593823	2636.427680
576.948211	2635.719397
577.302544	2631.688995
577.656823	2634.227216
578.011047	2633.886938
578.365216	2633.269397
578.719330	2632.790487
579.073389	2631.716721
579.427394	2631.341155
579.781344	2630.645476
580.135239	2630.590023
580.489080	2631.794859
580.842866	2630.131278
581.196597	2632.876187
581.550273	2629.768315
581.903895	2630.176649
582.257463	2629.458284
582.610975	2630.632873
582.964434	2628.573562
583.317837	2628.775208
583.671186	2628.223202
584.024481	2628.646659
584.377721	2628.482821
584.730906	2627.056175
585.084037	2628.939046
585.437113	2625.364867
585.790135	2626.544497
586.143103	2626.746144
586.496016	2628.946607
586.848874	2623.489558
587.201679	2624.709517
587.554428	2625.989971
587.907124	2624.391925
588.259765	2620.628703
588.612352	2626.990640
588.964884	2626.065588
589.317362	2627.862759
589.669786	2626.415948
590.022155	2622.937552
590.374470	2624.054167
590.726731	2624.913684
591.078937	2624.482666
591.431090	2624.197840
591.783188	2620.762294
592.135232	2625.347223
592.487222	2621.891512
592.839157	2624.838067
593.191038	2625.475773
593.542866	2622.047788
593.894639	2621.460494
594.246358	2624.054167
594.598022	2622.549383
594.949633	2622.297325
595.301190	2621.014352
595.652692	2621.848663
596.004141	2621.483179
596.355535	2621.281533
596.706876	2620.981584
597.058162	2619.171810
597.409395	2619.968312
597.760573	2620.348919
598.111698	2618.856738
598.462768	2619.665843
598.813785	2621.115175
599.164748	2618.453446
599.515657	2619.214660
599.866511	2619.880092
600.217312	2620.585854
600.568060	2617.253651
600.918753	2620.616101
601.269392	2617.659464
601.619978	2619.686008
601.970510	2620.905967
602.320988	2620.868158
602.671412	2619.645678
603.021783	2617.155348
603.372100	2618.652571
603.722363	2620.313631
604.072572	2619.605349
604.422728	2619.010493
604.772830	2614.637292
605.122878	2613.467744
605.472872	2613.674432
605.822813	2612.867847
606.172701	2615.143928
606.522534	2617.493106
606.872314	2618.975205
607.222041	2616.099227
607.571714	2617.498147
607.921333	2618.531583
608.270899	2616.101747
608.620411	2615.753908
608.969870	2618.745832
609.319276	2617.667026
609.668627	2616.265585
610.017926	2618.377828
610.367171	2617.261213
610.716362	2616.797427
611.065500	2615.731222
611.414585	2616.779782
611.763616	2617.422530
612.112594	2619.590226
612.461518	2617.236007
612.810389	2618.181223
613.159207	2617.122581
613.507971	2619.070987
613.856682	2618.342540
614.205340	2619.355812
614.553945	2620.681636
614.902496	2616.114350
615.250994	2617.588888
615.599439	2617.407406
615.947830	2615.524535
616.296169	2619.287757
616.644454	2619.713734
616.992686	2619.320524
617.340864	2617.883795
617.688990	2616.913373
618.037063	2618.786162
618.385082	2619.486882
618.733048	2621.062243
619.080961	2618.130812
619.428821	2615.683332
619.776628	2619.617952
620.124382	2618.171141
620.472083	2617.969495
620.819731	2620.681636
621.167326	2619.292798
621.514868	2618.551748
621.862357	2615.950513
622.209793	2616.189967
622.557176	2617.084772
622.904506	2613.936572
623.251783	2612.489761
623.599007	2612.830038
623.946179	2612.386417
624.293297	2612.661160
624.640363	2615.305245
624.987376	2614.264247
625.334336	2616.195009
625.681243	2612.537652
626.028097	2614.680142
626.374899	2612.552775
626.721647	2612.986314
627.068343	2613.825666
627.414987	2613.467744
627.761577	2614.251644
628.108115	2613.750049
628.454600	2611.116046
628.801032	2611.743670
629.147412	2612.318361
629.493739	2611.642847
629.840014	2611.264760
630.186236	2612.678804
630.532405	2612.827518
630.878521	2610.889194
631.224585	2613.031685
631.570597	2612.751901
631.916556	2612.719133
632.262462	2610.485902
632.608316	2612.595625
632.954117	2611.559668
633.299866	2609.684358
633.645562	2610.972373
633.991206	2610.402723
634.336797	2609.911210
634.682336	2612.071345
635.027823	2607.196549
635.373257	2610.067486
635.718639	2609.613782
636.063968	2609.102105
636.409245	2607.473812
636.754470	2606.523555
637.099642	2607.509101
637.444762	2606.957094
637.789829	2610.327106
638.134845	2608.187136
638.479808	2604.912906
638.824719	2607.345263
639.169577	2602.672113
639.514383	2604.265118
639.859137	2604.053390
640.203839	2610.072527
640.548489	2608.232506
640.893086	2602.268821
641.237632	2602.651949
641.582125	2601.636156
641.926566	2602.909048
642.270955	2604.411312
642.615292	2606.049687
642.959576	2605.878287
643.303809	2604.716301
643.647990	2601.058944
643.992118	2603.642536
644.336195	2604.517176
