Dividing Wavelength (nm)	Counts (n)	Blue Motor Position (mm): 0.000000	Red Motor Position (mm): 32.500000	
326.493990	2080.156517
326.888308	2080.156517
327.282561	2080.156517
327.676750	2055.104503
328.070874	2056.309339
328.464933	2061.320246
328.858929	2070.021278
329.252859	2085.227918
329.646726	2101.014291
330.040528	2115.444594
330.434265	2136.037708
330.827938	2154.110244
331.221547	2171.966011
331.615091	2193.925277
332.008571	2215.123329
332.401986	2236.568398
332.795338	2256.738054
333.188625	2276.017947
333.581847	2292.202572
333.975006	2311.585808
334.368100	2330.810248
334.761129	2346.276508
335.154095	2363.857532
335.546996	2387.364433
335.939833	2422.360123
336.332606	2436.896290
336.725315	2448.944648
337.117960	2457.633076
337.510540	2463.102728
337.903056	2472.532206
338.295508	2479.945223
338.687896	2486.052581
339.080220	2495.814775
339.472480	2500.535816
339.864676	2501.985148
340.256807	2503.991527
340.648875	2505.080416
341.040879	2509.199039
341.432818	2505.821466
341.824694	2509.362876
342.216506	2507.651405
342.608253	2506.678462
342.999937	2508.190808
343.391557	2509.675428
343.783113	2506.113853
344.174605	2504.311640
344.566033	2503.656290
344.957397	2507.129645
345.348697	2502.123779
345.739934	2497.911895
346.131106	2497.672441
346.522215	2498.083295
346.913260	2493.238746
347.304241	2493.145484
347.695159	2491.854949
348.086012	2491.885196
348.476802	2490.140957
348.867528	2486.055102
349.258191	2488.285812
349.648789	2487.930411
350.039324	2487.668271
350.429796	2483.854638
350.820203	2482.697693
351.210548	2485.349340
351.600828	2482.216263
351.991045	2481.470172
352.381198	2482.319607
352.771288	2484.010914
353.161314	2483.600060
353.551276	2481.853300
353.941175	2485.540904
354.331010	2485.548466
354.720782	2481.921355
355.110490	2484.751963
355.500135	2482.727940
355.889717	2484.477220
356.279235	2485.019144
356.668689	2488.240442
357.058080	2485.172900
357.447408	2484.247848
357.836672	2484.421768
358.225873	2485.256079
358.615010	2482.364977
359.004084	2489.805720
359.393095	2490.486276
359.782043	2490.279588
360.170927	2492.417038
360.559748	2490.710607
360.948505	2493.379898
361.337199	2497.891731
361.725830	2496.175218
362.114398	2496.533140
362.502903	2497.657317
362.891344	2496.729745
363.279722	2496.639004
363.668037	2499.325939
364.056289	2500.329129
364.444478	2502.398522
364.832603	2502.232164
365.220665	2502.148985
365.608665	2502.302740
365.996601	2504.591424
366.384474	2506.307937
366.772284	2508.394975
367.160031	2508.294152
367.547715	2511.351612
367.935336	2506.640653
368.322893	2507.631240
368.710388	2509.738442
369.097820	2515.145080
369.485189	2513.574760
369.872495	2514.961078
370.259738	2516.150790
370.646918	2518.341171
371.034035	2517.771521
371.421090	2522.285874
371.808081	2524.105731
372.195010	2530.603778
372.581875	2534.213244
372.968678	2542.518545
373.355418	2546.985008
373.742096	2558.264589
374.128710	2566.532082
374.515262	2580.516242
374.901751	2588.244331
375.288177	2606.228647
375.674540	2619.875051
376.060841	2638.734007
376.447079	2662.102276
376.833254	2681.336799
377.219367	2708.198587
377.605417	2734.387381
377.991404	2760.530805
378.377329	2796.842236
378.763191	2829.849191
379.148991	2873.424925
379.534727	2922.026689
379.920402	2964.077474
380.306013	3009.127745
380.691563	3070.503793
381.077049	3120.887605
381.462474	3173.923064
381.847835	3243.420411
382.233134	3310.182932
382.618371	3366.046479
383.003545	3447.995476
383.388657	3520.101620
383.773706	3608.384826
384.158693	3674.202131
384.543618	3765.320987
384.928480	3843.312678
385.313280	3939.737348
385.698017	4038.213768
386.082692	4148.577228
386.467305	4209.728945
386.851856	4327.039116
387.236344	4471.702587
387.620770	4537.035941
388.005133	4645.330008
388.389435	4785.312768
388.773674	4867.632290
389.157851	4992.552082
389.541965	5121.298110
389.926018	5144.578158
390.310008	5316.617616
390.693936	5438.401810
391.077802	5546.282503
391.461606	5674.952913
391.845348	5779.279592
392.229027	5898.870885
392.612645	6116.028669
392.996200	6226.573611
393.379694	6389.344907
393.763125	6612.635255
394.146494	6695.055600
394.529801	6827.897566
394.913047	7059.392391
395.296230	7061.832310
395.679351	7116.191072
396.062410	7360.145109
396.445408	7266.160357
396.828343	7422.524347
397.211217	7548.737195
397.594028	7442.041174
397.976778	7643.838563
398.359466	7806.695558
398.742092	7787.282075
399.124656	7929.699712
399.507158	8120.335986
399.889598	8138.363152
400.271977	8350.701593
400.654294	8382.405410
401.036549	8575.572343
401.418742	8605.282383
401.800874	8898.664934
402.182944	8977.939599
402.564952	9336.315226
402.946898	9177.544085
403.328783	9225.094769
403.710606	9423.285212
404.092367	9671.166308
404.474067	10021.145893
404.855705	9831.238066
405.237282	9789.202405
405.618797	10207.164470
406.000250	10445.986613
406.381642	10808.352313
406.762972	10749.693447
407.144240	10568.534543
407.525447	10825.184726
407.906593	10774.155646
408.287677	11030.301714
408.668700	11176.439723
409.049661	11163.897332
409.430560	11324.695017
409.811399	11298.014710
410.192176	11460.135697
410.572891	11539.198633
410.953545	12011.511899
411.334138	11504.086997
411.714669	12083.169380
412.095139	11434.768611
412.475547	11908.276630
412.855894	11781.476487
413.236180	12089.249012
413.616405	11788.231633
413.996568	12064.333109
414.376670	12046.300902
414.756711	11928.388313
415.136691	12205.440046
415.516609	12383.546532
415.896466	12467.630458
416.276262	12753.688212
416.655997	13205.365514
417.035670	13252.288574
417.415283	13863.803221
417.794834	13955.466522
418.174324	13706.698182
418.553753	13611.584212
418.933121	14091.554990
419.312428	13930.001133
419.691674	13837.359849
420.070859	14300.276403
420.449983	13956.600781
420.829045	14510.623589
421.208047	14275.136169
421.586988	14720.917842
421.965867	14963.646879
422.344686	14971.906810
422.723444	15539.081988
423.102141	14237.148554
423.480777	15420.632517
423.859352	14927.040541
424.237866	16025.364291
424.616319	15741.519603
424.994712	16385.700927
425.373044	16191.523242
425.751314	16868.822426
426.129524	16005.907957
426.507673	17084.309068
426.885762	16812.590875
427.263789	16979.037173
427.641756	17169.817119
428.019662	17231.140235
428.397508	17277.856608
428.775292	17562.223055
429.153016	17548.526240
429.530679	17620.284545
429.908282	17649.132547
430.285824	17390.256695
430.663305	18095.541844
431.040726	17715.033031
431.418086	17559.394968
431.795385	18195.739818
432.172624	18631.519842
432.549802	18188.314198
432.926920	18399.427639
433.303977	18282.422458
433.680974	18532.937558
434.057910	18850.905816
434.434786	18879.713489
434.811601	18819.401125
435.188355	19853.664413
435.565050	19531.557367
435.941683	19485.808896
436.318257	20387.593181
436.694770	20171.521765
437.071222	20778.695979
437.447614	19854.407983
437.823946	19882.671212
438.200218	20052.903415
438.576429	19831.069961
438.952580	20135.802670
439.328670	20106.674883
439.704700	20526.396311
440.080670	20092.547049
440.456580	20711.983869
440.832429	20884.935775
441.208218	19894.056658
441.583947	20328.248718
441.959616	20447.489650
442.335224	20711.567974
442.710773	20841.405412
443.086261	21392.080893
443.461689	20743.463354
443.837057	20901.281717
444.212365	21548.591076
444.587612	21564.654713
444.962800	21153.624234
445.337927	21583.732960
445.712995	20299.110849
446.088002	22204.026776
446.462949	22404.125296
446.837837	22587.935847
447.212664	22602.174586
447.587431	25561.924229
447.962139	28527.193936
448.336786	30841.862410
448.711374	29175.514047
449.085901	25443.557937
449.460369	25451.938855
449.834776	25456.135616
450.209124	28001.532660
450.583412	27488.764135
450.957640	27989.769127
451.331808	26627.051982
451.705917	25249.435705
452.079965	25291.199144
452.453954	25694.269641
452.827883	25596.995537
453.201752	25389.179011
453.575562	25559.018004
453.949311	26685.824274
454.323001	26766.039114
454.696632	26545.491153
455.070202	28149.424990
455.443713	28332.325614
455.817164	28909.973789
456.190556	29485.519803
456.563888	28872.596154
456.937160	29334.484313
457.310373	27611.168391
457.683526	28052.833962
458.056619	28048.531337
458.429653	28043.069247
458.802628	28639.720052
459.175542	28784.166753
459.548398	30158.460909
459.921194	31792.634107
460.293930	32520.180992
460.666607	34620.015654
461.039224	36413.143994
461.411782	36776.139839
461.784280	35484.049258
462.156719	34919.820635
462.529099	34361.795151
462.901419	33026.580020
463.273680	31954.475311
463.645882	32097.681888
464.018024	32103.736314
464.390106	33027.379043
464.762130	35949.607378
465.134094	40280.008943
465.505999	45779.721267
465.877845	50307.806639
466.249631	51314.424239
466.621358	49455.055137
466.993026	47201.855972
467.364634	45059.511781
467.736184	43110.069862
468.107674	41821.830723
468.479105	41026.442511
468.850477	40298.628445
469.221790	38848.356539
469.593043	37061.897645
469.964238	36170.803126
470.335373	36125.142875
470.706449	37977.779517
471.077467	40740.883831
471.448425	45414.789619
471.819324	48165.205349
472.190164	46171.302974
472.560945	42514.142463
472.931667	39366.919870
473.302330	38273.226420
473.672934	37429.531351
474.043479	37958.789490
474.413965	37165.306833
474.784393	36784.800541
475.154761	37716.340237
475.525070	37763.661548
475.895321	37284.865359
476.265513	37909.310565
476.635645	38899.005012
477.005719	38741.962987
477.375734	39243.204914
477.745691	39974.439403
478.115588	41349.335976
478.485427	43459.966269
478.855207	46939.912577
479.224928	49597.394636
479.594591	51133.562762
479.964194	50027.901613
480.333739	50164.751296
480.703226	50227.170863
481.072653	50868.715663
481.442022	51345.749969
481.811333	51560.077145
482.180584	50262.970617
482.549777	49733.276417
482.918912	49196.053255
483.287988	48882.662364
483.657005	48036.953354
484.025964	47353.410701
484.394864	47346.955503
484.763706	46902.759273
485.132489	46002.683939
485.501213	45838.536408
485.869879	45980.903634
486.238487	45568.590182
486.607036	45744.274393
486.975527	45178.649370
487.343959	45393.276495
487.712333	45445.580987
488.080648	45335.630901
488.448905	45776.494928
488.817104	45571.549339
489.185244	46585.978207
489.553326	48314.799069
489.921350	51074.757703
490.289315	53895.278238
490.657222	54405.730353
491.025070	54629.018181
491.392861	53679.577348
491.760593	52378.122824
492.128267	50648.870943
492.495883	49073.500284
492.863440	47628.619892
493.230939	46235.139105
493.598380	45121.074352
493.965763	44777.575170
494.333088	43924.727886
494.700354	43400.289089
495.067563	43077.546858
495.434713	42890.295719
495.801805	42931.534878
496.168839	42503.349353
496.535815	42132.451500
496.902733	42107.613735
497.269593	41641.508650
497.636395	41545.255379
498.003139	41874.982129
498.369825	41279.694957
498.736453	41547.614639
499.103023	41013.390963
499.469535	40863.078879
499.835989	40866.663140
500.202385	40481.513945
500.568723	40442.676895
500.935003	40561.234752
501.301226	40286.874995
501.667390	40816.962404
502.033497	40996.004024
502.399546	40365.637982
502.765537	39602.243452
503.131470	39891.547710
503.497345	40160.137866
503.863163	38755.621993
504.228923	39287.365422
504.594625	39586.575546
504.960269	38774.891804
505.325856	39343.841468
505.691385	38642.226279
506.056856	38675.457565
506.422270	38976.820262
506.787625	38456.467321
507.152924	38535.076554
507.518164	38520.777321
507.883347	37638.537589
508.248472	37740.900738
508.613540	38094.830068
508.978550	38241.124352
509.343503	37877.395020
509.708398	37925.512833
510.073236	38286.656054
510.438016	38144.072058
510.802738	37490.564600
511.167403	37918.752646
511.532010	37974.999320
511.896561	38093.615150
512.261053	38710.486022
512.625488	38145.629775
512.989866	37868.731797
513.354186	37561.234015
513.718449	37380.891778
514.082655	37821.581885
514.446803	37345.709565
514.810894	37652.763725
515.174927	37380.463280
515.538904	37135.785837
515.902822	37512.468414
516.266684	36854.391149
516.630488	37038.491567
516.994235	36701.442542
517.357925	37007.967381
517.721558	36965.273849
518.085133	37018.150512
518.448651	36906.589777
518.812112	36513.830960
519.175516	36390.577269
519.538863	36458.902548
519.902152	36220.566876
520.265385	36384.764819
520.628560	36176.794537
520.991678	35787.062934
521.354739	35766.699193
521.717743	35787.821627
522.080690	35467.743646
522.443580	35675.343403
522.806413	35468.613245
523.169189	35220.134772
523.531908	35100.793017
523.894569	34738.863376
524.257174	34635.129033
524.619722	34600.952530
524.982213	34343.420145
525.344647	34045.949218
525.707025	33824.231710
526.069345	33883.734970
526.431608	33557.221956
526.793815	33540.598751
527.155964	32932.179373
527.518057	32801.525268
527.880093	32385.909860
528.242072	32500.762468
528.603995	32023.642462
528.965860	31758.336617
529.327669	31570.972052
529.689421	31238.424777
530.051117	30938.662646
530.412755	30768.717788
530.774337	30576.017162
531.135862	30165.304276
531.497331	30027.516938
531.858743	29697.248264
532.220098	29643.678443
532.581396	29194.360401
532.942638	28696.269195
533.303824	28643.574014
533.664953	28352.432256
534.026025	27898.806548
534.387040	27915.785154
534.747999	27630.188665
535.108902	27452.377086
535.469748	26892.637610
535.830537	26702.011419
536.191270	26533.674689
536.551947	26078.214001
536.912567	25990.560938
537.273131	25793.018283
537.633638	25241.246351
537.994089	25170.997872
538.354483	24683.107441
538.714821	24723.229985
539.075103	24637.162365
539.435328	24247.047633
539.795497	23912.637652
540.155609	23665.900897
540.515665	23638.792093
540.875665	23094.254216
541.235609	22992.354853
541.595496	22721.528945
541.955328	22782.196711
542.315102	22218.827604
542.674821	21860.068849
543.034483	21630.315742
543.394090	21360.130060
543.753640	21086.778534
544.113134	21280.386568
544.472571	20586.106258
544.831953	20876.050742
545.191278	20283.198447
545.550548	19923.083622
545.909761	19875.769872
546.268918	19701.943326
546.628019	19589.991902
546.987064	19164.150513
547.346053	18642.670874
547.704986	18735.735615
548.063863	18334.890787
548.422684	18158.684817
548.781449	17859.252881
549.140158	17774.969830
549.498811	17483.820510
549.857408	17071.494455
550.215949	17119.171167
550.574434	16870.536418
550.932864	16574.192189
551.291237	16585.489415
551.649555	16252.737973
552.007817	16107.966117
552.366022	15789.992818
552.724173	15633.432223
553.082267	15541.572318
553.440305	15415.848462
553.798288	15005.564073
554.156215	14892.879162
554.514086	14752.576288
554.871902	14476.273167
555.229661	14299.283296
555.587365	14058.590885
555.945014	13901.385023
556.302606	13692.277962
556.660143	13564.714084
557.017625	13401.751224
557.375050	13159.065037
557.732421	13052.245508
558.089735	12864.671735
558.446994	12669.727795
558.804197	12590.400198
559.161345	12400.820046
559.518437	12054.028990
559.875474	11952.575769
560.232455	11826.609937
560.589381	11708.830940
560.946251	11488.668628
561.303065	11456.354832
561.659825	11254.156671
562.016528	11042.382839
562.373177	10838.584113
562.729770	10772.970975
563.086307	10541.057733
563.442789	10477.095573
563.799216	10341.473412
564.155587	10164.816257
564.511904	10032.107882
564.868164	9906.668851
565.224370	9816.578391
565.580520	9643.666814
565.936615	9544.144355
566.292654	9370.978199
566.648638	9289.021641
567.004567	9158.662443
567.360441	9044.997027
567.716260	8905.155419
568.072023	8826.397473
568.427732	8711.254998
568.783385	8535.112042
569.138982	8477.277404
569.494525	8365.086526
569.850013	8227.059733
570.205445	8126.191286
570.560823	8014.565016
570.916145	7895.492962
571.271412	7802.171123
571.626625	7677.082452
571.981782	7580.872030
572.336884	7455.680016
572.691931	7398.714977
573.046923	7271.934999
573.401860	7162.940212
573.756743	7074.210863
574.111570	6995.793194
574.466342	6897.236116
574.821059	6822.571587
575.175722	6703.887702
575.530330	6623.761082
575.884882	6520.634197
576.239380	6441.251148
576.593823	6361.747111
576.948211	6285.678620
577.302544	6172.003121
577.656823	6102.586432
578.011047	6055.912910
578.365216	5970.127595
578.719330	5888.118104
579.073389	5811.295960
579.427394	5755.724801
579.781344	5689.277352
580.135239	5605.599239
580.489080	5549.735693
580.842866	5461.051715
581.196597	5434.212612
581.550273	5377.524837
581.903895	5312.698119
582.257463	5283.920692
582.610975	5198.679822
582.964434	5163.217825
583.317837	5094.779120
583.671186	5031.880644
584.024481	4995.523842
584.377721	4918.482408
584.730906	4887.512080
585.084037	4844.916850
585.437113	4781.796563
585.790135	4733.038523
586.143103	4669.522505
586.496016	4638.090911
586.848874	4592.526442
587.201679	4552.819794
587.554428	4488.625741
587.907124	4460.672543
588.259765	4411.879214
588.612352	4389.839290
588.964884	4329.088345
589.317362	4303.270075
589.669786	4266.915794
590.022155	4223.473651
590.374470	4202.315928
590.726731	4154.989576
591.078937	4101.354220
591.431090	4073.395981
591.783188	4028.073487
592.135232	3987.580419
592.487222	3964.181903
592.839157	3940.974951
593.191038	3904.560177
593.542866	3869.451061
593.894639	3824.393228
594.246358	3806.517296
594.598022	3785.271353
594.949633	3744.508583
595.301190	3723.330696
595.652692	3694.386911
596.004141	3683.803008
596.355535	3635.332314
596.706876	3609.743417
597.058162	3585.956733
597.409395	3579.284766
597.760573	3564.360430
598.111698	3534.836912
598.462768	3516.509798
598.813785	3502.717201
599.164748	3473.715443
599.515657	3466.962817
599.866511	3442.059517
600.217312	3438.225719
600.568060	3403.325811
600.918753	3406.864701
601.269392	3393.520767
601.619978	3371.886655
601.970510	3366.671582
602.320988	3355.893595
602.671412	3351.588449
603.021783	3332.537929
603.372100	3312.186791
603.722363	3305.938281
604.072572	3297.000315
604.422728	3290.625776
604.772830	3271.766819
605.122878	3264.510078
605.472872	3254.954571
605.822813	3246.435021
606.172701	3238.197776
606.522534	3235.720049
606.872314	3232.012280
607.222041	3221.078017
607.571714	3218.174313
607.921333	3201.465408
608.270899	3198.382743
608.620411	3196.451981
608.969870	3186.528470
609.319276	3179.871626
609.668627	3175.629495
610.017926	3177.257788
610.367171	3170.666479
610.716362	3166.681447
611.065500	3159.099552
611.414585	3154.081083
611.763616	3153.960095
612.112594	3149.168478
612.461518	3145.501039
612.810389	3143.507263
613.159207	3137.684730
613.507971	3131.348000
613.856682	3130.775829
614.205340	3125.200312
614.553945	3130.082670
614.902496	3115.049949
615.250994	3116.655557
615.599439	3109.965946
615.947830	3111.415277
616.296169	3104.655090
616.644454	3106.061572
616.992686	3102.331118
617.340864	3104.708022
617.688990	3094.441712
618.037063	3096.881631
618.385082	3093.080601
618.733048	3090.126485
619.080961	3088.578850
619.428821	3086.338058
619.776628	3082.721030
620.124382	3074.715677
620.472083	3073.024370
620.819731	3068.883062
621.167326	3059.992988
621.514868	3059.473749
621.862357	3045.817263
622.209793	3046.560833
622.557176	3035.850902
622.904506	3028.861342
623.251783	3017.485978
623.599007	3013.959691
623.946179	3007.408712
624.293297	3007.005419
624.640363	2999.163905
624.987376	2992.219715
625.334336	2986.717296
625.681243	2981.555154
626.028097	2981.608086
626.374899	2974.300934
626.721647	2972.617188
627.068343	2966.091415
627.414987	2962.383646
627.761577	2960.427678
628.108115	2957.518933
628.454600	2950.713375
628.801032	2950.756225
629.147412	2945.405040
629.493739	2942.791202
629.840014	2938.158381
630.186236	2936.789708
630.532405	2932.960952
630.878521	2932.764347
631.224585	2928.318049
631.570597	2923.327307
631.916556	2922.286308
632.262462	2919.301945
632.608316	2919.312028
632.954117	2914.051584
633.299866	2913.665935
633.645562	2912.667787
633.991206	2906.573032
634.336797	2898.451733
634.682336	2895.885786
635.027823	2893.244221
635.373257	2889.357492
635.718639	2884.878426
636.063968	2882.768703
636.409245	2873.167826
636.754470	2873.029194
637.099642	2868.469471
637.444762	2866.395036
637.789829	2860.577544
638.134845	2858.505630
