Dividing Wavelength (nm)	Counts (n)	Blue Motor Position (mm): 0.000000	Red Motor Position (mm): 13.200000	
326.493990	2127.939094
326.888308	2127.939094
327.282561	2127.939094
327.676750	2095.685792
328.070874	2094.435586
328.464933	2098.677717
328.858929	2102.463623
329.252859	2114.254882
329.646726	2125.877262
330.040528	2137.121556
330.434265	2155.637714
330.827938	2171.877791
331.221547	2189.408403
331.615091	2207.995138
332.008571	2228.820144
332.401986	2248.125243
332.795338	2267.700043
333.188625	2286.702673
333.581847	2307.351239
333.975006	2326.152222
334.368100	2343.627382
334.761129	2361.024404
335.154095	2376.374717
335.546996	2393.597819
335.939833	2409.111970
336.332606	2424.598395
336.725315	2435.126845
337.117960	2447.298711
337.510540	2454.560493
337.903056	2466.140023
338.295508	2470.349387
338.687896	2482.077631
339.080220	2487.199443
339.472480	2495.063643
339.864676	2498.975579
340.256807	2506.093688
340.648875	2507.875736
341.040879	2509.781292
341.432818	2511.112157
341.824694	2513.297497
342.216506	2513.350429
342.608253	2514.537621
342.999937	2513.196674
343.391557	2512.939575
343.783113	2510.098885
344.174605	2512.150634
344.566033	2508.669718
344.957397	2511.770027
345.348697	2506.789367
345.739934	2507.837927
346.131106	2503.142093
346.522215	2500.397184
346.913260	2498.988182
347.304241	2497.783346
347.695159	2495.504744
348.086012	2493.241266
348.476802	2492.865700
348.867528	2489.039465
349.258191	2488.966368
349.648789	2491.577686
350.039324	2485.795482
350.429796	2484.494864
350.820203	2484.376397
351.210548	2483.103506
351.600828	2481.875985
351.991045	2481.883547
352.381198	2479.554534
352.771288	2480.134266
353.161314	2482.732981
353.551276	2482.523773
353.941175	2478.974801
354.331010	2479.884729
354.720782	2480.628299
355.110490	2481.397075
355.500135	2481.550831
355.889717	2484.487303
356.279235	2480.749287
356.668689	2482.112919
357.058080	2483.930255
357.447408	2479.594863
357.836672	2479.824235
358.225873	2480.522435
358.615010	2482.145687
359.004084	2483.665595
359.393095	2486.884371
359.782043	2486.155925
360.170927	2485.982005
360.559748	2487.186841
360.948505	2486.539052
361.337199	2488.794969
361.725830	2487.408651
362.114398	2490.259424
362.502903	2490.133395
362.891344	2493.899137
363.279722	2490.879486
363.668037	2492.444764
364.056289	2491.033241
364.444478	2492.626246
364.832603	2494.703201
365.220665	2494.224291
365.608665	2493.367295
365.996601	2495.487100
366.384474	2495.673623
366.772284	2497.080105
367.160031	2497.548932
367.547715	2498.884838
367.935336	2502.509428
368.322893	2504.926661
368.710388	2507.674090
369.097820	2517.668177
369.485189	2518.827643
369.872495	2526.162522
370.259738	2529.837523
370.646918	2540.701209
371.034035	2544.691283
371.421090	2554.360216
371.808081	2567.263049
372.195010	2574.676066
372.581875	2586.784917
372.968678	2601.021136
373.355418	2610.591766
373.742096	2629.102883
374.128710	2641.761220
374.515262	2656.730927
374.901751	2674.526200
375.288177	2686.740916
375.674540	2708.203628
376.060841	2727.899416
376.447079	2745.407343
376.833254	2766.184459
377.219367	2776.972528
377.605417	2815.146666
377.991404	2823.678819
378.377329	2846.863085
378.763191	2862.926722
379.148991	2901.799059
379.534727	2927.088008
379.920402	2954.884930
380.306013	2964.440437
380.691563	3016.167717
381.077049	3040.249308
381.462474	3055.219015
381.847835	3094.993719
382.233134	3116.272429
382.618371	3111.664814
383.003545	3183.944878
383.388657	3190.831094
383.773706	3221.703121
384.158693	3238.469998
384.543618	3261.936569
384.928480	3300.471149
385.313280	3343.472192
385.698017	3341.596883
386.082692	3397.228536
386.467305	3403.993764
386.851856	3431.488217
387.236344	3453.543265
387.620770	3485.007627
388.005133	3506.228364
388.389435	3528.442209
388.773674	3536.545863
389.157851	3573.918457
389.541965	3582.992534
389.926018	3545.662790
390.310008	3604.997171
390.693936	3613.582256
391.077802	3643.599807
391.461606	3620.148359
391.845348	3664.460101
392.229027	3651.685817
392.612645	3646.407729
392.996200	3696.864638
393.379694	3718.103019
393.763125	3752.846652
394.146494	3704.975855
394.529801	3734.741348
394.913047	3750.711723
395.296230	3699.095349
395.679351	3716.464644
396.062410	3708.204714
396.445408	3664.344155
396.828343	3656.764780
397.211217	3646.712719
397.594028	3562.495203
397.976778	3574.243612
398.359466	3558.457239
398.742092	3543.825290
399.124656	3463.020635
399.507158	3478.943119
399.889598	3460.331179
400.271977	3459.333031
400.654294	3403.061151
401.036549	3369.199720
401.418742	3321.999397
401.800874	3332.807631
402.182944	3306.422232
402.564952	3293.844553
402.946898	3254.495826
403.328783	3211.464537
403.710606	3145.052376
404.092367	3171.836027
404.474067	3129.195427
404.855705	3098.552773
405.237282	3046.946481
405.618797	3040.093033
406.000250	3014.032788
406.381642	3003.905110
406.762972	2964.042186
407.144240	2935.854574
407.525447	2908.428177
407.906593	2886.554610
408.287677	2869.276055
408.668700	2829.128306
409.049661	2815.103816
409.430560	2793.769653
409.811399	2764.984664
410.192176	2757.370002
410.572891	2734.649521
410.953545	2721.003118
411.334138	2695.890610
411.714669	2683.685976
412.095139	2662.462719
412.475547	2654.248158
412.855894	2640.861374
413.236180	2629.526340
413.616405	2616.000924
413.996568	2605.923658
414.376670	2598.417380
414.756711	2585.673343
415.136691	2579.124884
415.516609	2575.031467
415.896466	2571.071641
416.276262	2567.434448
416.655997	2556.918601
417.035670	2554.839125
417.415283	2551.058260
417.794834	2543.005017
418.174324	2544.920655
418.553753	2542.624409
418.933121	2544.121632
419.312428	2540.860006
419.691674	2536.811959
420.070859	2539.256919
420.449983	2534.820703
420.829045	2534.735004
421.208047	2533.986392
421.586988	2531.327184
421.965867	2533.976310
422.344686	2534.225847
422.723444	2531.213758
423.102141	2530.069416
423.480777	2532.867256
423.859352	2528.511699
424.237866	2528.267203
424.616319	2531.586803
424.994712	2529.504807
425.373044	2530.845753
425.751314	2528.483973
426.129524	2527.871473
426.507673	2530.329035
426.885762	2532.176618
427.263789	2531.896834
427.641756	2529.023376
428.019662	2530.639066
428.397508	2530.291227
428.775292	2530.472708
429.153016	2528.708304
429.530679	2530.424817
429.908282	2530.664272
430.285824	2531.155784
430.663305	2527.838705
431.040726	2530.228212
431.418086	2527.795855
431.795385	2530.747451
432.172624	2528.940197
432.549802	2530.959179
432.926920	2528.168901
433.303977	2531.052441
433.680974	2531.468336
434.057910	2530.697039
434.434786	2530.492873
434.811601	2530.495393
435.188355	2529.285516
435.565050	2529.250228
435.941683	2530.326515
436.318257	2528.904909
436.694770	2527.329549
437.071222	2528.559590
437.447614	2525.169414
437.823946	2528.327697
438.200218	2528.995650
438.576429	2529.855167
438.952580	2531.354910
439.328670	2531.044879
439.704700	2534.190559
440.080670	2533.159643
440.456580	2531.433048
440.832429	2533.278110
441.208218	2531.095291
441.583947	2533.376413
441.959616	2531.516227
442.335224	2533.333563
442.710773	2531.939684
443.086261	2532.746268
443.461689	2530.326515
443.837057	2533.136958
444.212365	2534.019160
444.587612	2532.511855
444.962800	2534.203162
445.337927	2534.755168
445.712995	2532.443799
446.088002	2535.382792
446.462949	2534.286341
446.837837	2533.162164
447.212664	2533.026052
447.587431	2533.373892
447.962139	2535.932278
448.336786	2539.103163
448.711374	2537.066537
449.085901	2538.891435
449.460369	2534.588810
449.834776	2534.200641
450.209124	2536.902700
450.583412	2536.103677
450.957640	2537.989068
451.331808	2538.578883
451.705917	2535.229037
452.079965	2536.615354
452.453954	2537.084181
452.827883	2537.497556
453.201752	2537.129552
453.575562	2534.682072
453.949311	2536.872453
454.323001	2536.012936
454.696632	2534.813142
455.070202	2535.617206
455.443713	2537.759696
455.817164	2538.346990
456.190556	2535.788605
456.563888	2536.635519
456.937160	2534.392205
457.310373	2538.079809
457.683526	2538.243647
458.056619	2538.546116
458.429653	2535.960004
458.802628	2541.101981
459.175542	2537.467309
459.548398	2538.107536
459.921194	2539.050231
460.293930	2541.066693
460.666607	2542.064841
461.039224	2541.220448
461.411782	2543.796478
461.784280	2541.288504
462.156719	2543.262115
462.529099	2544.141797
462.901419	2541.336395
463.273680	2541.734646
463.645882	2545.079451
464.018024	2543.811601
464.390106	2542.853782
464.762130	2543.161292
465.134094	2544.010727
465.505999	2547.373176
465.877845	2550.410472
466.249631	2555.865000
466.621358	2551.511964
466.993026	2554.115720
467.364634	2553.379711
467.736184	2548.081458
468.107674	2545.107178
468.479105	2547.189174
468.850477	2549.992056
469.221790	2548.966181
469.593043	2545.644061
469.964238	2546.427960
470.335373	2547.839483
470.706449	2548.431819
471.077467	2547.640358
471.448425	2553.989691
471.819324	2555.567572
472.190164	2554.065308
472.560945	2550.072714
472.931667	2548.467107
473.302330	2549.001469
473.672934	2548.174720
474.043479	2545.046684
474.413965	2549.132539
474.784393	2543.332692
475.154761	2546.700182
475.525070	2543.337733
475.895321	2544.237579
476.265513	2543.196580
476.635645	2547.768907
477.005719	2547.466438
477.375734	2550.352498
477.745691	2548.325954
478.115588	2552.724361
478.485427	2551.249824
478.855207	2552.003476
479.224928	2551.743857
479.594591	2556.343910
479.964194	2551.663198
480.333739	2552.101779
480.703226	2555.502037
481.072653	2555.696121
481.442022	2552.575647
481.811333	2555.131512
482.180584	2555.060936
482.549777	2554.236707
482.918912	2553.185627
483.287988	2553.092365
483.657005	2551.340564
484.025964	2553.805689
484.394864	2553.934238
484.763706	2552.915925
485.132489	2551.713610
485.501213	2552.424413
485.869879	2550.241593
486.238487	2552.290822
486.607036	2552.477345
486.975527	2553.049516
487.343959	2550.317210
487.712333	2551.416182
488.080648	2551.799309
488.448905	2552.971378
488.817104	2551.353167
489.185244	2552.981460
489.553326	2552.709238
489.921350	2555.529763
490.289315	2556.580844
490.657222	2556.406924
491.025070	2555.628066
491.392861	2555.585216
491.760593	2558.090669
492.128267	2556.016235
492.495883	2553.651933
492.863440	2557.203426
493.230939	2552.331151
493.598380	2552.999104
493.965763	2551.441387
494.333088	2551.073383
494.700354	2548.492312
495.067563	2550.349978
495.434713	2548.628424
495.801805	2552.101779
496.168839	2552.840308
496.535815	2550.216387
496.902733	2552.409289
497.269593	2550.418033
497.636395	2554.629917
498.003139	2553.609084
498.369825	2550.828887
498.736453	2552.862993
499.103023	2550.851573
499.469535	2553.891388
499.835989	2554.145967
500.202385	2552.860472
500.568723	2552.293342
500.935003	2550.299566
501.301226	2550.803682
501.667390	2555.494475
502.033497	2553.485575
502.399546	2555.005483
502.765537	2554.135884
503.131470	2552.540359
503.497345	2552.416851
503.863163	2553.853580
504.228923	2552.285781
504.594625	2553.752757
504.960269	2552.361398
505.325856	2551.038095
505.691385	2551.239741
506.056856	2552.789896
506.422270	2550.120605
506.787625	2551.552293
507.152924	2553.964485
507.518164	2554.173693
507.883347	2552.999104
508.248472	2553.941800
508.613540	2551.963147
508.978550	2553.621687
509.343503	2554.201419
509.708398	2554.473642
510.073236	2554.322407
510.438016	2555.832232
510.802738	2552.626059
511.167403	2552.772252
511.532010	2553.478014
511.896561	2551.816953
512.261053	2557.016904
512.625488	2550.995245
512.989866	2553.430123
513.354186	2551.189330
513.718449	2548.240255
514.082655	2551.494320
514.446803	2554.645041
514.810894	2554.135884
515.174927	2554.367777
515.538904	2553.248641
515.902822	2555.128992
516.266684	2552.847869
516.630488	2554.385421
516.994235	2553.750236
517.357925	2554.284598
517.721558	2556.958930
518.085133	2557.180741
518.448651	2555.862479
518.812112	2556.865669
519.175516	2556.835422
519.538863	2554.266954
519.902152	2554.914742
520.265385	2552.789896
520.628560	2553.346944
520.991678	2553.097407
521.354739	2554.710576
521.717743	2554.884496
522.080690	2556.671585
522.443580	2553.094886
522.806413	2555.539846
523.169189	2556.913560
523.531908	2553.727551
523.894569	2554.271995
524.257174	2556.548076
524.619722	2554.672767
524.982213	2556.054043
525.344647	2554.907181
525.707025	2554.345092
526.069345	2556.800134
526.431608	2556.464897
526.793815	2557.732748
527.155964	2556.018755
527.518057	2554.314845
527.880093	2554.997922
528.242072	2555.439023
528.603995	2557.596636
528.965860	2556.260731
529.327669	2554.282078
529.689421	2554.529094
530.051117	2556.656461
530.412755	2554.128323
530.774337	2555.224773
531.135862	2554.735782
531.497331	2553.084804
531.858743	2548.819988
532.220098	2552.242931
532.581396	2550.140770
532.942638	2553.261244
533.303824	2553.825853
533.664953	2555.139074
534.026025	2554.876934
534.387040	2555.638148
534.747999	2556.011193
535.108902	2554.594629
535.469748	2557.268961
535.830537	2555.565051
536.191270	2553.677139
536.551947	2555.880123
536.912567	2555.867521
537.273131	2554.955072
537.633638	2553.145297
537.994089	2554.289639
538.354483	2552.928528
538.714821	2555.461708
539.075103	2556.217881
539.435328	2557.619322
539.795497	2554.834084
540.155609	2557.178221
540.515665	2555.723848
540.875665	2557.856256
541.235609	2556.994218
541.595496	2553.326779
541.955328	2555.005483
542.315102	2556.422047
542.674821	2557.412634
543.034483	2555.219732
543.394090	2555.706204
543.753640	2555.509599
544.113134	2553.651933
544.472571	2555.771739
544.831953	2558.057902
545.191278	2556.296019
545.550548	2554.652603
545.909761	2555.446584
546.268918	2554.297201
546.628019	2555.312994
546.987064	2556.885834
547.346053	2556.275854
547.704986	2554.178734
548.063863	2556.422047
548.422684	2554.705535
548.781449	2553.593960
549.140158	2554.592109
549.498811	2556.744681
549.857408	2555.312994
550.215949	2553.765359
550.574434	2553.921635
550.932864	2553.059598
551.291237	2550.803682
551.649555	2554.481203
552.007817	2553.369629
552.366022	2552.805020
552.724173	2556.371636
553.082267	2555.010524
553.440305	2555.255020
553.798288	2555.643189
554.156215	2553.054557
554.514086	2555.602860
554.871902	2553.583878
555.229661	2555.277706
555.587365	2551.811912
555.945014	2554.266954
556.302606	2551.678322
556.660143	2555.733930
557.017625	2555.789383
557.375050	2557.944476
557.732421	2554.367777
558.089735	2555.486913
558.446994	2556.691749
558.804197	2555.572613
559.161345	2554.803837
559.518437	2553.435164
559.875474	2557.289126
560.232455	2555.920453
560.589381	2556.853066
560.946251	2555.328117
561.303065	2556.797613
561.659825	2553.084804
562.016528	2553.717468
562.373177	2555.335679
562.729770	2556.825340
563.086307	2554.796275
563.442789	2557.563869
563.799216	2556.951369
564.155587	2555.224773
564.511904	2557.276523
564.868164	2553.606563
565.224370	2557.609239
565.580520	2552.855431
565.936615	2554.458518
566.292654	2555.600339
566.648638	2556.182593
567.004567	2555.010524
567.360441	2555.653272
567.716260	2553.810730
568.072023	2555.181924
568.427732	2552.290822
568.783385	2553.621687
569.138982	2550.990204
569.494525	2552.263096
569.850013	2551.088507
570.205445	2553.833415
570.560823	2555.255020
570.916145	2553.087324
571.271412	2553.732592
571.626625	2553.641851
571.981782	2556.540515
572.336884	2554.403065
572.691931	2555.257541
573.046923	2551.958106
573.401860	2555.360885
573.756743	2553.929197
574.111570	2553.180586
574.466342	2554.957592
574.821059	2554.178734
575.175722	2554.183775
575.530330	2551.769062
575.884882	2556.782490
576.239380	2556.323745
576.593823	2558.020093
576.948211	2551.693445
577.302544	2555.151677
577.656823	2556.417006
578.011047	2554.801317
578.365216	2554.955072
578.719330	2552.429454
579.073389	2553.253682
579.427394	2551.554813
579.781344	2553.319217
580.135239	2554.619835
580.489080	2553.719989
580.842866	2552.371480
581.196597	2556.490103
581.550273	2555.968344
581.903895	2553.835936
582.257463	2556.288457
582.610975	2554.496327
582.964434	2554.014897
583.317837	2552.394166
583.671186	2555.050854
584.024481	2556.220401
584.377721	2553.470452
584.730906	2552.978939
585.084037	2554.768549
585.437113	2551.892571
585.790135	2552.590771
586.143103	2551.212015
586.496016	2554.564382
586.848874	2547.209339
587.201679	2553.699824
587.554428	2549.918959
587.907124	2553.319217
588.259765	2548.819987
588.612352	2555.229815
588.964884	2550.319731
589.317362	2549.810574
589.669786	2551.330482
590.022155	2552.442057
590.374470	2554.140925
590.726731	2554.052705
591.078937	2552.802499
591.431090	2553.288970
591.783188	2552.938610
592.135232	2551.411141
592.487222	2554.786193
592.839157	2553.535987
593.191038	2552.668908
593.542866	2552.356357
593.894639	2553.321738
594.246358	2550.360060
594.598022	2553.019269
594.949633	2552.580688
595.301190	2552.152190
595.652692	2553.944320
596.004141	2549.185471
596.355535	2552.278219
596.706876	2553.651933
597.058162	2550.962478
597.409395	2552.167314
597.760573	2552.275698
598.111698	2552.114382
598.462768	2553.046995
598.813785	2551.501881
599.164748	2553.500699
599.515657	2551.322920
599.866511	2548.696479
600.217312	2551.630431
600.568060	2550.730585
600.918753	2551.421223
601.269392	2550.102961
601.619978	2550.105482
601.970510	2550.617159
602.320988	2555.393652
602.671412	2552.830225
603.021783	2551.567416
603.372100	2549.077086
603.722363	2552.192519
604.072572	2551.585060
604.422728	2554.539177
604.772830	2547.847045
605.122878	2546.619524
605.472872	2550.329813
605.822813	2544.020809
606.172701	2548.764535
606.522534	2548.784699
606.872314	2551.736295
607.222041	2549.533311
607.571714	2551.885009
607.921333	2552.174875
608.270899	2548.593136
608.620411	2551.154042
608.969870	2550.778476
609.319276	2552.517674
609.668627	2557.037068
610.017926	2556.754764
610.367171	2559.628221
610.716362	2557.914229
611.065500	2557.110165
611.414585	2558.826678
611.763616	2553.967006
612.112594	2554.617314
612.461518	2553.021789
612.810389	2555.839794
613.159207	2552.684032
613.507971	2552.467262
613.856682	2552.878116
614.205340	2551.935421
614.553945	2551.990873
614.902496	2550.629762
615.250994	2552.668908
615.599439	2548.641027
615.947830	2553.115051
616.296169	2550.143290
616.644454	2551.816953
616.992686	2549.661860
617.340864	2552.704197
617.688990	2549.056922
618.037063	2553.573796
618.385082	2552.063970
618.733048	2552.696635
619.080961	2550.677653
619.428821	2555.144115
619.776628	2550.992725
620.124382	2551.900132
620.472083	2551.577499
620.819731	2549.934082
621.167326	2548.328475
621.514868	2552.923487
621.862357	2550.221428
622.209793	2552.237890
622.557176	2552.310987
622.904506	2549.707231
623.251783	2545.684390
623.599007	2547.970553
623.946179	2546.281767
624.293297	2549.503064
624.640363	2549.014072
624.987376	2551.983312
625.334336	2547.902497
625.681243	2548.736808
626.028097	2549.326623
626.374899	2548.877961
626.721647	2546.717826
627.068343	2552.008517
627.414987	2550.264278
627.761577	2548.915769
628.108115	2550.544062
628.454600	2547.748742
628.801032	2547.766386
629.147412	2550.304607
629.493739	2550.889381
629.840014	2549.319062
630.186236	2546.727909
630.532405	2546.705223
630.878521	2550.097920
631.224585	2551.534649
631.570597	2548.754452
631.916556	2548.189843
632.262462	2549.331665
632.608316	2546.180943
632.954117	2550.110523
633.299866	2549.145142
633.645562	2547.138763
633.991206	2548.709082
634.336797	2547.947868
634.682336	2547.481561
635.027823	2546.816129
635.373257	2549.311500
635.718639	2545.906201
636.063968	2546.614483
636.409245	2546.317055
636.754470	2546.314534
637.099642	2546.780841
637.444762	2546.075079
637.789829	2547.438711
638.134845	2545.344112
638.479808	2546.617003
638.824719	2547.514329
639.169577	2548.729247
639.514383	2547.312683
639.859137	2546.216232
640.203839	2545.684390
640.548489	2546.387631
640.893086	2543.589790
641.237632	2541.023843
641.582125	2544.366128
641.926566	2537.295910
642.270955	2545.384441
642.615292	2546.012065
642.959576	2544.353525
643.303809	2547.473999
643.647990	2548.363763
643.992118	2545.777651
644.336195	2546.100285
