Dividing Wavelength (nm)	Counts (n)	Blue Motor Position (mm): 0.000000	Red Motor Position (mm): 15.600000	
326.493990	2130.464712
326.888308	2130.464712
327.282561	2130.464712
327.676750	2098.062696
328.070874	2096.855339
328.464933	2099.385999
328.858929	2104.578387
329.252859	2114.058277
329.646726	2127.818106
330.040528	2139.475775
330.434265	2155.022693
330.827938	2174.491629
331.221547	2192.662468
331.615091	2209.119315
332.008571	2228.056409
332.401986	2248.989801
332.795338	2269.550147
333.188625	2290.276851
333.581847	2308.944243
333.975006	2325.932932
334.368100	2344.461693
334.761129	2362.332583
335.154095	2377.665253
335.546996	2396.163767
335.939833	2411.262022
336.332606	2422.816347
336.725315	2438.723708
337.117960	2447.475151
337.510540	2456.264403
337.903056	2464.355455
338.295508	2474.712505
338.687896	2480.098978
339.080220	2491.479383
339.472480	2498.105980
339.864676	2502.017915
340.256807	2505.740807
340.648875	2509.836745
341.040879	2510.597959
341.432818	2513.985614
341.824694	2513.708351
342.216506	2514.678773
342.608253	2516.763290
342.999937	2513.637775
343.391557	2514.126767
343.783113	2512.294307
344.174605	2513.226921
344.566033	2508.221055
344.957397	2509.322547
345.348697	2508.208452
345.739934	2507.321209
346.131106	2504.495642
346.522215	2502.103615
346.913260	2499.399036
347.304241	2498.421052
347.695159	2497.808552
348.086012	2498.484066
348.476802	2494.589775
348.867528	2493.354692
349.258191	2489.961996
349.648789	2491.328148
350.039324	2487.937973
350.429796	2489.851090
350.820203	2485.830770
351.210548	2483.917652
351.600828	2483.227014
351.991045	2484.459576
352.381198	2485.503095
352.771288	2481.384473
353.161314	2482.937148
353.551276	2483.557210
353.941175	2484.192395
354.331010	2485.447642
354.720782	2482.301963
355.110490	2482.561582
355.500135	2482.211222
355.889717	2483.479072
356.279235	2482.637199
356.668689	2484.015955
357.058080	2485.414875
357.447408	2480.668629
357.836672	2482.191057
358.225873	2480.398927
358.615010	2482.392703
359.004084	2484.799854
359.393095	2486.768425
359.782043	2486.324803
360.170927	2488.409320
360.559748	2487.108703
360.948505	2490.942500
361.337199	2488.835298
361.725830	2489.967037
362.114398	2493.268993
362.502903	2491.464260
362.891344	2492.709425
363.279722	2494.771257
363.668037	2493.493324
364.056289	2496.298726
364.444478	2494.889724
364.832603	2495.109014
365.220665	2496.076915
365.608665	2496.868377
365.996601	2497.586741
366.384474	2498.814262
366.772284	2499.247801
367.160031	2499.424242
367.547715	2502.587566
367.935336	2506.565036
368.322893	2507.560664
368.710388	2512.753052
369.097820	2517.796727
369.485189	2518.263033
369.872495	2525.514733
370.259738	2535.211393
370.646918	2538.329346
371.034035	2546.743032
371.421090	2556.187634
371.808081	2571.734552
372.195010	2574.297979
372.581875	2590.417068
372.968678	2602.488111
373.355418	2613.457662
373.742096	2634.149078
374.128710	2645.060656
374.515262	2662.921464
374.901751	2675.541992
375.288177	2689.148067
375.674540	2712.869216
376.060841	2728.905126
376.447079	2749.649474
376.833254	2767.472474
377.219367	2780.345060
377.605417	2821.352326
377.991404	2828.193172
378.377329	2848.446007
378.763191	2868.313195
379.148991	2902.209913
379.534727	2930.619336
379.920402	2959.484983
380.306013	2969.106025
380.691563	3021.193747
381.077049	3041.000440
381.462474	3057.966444
381.847835	3097.526898
382.233134	3117.560444
382.618371	3120.776700
383.003545	3184.592667
383.388657	3193.399562
383.773706	3227.308884
384.158693	3242.399578
384.543618	3267.446551
384.928480	3301.776808
385.313280	3349.894622
385.698017	3349.130887
386.082692	3398.083011
386.467305	3407.215062
386.851856	3439.856533
387.236344	3459.701035
387.620770	3492.760922
388.005133	3518.138090
388.389435	3543.974004
388.773674	3559.891447
389.157851	3598.980554
389.541965	3615.737349
389.926018	3579.688058
390.310008	3647.557112
390.693936	3666.990760
391.077802	3709.263356
391.461606	3697.651058
391.845348	3761.174638
392.229027	3760.587343
392.612645	3773.293572
392.996200	3847.254860
393.379694	3886.820356
393.763125	3947.563739
394.146494	3916.651384
394.529801	3976.346207
394.913047	4019.682486
395.296230	3986.216787
395.679351	4033.104558
396.062410	4051.366138
396.445408	4029.028786
396.828343	4058.375863
397.211217	4069.847008
397.594028	3988.533197
397.976778	4040.542781
398.359466	4057.428126
398.742092	4073.832040
399.124656	3984.280983
399.507158	4049.420253
399.889598	4056.969381
400.271977	4097.318776
400.654294	4055.709092
401.036549	4042.360117
401.418742	3991.704082
401.800874	4062.653282
402.182944	4056.619021
402.564952	4087.866613
402.946898	4052.850758
403.328783	4022.956716
403.710606	3925.402827
404.092367	4048.792629
404.474067	3992.326665
404.855705	3964.123930
405.237282	3883.992269
405.618797	3928.999690
406.000250	3919.436622
406.381642	3943.263635
406.762972	3876.382647
407.144240	3844.426773
407.525447	3810.096515
407.906593	3806.708860
408.287677	3795.217550
408.668700	3709.961556
409.049661	3700.274979
409.430560	3682.320909
409.811399	3599.109103
410.192176	3640.255001
410.572891	3570.379568
410.953545	3568.287489
411.334138	3481.856906
411.714669	3470.272334
412.095139	3384.159344
412.475547	3400.631315
412.855894	3347.064014
413.236180	3311.539003
413.616405	3260.482197
413.996568	3250.324272
414.376670	3192.348482
414.756711	3149.932213
415.136691	3119.266874
415.516609	3101.012856
415.896466	3083.356215
416.276262	3053.406720
416.655997	3018.635361
417.035670	3017.375073
417.415283	3006.549195
417.794834	2960.145374
418.174324	2929.205292
418.553753	2885.722820
418.933121	2886.652913
419.312428	2866.495859
419.691674	2832.286589
420.070859	2819.572799
420.449983	2787.874023
420.829045	2778.505039
421.208047	2752.578385
421.586988	2734.757906
421.965867	2720.292315
422.344686	2708.682538
422.723444	2687.174455
423.102141	2660.693274
423.480777	2663.138233
423.859352	2640.405150
424.237866	2637.030097
424.616319	2626.242028
424.994712	2621.329424
425.373044	2606.994903
425.751314	2599.274376
426.129524	2588.917325
426.507673	2589.353385
426.885762	2582.467169
427.263789	2574.187074
427.641756	2567.578121
428.019662	2568.856053
428.397508	2562.889848
428.775292	2559.222408
429.153016	2557.803324
429.530679	2554.259393
429.908282	2552.026161
430.285824	2548.265461
430.663305	2550.060111
431.040726	2543.332692
431.418086	2544.020809
431.795385	2544.454348
432.172624	2539.478729
432.549802	2544.043494
432.926920	2542.682383
433.303977	2543.367980
433.680974	2536.900179
434.057910	2539.342618
434.434786	2540.229861
434.811601	2540.592824
435.188355	2537.278266
435.565050	2539.985365
435.941683	2538.026877
436.318257	2537.333718
436.694770	2534.505631
437.071222	2537.134593
437.447614	2533.938501
437.823946	2536.864891
438.200218	2537.880684
438.576429	2537.505118
438.952580	2536.607792
439.328670	2535.153419
439.704700	2539.819007
440.080670	2538.160468
440.456580	2538.057124
440.832429	2538.425128
441.208218	2536.282638
441.583947	2538.974614
441.959616	2534.752648
442.335224	2535.526465
442.710773	2536.307844
443.086261	2538.788091
443.461689	2538.384799
443.837057	2537.406815
444.212365	2539.203987
444.587612	2537.691640
444.962800	2538.377237
445.337927	2537.157278
445.712995	2534.755168
446.088002	2538.664583
446.462949	2536.547298
446.837837	2539.241795
447.212664	2536.779192
447.587431	2536.209541
447.962139	2541.437218
448.336786	2544.093906
448.711374	2542.269008
449.085901	2541.359080
449.460369	2541.575849
449.834776	2539.249357
450.209124	2540.048380
450.583412	2539.082999
450.957640	2540.363452
451.331808	2541.263298
451.705917	2541.880839
452.079965	2542.274049
452.453954	2539.256919
452.827883	2541.832948
453.201752	2540.865047
453.575562	2540.066024
453.949311	2541.722043
454.323001	2540.141641
454.696632	2538.815818
455.070202	2542.067362
455.443713	2541.986703
455.817164	2539.521579
456.190556	2538.888914
456.563888	2540.822197
456.937160	2539.304810
457.310373	2541.742208
457.683526	2541.343956
458.056619	2543.292362
458.429653	2544.719009
458.802628	2543.133566
459.175542	2542.435366
459.548398	2546.559030
459.921194	2544.829914
460.293930	2546.770758
460.666607	2544.290511
461.039224	2548.008362
461.411782	2549.283774
461.784280	2549.661860
462.156719	2549.099772
462.529099	2551.219577
462.901419	2547.678166
463.273680	2547.090872
463.645882	2545.268495
464.018024	2546.901828
464.390106	2548.799823
464.762130	2549.992056
465.134094	2551.237221
465.505999	2555.950700
465.877845	2560.132337
466.249631	2561.516133
466.621358	2560.142419
466.993026	2559.756771
467.364634	2563.961093
467.736184	2556.182593
468.107674	2554.501368
468.479105	2557.100083
468.850477	2553.072201
469.221790	2554.985319
469.593043	2554.839125
469.964238	2554.582026
470.335373	2555.786862
470.706449	2556.222922
471.077467	2553.795606
471.448425	2560.908674
471.819324	2563.898079
472.190164	2566.411094
472.560945	2556.132181
472.931667	2560.734755
473.302330	2558.627552
473.672934	2555.680998
474.043479	2557.359702
474.413965	2554.982798
474.784393	2550.856614
475.154761	2556.255689
475.525070	2553.576316
475.895321	2552.348795
476.265513	2554.597150
476.635645	2559.529919
477.005719	2558.793910
477.375734	2557.321893
477.745691	2559.129147
478.115588	2560.167625
478.485427	2562.121072
478.855207	2560.344065
479.224928	2566.002760
479.594591	2569.244222
479.964194	2566.166598
480.333739	2567.421845
480.703226	2568.919068
481.072653	2567.815055
481.442022	2567.515107
481.811333	2566.731207
482.180584	2567.013512
482.549777	2564.082081
482.918912	2564.828172
483.287988	2566.345559
483.657005	2563.809858
484.025964	2563.588048
484.394864	2563.623336
484.763706	2564.026628
485.132489	2560.505382
485.501213	2563.010836
485.869879	2561.130485
486.238487	2563.187276
486.607036	2563.739282
486.975527	2561.919426
487.343959	2566.680796
487.712333	2560.442368
488.080648	2562.100907
488.448905	2561.619477
488.817104	2563.031000
489.185244	2562.529405
489.553326	2565.586865
489.921350	2564.127451
490.289315	2567.620971
490.657222	2568.311609
491.025070	2570.406208
491.392861	2567.361351
491.760593	2566.068295
492.128267	2564.772719
492.495883	2566.088460
492.863440	2566.184242
493.230939	2561.730382
493.598380	2561.725341
493.965763	2557.687377
494.333088	2561.677450
494.700354	2555.272664
495.067563	2560.434806
495.434713	2556.132181
495.801805	2563.255332
496.168839	2564.606361
496.535815	2562.569735
496.902733	2562.542008
497.269593	2564.818089
497.636395	2563.139385
498.003139	2559.784497
498.369825	2562.237018
498.736453	2563.635939
499.103023	2562.436144
499.469535	2565.667524
499.835989	2561.763150
500.202385	2561.654765
500.568723	2562.910013
500.935003	2561.995043
501.301226	2560.696946
501.667390	2561.846329
502.033497	2564.886145
502.399546	2562.889848
502.765537	2563.976217
503.131470	2563.719118
503.497345	2560.644014
503.863163	2564.679457
504.228923	2564.437482
504.594625	2563.225085
504.960269	2563.530074
505.325856	2566.174160
505.691385	2562.221895
506.056856	2560.921277
506.422270	2563.804817
506.787625	2561.710218
507.152924	2560.533108
507.518164	2562.804148
507.883347	2562.294992
508.248472	2561.793397
508.613540	2562.519323
508.978550	2563.406566
509.343503	2562.872204
509.708398	2563.416648
510.073236	2564.245918
510.438016	2564.404715
510.802738	2563.318346
511.167403	2564.598799
511.532010	2562.279868
511.896561	2566.408573
512.261053	2564.155177
512.625488	2564.939077
512.989866	2558.274672
513.354186	2561.231308
513.718449	2559.474466
514.082655	2561.806000
514.446803	2565.100394
514.810894	2563.988819
515.174927	2565.186093
515.538904	2564.901268
515.902822	2564.797925
516.266684	2565.251628
516.630488	2563.777091
516.994235	2562.854560
517.357925	2566.017884
517.721558	2562.423541
518.085133	2562.320198
518.448651	2565.750703
518.812112	2566.378326
519.175516	2567.036197
519.538863	2564.457647
519.902152	2565.367575
520.265385	2564.268603
520.628560	2562.889848
520.991678	2562.864642
521.354739	2567.389078
521.717743	2564.329097
522.080690	2565.294478
522.443580	2566.292627
522.806413	2567.109294
523.169189	2566.438820
523.531908	2564.593758
523.894569	2566.282544
524.257174	2564.692060
524.619722	2564.278686
524.982213	2567.225240
525.344647	2565.791032
525.707025	2568.142730
526.069345	2568.034345
526.431608	2567.212637
526.793815	2564.074519
527.155964	2567.477298
527.518057	2566.680796
527.880093	2563.671227
528.242072	2564.666855
528.603995	2564.283727
528.965860	2564.316494
529.327669	2565.715415
529.689421	2562.763819
530.051117	2564.671896
530.412755	2564.639128
530.774337	2566.453944
531.135862	2563.023438
531.497331	2563.043603
531.858743	2560.144940
532.220098	2563.116700
532.581396	2561.685012
532.942638	2560.538150
533.303824	2562.302553
533.664953	2563.620815
534.026025	2562.355486
534.387040	2565.034859
534.747999	2563.971175
535.108902	2567.179870
535.469748	2563.887996
535.830537	2564.026628
536.191270	2563.283058
536.551947	2564.366906
536.912567	2561.919426
537.273131	2562.665517
537.633638	2564.099725
537.994089	2564.195507
538.354483	2565.445713
538.714821	2564.122410
539.075103	2562.015208
539.435328	2563.746844
539.795497	2563.958572
540.155609	2566.464026
540.515665	2562.844477
540.875665	2566.532082
541.235609	2563.081412
541.595496	2565.876732
541.955328	2562.168963
542.315102	2564.823130
542.674821	2561.296843
543.034483	2565.115517
543.394090	2565.284396
543.753640	2561.727862
544.113134	2561.243911
544.472571	2564.334138
544.831953	2564.117369
545.191278	2564.891186
545.550548	2561.687533
545.909761	2564.210630
546.268918	2564.311453
546.628019	2567.315981
546.987064	2564.155177
547.346053	2562.670558
547.704986	2564.563511
548.063863	2562.446226
548.422684	2562.539488
548.781449	2564.840774
549.140158	2566.219530
549.498811	2564.114848
549.857408	2565.077709
550.215949	2559.209806
550.574434	2560.475135
550.932864	2559.865156
551.291237	2558.312480
551.649555	2565.581824
552.007817	2564.888665
552.366022	2561.770712
552.724173	2562.993192
553.082267	2566.811866
553.440305	2565.191135
553.798288	2565.193655
554.156215	2565.337328
554.514086	2561.795917
554.871902	2560.931360
555.229661	2563.893037
555.587365	2565.201217
555.945014	2561.692574
556.302606	2562.625187
556.660143	2565.347410
557.017625	2563.227605
557.375050	2565.153326
557.732421	2564.450085
558.089735	2563.570404
558.446994	2561.233829
558.804197	2565.791032
559.161345	2563.638459
559.518437	2562.191648
559.875474	2562.607543
560.232455	2563.270455
560.589381	2563.792214
560.946251	2565.758264
561.303065	2562.305074
561.659825	2563.151988
562.016528	2564.518141
562.373177	2564.029149
562.729770	2563.933367
563.086307	2564.704663
563.442789	2563.328428
563.799216	2563.280537
564.155587	2564.820610
564.511904	2563.951011
564.868164	2564.775239
565.224370	2561.972358
565.580520	2562.594940
565.936615	2564.601320
566.292654	2561.160732
566.648638	2562.947821
567.004567	2561.135526
567.360441	2563.220043
567.716260	2558.982954
568.072023	2564.888665
568.427732	2557.026986
568.783385	2561.919426
569.138982	2558.826678
569.494525	2559.121585
569.850013	2555.809547
570.205445	2563.063768
570.560823	2562.368088
570.916145	2564.172822
571.271412	2560.165104
571.626625	2564.402194
571.981782	2559.499672
572.336884	2562.869683
572.691931	2561.710218
573.046923	2559.928170
573.401860	2563.189797
573.756743	2561.226267
574.111570	2561.506051
574.466342	2561.395146
574.821059	2562.133675
575.175722	2563.081412
575.530330	2562.884807
575.884882	2560.858263
576.239380	2561.654765
576.593823	2560.586041
576.948211	2559.950855
577.302544	2561.619477
577.656823	2562.010167
578.011047	2559.965979
578.365216	2561.616957
578.719330	2563.769529
579.073389	2561.662327
579.427394	2559.214847
579.781344	2563.900599
580.135239	2561.654765
580.489080	2561.284240
580.842866	2560.739796
581.196597	2561.916905
581.550273	2560.981771
581.903895	2559.716442
582.257463	2559.837429
582.610975	2561.374981
582.964434	2561.054868
583.317837	2561.614436
583.671186	2558.854404
584.024481	2557.291647
584.377721	2560.306257
584.730906	2560.744837
585.084037	2561.253993
585.437113	2562.789025
585.790135	2560.654096
586.143103	2558.549414
586.496016	2558.612429
586.848874	2555.837274
587.201679	2558.161246
587.554428	2555.754095
587.907124	2555.630586
588.259765	2554.037582
588.612352	2559.973540
588.964884	2558.849363
589.317362	2558.511606
589.669786	2556.691749
590.022155	2559.764332
590.374470	2559.171997
590.726731	2559.759291
591.078937	2559.653427
591.431090	2560.386915
591.783188	2557.989846
592.135232	2560.258366
592.487222	2558.350289
592.839157	2558.632593
593.191038	2558.302398
593.542866	2558.491441
593.894639	2557.168138
594.246358	2560.066802
594.598022	2556.326266
594.949633	2559.913047
595.301190	2557.281564
595.652692	2561.017059
596.004141	2555.980947
596.355535	2562.801628
596.706876	2557.450443
597.058162	2556.921122
597.409395	2555.950700
597.760573	2558.746019
598.111698	2559.222408
598.462768	2557.374826
598.813785	2559.066133
599.164748	2558.234342
599.515657	2557.649568
599.866511	2557.846173
600.217312	2558.768705
600.568060	2557.122768
600.918753	2556.076728
601.269392	2554.695452
601.619978	2556.674105
601.970510	2556.338868
602.320988	2556.492624
602.671412	2555.988508
603.021783	2559.209806
603.372100	2559.567727
603.722363	2555.582695
604.072572	2554.912222
604.422728	2557.798282
604.772830	2553.553631
605.122878	2552.805020
605.472872	2554.110678
605.822813	2552.439536
606.172701	2557.334496
606.522534	2555.343241
606.872314	2558.057902
607.222041	2557.410114
607.571714	2557.503375
607.921333	2554.196378
608.270899	2554.647561
608.620411	2556.469938
608.969870	2559.741647
609.319276	2558.980433
609.668627	2562.100907
610.017926	2561.790876
610.367171	2566.153995
610.716362	2563.177194
611.065500	2563.008315
611.414585	2562.239539
611.763616	2558.488921
612.112594	2559.121585
612.461518	2559.527398
612.810389	2560.487738
613.159207	2560.848181
613.507971	2559.444219
613.856682	2558.836760
614.205340	2557.828529
614.553945	2557.344579
614.902496	2558.783828
615.250994	2557.037068
615.599439	2558.093190
615.947830	2556.928683
616.296169	2555.970864
616.644454	2559.348437
616.992686	2557.364743
617.340864	2558.481359
617.688990	2554.844166
618.037063	2558.128478
618.385082	2554.642520
618.733048	2559.532439
619.080961	2558.856925
619.428821	2560.185269
619.776628	2556.827860
620.124382	2559.242573
620.472083	2556.537994
620.819731	2558.887172
621.167326	2559.401369
621.514868	2555.701163
621.862357	2556.540515
622.209793	2556.366595
622.557176	2557.384908
622.904506	2555.471790
623.251783	2554.385421
623.599007	2553.727551
623.946179	2552.237890
624.293297	2552.895760
624.640363	2553.110009
624.987376	2558.103272
625.334336	2556.623694
625.681243	2555.640669
626.028097	2552.313507
626.374899	2556.076728
626.721647	2553.538507
627.068343	2554.965154
627.414987	2551.945503
627.761577	2557.198385
628.108115	2554.526574
628.454600	2553.251162
628.801032	2556.079249
629.147412	2556.233004
629.493739	2555.408776
629.840014	2553.591440
630.186236	2555.502037
630.532405	2554.685370
630.878521	2554.705535
631.224585	2554.022458
631.570597	2552.782334
631.916556	2554.193858
632.262462	2555.403734
632.608316	2552.580688
632.954117	2552.772252
633.299866	2551.338044
633.645562	2549.682025
633.991206	2551.834597
634.336797	2553.067160
634.682336	2554.715617
635.027823	2551.703527
635.373257	2555.008004
635.718639	2554.181255
636.063968	2552.623538
636.409245	2551.262427
636.754470	2549.974412
637.099642	2551.726213
637.444762	2553.674619
637.789829	2551.630431
638.134845	2550.483568
638.479808	2551.005328
638.824719	2551.930379
639.169577	2550.992725
639.514383	2550.307128
639.859137	2550.133208
640.203839	2551.892571
640.548489	2550.551624
640.893086	2548.981304
641.237632	2542.768082
641.582125	2549.543393
641.926566	2546.054915
642.270955	2549.137580
642.615292	2550.400389
642.959576	2553.934238
643.303809	2549.114895
643.647990	2551.365770
643.992118	2549.840821
644.336195	2549.193033
