Dividing Wavelength (nm)	Counts (n)	Blue Motor Position (mm): 0.000000	Red Motor Position (mm): 15.900000	
326.493990	2127.482870
326.888308	2127.482870
327.282561	2127.482870
327.676750	2095.438775
328.070874	2095.849629
328.464933	2098.022367
328.858929	2104.192739
329.252859	2112.397217
329.646726	2124.644700
330.040528	2136.715743
330.434265	2156.086377
330.827938	2172.021464
331.221547	2191.586182
331.615091	2209.383976
332.008571	2230.443396
332.401986	2251.888464
332.795338	2267.175763
333.188625	2287.287447
333.581847	2306.842082
333.975006	2323.843374
334.368100	2343.884481
334.761129	2360.661441
335.154095	2375.245499
335.546996	2394.701832
335.939833	2408.365880
336.332606	2422.982705
336.725315	2435.247833
337.117960	2444.422733
337.510540	2454.772221
337.903056	2464.511731
338.295508	2471.521455
338.687896	2479.660398
339.080220	2487.897643
339.472480	2497.876607
339.864676	2500.409787
340.256807	2506.711229
340.648875	2507.379182
341.040879	2511.250788
341.432818	2514.577950
341.824694	2509.945130
342.216506	2515.379493
342.608253	2513.610048
342.999937	2512.082579
343.391557	2512.395130
343.783113	2514.938392
344.174605	2510.507218
344.566033	2512.566530
344.957397	2506.822135
345.348697	2507.510252
345.739934	2506.892711
346.131106	2502.882473
346.522215	2504.465395
346.913260	2498.126144
347.304241	2497.352327
347.695159	2495.381236
348.086012	2496.147492
348.476802	2494.907368
348.867528	2491.474342
349.258191	2491.197078
349.648789	2487.615339
350.039324	2488.593323
350.429796	2487.995946
350.820203	2482.566623
351.210548	2484.608290
351.600828	2484.895636
351.991045	2481.644092
352.381198	2483.506798
352.771288	2481.046715
353.161314	2480.202322
353.551276	2482.324648
353.941175	2483.184164
354.331010	2483.138794
354.720782	2481.505460
355.110490	2482.223825
355.500135	2480.605614
355.889717	2481.467652
356.279235	2481.603763
356.668689	2484.630976
357.058080	2481.679380
357.447408	2482.869092
357.836672	2482.511170
358.225873	2484.232724
358.615010	2479.257106
359.004084	2486.463435
359.393095	2487.625421
359.782043	2486.627272
360.170927	2485.475369
360.559748	2487.305308
360.948505	2489.097438
361.337199	2489.394866
361.725830	2490.012407
362.114398	2490.367809
362.502903	2492.043992
362.891344	2492.722028
363.279722	2492.071719
363.668037	2495.353510
364.056289	2492.545587
364.444478	2494.688078
364.832603	2491.318066
365.220665	2495.701349
365.608665	2497.095228
365.996601	2494.977944
366.384474	2496.084477
366.772284	2496.452481
367.160031	2502.874911
367.547715	2501.077740
367.935336	2506.582680
368.322893	2507.016219
368.710388	2510.303052
369.097820	2520.665143
369.485189	2521.544825
369.872495	2524.763601
370.259738	2533.320960
370.646918	2541.734646
371.034035	2545.760007
371.421090	2556.129661
371.808081	2566.582493
372.195010	2576.148082
372.581875	2590.417068
372.968678	2601.457195
373.355418	2612.797271
373.742096	2633.488687
374.128710	2646.870430
374.515262	2660.433654
374.901751	2677.830676
375.288177	2688.575896
375.674540	2712.773434
376.060841	2727.715414
376.447079	2747.496902
376.833254	2770.494646
377.219367	2782.827828
377.605417	2820.316369
377.991404	2828.314160
378.377329	2850.613704
378.763191	2867.204141
379.148991	2905.741242
379.534727	2929.969027
379.920402	2956.941721
380.306013	2971.195583
380.691563	3019.928417
381.077049	3043.584032
381.462474	3057.621125
381.847835	3096.458174
382.233134	3119.193778
382.618371	3119.806278
383.003545	3186.788089
383.388657	3194.019624
383.773706	3228.208730
384.158693	3243.269177
384.543618	3269.831016
384.928480	3306.013898
385.313280	3348.198273
385.698017	3346.632995
386.082692	3401.896644
386.467305	3409.128179
386.851856	3438.815534
387.236344	3460.580716
387.620770	3492.400479
388.005133	3521.278729
388.389435	3546.355949
388.773674	3554.623441
389.157851	3602.489197
389.541965	3614.688789
389.926018	3576.633119
390.310008	3649.936537
390.693936	3668.248528
391.077802	3706.566339
391.461606	3697.658620
391.845348	3759.032147
392.229027	3758.712034
392.612645	3769.255607
392.996200	3848.777289
393.379694	3888.060480
393.763125	3953.310655
394.146494	3919.431580
394.529801	3979.668328
394.913047	4025.268085
395.296230	3990.819360
395.679351	4045.384809
396.062410	4062.996080
396.445408	4045.137793
396.828343	4070.106628
397.211217	4090.109926
397.594028	4006.444416
397.976778	4066.169487
398.359466	4083.490891
398.742092	4105.591310
399.124656	4019.672404
399.507158	4085.978701
399.889598	4097.084362
400.271977	4143.473060
400.654294	4098.170731
401.036549	4089.492385
401.418742	4047.081157
401.800874	4122.063280
402.182944	4122.925317
402.564952	4154.079648
402.946898	4124.788023
403.328783	4094.843570
403.710606	4000.130371
404.092367	4133.408397
404.474067	4077.083585
404.855705	4053.939647
405.237282	3971.824292
405.618797	4026.467879
406.000250	4023.110471
406.381642	4048.364131
406.762972	3984.805263
407.144240	3958.472796
407.525447	3923.144390
407.906593	3929.919701
408.287677	3916.933689
408.668700	3834.871266
409.049661	3824.509174
409.430560	3810.603151
409.811399	3727.358578
410.192176	3776.381278
410.572891	3705.762275
410.953545	3715.295097
411.334138	3614.288017
411.714669	3601.947273
412.095139	3513.918644
412.475547	3535.250287
412.855894	3485.821773
413.236180	3447.821556
413.616405	3388.114130
413.996568	3379.642471
414.376670	3319.879592
414.756711	3268.059051
415.136691	3237.260121
415.516609	3226.550190
415.896466	3199.527085
416.276262	3172.763599
416.655997	3128.852628
417.035670	3135.564925
417.415283	3124.108903
417.794834	3073.563774
418.174324	3036.322250
418.553753	2984.181595
418.933121	2987.090341
419.312428	2964.364820
419.691674	2923.158428
420.070859	2910.033784
420.449983	2872.855274
420.829045	2859.763398
421.208047	2824.843325
421.586988	2806.070068
421.965867	2786.124743
422.344686	2774.598145
422.723444	2745.208218
423.102141	2711.682024
423.480777	2713.496840
423.859352	2683.998528
424.237866	2683.176820
424.616319	2670.208452
424.994712	2660.847029
425.373044	2643.666777
425.751314	2636.561270
426.129524	2619.663322
426.507673	2616.406737
426.885762	2608.449276
427.263789	2597.028542
427.641756	2588.869434
428.019662	2583.722416
428.397508	2574.817218
428.775292	2572.110118
429.153016	2569.014850
429.530679	2563.371278
429.908282	2560.638973
430.285824	2557.647048
430.663305	2556.570762
431.040726	2549.185471
431.418086	2547.703372
431.795385	2546.934596
432.172624	2547.174051
432.549802	2546.354863
432.926920	2547.113557
433.303977	2543.798998
433.680974	2544.217414
434.057910	2541.737166
434.434786	2539.700540
434.811601	2543.375541
435.188355	2539.524100
435.565050	2541.603576
435.941683	2542.140459
436.318257	2535.992772
436.694770	2535.488656
437.071222	2538.757844
437.447614	2534.911444
437.823946	2534.634181
438.200218	2538.571322
438.576429	2537.565612
438.952580	2534.374561
439.328670	2536.774150
439.704700	2537.784902
440.080670	2537.205169
440.456580	2536.557381
440.832429	2539.428318
441.208218	2534.351876
441.583947	2536.806918
441.959616	2534.742565
442.335224	2537.547968
442.710773	2535.791125
443.086261	2535.418080
443.461689	2537.323636
443.837057	2538.359593
444.212365	2537.495035
444.587612	2536.474202
444.962800	2538.210879
445.337927	2538.125180
445.712995	2538.162988
446.088002	2536.464119
446.462949	2538.699871
446.837837	2537.058976
447.212664	2538.646939
447.587431	2537.442103
447.962139	2538.369676
448.336786	2545.558361
448.711374	2542.637012
449.085901	2542.702547
449.460369	2540.802032
449.834776	2539.781199
450.209124	2539.529141
450.583412	2544.764379
450.957640	2543.884698
451.331808	2541.553164
451.705917	2538.132741
452.079965	2539.075437
452.453954	2541.820345
452.827883	2538.465457
453.201752	2541.152393
453.575562	2539.939995
453.949311	2540.413863
454.323001	2542.321940
454.696632	2540.504604
455.070202	2540.907897
455.443713	2540.242464
455.817164	2541.364121
456.190556	2538.125180
456.563888	2540.388658
456.937160	2537.724408
457.310373	2540.900335
457.683526	2541.792619
458.056619	2543.370500
458.429653	2542.417722
458.802628	2540.791950
459.175542	2540.832279
459.548398	2546.289328
459.921194	2547.080789
460.293930	2545.888557
460.666607	2547.315203
461.039224	2547.153886
461.411782	2549.866027
461.784280	2547.915100
462.156719	2550.468445
462.529099	2550.576830
462.901419	2546.957281
463.273680	2546.816129
463.645882	2546.203629
464.018024	2549.566078
464.390106	2549.462735
464.762130	2549.240924
465.134094	2550.133208
465.505999	2556.205278
465.877845	2558.584702
466.249631	2563.028480
466.621358	2559.676112
466.993026	2562.567214
467.364634	2563.378840
467.736184	2557.241235
468.107674	2557.878941
468.479105	2558.234342
468.850477	2554.375339
469.221790	2554.839125
469.593043	2554.478683
469.964238	2555.718807
470.335373	2552.903322
470.706449	2556.313663
471.077467	2554.725699
471.448425	2557.561348
471.819324	2562.688202
472.190164	2563.656103
472.560945	2556.389280
472.931667	2557.405073
473.302330	2553.820812
473.672934	2555.534804
474.043479	2554.667726
474.413965	2556.958930
474.784393	2549.883671
475.154761	2555.008004
475.525070	2554.667726
475.895321	2552.275698
476.265513	2551.524567
476.635645	2560.142419
477.005719	2555.096224
477.375734	2559.918088
477.745691	2559.449260
478.115588	2562.970506
478.485427	2560.744837
478.855207	2563.875393
479.224928	2562.247101
479.594591	2569.536609
479.964194	2567.275652
480.333739	2566.801783
480.703226	2565.007132
481.072653	2567.414283
481.442022	2566.365723
481.811333	2569.276990
482.180584	2566.779098
482.549777	2566.171639
482.918912	2565.120558
483.287988	2567.275652
483.657005	2564.719787
484.025964	2566.685837
484.394864	2564.192986
484.763706	2562.937739
485.132489	2563.025959
485.501213	2563.951011
485.869879	2561.543860
486.238487	2561.415310
486.607036	2562.317677
486.975527	2561.001936
487.343959	2560.011349
487.712333	2564.591237
488.080648	2561.135526
488.448905	2562.733572
488.817104	2561.196020
489.185244	2563.388922
489.553326	2560.611246
489.921350	2564.429920
490.289315	2568.180539
490.657222	2571.747155
491.025070	2565.208779
491.392861	2569.846640
491.760593	2568.472926
492.128267	2563.978737
492.495883	2565.798594
492.863440	2565.254149
493.230939	2562.075702
493.598380	2565.281875
493.965763	2558.892213
494.333088	2561.488407
494.700354	2556.913560
495.067563	2560.354147
495.434713	2556.215360
495.801805	2560.891030
496.168839	2563.081412
496.535815	2561.657286
496.902733	2563.051165
497.269593	2563.608212
497.636395	2563.865311
498.003139	2561.196020
498.369825	2562.476473
498.736453	2565.947308
499.103023	2561.861452
499.469535	2562.259704
499.835989	2563.953531
500.202385	2561.470763
500.568723	2561.979920
500.935003	2562.053016
501.301226	2560.187789
501.667390	2564.588717
502.033497	2565.685168
502.399546	2563.141906
502.765537	2562.932698
503.131470	2559.797100
503.497345	2563.446895
503.863163	2563.280537
504.228923	2563.008315
504.594625	2562.254662
504.960269	2562.032852
505.325856	2562.501679
505.691385	2563.885476
506.056856	2562.226936
506.422270	2562.269786
506.787625	2562.826833
507.152924	2561.536298
507.518164	2563.134344
507.883347	2563.807338
508.248472	2562.451267
508.613540	2564.477811
508.978550	2564.510579
509.343503	2563.151988
509.708398	2563.525033
510.073236	2563.938408
510.438016	2564.994530
510.802738	2559.754250
511.167403	2564.828172
511.532010	2562.143757
511.896561	2563.880435
512.261053	2566.622822
512.625488	2561.674930
512.989866	2557.284085
513.354186	2564.770198
513.718449	2558.332645
514.082655	2563.615774
514.446803	2563.356155
514.810894	2565.811197
515.174927	2564.349262
515.538904	2565.178532
515.902822	2568.510734
516.266684	2565.632236
516.630488	2564.966803
516.994235	2564.119889
517.357925	2565.382698
517.721558	2566.587534
518.085133	2565.360013
518.448651	2567.018553
518.812112	2565.750703
519.175516	2565.007133
519.538863	2566.222051
519.902152	2563.404046
520.265385	2564.571073
520.628560	2565.937225
520.991678	2562.476473
521.354739	2563.353634
521.717743	2564.419838
522.080690	2564.157698
522.443580	2564.699622
522.806413	2563.620815
523.169189	2565.435631
523.531908	2562.950342
523.894569	2563.978737
524.257174	2565.566701
524.619722	2564.414797
524.982213	2568.387226
525.344647	2565.481001
525.707025	2566.585014
526.069345	2565.594427
526.431608	2564.588717
526.793815	2562.524364
527.155964	2564.056875
527.518057	2565.397822
527.880093	2566.585014
528.242072	2565.370096
528.603995	2565.859088
528.965860	2564.273645
529.327669	2564.639128
529.689421	2565.614592
530.051117	2565.717935
530.412755	2565.407904
530.774337	2565.743141
531.135862	2564.104766
531.497331	2562.922615
531.858743	2560.528067
532.220098	2563.240208
532.581396	2561.327090
532.942638	2563.414128
533.303824	2563.119220
533.664953	2563.867832
534.026025	2560.956565
534.387040	2564.127451
534.747999	2565.102914
535.108902	2564.455126
535.469748	2563.671227
535.830537	2562.002605
536.191270	2562.980589
536.551947	2566.393450
536.912567	2565.062585
537.273131	2567.540312
537.633638	2560.701987
537.994089	2564.775239
538.354483	2563.151988
538.714821	2566.176680
539.075103	2564.112328
539.435328	2564.298850
539.795497	2564.966803
540.155609	2565.304561
540.515665	2564.538305
540.875665	2564.044272
541.235609	2561.874055
541.595496	2566.315312
541.955328	2563.071329
542.315102	2562.221895
542.674821	2560.381874
543.034483	2567.217678
543.394090	2564.860939
543.753640	2562.811710
544.113134	2565.017215
544.472571	2564.525702
544.831953	2565.216340
545.191278	2565.360013
545.550548	2563.840105
545.909761	2562.962945
546.268918	2564.346741
546.628019	2566.874880
546.987064	2566.620302
547.346053	2564.452606
547.704986	2565.730538
548.063863	2565.627194
548.422684	2564.230795
548.781449	2562.700805
549.140158	2566.736248
549.498811	2564.261042
549.857408	2562.675599
550.215949	2560.386915
550.574434	2559.474466
550.932864	2563.303223
551.291237	2560.228119
551.649555	2562.766340
552.007817	2561.246432
552.366022	2563.439334
552.724173	2565.765826
553.082267	2566.017884
553.440305	2564.172822
553.798288	2563.018397
554.156215	2561.828685
554.514086	2564.127451
554.871902	2563.706515
555.229661	2563.714077
555.587365	2566.370765
555.945014	2565.090312
556.302606	2562.957903
556.660143	2563.396484
557.017625	2565.791032
557.375050	2565.044941
557.732421	2561.506051
558.089735	2562.405897
558.446994	2565.143244
558.804197	2562.824313
559.161345	2565.385219
559.518437	2564.787842
559.875474	2564.581155
560.232455	2565.065106
560.589381	2564.944118
560.946251	2564.704663
561.303065	2565.511248
561.659825	2565.211299
562.016528	2564.374468
562.373177	2564.445044
562.729770	2561.165773
563.086307	2565.347410
563.442789	2565.533933
563.799216	2563.373799
564.155587	2562.872204
564.511904	2562.887327
564.868164	2565.342369
565.224370	2564.954200
565.580520	2562.368088
565.936615	2560.807851
566.292654	2564.039231
566.648638	2563.696432
567.004567	2563.830023
567.360441	2561.921946
567.716260	2563.535116
568.072023	2563.731721
568.427732	2560.301215
568.783385	2560.157543
569.138982	2558.715773
569.494525	2559.736606
569.850013	2558.917419
570.205445	2565.183573
570.560823	2563.111659
570.916145	2563.739282
571.271412	2563.189797
571.626625	2564.576114
571.981782	2564.621484
572.336884	2562.605023
572.691931	2564.457647
573.046923	2560.180228
573.401860	2560.951524
573.756743	2560.691905
574.111570	2561.276679
574.466342	2561.402707
574.821059	2563.555280
575.175722	2562.045455
575.530330	2561.092677
575.884882	2562.456309
576.239380	2561.503531
576.593823	2561.465722
576.948211	2562.201730
577.302544	2559.156873
577.656823	2561.238870
578.011047	2561.737944
578.365216	2559.739127
578.719330	2559.824826
579.073389	2562.683161
579.427394	2559.814744
579.781344	2559.595454
580.135239	2563.134344
580.489080	2561.881617
580.842866	2561.939590
581.196597	2562.242060
581.550273	2559.655948
581.903895	2560.923798
582.257463	2561.921946
582.610975	2560.396997
582.964434	2560.762481
583.317837	2561.090156
583.671186	2563.462019
584.024481	2562.920095
584.377721	2559.847512
584.730906	2559.774415
585.084037	2559.895403
585.437113	2559.257697
585.790135	2561.203582
586.143103	2557.843653
586.496016	2560.419683
586.848874	2556.563200
587.201679	2558.980433
587.554428	2553.901471
587.907124	2557.294167
588.259765	2553.621687
588.612352	2558.123437
588.964884	2559.363561
589.317362	2558.020093
589.669786	2557.873900
590.022155	2556.099414
590.374470	2559.383725
590.726731	2560.311298
591.078937	2556.147305
591.431090	2559.292985
591.783188	2561.742985
592.135232	2557.208468
592.487222	2560.530588
592.839157	2559.499672
593.191038	2557.452963
593.542866	2559.083777
593.894639	2555.416337
594.246358	2559.572769
594.598022	2554.214022
594.949633	2557.112686
595.301190	2554.685370
595.652692	2559.081256
596.004141	2556.106975
596.355535	2559.391287
596.706876	2555.101265
597.058162	2556.850546
597.409395	2555.801986
597.760573	2557.838612
598.111698	2556.371636
598.462768	2558.161246
598.813785	2560.364230
599.164748	2556.590926
599.515657	2556.424568
599.866511	2552.933569
600.217312	2556.578323
600.568060	2555.184444
600.918753	2559.330793
601.269392	2555.406255
601.619978	2555.234856
601.970510	2558.740978
602.320988	2554.191337
602.671412	2556.492624
603.021783	2560.535629
603.372100	2555.812068
603.722363	2557.037068
604.072572	2556.296019
604.422728	2558.907336
604.772830	2553.498178
605.122878	2552.598332
605.472872	2552.845349
605.822813	2552.699155
606.172701	2556.273333
606.522534	2557.145453
606.872314	2556.905998
607.222041	2556.331307
607.571714	2556.202757
607.921333	2555.963303
608.270899	2557.609239
608.620411	2559.746688
608.969870	2557.692418
609.319276	2558.803993
609.668627	2559.398849
610.017926	2561.284240
610.367171	2565.793552
610.716362	2561.677450
611.065500	2561.196020
611.414585	2559.827347
611.763616	2561.707697
612.112594	2561.027142
612.461518	2560.109652
612.810389	2558.332645
613.159207	2558.287274
613.507971	2555.711245
613.856682	2561.385063
614.205340	2556.459856
614.553945	2558.932542
614.902496	2556.331307
615.250994	2557.301729
615.599439	2558.239383
615.947830	2558.352809
616.296169	2553.883827
616.644454	2558.194013
616.992686	2558.289795
617.340864	2560.699467
617.688990	2556.341389
618.037063	2558.720814
618.385082	2557.992367
618.733048	2555.701162
619.080961	2558.060423
619.428821	2558.511606
619.776628	2557.944476
620.124382	2558.763663
620.472083	2554.597150
620.819731	2557.939435
621.167326	2558.216698
621.514868	2556.311142
621.862357	2556.709393
622.209793	2557.543704
622.557176	2556.598488
622.904506	2556.016235
623.251783	2549.102292
623.599007	2554.266954
623.946179	2551.101110
624.293297	2551.499361
624.640363	2554.486244
624.987376	2554.055226
625.334336	2555.151677
625.681243	2551.703527
626.028097	2553.394835
626.374899	2554.332489
626.721647	2554.030020
627.068343	2554.166131
627.414987	2554.725699
627.761577	2556.507747
628.108115	2555.459187
628.454600	2555.683518
628.801032	2554.082952
629.147412	2556.384239
629.493739	2553.788045
629.840014	2553.901471
630.186236	2553.258723
630.532405	2556.618652
630.878521	2551.305276
631.224585	2556.215360
631.570597	2552.623538
631.916556	2552.278219
632.262462	2554.632438
632.608316	2554.332489
632.954117	2550.206305
633.299866	2552.255534
633.645562	2551.660678
633.991206	2552.767211
634.336797	2554.803837
634.682336	2550.712941
635.027823	2555.738971
635.373257	2550.322251
635.718639	2549.702189
636.063968	2551.282591
636.409245	2552.048847
636.754470	2550.695297
637.099642	2550.753270
637.444762	2552.961295
637.789829	2550.647406
638.134845	2550.614638
638.479808	2550.158414
638.824719	2549.445091
639.169577	2550.352498
639.514383	2549.871068
639.859137	2547.128680
640.203839	2552.275698
640.548489	2548.832590
640.893086	2547.882333
641.237632	2544.361087
641.582125	2547.995759
641.926566	2543.562064
642.270955	2548.620862
642.615292	2548.588094
642.959576	2551.827036
643.303809	2550.982643
643.647990	2550.773435
643.992118	2549.253527
644.336195	2548.938455
