Dividing Wavelength (nm)	Counts (n)	Blue Motor Position (mm): 0.000000	Red Motor Position (mm): 44.200000	
326.493990	2129.128806
326.888308	2129.128806
327.282561	2129.128806
327.676750	2094.669999
328.070874	2096.807448
328.464933	2095.438775
328.858929	2106.083172
329.252859	2111.620879
329.646726	2127.432458
330.040528	2135.795732
330.434265	2157.142498
330.827938	2173.808553
331.221547	2190.968641
331.615091	2210.845910
332.008571	2228.641183
332.401986	2247.890829
332.795338	2266.414549
333.188625	2286.685029
333.581847	2305.838893
333.975006	2324.332366
334.368100	2342.472958
334.761129	2358.700432
335.154095	2376.994779
335.546996	2400.075702
335.939833	2422.365164
336.332606	2435.817483
336.725315	2449.229473
337.117960	2458.946297
337.510540	2467.917030
337.903056	2478.122846
338.295508	2484.696511
338.687896	2495.350989
339.080220	2500.966835
339.472480	2508.495798
339.864676	2513.925121
340.256807	2515.616428
340.648875	2520.667664
341.040879	2520.549197
341.432818	2526.389373
341.824694	2526.792666
342.216506	2525.981040
342.608253	2529.167049
342.999937	2528.720907
343.391557	2527.014477
343.783113	2523.372243
344.174605	2522.570699
344.566033	2522.996677
344.957397	2523.185720
345.348697	2518.809999
345.739934	2518.336130
346.131106	2516.884278
346.522215	2517.579957
346.913260	2511.442352
347.304241	2512.420336
347.695159	2510.678618
348.086012	2505.614778
348.476802	2503.081599
348.867528	2504.293996
349.258191	2501.463388
349.648789	2505.282062
350.039324	2498.683192
350.429796	2502.353152
350.820203	2497.390136
351.210548	2497.856443
351.600828	2493.579024
351.991045	2496.732265
352.381198	2495.252687
352.771288	2494.730927
353.161314	2494.337717
353.551276	2495.663541
353.941175	2494.342758
354.331010	2495.227481
354.720782	2497.770743
355.110490	2493.631956
355.500135	2495.504744
355.889717	2495.540033
356.279235	2498.219406
356.668689	2498.511793
357.058080	2497.289313
357.447408	2498.060609
357.836672	2494.829230
358.225873	2496.649086
358.615010	2492.260762
359.004084	2498.605054
359.393095	2498.352996
359.782043	2501.244098
360.170927	2501.407936
360.559748	2497.501041
360.948505	2504.407422
361.337199	2504.271311
361.725830	2503.205107
362.114398	2504.876249
362.502903	2505.352638
362.891344	2506.615448
363.279722	2505.473626
363.668037	2504.046980
364.056289	2505.836589
364.444478	2506.418842
364.832603	2508.584018
365.220665	2506.892711
365.608665	2510.519821
365.996601	2511.631396
366.384474	2509.070489
366.772284	2514.698938
367.160031	2512.977384
367.547715	2517.320338
367.935336	2519.866120
368.322893	2523.037006
368.710388	2523.505833
369.097820	2534.263656
369.485189	2529.008253
369.872495	2540.307999
370.259738	2547.973074
370.646918	2553.283929
371.034035	2559.325752
371.421090	2568.540981
371.808081	2580.821232
372.195010	2589.363467
372.581875	2604.660849
372.968678	2617.465379
373.355418	2628.533233
373.742096	2646.003351
374.128710	2659.927018
374.515262	2675.811694
374.901751	2692.097142
375.288177	2704.195911
375.674540	2725.151987
376.060841	2742.390213
376.447079	2763.384098
376.833254	2784.428395
377.219367	2793.288223
377.605417	2833.859429
377.991404	2842.003413
378.377329	2865.538040
378.763191	2882.176368
379.148991	2920.635331
379.534727	2945.548713
379.920402	2973.711119
380.306013	2985.494816
380.691563	3036.445758
381.077049	3056.537277
381.462474	3072.860533
381.847835	3112.781430
382.233134	3137.462919
382.618371	3136.016108
383.003545	3207.950853
383.388657	3209.805997
383.773706	3243.385123
384.158693	3261.235849
384.543618	3284.939354
384.928480	3320.729026
385.313280	3370.502859
385.698017	3365.199565
386.082692	3419.243255
386.467305	3427.616611
386.851856	3457.687094
387.236344	3477.340032
387.620770	3513.049045
388.005133	3535.610729
388.389435	3563.014442
388.773674	3576.360897
389.157851	3616.755662
389.541965	3634.802993
389.926018	3597.011983
390.310008	3671.802542
390.693936	3687.750232
391.077802	3726.557034
391.461606	3716.638564
391.845348	3780.399078
392.229027	3781.634161
392.612645	3790.398207
392.996200	3869.186400
393.379694	3908.283069
393.763125	3975.937874
394.146494	3942.636012
394.529801	4002.126668
394.913047	4054.204308
395.296230	4014.439686
395.679351	4072.977565
396.062410	4094.289043
396.445408	4077.353286
396.828343	4109.674644
397.211217	4136.977533
397.594028	4054.441242
397.976778	4121.428094
398.359466	4150.772651
398.742092	4177.989841
399.124656	4097.475052
399.507158	4178.428421
399.889598	4205.572514
400.271977	4267.293881
400.654294	4236.492431
401.036549	4243.676075
401.418742	4213.499728
401.800874	4313.942198
402.182944	4335.674612
402.564952	4402.893358
402.946898	4390.383734
403.328783	4385.665214
403.710606	4302.385353
404.092367	4494.473479
404.474067	4457.068117
404.855705	4466.905929
405.237282	4391.709558
405.618797	4504.628883
406.000250	4538.686919
406.381642	4619.705823
406.762972	4579.588321
407.144240	4589.567285
407.525447	4588.869085
407.906593	4647.197755
408.287677	4685.860885
408.668700	4618.122901
409.049661	4672.675747
409.430560	4712.684864
409.811399	4640.543432
410.192176	4803.828926
410.572891	4740.023042
410.953545	4840.856201
411.334138	4724.219024
411.714669	4795.289211
412.095139	4690.453376
412.475547	4832.510571
412.855894	4807.713135
413.236180	4814.637160
413.616405	4773.050161
413.996568	4858.439746
414.376670	4802.918998
414.756711	4757.190691
415.136691	4790.898366
415.516609	4865.893092
415.896466	4902.577568
416.276262	4935.982774
416.655997	4919.321761
417.035670	5098.915387
417.415283	5191.586918
417.794834	5135.136077
418.174324	5091.704016
418.553753	4996.390921
418.933121	5181.560063
419.312428	5247.788222
419.691674	5186.313871
420.070859	5314.828006
420.449983	5226.431373
420.829045	5338.302139
421.208047	5251.140589
421.586988	5316.380682
421.965867	5327.249409
422.344686	5460.323268
422.723444	5314.028983
423.102141	5134.490810
423.480777	5433.229587
423.859352	5203.015214
424.237866	5462.337209
424.616319	5452.406136
424.994712	5560.112908
425.373044	5439.016831
425.751314	5580.358182
426.129524	5380.814189
426.507673	5580.771557
426.885762	5663.154093
427.263789	5594.581798
427.641756	5475.862625
428.019662	5602.161172
428.397508	5606.952789
428.775292	5552.011774
429.153016	5652.875180
429.530679	5580.448923
429.908282	5659.925234
430.285824	5533.097365
430.663305	5806.224560
431.040726	5537.155494
431.418086	5539.335793
431.795385	5649.719418
432.172624	5655.733514
432.549802	5652.837372
432.926920	5666.534187
433.303977	5675.837636
433.680974	5718.024532
434.057910	5735.933231
434.434786	5738.940279
434.811601	5703.684970
435.188355	5942.365960
435.565050	5817.796528
435.941683	5800.434794
436.318257	6009.630076
436.694770	5994.355380
437.071222	6025.108939
437.447614	5963.523683
437.823946	5879.470004
438.200218	6028.536924
438.576429	5892.307303
438.952580	5988.777343
439.328670	6036.885074
439.704700	5943.351506
440.080670	5934.337923
440.456580	6204.178285
440.832429	6085.388536
441.208218	5931.101502
441.583947	6087.334422
441.959616	6088.453558
442.335224	6017.915213
442.710773	6155.473178
443.086261	6178.849008
443.461689	5975.514068
443.837057	6122.287262
444.212365	6279.256190
444.587612	6171.879613
444.962800	6325.763354
445.337927	6305.732330
445.712995	5919.095994
446.088002	6492.000444
446.462949	6319.066182
446.837837	6251.797025
447.212664	6431.614982
447.587431	6566.707823
447.962139	7111.659074
448.336786	8035.614354
448.711374	7775.962164
449.085901	6857.731114
449.460369	6774.594925
449.834776	6710.622683
450.209124	7097.526200
450.583412	7247.601350
450.957640	7399.589618
451.331808	7162.867115
451.705917	6711.308280
452.079965	6637.077290
452.453954	6844.861048
452.827883	6727.064406
453.201752	6815.312325
453.575562	6615.843950
453.949311	6825.606361
454.323001	6713.380194
454.696632	6783.381657
455.070202	6926.303409
455.443713	7078.422747
455.817164	7176.843714
456.190556	7261.265397
456.563888	7336.406316
456.937160	7381.063377
457.310373	7039.159720
457.683526	7060.347690
458.056619	6947.786286
458.429653	6935.027126
458.802628	6875.165945
459.175542	6981.153684
459.548398	7340.164496
459.921194	7496.972107
460.293930	7504.496029
460.666607	8031.354579
461.039224	8337.929830
461.411782	8466.053275
461.784280	8487.364753
462.156719	8377.553299
462.529099	8260.711956
462.901419	7840.244437
463.273680	7729.933908
463.645882	7754.199503
464.018024	7612.752287
464.390106	7780.534490
464.762130	8171.027308
465.134094	8637.419739
465.505999	9662.336727
465.877845	10881.219672
466.249631	11534.855679
466.621358	11150.127421
466.993026	10523.317913
467.364634	10263.527091
467.736184	9894.197037
468.107674	9567.701667
468.479105	9601.169887
468.850477	9358.002269
469.221790	9136.907344
469.593043	8808.909710
469.964238	8663.295981
470.335373	8681.209722
470.706449	8734.081343
471.077467	8713.248775
471.448425	10031.127378
471.819324	11109.198292
472.190164	11129.496498
472.560945	9878.138441
472.931667	9085.469931
473.302330	8954.871279
473.672934	8603.757434
474.043479	8959.131054
474.413965	8896.192248
474.784393	8778.685472
475.154761	8934.250439
475.525070	9024.910550
475.895321	8850.201801
476.265513	9024.668574
476.635645	9196.340027
477.005719	9195.112506
477.375734	9305.402870
477.745691	9550.080313
478.115588	9678.959932
478.485427	9921.179813
478.855207	10461.974632
479.224928	11277.903027
479.594591	11911.558421
479.964194	11719.092208
480.333739	11658.966366
480.703226	11575.053840
481.072653	11659.041984
481.442022	11903.724468
481.811333	12090.146337
482.180584	11900.301524
482.549777	11605.003335
482.918912	11432.182499
483.287988	11455.349121
483.657005	11460.964967
484.025964	11145.469394
484.394864	11273.618046
484.763706	11249.309602
485.132489	11007.167859
485.501213	10972.436830
485.869879	11047.746627
486.238487	10883.823428
486.607036	10998.794503
486.975527	10770.949472
487.343959	10957.315889
487.712333	11013.469302
488.080648	10937.408372
488.448905	10990.146403
488.817104	10927.505026
489.185244	11190.040756
489.553326	11345.555311
489.921350	11881.896272
490.289315	12948.032255
490.657222	13291.004636
491.025070	13202.058518
491.392861	13066.085995
491.760593	12692.841485
492.128267	12342.088083
492.495883	12007.400838
492.863440	11680.098883
493.230939	11341.066164
493.598380	11271.150401
493.965763	11143.573921
494.333088	11040.255473
494.700354	10960.227155
495.067563	11025.666373
495.434713	10847.713643
495.801805	10979.260032
496.168839	10904.434185
496.535815	10837.732158
496.902733	10840.832468
497.269593	10770.616756
497.636395	10870.368588
498.003139	10862.360715
498.369825	10729.702752
498.736453	10886.807791
499.103023	10809.821810
499.469535	10843.017808
499.835989	10830.803092
500.202385	10795.988883
500.568723	10642.957097
500.935003	10864.513288
501.301226	10671.885758
501.667390	10928.304048
502.033497	11025.210149
502.399546	10890.883563
502.765537	10794.663060
503.131470	10864.271312
503.497345	11040.580627
503.863163	10658.549386
504.228923	10967.294853
504.594625	11031.355315
504.960269	10780.031111
505.325856	10996.339461
505.691385	10793.785899
506.056856	10948.617378
506.422270	10972.046140
506.787625	10862.108657
507.152924	10970.780811
507.518164	10959.155910
507.883347	10878.752027
508.248472	10790.282297
508.613540	11031.292301
508.978550	10910.342417
509.343503	10881.602799
509.708398	11001.907415
510.073236	11117.261618
510.438016	11124.294028
510.802738	11073.983312
511.167403	11125.841662
511.532010	11020.718481
511.896561	11254.272618
512.261053	11320.639408
512.625488	11193.564523
512.989866	11171.892602
513.354186	11162.074955
513.718449	11062.761704
514.082655	11260.964750
514.446803	11157.116980
514.810894	11276.945207
515.174927	11145.676082
515.538904	11166.967395
515.902822	11320.286527
516.266684	11201.852180
516.630488	11153.550364
516.994235	11200.760770
517.357925	11269.922880
517.721558	11358.944616
518.085133	11377.919519
518.448651	11383.772298
518.812112	11273.988571
519.175516	11283.967535
519.538863	11398.195040
519.902152	11318.093626
520.265385	11475.155815
520.628560	11388.697506
520.991678	11364.366377
521.354739	11430.468507
521.717743	11364.283198
522.080690	11339.148005
522.443580	11473.744292
522.806413	11437.984867
523.169189	11459.906324
523.531908	11515.452278
523.894569	11331.563589
524.257174	11340.269661
524.619722	11464.735750
524.982213	11413.444530
525.344647	11455.457506
525.707025	11407.427913
526.069345	11504.167655
526.431608	11422.483319
526.793815	11533.063549
527.155964	11320.122690
527.518057	11374.617563
527.880093	11323.878350
528.242072	11393.111036
528.603995	11293.177723
528.965860	11220.751465
529.327669	11270.056471
529.689421	11223.766075
530.051117	11188.808194
530.412755	11289.535489
530.774337	11182.050527
531.135862	11163.607466
531.497331	11197.136180
531.858743	11042.367716
532.220098	11202.295801
532.581396	11078.739641
532.942638	11063.691797
533.303824	11022.586228
533.664953	11034.485872
534.026025	10945.849784
534.387040	11045.344517
534.747999	11053.848944
535.108902	11113.503438
535.469748	10870.643331
535.830537	10972.880451
536.191270	10943.994640
536.551947	10972.671243
536.912567	10962.362084
537.273131	10893.600745
537.633638	10875.114834
537.994089	10858.108502
538.354483	10810.547736
538.714821	10955.299427
539.075103	10964.781838
539.435328	10928.293966
539.795497	10755.853737
540.155609	10919.030846
540.515665	11000.120326
540.875665	10737.571993
541.235609	10804.964658
541.595496	10806.003136
541.955328	10957.270518
542.315102	10840.454381
542.674821	10785.715012
543.034483	10791.285487
543.394090	10799.623555
543.753640	10729.256609
544.113134	10945.252408
544.472571	10801.226642
544.831953	10941.262334
545.191278	10751.089847
545.550548	10779.660586
545.909761	10920.356669
546.268918	10884.093129
546.628019	10971.234515
546.987064	10828.743781
547.346053	10752.493808
547.704986	10860.039264
548.063863	10844.522592
548.422684	10830.359470
548.781449	10750.217727
549.140158	10846.985196
549.498811	10730.229552
549.857408	10585.253529
550.215949	10810.305760
550.574434	10663.247741
550.932864	10762.848338
551.291237	10827.664974
551.649555	10773.054154
552.007817	10777.371902
552.366022	10744.337221
552.724173	10740.677343
553.082267	10721.503315
553.440305	10864.614111
553.798288	10660.684314
554.156215	10812.728035
554.514086	10789.884046
554.871902	10646.755606
555.229661	10674.769298
555.587365	10657.460496
555.945014	10548.241378
556.302606	10671.749647
556.660143	10566.550848
557.017625	10725.067411
557.375050	10622.696699
557.732421	10755.374828
558.089735	10670.917857
558.446994	10662.897381
558.804197	10704.381036
559.161345	10708.482014
559.518437	10555.833355
559.875474	10651.055710
560.232455	10675.023876
560.589381	10628.216763
560.946251	10622.984045
561.303065	10727.575385
561.659825	10668.845942
562.016528	10590.370300
562.373177	10473.435696
562.729770	10590.834087
563.086307	10505.878041
563.442789	10601.382701
563.799216	10472.256066
564.155587	10517.505463
564.511904	10477.708074
564.868164	10459.806936
565.224370	10485.753755
565.580520	10404.213092
565.936615	10411.754658
566.292654	10277.997723
566.648638	10413.206510
567.004567	10368.128512
567.360441	10344.891314
567.716260	10260.653633
568.072023	10361.229693
568.427732	10312.822014
568.783385	10214.852230
569.138982	10292.591863
569.494525	10305.517382
569.850013	10180.648001
570.205445	10267.449108
570.560823	10158.499692
570.916145	10077.868956
571.271412	10147.623402
571.626625	10093.393190
571.981782	10073.135313
572.336884	10044.670438
572.691931	10054.205780
573.046923	9999.847018
573.401860	9952.976890
573.756743	9890.698476
574.111570	9930.311863
574.466342	9915.460623
574.821059	9939.179252
575.175722	9842.063944
575.530330	9849.020736
575.884882	9835.258386
576.239380	9756.984391
576.593823	9745.964428
576.948211	9760.377087
577.302544	9640.228747
577.656823	9655.216097
578.011047	9655.808433
578.365216	9632.276327
578.719330	9553.233555
579.073389	9563.590606
579.427394	9509.264611
579.781344	9490.118309
580.135239	9429.632024
580.489080	9445.436042
580.842866	9348.633285
581.196597	9348.240075
581.550273	9394.716993
581.903895	9354.317186
582.257463	9430.436088
582.610975	9304.160226
582.964434	9334.515534
583.317837	9254.426723
583.671186	9235.204803
584.024481	9229.909071
584.377721	9146.886308
584.730906	9129.373340
585.084037	9157.747474
585.437113	9104.200338
585.790135	9115.938665
586.143103	9013.005865
586.496016	8991.235642
586.848874	9042.126090
587.201679	9033.765336
587.554428	8914.085823
587.907124	8963.131209
588.259765	8936.919730
588.612352	8939.231099
588.964884	8811.853744
589.317362	8830.039707
589.669786	8829.437289
590.022155	8880.733550
590.374470	8899.519409
590.726731	8832.928288
591.078937	8684.317593
591.431090	8800.022156
591.783188	8671.397116
592.135232	8666.053492
592.487222	8661.279520
592.839157	8713.420174
593.191038	8647.169330
593.542866	8594.890044
593.894639	8490.361719
594.246358	8545.675780
594.598022	8562.228408
594.949633	8459.782080
595.301190	8431.632277
595.652692	8461.980023
596.004141	8571.715860
596.355535	8347.293773
596.706876	8325.604209
597.058162	8263.895444
597.409395	8334.436310
597.760573	8392.727172
598.111698	8307.950088
598.462768	8292.357799
598.813785	8263.663551
599.164748	8226.573262
599.515657	8220.244093
599.866511	8128.643807
600.217312	8258.211543
600.568060	8109.285777
600.918753	8214.782003
601.269392	8187.668157
601.619978	8099.543747
601.970510	8161.255032
602.320988	8153.728589
602.671412	8218.487251
603.021783	8153.721027
603.372100	8124.535267
603.722363	8132.273438
604.072572	8104.300075
604.422728	8114.974719
604.772830	8046.818319
605.122878	8057.893734
605.472872	8047.582053
605.822813	8073.150786
606.172701	8019.059205
606.522534	8097.549970
606.872314	8096.226667
607.222041	8063.864980
607.571714	8121.024103
607.921333	8073.523831
608.270899	8084.072446
608.620411	8171.307092
608.969870	8076.898884
609.319276	8065.803304
609.668627	8090.633507
610.017926	8120.610729
610.367171	8165.376175
610.716362	8144.157958
611.065500	8136.830641
611.414585	8162.333838
611.763616	8152.390162
612.112594	8128.379147
612.461518	8143.653843
612.810389	8205.584418
613.159207	8145.831621
613.507971	8096.246832
613.856682	8213.877116
614.205340	8168.166453
614.553945	8245.505315
614.902496	8145.042681
615.250994	8201.702729
615.599439	8177.530397
615.947830	8200.361783
616.296169	8168.279879
616.644454	8175.695417
616.992686	8174.664501
617.340864	8233.272955
617.688990	8137.980024
618.037063	8231.322029
618.385082	8175.927310
618.733048	8263.426617
619.080961	8206.612813
619.428821	8220.609577
619.776628	8220.838949
620.124382	8174.329264
620.472083	8155.850915
620.819731	8185.013990
621.167326	8076.054490
621.514868	8088.667457
621.862357	7971.992472
622.209793	7994.654979
622.557176	7934.440917
622.904506	7895.629074
623.251783	7829.325298
623.599007	7783.639841
623.946179	7789.691746
624.293297	7752.215808
624.640363	7666.720360
624.987376	7644.383007
625.334336	7594.485666
625.681243	7536.842593
626.028097	7530.105091
626.374899	7506.028540
626.721647	7494.514544
627.068343	7432.896521
627.414987	7401.220431
627.761577	7359.625870
628.108115	7394.495532
628.454600	7285.750281
628.801032	7334.457910
629.147412	7299.908362
629.493739	7288.870756
629.840014	7222.032617
630.186236	7282.034951
630.532405	7160.908627
630.878521	7214.425516
631.224585	7163.711508
631.570597	7086.907009
631.916556	7122.903368
632.262462	7118.870445
632.608316	7077.843014
632.954117	7049.758746
633.299866	7040.311624
633.645562	7032.283587
633.991206	6953.253418
634.336797	6895.428863
634.682336	6854.472008
635.027823	6822.266597
635.373257	6813.540359
635.718639	6744.920173
636.063968	6753.464929
636.409245	6650.701008
636.754470	6647.855277
637.099642	6603.528411
637.444762	6553.709208
637.789829	6557.106946
638.134845	6501.442525
638.479808	6487.082798
638.824719	6486.077088
639.169577	6419.564104
639.514383	6433.676814
639.859137	6364.214755
640.203839	6377.099945
640.548489	6358.505649
