Dividing Wavelength (nm)	Counts (n)	Blue Motor Position (mm): 0.000000	Red Motor Position (mm): 8.000000	
326.493990	2126.769546
326.888308	2126.769546
327.282561	2126.769546
327.676750	2095.950452
328.070874	2096.426841
328.464933	2097.271235
328.858929	2104.248192
329.252859	2114.093565
329.646726	2126.658641
330.040528	2138.621299
330.434265	2154.379946
330.827938	2173.296876
331.221547	2192.365040
331.615091	2209.547813
332.008571	2229.374671
332.401986	2248.997363
332.795338	2266.114600
333.188625	2285.530604
333.581847	2308.276291
333.975006	2324.148363
334.368100	2344.191991
334.761129	2360.921060
335.154095	2374.922865
335.546996	2392.980278
335.939833	2404.751372
336.332606	2420.961202
336.725315	2434.350507
337.117960	2445.486416
337.510540	2455.959413
337.903056	2464.078191
338.295508	2471.387864
338.687896	2479.932620
339.080220	2489.178096
339.472480	2494.436020
339.864676	2499.444406
340.256807	2504.029336
340.648875	2506.658297
341.040879	2508.427742
341.432818	2511.860768
341.824694	2512.700120
342.216506	2512.117867
342.608253	2513.584843
342.999937	2513.350429
343.391557	2513.715913
343.783113	2512.490912
344.174605	2509.057887
344.566033	2512.463186
344.957397	2507.280880
345.348697	2508.909173
345.739934	2503.278204
346.131106	2504.588904
346.522215	2500.755106
346.913260	2498.012718
347.304241	2497.158243
347.695159	2493.934425
348.086012	2494.423417
348.476802	2491.365957
348.867528	2489.578868
349.258191	2487.917808
349.648789	2487.073415
350.039324	2489.717500
350.429796	2484.414206
350.820203	2485.399752
351.210548	2484.971253
351.600828	2482.198619
351.991045	2483.408496
352.381198	2480.787096
352.771288	2478.747949
353.161314	2481.167703
353.551276	2479.342805
353.941175	2479.327682
354.331010	2481.114771
354.720782	2483.030409
355.110490	2479.378093
355.500135	2482.720378
355.889717	2480.308186
356.279235	2478.785758
356.668689	2482.859010
357.058080	2481.593680
357.447408	2480.237610
357.836672	2477.961529
358.225873	2477.674183
358.615010	2478.788278
359.004084	2482.022178
359.393095	2483.670636
359.782043	2484.333548
360.170927	2482.634679
360.559748	2483.146356
360.948505	2483.453866
361.337199	2485.780359
361.725830	2487.252376
362.114398	2486.440750
362.502903	2488.580720
362.891344	2485.271202
363.279722	2490.156080
363.668037	2489.039465
364.056289	2490.675319
364.444478	2490.657675
364.832603	2491.305463
365.220665	2491.920484
365.608665	2490.193889
365.996601	2493.072388
366.384474	2492.893427
366.772284	2494.788901
367.160031	2497.238901
367.547715	2497.259066
367.935336	2499.426762
368.322893	2500.009015
368.710388	2505.224089
369.097820	2511.583505
369.485189	2513.824297
369.872495	2521.680936
370.259738	2528.121010
370.646918	2535.234078
371.034035	2540.371014
371.421090	2552.250493
371.808081	2561.727862
372.195010	2571.336301
372.581875	2584.019844
372.968678	2594.533171
373.355418	2604.882659
373.742096	2624.308746
374.128710	2637.254429
374.515262	2652.133394
374.901751	2664.607730
375.288177	2673.034018
375.674540	2692.255938
376.060841	2707.220603
376.447079	2723.145608
376.833254	2737.913668
377.219367	2740.814852
377.605417	2766.562546
377.991404	2772.067486
378.377329	2782.563168
378.763191	2791.919549
379.148991	2815.086172
379.534727	2825.216371
379.920402	2839.790346
380.306013	2838.832527
380.691563	2863.761033
381.077049	2865.845550
381.462474	2867.057948
381.847835	2878.148486
382.233134	2879.738970
382.618371	2867.456199
383.003545	2892.992163
383.388657	2882.400699
383.773706	2881.803322
384.158693	2875.045656
384.543618	2868.688761
384.928480	2871.942826
385.313280	2874.717981
385.698017	2856.348016
386.082692	2858.276257
386.467305	2839.258505
386.851856	2831.961434
387.236344	2823.948520
387.620770	2814.307314
388.005133	2797.270734
388.389435	2787.717748
388.773674	2770.872732
389.157851	2764.341917
389.541965	2746.579412
389.926018	2720.458673
390.310008	2720.045298
390.693936	2703.328832
391.077802	2696.402287
391.461606	2678.488547
391.845348	2669.139727
392.229027	2657.887872
392.612645	2644.201139
392.996200	2641.146200
393.379694	2629.637245
393.763125	2626.431072
394.146494	2607.844337
394.529801	2600.559870
394.913047	2590.149887
395.296230	2579.727302
395.679351	2571.268246
396.062410	2567.951166
396.445408	2557.037068
396.828343	2550.334854
397.211217	2541.951415
397.594028	2538.629295
397.976778	2530.676875
398.359466	2529.577903
398.742092	2527.896678
399.124656	2527.153108
399.507158	2525.320649
399.889598	2522.742099
400.271977	2523.843591
400.654294	2522.462315
401.036549	2520.634896
401.418742	2520.546676
401.800874	2517.990811
402.182944	2518.520132
402.564952	2519.709845
402.946898	2520.692870
403.328783	2517.884947
403.710606	2515.765142
404.092367	2515.477796
404.474067	2516.511233
404.855705	2516.468383
405.237282	2518.043743
405.618797	2517.297652
406.000250	2516.496109
406.381642	2515.578619
406.762972	2514.882940
407.144240	2516.070132
407.525447	2515.626510
407.906593	2513.909997
408.287677	2518.028620
408.668700	2516.702796
409.049661	2518.384021
409.430560	2518.363857
409.811399	2518.988960
410.192176	2518.671367
410.572891	2518.477282
410.953545	2517.537107
411.334138	2519.775380
411.714669	2518.540297
412.095139	2518.063908
412.475547	2517.867303
412.855894	2519.046933
413.236180	2516.808661
413.616405	2521.857376
413.996568	2519.634227
414.376670	2518.779752
414.756711	2518.494927
415.136691	2520.087931
415.516609	2517.045595
415.896466	2521.900226
416.276262	2521.459125
416.655997	2519.979546
417.035670	2515.205574
417.415283	2518.416789
417.794834	2517.821932
418.174324	2522.323683
418.553753	2519.190606
418.933121	2523.473066
419.312428	2520.234125
419.691674	2521.680936
420.070859	2521.975843
420.449983	2520.927283
420.829045	2519.485513
421.208047	2521.985926
421.586988	2520.380318
421.965867	2521.748991
422.344686	2521.713703
422.723444	2521.277643
423.102141	2519.982067
423.480777	2523.273940
423.859352	2521.963240
424.237866	2521.940555
424.616319	2520.975174
424.994712	2523.399969
425.373044	2522.084228
425.751314	2522.802593
426.129524	2521.786800
426.507673	2523.339475
426.885762	2525.902902
427.263789	2523.188241
427.641756	2524.793848
428.019662	2522.956348
428.397508	2524.085566
428.775292	2524.365350
429.153016	2524.874507
429.530679	2526.868283
429.908282	2525.529857
430.285824	2523.278982
430.663305	2523.520957
431.040726	2525.834847
431.418086	2525.166894
431.795385	2526.311236
432.172624	2522.578261
432.549802	2524.400638
432.926920	2526.283509
433.303977	2524.645134
433.680974	2525.948272
434.057910	2529.663603
434.434786	2523.319311
434.811601	2526.434744
435.188355	2526.938859
435.565050	2522.976512
435.941683	2526.749816
436.318257	2523.629342
436.694770	2525.204702
437.071222	2525.648324
437.447614	2521.673374
437.823946	2523.868797
438.200218	2528.678057
438.576429	2527.117820
438.952580	2525.436595
439.328670	2528.504138
439.704700	2525.519774
440.080670	2528.967924
440.456580	2528.123530
440.832429	2529.338448
441.208218	2527.385001
441.583947	2527.120341
441.959616	2526.414579
442.335224	2526.896009
442.710773	2527.574045
443.086261	2528.952800
443.461689	2527.778211
443.837057	2528.410876
444.212365	2527.637059
444.587612	2529.038500
444.962800	2528.995650
445.337927	2528.065557
445.712995	2526.671678
446.088002	2530.654190
446.462949	2529.630835
446.837837	2530.316432
447.212664	2528.985568
447.587431	2529.320804
447.962139	2530.608819
448.336786	2533.434386
448.711374	2527.858870
449.085901	2526.775022
449.460369	2527.664785
449.834776	2531.299457
450.209124	2529.711494
450.583412	2529.837523
450.957640	2531.470857
451.331808	2530.601258
451.705917	2531.077647
452.079965	2530.215609
452.453954	2528.723428
452.827883	2530.452543
453.201752	2529.671165
453.575562	2533.053779
453.949311	2531.115455
454.323001	2531.692667
454.696632	2530.268541
455.070202	2530.588655
455.443713	2529.570342
455.817164	2529.386339
456.190556	2526.263345
456.563888	2528.670496
456.937160	2529.504807
457.310373	2531.226361
457.683526	2530.031607
458.056619	2531.700229
458.429653	2532.733666
458.802628	2532.710980
459.175542	2531.884231
459.548398	2533.484798
459.921194	2536.012936
460.293930	2530.649148
460.666607	2532.083357
461.039224	2532.811803
461.411782	2535.045035
461.784280	2534.384643
462.156719	2534.185518
462.529099	2535.503780
462.901419	2532.043028
463.273680	2533.903213
463.645882	2533.885569
464.018024	2533.688964
464.390106	2534.888759
464.762130	2535.103008
465.134094	2534.165353
465.505999	2535.244160
465.877845	2536.698533
466.249631	2538.112577
466.621358	2536.244829
466.993026	2537.663914
467.364634	2539.589635
467.736184	2538.518390
468.107674	2535.292051
468.479105	2531.546474
468.850477	2535.715508
469.221790	2535.912113
469.593043	2534.762730
469.964238	2536.000333
470.335373	2535.965045
470.706449	2537.928575
471.077467	2535.617206
471.448425	2536.945550
471.819324	2536.552340
472.190164	2537.638708
472.560945	2534.941691
472.931667	2536.060827
473.302330	2534.750127
473.672934	2536.030580
474.043479	2534.861032
474.413965	2536.622916
474.784393	2532.532019
475.154761	2535.995292
475.525070	2531.062523
475.895321	2536.325488
476.265513	2532.229550
476.635645	2539.715664
477.005719	2536.985879
477.375734	2535.307175
477.745691	2535.841537
478.115588	2537.472350
478.485427	2534.205683
478.855207	2538.684748
479.224928	2539.803884
479.594591	2536.827082
479.964194	2536.088553
480.333739	2537.968904
480.703226	2539.987886
481.072653	2538.142824
481.442022	2538.392361
481.811333	2539.551826
482.180584	2538.266332
482.549777	2538.092412
482.918912	2539.375386
483.287988	2538.704912
483.657005	2539.950077
484.025964	2537.351362
484.394864	2538.251208
484.763706	2537.971424
485.132489	2539.834131
485.501213	2538.016795
485.869879	2539.564429
486.238487	2538.460416
486.607036	2538.964532
486.975527	2539.244316
487.343959	2535.496218
487.712333	2538.684748
488.080648	2540.076106
488.448905	2539.607279
488.817104	2540.418905
489.185244	2539.629964
489.553326	2540.978473
489.921350	2539.735828
490.289315	2538.682227
490.657222	2543.073072
491.025070	2539.163657
491.392861	2541.573329
491.760593	2538.672145
492.128267	2542.291693
492.495883	2538.573842
492.863440	2539.534182
493.230939	2539.786240
493.598380	2539.604758
493.965763	2535.634850
494.333088	2535.894469
494.700354	2535.246681
495.067563	2541.046528
495.434713	2534.818183
495.801805	2540.779347
496.168839	2538.846065
496.535815	2538.611651
496.902733	2539.864378
497.269593	2540.618030
497.636395	2538.583925
498.003139	2540.315561
498.369825	2539.183822
498.736453	2538.868750
499.103023	2541.777496
499.469535	2539.095602
499.835989	2539.093081
500.202385	2537.769778
500.568723	2537.086702
500.935003	2542.359749
501.301226	2539.264480
501.667390	2543.148689
502.033497	2543.078113
502.399546	2542.127856
502.765537	2540.769265
503.131470	2541.228010
503.497345	2542.841179
503.863163	2542.064841
504.228923	2539.766075
504.594625	2536.832124
504.960269	2540.517207
505.325856	2543.163813
505.691385	2538.752803
506.056856	2542.463093
506.422270	2543.551982
506.787625	2541.434697
507.152924	2542.294214
507.518164	2539.508976
507.883347	2541.167516
508.248472	2542.687424
508.613540	2541.843031
508.978550	2541.895963
509.343503	2541.061652
509.708398	2541.217927
510.073236	2543.481406
510.438016	2542.783206
510.802738	2541.895963
511.167403	2543.821683
511.532010	2539.201466
511.896561	2542.551313
512.261053	2540.923020
512.625488	2540.030736
512.989866	2538.725077
513.354186	2539.617361
513.718449	2535.826413
514.082655	2539.415715
514.446803	2541.331353
514.810894	2541.870757
515.174927	2543.798998
515.538904	2542.510983
515.902822	2540.086188
516.266684	2539.839172
516.630488	2542.999975
516.994235	2541.253216
517.357925	2543.345294
517.721558	2540.212217
518.085133	2542.785726
518.448651	2541.999306
518.812112	2544.257743
519.175516	2541.202804
519.538863	2542.609286
519.902152	2541.245654
520.265385	2540.121477
520.628560	2541.328833
520.991678	2540.479398
521.354739	2541.462423
521.717743	2541.976621
522.080690	2541.074255
522.443580	2543.045346
522.806413	2543.584749
523.169189	2542.558874
523.531908	2538.735159
523.894569	2540.968390
524.257174	2541.283463
524.619722	2542.919317
524.982213	2543.718340
525.344647	2541.646426
525.707025	2543.846889
526.069345	2539.970242
526.431608	2541.558205
526.793815	2543.264636
527.155964	2545.036602
527.518057	2540.181970
527.880093	2543.446118
528.242072	2544.328319
528.603995	2545.369318
528.965860	2541.744728
529.327669	2543.494008
529.689421	2542.211035
530.051117	2541.366642
530.412755	2542.082485
530.774337	2543.735984
531.135862	2543.259595
531.497331	2541.759852
531.858743	2537.842875
532.220098	2541.084337
532.581396	2539.677855
532.942638	2539.967721
533.303824	2544.199770
533.664953	2544.093906
534.026025	2542.251364
534.387040	2541.913607
534.747999	2542.382434
535.108902	2543.110881
535.469748	2541.648946
535.830537	2542.087527
536.191270	2541.979142
536.551947	2544.703885
536.912567	2540.658359
537.273131	2546.375028
537.633638	2542.357228
537.994089	2542.188350
538.354483	2544.285470
538.714821	2544.398896
539.075103	2541.908566
539.435328	2541.754810
539.795497	2544.814791
540.155609	2543.506611
540.515665	2540.822197
540.875665	2541.837989
541.235609	2542.082485
541.595496	2543.347815
541.955328	2543.670449
542.315102	2542.805891
542.674821	2545.729760
543.034483	2545.533155
543.394090	2542.831097
543.753640	2547.156407
544.113134	2543.294883
544.472571	2544.235058
544.831953	2543.279759
545.191278	2544.199770
545.550548	2543.925027
545.909761	2543.274718
546.268918	2545.079451
546.628019	2544.950902
546.987064	2544.202291
547.346053	2543.872095
547.704986	2546.818649
548.063863	2545.334030
548.422684	2543.741025
548.781449	2545.039122
549.140158	2544.938299
549.498811	2545.969215
549.857408	2544.827394
550.215949	2541.590973
550.574434	2541.414533
550.932864	2542.967208
551.291237	2537.797505
551.649555	2539.390509
552.007817	2544.754297
552.366022	2543.234389
552.724173	2544.431663
553.082267	2542.972249
553.440305	2543.642723
553.798288	2544.512322
554.156215	2542.039636
554.514086	2543.819163
554.871902	2545.162630
555.229661	2543.430994
555.587365	2543.128525
555.945014	2544.025850
556.302606	2541.159954
556.660143	2543.378062
557.017625	2545.099616
557.375050	2544.860161
557.732421	2540.529810
558.089735	2545.213042
558.446994	2543.627599
558.804197	2544.305634
559.161345	2545.583567
559.518437	2546.748073
559.875474	2542.634492
560.232455	2544.590459
560.589381	2544.209852
560.946251	2545.870913
561.303065	2545.167672
561.659825	2541.633823
562.016528	2543.584749
562.373177	2543.010058
562.729770	2546.135573
563.086307	2544.547610
563.442789	2544.038453
563.799216	2544.837476
564.155587	2543.189019
564.511904	2541.686755
564.868164	2542.047197
565.224370	2545.127342
565.580520	2545.878474
565.936615	2543.183978
566.292654	2544.756817
566.648638	2544.759338
567.004567	2543.592311
567.360441	2542.868905
567.716260	2540.542413
568.072023	2543.378062
568.427732	2540.915458
568.783385	2541.321271
569.138982	2542.694986
569.494525	2540.670962
569.850013	2539.307330
570.205445	2544.517363
570.560823	2545.328988
570.916145	2546.342260
571.271412	2544.285470
571.626625	2547.353012
571.981782	2544.419060
572.336884	2545.220604
572.691931	2545.185316
573.046923	2543.526776
573.401860	2543.597352
573.756743	2542.684903
574.111570	2542.856303
574.466342	2545.732281
574.821059	2544.285470
575.175722	2543.703216
575.530330	2543.607434
575.884882	2546.158258
576.239380	2546.526263
576.593823	2545.951571
576.948211	2545.497867
577.302544	2543.930068
577.656823	2543.960315
578.011047	2546.541386
578.365216	2544.764379
578.719330	2543.909904
579.073389	2546.533824
579.427394	2543.148689
579.781344	2543.753628
580.135239	2542.831097
580.489080	2547.249668
580.842866	2542.974770
581.196597	2544.688762
581.550273	2543.751107
581.903895	2544.507280
582.257463	2544.393854
582.610975	2543.819163
582.964434	2544.960984
583.317837	2542.029553
583.671186	2544.116591
584.024481	2544.502239
584.377721	2546.034750
584.730906	2542.752959
585.084037	2545.676828
585.437113	2544.426622
585.790135	2543.741025
586.143103	2545.170192
586.496016	2547.708413
586.848874	2539.488812
587.201679	2543.012578
587.554428	2539.834131
587.907124	2541.943854
588.259765	2542.190870
588.612352	2545.760007
588.964884	2544.610624
589.317362	2543.892260
589.669786	2545.318906
590.022155	2545.331509
590.374470	2543.814122
590.726731	2541.830428
591.078937	2541.830428
591.431090	2542.838658
591.783188	2542.621889
592.135232	2542.931920
592.487222	2544.408978
592.839157	2542.032074
593.191038	2545.339071
593.542866	2543.735984
593.894639	2541.913607
594.246358	2543.549461
594.598022	2541.308668
594.949633	2541.074255
595.301190	2542.949564
595.652692	2543.131045
596.004141	2540.408822
596.355535	2544.519883
596.706876	2541.336395
597.058162	2541.621220
597.409395	2542.740356
597.760573	2543.660367
598.111698	2541.348998
598.462768	2543.594832
598.813785	2540.683565
599.164748	2546.248999
599.515657	2540.403781
599.866511	2545.593649
600.217312	2542.135418
600.568060	2544.552651
600.918753	2544.958464
601.269392	2543.501570
601.619978	2544.403937
601.970510	2543.357897
602.320988	2542.357228
602.671412	2542.609286
603.021783	2544.083823
603.372100	2543.335212
603.722363	2543.473844
604.072572	2541.485109
604.422728	2544.814791
604.772830	2538.188194
605.122878	2538.750283
605.472872	2540.504604
605.822813	2539.698020
606.172701	2542.992414
606.522534	2541.152392
606.872314	2543.463762
607.222041	2540.343287
607.571714	2543.549461
607.921333	2544.038453
608.270899	2540.726415
608.620411	2542.193391
608.969870	2542.379913
609.319276	2548.648588
609.668627	2547.811757
610.017926	2551.322920
610.367171	2549.553475
610.716362	2549.447611
611.065500	2547.824360
611.414585	2547.141283
611.763616	2547.373176
612.112594	2546.838814
612.461518	2543.315048
612.810389	2541.933771
613.159207	2545.399565
613.507971	2544.439225
613.856682	2546.077600
614.205340	2541.399409
614.553945	2543.221786
614.902496	2545.301262
615.250994	2545.104657
615.599439	2545.374359
615.947830	2542.974770
616.296169	2543.534338
616.644454	2545.737322
616.992686	2542.387475
617.340864	2541.601055
617.688990	2545.631458
618.037063	2543.012578
618.385082	2542.130376
618.733048	2543.569626
619.080961	2543.128525
619.428821	2544.393854
619.776628	2543.355377
620.124382	2543.221786
620.472083	2542.677342
620.819731	2544.887888
621.167326	2543.766231
621.514868	2544.260264
621.862357	2543.214224
622.209793	2540.461754
622.557176	2545.671787
622.904506	2540.610468
623.251783	2538.437731
623.599007	2539.806404
623.946179	2537.245498
624.293297	2539.017464
624.640363	2540.663401
624.987376	2545.321427
625.334336	2542.006868
625.681243	2541.427135
626.028097	2540.731456
626.374899	2542.294214
626.721647	2540.701209
627.068343	2541.195242
627.414987	2545.472661
627.761577	2541.550644
628.108115	2541.495191
628.454600	2542.526107
628.801032	2538.246167
629.147412	2543.569626
629.493739	2543.453679
629.840014	2543.249512
630.186236	2545.087013
630.532405	2541.752290
630.878521	2541.717002
631.224585	2544.086344
631.570597	2541.228010
631.916556	2542.798329
632.262462	2540.181970
632.608316	2543.312527
632.954117	2539.929913
633.299866	2539.060314
633.645562	2538.263811
633.991206	2541.195242
634.336797	2539.703061
634.682336	2541.064172
635.027823	2541.374203
635.373257	2540.134079
635.718639	2540.144162
636.063968	2541.464944
636.409245	2540.497043
636.754470	2540.592824
637.099642	2541.865716
637.444762	2540.391178
637.789829	2541.260777
638.134845	2538.803215
638.479808	2540.469316
638.824719	2539.216589
639.169577	2540.817156
639.514383	2541.666590
639.859137	2541.162475
640.203839	2542.790768
640.548489	2540.590304
640.893086	2538.006713
641.237632	2539.120807
641.582125	2537.550488
641.926566	2536.499407
642.270955	2537.734490
642.615292	2541.354039
642.959576	2536.403626
643.303809	2542.039636
643.647990	2539.420756
643.992118	2537.303472
644.336195	2541.754810
