Dividing Wavelength (nm)	Counts (n)	Blue Motor Position (mm): 0.000000	Red Motor Position (mm): 27.400000	
326.493990	2125.446243
326.888308	2125.446243
327.282561	2125.446243
327.676750	2095.118662
328.070874	2091.161356
328.464933	2096.091605
328.858929	2103.434045
329.252859	2112.818153
329.646726	2123.623866
330.040528	2134.805146
330.434265	2155.678043
330.827938	2169.853768
331.221547	2189.282375
331.615091	2207.695189
332.008571	2227.925339
332.401986	2247.482496
332.795338	2265.386154
333.188625	2283.620007
333.581847	2303.356124
333.975006	2324.140802
334.368100	2339.465909
334.761129	2356.694053
335.154095	2373.201311
335.546996	2392.259393
335.939833	2408.965777
336.332606	2424.880700
336.725315	2437.211362
337.117960	2448.112857
337.510540	2452.362550
337.903056	2466.475260
338.295508	2472.638071
338.687896	2481.245841
339.080220	2491.418889
339.472480	2497.496000
339.864676	2500.929026
340.256807	2504.926661
340.648875	2506.257526
341.040879	2510.398833
341.432818	2513.640295
341.824694	2514.824967
342.216506	2515.281191
342.608253	2516.639782
342.999937	2512.571571
343.391557	2517.196829
343.783113	2515.187930
344.174605	2511.979235
344.566033	2512.022085
344.957397	2507.825324
345.348697	2507.268277
345.739934	2504.765344
346.131106	2502.179232
346.522215	2500.498007
346.913260	2498.975579
347.304241	2498.680671
347.695159	2498.486587
348.086012	2496.646566
348.476802	2494.143633
348.867528	2495.000629
349.258191	2490.017448
349.648789	2493.301760
350.039324	2487.489310
350.429796	2489.228508
350.820203	2487.020483
351.210548	2484.366315
351.600828	2485.112406
351.991045	2485.162817
352.381198	2483.524442
352.771288	2484.832622
353.161314	2484.202477
353.551276	2482.473362
353.941175	2483.632827
354.331010	2482.569144
354.720782	2482.279277
355.110490	2481.734833
355.500135	2484.661223
355.889717	2483.811788
356.279235	2482.344812
356.668689	2487.416213
357.058080	2483.978146
357.447408	2484.288177
357.836672	2480.746767
358.225873	2484.225163
358.615010	2481.139977
359.004084	2489.717500
359.393095	2487.658188
359.782043	2486.959989
360.170927	2487.287664
360.559748	2491.229846
360.948505	2490.708087
361.337199	2491.139105
361.725830	2488.053919
362.114398	2494.809065
362.502903	2492.951400
362.891344	2493.631956
363.279722	2493.009373
363.668037	2490.539208
364.056289	2494.927532
364.444478	2493.783190
364.832603	2497.453150
365.220665	2494.244456
365.608665	2497.211175
365.996601	2497.369971
366.384474	2501.591938
366.772284	2500.941629
367.160031	2501.826351
367.547715	2506.297855
367.935336	2508.664677
368.322893	2507.926148
368.710388	2510.565192
369.097820	2520.907119
369.485189	2521.592716
369.872495	2530.417255
370.259738	2532.983203
370.646918	2540.910417
371.034035	2549.061963
371.421090	2557.526060
371.808081	2569.637432
372.195010	2580.720409
372.581875	2592.262131
372.968678	2607.161261
373.355418	2615.983280
373.742096	2634.590179
374.128710	2649.272540
374.515262	2664.413645
374.901751	2678.397806
375.288177	2689.127902
375.674540	2715.488095
376.060841	2732.660786
376.447079	2750.352715
376.833254	2773.350459
377.219367	2786.071811
377.605417	2823.325938
377.991404	2832.508400
378.377329	2851.760566
378.763191	2870.995089
379.148991	2913.731470
379.534727	2936.635953
379.920402	2963.621249
380.306013	2972.498721
380.691563	3025.196423
381.077049	3047.269115
381.462474	3066.072619
381.847835	3102.220213
382.233134	3125.991774
382.618371	3122.478089
383.003545	3195.537012
383.388657	3202.811397
383.773706	3234.666448
384.158693	3246.303951
384.543618	3274.889814
384.928480	3311.453303
385.313280	3356.586753
385.698017	3356.773276
386.082692	3410.852254
386.467305	3417.171340
386.851856	3447.803912
387.236344	3467.623208
387.620770	3499.140502
388.005133	3524.807537
388.389435	3557.033113
388.773674	3562.717014
389.157851	3606.585134
389.541965	3618.479737
389.926018	3587.970674
390.310008	3656.137156
390.693936	3677.869570
391.077802	3718.874316
391.461606	3708.771843
391.845348	3766.188065
392.229027	3768.501955
392.612645	3785.415026
392.996200	3860.954196
393.379694	3901.767377
393.763125	3961.119402
394.146494	3932.775515
394.529801	3995.701717
394.913047	4043.474212
395.296230	4008.672606
395.679351	4060.082293
396.062410	4088.552210
396.445408	4068.891710
396.828343	4102.359930
397.211217	4122.441366
397.594028	4045.011764
397.976778	4113.793267
398.359466	4139.954335
398.742092	4165.089528
399.124656	4089.666305
399.507158	4170.813758
399.889598	4195.560782
400.271977	4254.131428
400.654294	4228.749219
401.036549	4235.010332
401.418742	4207.450344
401.800874	4305.445333
402.182944	4328.485927
402.564952	4394.943458
402.946898	4381.133217
403.328783	4378.194224
403.710606	4287.866830
404.092367	4482.846058
404.474067	4449.483702
404.855705	4456.498467
405.237282	4379.998958
405.618797	4495.017924
406.000250	4524.828787
406.381642	4606.687043
406.762972	4570.289912
407.144240	4578.272579
407.525447	4575.991457
407.906593	4638.146364
408.287677	4676.948125
408.668700	4611.050162
409.049661	4661.290301
409.430560	4704.185479
409.811399	4629.483141
410.192176	4792.453562
410.572891	4728.957709
410.953545	4833.460828
411.334138	4709.904668
411.714669	4778.970996
412.095139	4672.799255
412.475547	4816.764527
412.855894	4798.979336
413.236180	4805.560562
413.616405	4758.680352
413.996568	4846.219989
414.376670	4787.440135
414.756711	4743.163681
415.136691	4771.137043
415.516609	4855.248695
415.896466	4892.560795
416.276262	4924.267133
416.655997	4906.812137
417.035670	5087.998768
417.415283	5181.166853
417.794834	5123.606958
418.174324	5077.361934
418.553753	4987.558819
418.933121	5170.726623
419.312428	5237.111058
419.691674	5178.152243
420.070859	5298.625738
420.449983	5210.708015
420.829045	5329.333926
421.208047	5238.883023
421.586988	5307.278878
421.965867	5316.118542
422.344686	5450.117452
422.723444	5305.716121
423.102141	5124.761383
423.480777	5424.256333
423.859352	5192.091033
424.237866	5449.595693
424.616319	5440.630000
424.994712	5548.341814
425.373044	5427.591056
425.751314	5571.581533
426.129524	5373.799424
426.507673	5567.898970
426.885762	5651.448534
427.263789	5581.011012
427.641756	5462.004493
428.019662	5588.701292
428.397508	5590.901755
428.775292	5541.460639
429.153016	5637.706348
429.530679	5563.906377
429.908282	5650.107587
430.285824	5523.599831
430.663305	5796.802643
431.040726	5525.245768
431.418086	5528.774575
431.795385	5639.044775
432.172624	5646.235981
432.549802	5638.709538
432.926920	5654.415253
433.303977	5662.992776
433.680974	5695.808167
434.057910	5719.952773
434.434786	5721.823041
434.811601	5695.997210
435.188355	5924.616058
435.565050	5800.104599
435.941683	5775.891937
436.318257	5997.304455
436.694770	5979.428523
437.071222	6014.633421
437.447614	5941.095590
437.823946	5859.615420
438.200218	6010.522360
438.576429	5870.126226
438.952580	5974.654551
439.328670	6016.286920
439.704700	5926.670328
440.080670	5910.803296
440.456580	6182.917219
440.832429	6065.886832
441.208218	5911.206588
441.583947	6065.188633
441.959616	6070.877575
442.335224	5992.946378
442.710773	6130.335464
443.086261	6155.483260
443.461689	5949.295026
443.837057	6097.348674
444.212365	6256.250884
444.587612	6141.163862
444.962800	6296.118849
445.337927	6273.103461
445.712995	5884.584255
446.088002	6460.611699
446.462949	6281.809534
446.837837	6211.921498
447.212664	6379.842332
447.587431	6520.936667
447.962139	7046.421502
448.336786	7956.180893
448.711374	7698.799742
449.085901	6785.262007
449.460369	6699.325457
449.834776	6622.460464
450.209124	6999.400140
450.583412	7140.877602
450.957640	7277.747450
451.331808	7044.089969
451.705917	6596.193532
452.079965	6509.221025
452.453954	6703.081117
452.827883	6576.278454
453.201752	6652.858622
453.575562	6452.439989
453.949311	6631.738708
454.323001	6511.905440
454.696632	6568.830149
455.070202	6688.996133
455.443713	6822.153171
455.817164	6899.907928
456.190556	6955.282482
456.563888	7006.588825
456.937160	7030.325098
457.310373	6694.987544
457.683526	6695.887390
458.056619	6575.376087
458.429653	6542.011210
458.802628	6458.260001
459.175542	6540.697990
459.548398	6830.143400
459.921194	6942.462828
460.293930	6909.483599
460.666607	7321.156825
461.039224	7548.681743
461.411782	7631.807849
461.784280	7611.839838
462.156719	7481.256310
462.529099	7350.634972
462.901419	6966.597352
463.273680	6845.791141
463.645882	6822.470763
464.018024	6664.218862
464.390106	6759.090857
464.762130	7020.381422
465.134094	7314.620969
465.505999	8027.951800
465.877845	8889.661433
466.249631	9328.715686
466.621358	8986.751536
466.993026	8457.853839
467.364634	8209.539203
467.736184	7867.199487
468.107674	7553.664923
468.479105	7492.495562
468.850477	7276.144363
469.221790	7045.274640
469.593043	6754.442913
469.964238	6586.786739
470.335373	6536.314707
470.706449	6504.482341
471.077467	6424.779178
471.448425	7158.264542
471.819324	7727.844350
472.190164	7678.841814
472.560945	6856.279262
472.931667	6306.125540
473.302330	6162.288817
473.672934	5890.434514
474.043479	6011.631414
474.413965	5915.363020
474.784393	5770.626452
475.154761	5781.918636
475.525070	5755.313947
475.895321	5605.049754
476.265513	5617.652638
476.635645	5631.911542
477.005719	5547.678902
477.375734	5530.866654
477.745691	5558.091406
478.115588	5541.942069
478.485427	5558.582918
478.855207	5705.335948
479.224928	5937.803716
479.594591	6113.243432
479.964194	5935.832625
480.333739	5817.940201
480.703226	5667.018137
481.072653	5614.002843
481.442022	5612.450167
481.811333	5590.730356
482.180584	5440.070432
482.549777	5246.374178
482.918912	5120.128562
483.287988	5045.098549
483.657005	4967.928566
484.025964	4802.102331
484.394864	4752.920834
484.763706	4663.021937
485.132489	4540.211868
485.501213	4457.108447
485.869879	4411.143206
486.238487	4299.857214
486.607036	4268.677678
486.975527	4152.103516
487.343959	4128.740288
487.712333	4076.047627
488.080648	4008.261752
488.448905	3953.993731
488.817104	3886.258267
489.185244	3876.332236
489.553326	3842.480888
489.921350	3876.828789
490.289315	3972.320846
490.657222	3966.452943
491.025070	3894.644227
491.392861	3821.277794
491.760593	3718.569326
492.128267	3618.167185
492.495883	3529.838608
492.863440	3447.521607
493.230939	3370.321377
493.598380	3324.441836
493.965763	3271.514762
494.333088	3235.581417
494.700354	3186.989735
495.067563	3170.084226
495.434713	3120.746453
495.801805	3103.770367
496.168839	3073.689803
496.535815	3041.242416
496.902733	3016.303828
497.269593	2990.238542
497.636395	2970.910758
498.003139	2944.716923
498.369825	2918.596184
498.736453	2905.232085
499.103023	2886.050495
499.469535	2870.034749
499.835989	2850.530525
500.202385	2832.347083
500.568723	2812.706747
500.935003	2809.772796
501.301226	2786.812861
501.667390	2785.166924
502.033497	2777.116201
502.399546	2759.275558
502.765537	2747.660739
503.131470	2739.113463
503.497345	2732.035683
503.863163	2716.813919
504.228923	2716.065307
504.594625	2708.143134
504.960269	2697.740713
505.325856	2693.735517
505.691385	2685.228569
506.056856	2686.670339
506.422270	2678.286901
506.787625	2673.825479
507.152924	2670.417659
507.518164	2664.617812
507.883347	2659.309477
508.248472	2657.393838
508.613540	2654.449805
508.978550	2650.316058
509.343503	2648.226500
509.708398	2647.573671
510.073236	2646.298259
510.438016	2644.470841
510.802738	2639.916158
511.167403	2638.028246
511.532010	2636.339459
511.896561	2637.506487
512.261053	2637.249388
512.625488	2631.036166
512.989866	2626.761267
513.354186	2627.835033
513.718449	2621.634414
514.082655	2623.381173
514.446803	2623.408900
514.810894	2625.846298
515.174927	2623.340844
515.538904	2620.701800
515.902822	2623.282871
516.266684	2620.283384
516.630488	2614.110492
516.994235	2617.578805
517.357925	2617.510750
517.721558	2614.977570
518.085133	2613.293825
518.448651	2614.468413
518.812112	2614.181068
519.175516	2615.010337
519.538863	2614.508743
519.902152	2616.570575
520.265385	2611.592435
520.628560	2611.070676
520.991678	2611.516818
521.354739	2611.365583
521.717743	2610.485902
522.080690	2610.891715
522.443580	2610.233844
522.806413	2609.414657
523.169189	2609.921293
523.531908	2611.221910
523.894569	2606.838627
524.257174	2607.342742
524.619722	2608.688731
524.982213	2609.399533
525.344647	2609.810387
525.707025	2606.614296
526.069345	2609.059255
526.431608	2610.115377
526.793815	2608.771910
527.155964	2605.296034
527.518057	2605.807711
527.880093	2606.079933
528.242072	2608.323247
528.603995	2604.890221
528.965860	2603.758482
529.327669	2606.387444
529.689421	2602.697319
530.051117	2605.701847
530.412755	2605.921137
530.774337	2602.599017
531.135862	2604.060951
531.497331	2598.220775
531.858743	2599.450816
532.220098	2601.323605
532.581396	2597.310846
532.942638	2599.526433
533.303824	2599.816300
533.664953	2602.009202
534.026025	2602.513317
534.387040	2601.116917
534.747999	2601.915940
535.108902	2603.793770
535.469748	2602.251177
535.830537	2603.907196
536.191270	2600.401074
536.551947	2604.471805
536.912567	2599.302102
537.273131	2604.073554
537.633638	2600.116248
537.994089	2604.933071
538.354483	2599.231526
538.714821	2602.170519
539.075103	2602.588934
539.435328	2598.626588
539.795497	2597.946032
540.155609	2601.129520
540.515665	2603.904676
540.875665	2599.087853
541.235609	2601.326125
541.595496	2602.223451
541.955328	2600.012905
542.315102	2602.641867
542.674821	2599.392843
543.034483	2601.603389
543.394090	2600.196907
543.753640	2600.796804
544.113134	2595.226329
544.472571	2599.286979
544.831953	2604.323091
545.191278	2602.089860
545.550548	2600.630446
545.909761	2604.759151
546.268918	2598.813110
546.628019	2602.730087
546.987064	2598.578697
547.346053	2601.739500
547.704986	2601.835282
548.063863	2599.105497
548.422684	2600.181783
548.781449	2599.241608
549.140158	2601.285796
549.498811	2602.145313
549.857408	2598.520723
550.215949	2596.607605
550.574434	2595.985023
550.932864	2596.378233
551.291237	2595.160794
551.649555	2599.065168
552.007817	2599.778491
552.366022	2600.446444
552.724173	2600.885024
553.082267	2596.438727
553.440305	2599.216402
553.798288	2599.453337
554.156215	2599.647421
554.514086	2600.320415
554.871902	2597.005857
555.229661	2600.627926
555.587365	2599.302102
555.945014	2599.735641
556.302606	2598.195569
556.660143	2600.270004
557.017625	2599.649942
557.375050	2599.438213
557.732421	2599.889397
558.089735	2600.363265
558.446994	2600.832092
558.804197	2600.736310
559.161345	2601.552977
559.518437	2600.252360
559.875474	2599.972576
560.232455	2602.402412
560.589381	2598.503079
560.946251	2602.089860
561.303065	2601.593307
561.659825	2601.356372
562.016528	2599.029880
562.373177	2597.015939
562.729770	2598.298912
563.086307	2601.873091
563.442789	2600.494335
563.799216	2600.955601
564.155587	2600.506938
564.511904	2600.544747
564.868164	2601.794953
565.224370	2602.200766
565.580520	2599.130703
565.936615	2599.922164
566.292654	2596.675661
566.648638	2598.160281
567.004567	2599.279417
567.360441	2599.329828
567.716260	2597.618357
568.072023	2599.347473
568.427732	2592.030238
568.783385	2596.027873
569.138982	2594.810434
569.494525	2593.708942
569.850013	2590.971595
570.205445	2599.632298
570.560823	2597.169694
570.916145	2596.531988
571.271412	2598.780343
571.626625	2598.437544
571.981782	2595.312029
572.336884	2595.821185
572.691931	2596.963007
573.046923	2596.990733
573.401860	2596.065681
573.756743	2595.193562
574.111570	2595.322111
574.466342	2594.523088
574.821059	2595.299426
575.175722	2594.069384
575.530330	2597.099118
575.884882	2595.788418
576.239380	2594.898654
576.593823	2595.158274
576.948211	2594.908737
577.302544	2596.214395
577.656823	2593.119127
578.011047	2595.828747
578.365216	2593.277923
578.719330	2592.277254
579.073389	2590.714497
579.427394	2591.281626
579.781344	2594.273551
580.135239	2592.141143
580.489080	2592.461256
580.842866	2592.730958
581.196597	2597.578027
581.550273	2595.498552
581.903895	2590.780032
582.257463	2593.245156
582.610975	2590.795155
582.964434	2593.439240
583.317837	2593.134250
583.671186	2594.414703
584.024481	2592.471339
584.377721	2590.916143
584.730906	2590.117120
585.084037	2591.894127
585.437113	2591.185844
585.790135	2589.981009
586.143103	2589.376070
586.496016	2591.132912
586.848874	2587.878848
587.201679	2591.742892
587.554428	2585.849783
587.907124	2589.131574
588.259765	2585.975812
588.612352	2588.677870
588.964884	2588.377922
589.317362	2588.846749
589.669786	2589.232397
590.022155	2592.320104
590.374470	2590.391863
590.726731	2589.113930
591.078937	2589.660895
591.431090	2586.656368
591.783188	2589.474373
592.135232	2585.895153
592.487222	2588.191399
592.839157	2589.476893
593.191038	2587.324321
593.542866	2587.049578
593.894639	2587.596543
594.246358	2587.460432
594.598022	2588.476224
594.949633	2586.926069
595.301190	2585.249886
595.652692	2585.590164
596.004141	2585.653178
596.355535	2587.125195
596.706876	2585.086048
597.058162	2585.932962
597.409395	2585.486820
597.760573	2587.639393
598.111698	2584.763414
598.462768	2585.257448
598.813785	2584.072776
599.164748	2583.309042
599.515657	2584.647468
599.866511	2586.933631
600.217312	2586.684094
600.568060	2585.111254
600.918753	2586.230390
601.269392	2584.329875
601.619978	2586.172417
601.970510	2585.179310
602.320988	2583.384659
602.671412	2583.561099
603.021783	2586.351378
603.372100	2584.133270
603.722363	2585.882551
604.072572	2586.358940
604.422728	2586.026223
604.772830	2581.597570
605.122878	2578.434246
605.472872	2580.609504
605.822813	2578.575398
606.172701	2583.634196
606.522534	2579.606314
606.872314	2584.607139
607.222041	2585.446491
607.571714	2587.510843
607.921333	2586.240473
608.270899	2581.600090
608.620411	2587.556214
608.969870	2583.142683
609.319276	2587.586461
609.668627	2589.638210
610.017926	2589.713828
610.367171	2592.126020
610.716362	2593.751792
611.065500	2591.765577
611.414585	2586.482448
611.763616	2586.553024
612.112594	2586.986563
612.461518	2587.775504
612.810389	2587.956985
613.159207	2586.230390
613.507971	2586.684094
613.856682	2585.569999
614.205340	2585.517067
614.553945	2585.958168
614.902496	2585.156624
615.250994	2585.723754
615.599439	2584.120667
615.947830	2584.458425
616.296169	2585.048240
616.644454	2586.351378
616.992686	2586.089238
617.340864	2583.989597
617.688990	2583.225863
618.037063	2586.583271
618.385082	2584.715523
618.733048	2587.599063
619.080961	2587.500761
619.428821	2586.419433
619.776628	2584.060173
620.124382	2587.364650
620.472083	2585.837180
620.819731	2586.111923
621.167326	2581.985739
621.514868	2587.248703
621.862357	2582.510019
622.209793	2585.179310
622.557176	2584.453383
622.904506	2581.791654
623.251783	2578.956005
623.599007	2579.006417
623.946179	2579.306365
624.293297	2579.949112
624.640363	2579.833166
624.987376	2581.050605
625.334336	2581.353074
625.681243	2580.919535
626.028097	2578.025912
626.374899	2579.122363
626.721647	2578.126735
627.068343	2580.854000
627.414987	2577.163875
627.761577	2577.486509
628.108115	2578.053639
628.454600	2580.087744
628.801032	2579.316448
629.147412	2578.736715
629.493739	2575.724626
629.840014	2581.905080
630.186236	2578.225038
630.532405	2578.134297
630.878521	2577.771334
631.224585	2579.076993
631.570597	2577.456262
631.916556	2578.298135
632.262462	2579.492888
632.608316	2577.950295
632.954117	2576.566498
633.299866	2577.221848
633.645562	2575.192784
633.991206	2574.882753
634.336797	2575.414595
634.682336	2577.728484
635.027823	2573.476271
635.373257	2573.831672
635.718639	2572.039542
636.063968	2574.396282
636.409245	2572.954512
636.754470	2573.204049
637.099642	2573.587176
637.444762	2573.153637
637.789829	2572.221024
638.134845	2570.943091
638.479808	2570.756568
638.824719	2570.680951
639.169577	2570.910324
639.514383	2572.825962
639.859137	2569.216496
640.203839	2570.726322
640.548489	2571.575756
640.893086	2568.450241
641.237632	2565.019735
641.582125	2569.682803
641.926566	2568.939233
642.270955	2570.106260
642.615292	2569.541650
642.959576	2571.820252
643.303809	2570.814542
643.647990	2568.551064
643.992118	2570.171795
644.336195	2571.422001
