Dividing Wavelength (nm)	Counts (n)	Blue Motor Position (mm): 0.000000	Red Motor Position (mm): 15.000000	
326.493990	2082.999728
326.888308	2082.999728
327.282561	2082.999728
327.676750	2059.636501
328.070874	2061.620195
328.464933	2067.593962
328.858929	2076.902453
329.252859	2091.357961
329.646726	2106.219283
330.040528	2121.597323
330.434265	2141.189767
330.827938	2157.944042
331.221547	2180.107475
331.615091	2199.117666
332.008571	2221.029041
332.401986	2240.588718
332.795338	2261.368354
333.188625	2280.134049
333.581847	2301.054838
333.975006	2317.544452
334.368100	2332.390650
334.761129	2354.705318
335.154095	2369.042359
335.546996	2385.370656
335.939833	2400.889848
336.332606	2416.056160
336.725315	2427.239960
337.117960	2433.816145
337.510540	2444.067331
337.903056	2450.086469
338.295508	2459.977213
338.687896	2466.092132
339.080220	2473.653863
339.472480	2479.655357
339.864676	2482.145687
340.256807	2481.013948
340.648875	2485.198105
341.040879	2486.057622
341.432818	2486.939824
341.824694	2487.080976
342.216506	2487.388487
342.608253	2488.467294
342.999937	2486.004690
343.391557	2487.075935
343.783113	2482.105357
344.174605	2483.975626
344.566033	2481.419761
344.957397	2480.257775
345.348697	2476.918010
345.739934	2480.582929
346.131106	2478.016982
346.522215	2474.702423
346.913260	2468.211938
347.304241	2472.660756
347.695159	2467.911989
348.086012	2469.220168
348.476802	2464.642801
348.867528	2466.651700
349.258191	2462.938891
349.648789	2463.218675
350.039324	2462.853191
350.429796	2464.541978
350.820203	2459.377315
351.210548	2461.988633
351.600828	2460.877059
351.991045	2458.974023
352.381198	2460.753550
352.771288	2458.462346
353.161314	2458.132150
353.551276	2458.437140
353.941175	2458.575772
354.331010	2459.291616
354.720782	2459.631894
355.110490	2460.781277
355.500135	2459.624332
355.889717	2460.887141
356.279235	2457.849846
356.668689	2461.560135
357.058080	2461.078705
357.447408	2459.795731
357.836672	2460.325052
358.225873	2464.073150
358.615010	2460.428396
359.004084	2467.085240
359.393095	2461.948304
359.782043	2470.329222
360.170927	2467.533902
360.559748	2468.678244
360.948505	2468.753862
361.337199	2467.987606
361.725830	2469.041207
362.114398	2470.460292
362.502903	2470.757720
362.891344	2473.109418
363.279722	2472.685962
363.668037	2473.661425
364.056289	2473.487505
364.444478	2477.354070
364.832603	2473.641260
365.220665	2477.938844
365.608665	2477.122177
365.996601	2478.760552
366.384474	2475.932465
366.772284	2478.427836
367.160031	2478.369863
367.547715	2480.066211
367.935336	2480.628299
368.322893	2482.778352
368.710388	2481.608804
369.097820	2484.567961
369.485189	2484.479741
369.872495	2485.379587
370.259738	2486.796151
370.646918	2487.580051
371.034035	2489.213384
371.421090	2493.279075
371.808081	2493.573982
372.195010	2499.837616
372.581875	2501.723008
372.968678	2508.095026
373.355418	2514.567868
373.742096	2524.337624
374.128710	2534.051927
374.515262	2542.856302
374.901751	2553.011707
375.288177	2568.598955
375.674540	2586.568147
376.060841	2605.343925
376.447079	2629.392749
376.833254	2650.076604
377.219367	2673.621313
377.605417	2704.687423
377.991404	2727.876731
378.377329	2760.818151
378.763191	2797.885755
379.148991	2841.133814
379.534727	2885.498488
379.920402	2927.599685
380.306013	2974.043835
380.691563	3033.758823
381.077049	3086.411154
381.462474	3139.098774
381.847835	3210.080740
382.233134	3274.108435
382.618371	3329.425017
383.003545	3411.522728
383.388657	3485.242041
383.773706	3571.965010
384.158693	3642.299189
384.543618	3733.861666
384.928480	3807.243222
385.313280	3901.752254
385.698017	4004.238912
386.082692	4117.075058
386.467305	4175.794418
386.851856	4293.843118
387.236344	4444.923978
387.620770	4505.281713
388.005133	4613.253146
388.389435	4753.949229
388.773674	4833.720448
389.157851	4958.645281
389.541965	5088.515487
389.926018	5115.316781
390.310008	5283.393891
390.693936	5400.628445
391.077802	5513.850239
391.461606	5640.741123
391.845348	5749.748513
392.229027	5865.337130
392.612645	6077.446198
392.996200	6193.702768
393.379694	6361.369024
393.763125	6576.885913
394.146494	6657.564539
394.529801	6789.978006
394.913047	7023.940477
395.296230	7020.451998
395.679351	7070.256078
396.062410	7315.669529
396.445408	7219.227215
396.828343	7369.524176
397.211217	7494.539750
397.594028	7388.035293
397.976778	7587.057526
398.359466	7748.760097
398.742092	7730.375009
399.124656	7864.552881
399.507158	8049.578350
399.889598	8067.091319
400.271977	8270.098584
400.654294	8298.200496
401.036549	8492.363057
401.418742	8509.291252
401.800874	8797.123493
402.182944	8873.991006
402.564952	9214.210918
402.946898	9036.565697
403.328783	9082.450280
403.710606	9252.367411
404.092367	9486.352567
404.474067	9808.343666
404.855705	9594.578578
405.237282	9523.062249
405.618797	9907.934181
406.000250	10105.537329
406.381642	10404.969265
406.762972	10316.318054
407.144240	10100.460887
407.525447	10288.178333
407.906593	10185.356439
408.287677	10372.589934
408.668700	10444.353279
409.049661	10366.636331
409.430560	10435.551425
409.811399	10339.678761
410.192176	10401.523636
410.572891	10391.050639
410.953545	10699.314676
411.334138	10177.290592
411.714669	10567.732999
412.095139	9926.571327
412.475547	10224.866482
412.855894	10010.095684
413.236180	10151.736984
413.616405	9797.865628
413.996568	9899.623839
414.376670	9758.632848
414.756711	9556.003669
415.136691	9636.936873
415.516609	9628.003949
415.896466	9553.876302
416.276262	9602.951935
416.655997	9759.656202
417.035670	9653.582763
417.415283	9903.714735
417.794834	9786.782651
418.174324	9472.065937
418.553753	9263.571376
418.933121	9387.911435
419.312428	9115.303479
419.691674	8901.833299
420.070859	8988.987287
420.449983	8637.397053
420.829045	8755.155887
421.208047	8467.197617
421.586988	8515.312910
421.965867	8454.246893
422.344686	8281.269781
422.723444	8353.615380
423.102141	7616.439891
423.480777	7942.421064
423.859352	7572.198725
424.237866	7830.257911
424.616319	7540.787296
424.994712	7596.557581
425.373044	7347.756474
425.751314	7394.543423
426.129524	6944.678415
426.507673	7099.411591
426.885762	6854.550146
427.263789	6725.428552
427.641756	6612.249607
428.019662	6465.995652
428.397508	6310.397917
428.775292	6215.455347
429.153016	6051.330501
429.530679	5912.754223
429.908282	5768.841883
430.285824	5572.574641
430.663305	5553.627464
431.040726	5344.225495
431.418086	5182.832954
431.795385	5152.858254
432.172624	5084.515331
432.549802	4900.165376
432.926920	4801.300787
433.303977	4662.714427
433.680974	4584.231223
434.057910	4503.177031
434.434786	4400.027462
434.811601	4287.796254
435.188355	4290.500833
435.565050	4160.761697
435.941683	4061.370308
436.318257	4038.188562
436.694770	3936.175773
437.071222	3888.660377
437.447614	3738.186976
437.823946	3664.941531
438.200218	3600.253445
438.576429	3520.567926
438.952580	3471.953559
439.328670	3407.704053
439.704700	3370.288610
440.080670	3298.288330
440.456580	3268.054010
440.832429	3224.569017
441.208218	3143.126656
441.583947	3116.408540
441.959616	3081.249013
442.335224	3053.270609
442.710773	3019.537728
443.086261	2999.935201
443.461689	2952.840742
443.837057	2928.746547
444.212365	2916.214239
444.587612	2894.940569
444.962800	2864.376054
445.337927	2853.005731
445.712995	2810.360090
446.088002	2822.395845
446.462949	2812.820173
446.837837	2800.318112
447.212664	2784.821605
447.587431	2808.988896
447.962139	2830.741475
448.336786	2845.844772
448.711374	2818.050370
449.085901	2770.855088
449.460369	2759.109200
449.834776	2747.854824
450.209124	2764.291506
450.583412	2756.308839
450.957640	2749.137797
451.331808	2734.851167
451.705917	2717.907849
452.079965	2715.770400
452.453954	2713.121274
452.827883	2707.601210
453.201752	2701.705581
453.575562	2699.903368
453.949311	2705.052907
454.323001	2705.050386
454.696632	2695.633511
455.070202	2706.988710
455.443713	2701.975282
455.817164	2703.918647
456.190556	2702.360931
456.563888	2698.207020
456.937160	2693.143181
457.310373	2687.885257
457.683526	2687.033302
458.056619	2685.284022
458.429653	2681.626665
458.802628	2685.132787
459.175542	2685.364681
459.548398	2688.825433
459.921194	2697.730631
460.293930	2705.496528
460.666607	2711.180429
461.039224	2723.223746
461.411782	2725.509909
461.784280	2715.770400
462.156719	2709.859647
462.529099	2708.856457
462.901419	2696.674509
463.273680	2692.823068
463.645882	2693.019673
464.018024	2688.908612
464.390106	2697.929757
464.762130	2713.146479
465.134094	2735.645149
465.505999	2765.861825
465.877845	2794.132616
466.249631	2799.816517
466.621358	2789.802265
466.993026	2779.500667
467.364634	2766.852412
467.736184	2758.186668
468.107674	2747.640575
468.479105	2743.791654
468.850477	2740.242681
469.221790	2734.694892
469.593043	2724.461349
469.964238	2719.831049
470.335373	2722.414641
470.706449	2731.516444
471.077467	2748.638723
471.448425	2776.896911
471.819324	2796.441464
472.190164	2786.616256
472.560945	2768.132865
472.931667	2748.111922
473.302330	2741.676890
473.672934	2736.703791
474.043479	2741.162692
474.413965	2740.414081
474.784393	2732.028121
475.154761	2742.516242
475.525070	2739.473905
475.895321	2741.402147
476.265513	2743.108577
476.635645	2753.490834
477.005719	2752.709455
477.375734	2760.631628
477.745691	2762.343100
478.115588	2774.313320
478.485427	2786.180196
478.855207	2811.554844
479.224928	2826.950527
479.594591	2838.157013
479.964194	2832.785663
480.333739	2832.062257
480.703226	2833.065447
481.072653	2840.770851
481.442022	2841.847137
481.811333	2843.672035
482.180584	2833.710715
482.549777	2829.219047
482.918912	2827.560507
483.287988	2823.482214
483.657005	2815.154227
484.025964	2809.961839
484.394864	2809.704740
484.763706	2806.715336
485.132489	2798.420117
485.501213	2797.311063
485.869879	2796.075981
486.238487	2792.181689
486.607036	2789.144394
486.975527	2787.687501
487.343959	2786.177675
487.712333	2783.279012
488.080648	2780.551747
488.448905	2781.622993
488.817104	2779.767848
489.185244	2783.911677
489.553326	2789.436781
489.921350	2806.163330
490.289315	2821.052377
490.657222	2823.772080
491.025070	2825.037410
491.392861	2816.417037
491.760593	2805.427321
492.128267	2796.801907
492.495883	2785.010648
492.863440	2775.104781
493.230939	2763.810076
493.598380	2759.147008
493.965763	2753.016965
494.333088	2747.925400
494.700354	2744.938516
495.067563	2741.792836
495.434713	2734.962073
495.801805	2739.063051
496.168839	2733.719428
496.535815	2732.998543
496.902733	2731.919736
497.269593	2731.738255
497.636395	2727.027297
498.003139	2730.349417
498.369825	2729.797411
498.736453	2729.603326
499.103023	2724.521843
499.469535	2725.925804
499.835989	2726.467728
500.202385	2721.880278
500.568723	2724.093345
500.935003	2721.890361
501.301226	2719.558827
501.667390	2726.293809
502.033497	2726.979406
502.399546	2722.792727
502.765537	2715.777962
503.131470	2720.138560
503.497345	2719.735267
503.863163	2715.914073
504.228923	2715.097406
504.594625	2717.023127
504.960269	2712.075234
505.325856	2716.869372
505.691385	2710.172199
506.056856	2711.074565
506.422270	2713.592622
506.787625	2714.812581
507.152924	2711.984493
507.518164	2710.855275
507.883347	2706.635829
508.248472	2707.613813
508.613540	2710.701520
508.978550	2710.517518
509.343503	2709.547096
509.708398	2706.255222
510.073236	2709.501725
510.438016	2706.582897
510.802738	2704.710108
511.167403	2705.748586
511.532010	2705.998123
511.896561	2708.546427
512.261053	2711.601366
512.625488	2705.501570
512.989866	2702.842361
513.354186	2700.946887
513.718449	2697.420600
514.082655	2703.785057
514.446803	2701.629963
514.810894	2705.307485
515.174927	2705.574666
515.538904	2700.263811
515.902822	2702.209696
516.266684	2699.169880
516.630488	2699.973944
516.994235	2699.331197
517.357925	2703.003678
517.721558	2697.788604
518.085133	2702.161805
518.448651	2697.173583
518.812112	2695.467153
519.175516	2695.633511
519.538863	2696.049406
519.902152	2694.617718
520.265385	2695.217616
520.628560	2692.366843
520.991678	2690.758715
521.354739	2691.645958
521.717743	2688.175124
522.080690	2687.731502
522.443580	2688.616225
522.806413	2687.592871
523.169189	2688.170083
523.531908	2687.363498
523.894569	2687.799558
524.257174	2685.601615
524.619722	2683.247396
524.982213	2683.370904
525.344647	2681.714885
525.707025	2683.685976
526.069345	2680.862930
526.431608	2680.157169
526.793815	2680.802436
527.155964	2679.731191
527.518057	2678.375121
527.880093	2676.386386
528.242072	2677.066941
528.603995	2675.171467
528.965860	2671.299861
529.327669	2674.465706
529.689421	2669.686692
530.051117	2669.041424
530.412755	2670.147958
530.774337	2669.001095
531.135862	2667.284582
531.497331	2664.106135
531.858743	2660.479025
532.220098	2661.923315
532.581396	2661.509941
532.942638	2657.391318
533.303824	2659.445588
533.664953	2658.996925
534.026025	2658.071874
534.387040	2662.515651
534.747999	2658.265958
535.108902	2661.101607
535.469748	2656.146153
535.830537	2657.882830
536.191270	2655.808396
536.551947	2654.628766
536.912567	2655.019455
537.273131	2654.051553
537.633638	2649.902684
537.994089	2651.369660
538.354483	2648.110554
538.714821	2650.961326
539.075103	2652.082983
539.435328	2649.743887
539.795497	2646.618372
540.155609	2648.070224
540.515665	2647.563588
540.875665	2646.729277
541.235609	2645.872281
541.595496	2646.204997
541.955328	2648.375214
542.315102	2643.313896
542.674821	2644.332209
543.034483	2644.186015
543.394090	2639.091929
543.753640	2641.645274
544.113134	2643.555871
544.472571	2639.104532
544.831953	2642.875315
545.191278	2640.503452
545.550548	2637.569501
545.909761	2637.153606
546.268918	2638.320633
546.628019	2637.723256
546.987064	2638.355921
547.346053	2636.427680
547.704986	2637.095632
548.063863	2636.064717
548.422684	2635.079171
548.781449	2635.066568
549.140158	2634.189407
549.498811	2633.884417
549.857408	2634.086064
550.215949	2629.488531
550.574434	2630.259828
550.932864	2629.788480
551.291237	2630.527009
551.649555	2630.383336
552.007817	2632.611526
552.366022	2630.597585
552.724173	2632.172946
553.082267	2633.551701
553.440305	2627.441823
553.798288	2628.926443
554.156215	2629.914509
554.514086	2629.917029
554.871902	2628.248407
555.229661	2628.334107
555.587365	2626.327728
555.945014	2629.009622
556.302606	2627.028448
556.660143	2628.858387
557.017625	2625.533746
557.375050	2625.165742
557.732421	2626.720938
558.089735	2626.852008
558.446994	2626.229425
558.804197	2628.520630
559.161345	2625.180865
559.518437	2625.072481
559.875474	2622.912346
560.232455	2626.042903
560.589381	2622.549383
560.946251	2626.297481
561.303065	2625.700104
561.659825	2624.142388
562.016528	2623.313118
562.373177	2621.092490
562.729770	2622.935031
563.086307	2623.565176
563.442789	2620.976543
563.799216	2621.445370
564.155587	2622.105762
564.511904	2623.154322
564.868164	2618.675256
565.224370	2620.091821
565.580520	2618.450925
565.936615	2624.175155
566.292654	2617.442694
566.648638	2622.725823
567.004567	2620.525360
567.360441	2621.659619
567.716260	2620.545524
568.072023	2621.818416
568.427732	2615.524535
568.783385	2614.077724
569.138982	2613.172837
569.494525	2614.523866
569.850013	2613.182919
570.205445	2619.045781
570.560823	2619.431429
570.916145	2615.658126
571.271412	2616.459669
571.626625	2614.788527
571.981782	2617.314145
572.336884	2616.404217
572.691931	2617.218363
573.046923	2612.640995
573.401860	2612.083948
573.756743	2611.751232
574.111570	2611.834411
574.466342	2610.228803
574.821059	2611.468927
575.175722	2613.346757
575.530330	2611.778958
575.884882	2608.875253
576.239380	2605.802670
576.593823	2610.178392
576.948211	2609.921293
577.302544	2609.384410
577.656823	2606.203442
578.011047	2607.814090
578.365216	2606.082454
578.719330	2604.738987
579.073389	2602.021805
579.427394	2606.352156
579.781344	2605.835437
580.135239	2605.227978
580.489080	2604.754110
580.842866	2605.152361
581.196597	2604.315530
581.550273	2607.231837
581.903895	2604.038266
582.257463	2605.142279
582.610975	2604.028184
582.964434	2601.149685
583.317837	2599.806217
583.671186	2602.291506
584.024481	2602.236054
584.377721	2600.275045
584.730906	2600.264962
585.084037	2602.846033
585.437113	2597.431834
585.790135	2597.948552
586.143103	2597.862853
586.496016	2599.090374
586.848874	2594.878490
587.201679	2599.418049
587.554428	2595.526278
587.907124	2594.661720
588.259765	2593.199785
588.612352	2595.864035
588.964884	2596.738675
589.317362	2597.164653
589.669786	2596.516865
590.022155	2593.950917
590.374470	2596.413521
590.726731	2595.856473
591.078937	2594.563417
591.431090	2594.981833
591.783188	2594.402101
592.135232	2592.977975
592.487222	2593.976123
592.839157	2594.949066
593.191038	2593.688777
593.542866	2590.636359
593.894639	2591.463108
594.246358	2588.607294
594.598022	2589.353385
594.949633	2588.750967
595.301190	2590.724579
595.652692	2586.822726
596.004141	2588.503951
596.355535	2590.467480
596.706876	2587.841039
597.058162	2586.235431
597.409395	2586.195102
597.760573	2591.097624
598.111698	2587.538570
598.462768	2585.703590
598.813785	2586.840370
599.164748	2586.762232
599.515657	2585.257447
599.866511	2586.855493
600.217312	2583.992118
600.568060	2582.605801
600.918753	2584.967581
601.269392	2586.694176
601.619978	2585.237283
601.970510	2583.621593
602.320988	2586.235431
602.671412	2583.636717
603.021783	2583.213260
603.372100	2582.336099
603.722363	2583.908939
604.072572	2583.838363
604.422728	2581.857189
604.772830	2578.656057
605.122878	2581.421129
605.472872	2578.000707
605.822813	2577.025243
606.172701	2579.318968
606.522534	2582.293249
606.872314	2582.643609
607.222041	2582.162179
607.571714	2582.119329
607.921333	2581.053125
608.270899	2582.386510
608.620411	2581.698393
608.969870	2580.581777
609.319276	2580.425502
609.668627	2582.189905
610.017926	2582.381469
610.367171	2585.519587
610.716362	2581.166551
611.065500	2582.323496
611.414585	2581.650502
611.763616	2581.942889
612.112594	2581.852148
612.461518	2580.475913
612.810389	2581.249730
613.159207	2581.136304
613.507971	2579.066911
613.856682	2584.675194
614.205340	2580.312076
614.553945	2581.789134
614.902496	2581.433732
615.250994	2578.562795
615.599439	2584.864237
615.947830	2582.913311
616.296169	2580.145717
616.644454	2582.348702
616.992686	2583.107395
617.340864	2583.432550
617.688990	2578.227558
618.037063	2582.197467
618.385082	2581.766448
618.733048	2582.913311
619.080961	2582.394072
619.428821	2579.881057
619.776628	2583.271233
620.124382	2585.214598
620.472083	2581.758887
620.819731	2580.183526
621.167326	2582.051274
621.514868	2582.252920
621.862357	2580.145717
622.209793	2580.037333
622.557176	2580.304514
622.904506	2575.288566
623.251783	2574.355952
623.599007	2575.553226
623.946179	2573.831672
624.293297	2576.110274
624.640363	2576.289235
624.987376	2574.441652
625.334336	2575.835531
625.681243	2574.247567
626.028097	2574.862588
626.374899	2573.950139
626.721647	2573.171281
627.068343	2571.563153
627.414987	2571.800087
627.761577	2574.514749
628.108115	2572.684810
628.454600	2571.081723
628.801032	2570.179356
629.147412	2573.660273
629.493739	2568.218347
629.840014	2572.886456
630.186236	2571.721949
630.532405	2573.188925
630.878521	2570.333112
631.224585	2570.108780
631.570597	2570.156671
631.916556	2569.022412
632.262462	2568.619119
632.608316	2568.145251
632.954117	2567.734397
633.299866	2567.116855
633.645562	2568.798080
633.991206	2567.701629
634.336797	2565.506207
634.682336	2567.421845
635.027823	2565.556618
635.373257	2563.887996
635.718639	2568.283882
636.063968	2567.230281
636.409245	2563.835064
636.754470	2563.676268
637.099642	2563.981258
637.444762	2561.571586
637.789829	2561.004456
638.134845	2564.036710
638.479808	2559.582851
638.824719	2562.544529
639.169577	2561.432954
639.514383	2558.899775
639.859137	2560.475135
640.203839	2560.422203
640.548489	2557.158056
640.893086	2557.599157
641.237632	2556.159908
641.582125	2558.544373
641.926566	2551.844680
642.270955	2560.512944
642.615292	2558.529250
642.959576	2556.364074
643.303809	2558.123437
643.647990	2559.166956
643.992118	2556.764846
644.336195	2556.343910
