Dividing Wavelength (nm)	Counts (n)	Blue Motor Position (mm): 0.000000	Red Motor Position (mm): 43.300000	
326.493990	2128.299537
326.888308	2128.299537
327.282561	2128.299537
327.676750	2098.271904
328.070874	2095.874835
328.464933	2098.355083
328.858929	2104.134766
329.252859	2113.733123
329.646726	2125.700822
330.040528	2139.619448
330.434265	2155.224339
330.827938	2173.435508
331.221547	2190.285564
331.615091	2212.285160
332.008571	2229.770402
332.401986	2250.487023
332.795338	2269.640888
333.188625	2289.351799
333.581847	2306.390899
333.975006	2324.024855
334.368100	2342.472958
334.761129	2359.590196
335.154095	2377.947557
335.546996	2397.875238
335.939833	2420.976326
336.332606	2436.729932
336.725315	2449.368104
337.117960	2458.243056
337.510540	2466.137503
337.903056	2481.434884
338.295508	2484.802375
338.687896	2492.386791
339.080220	2503.474809
339.472480	2508.221055
339.864676	2512.937054
340.256807	2518.323527
340.648875	2521.706142
341.040879	2520.324865
341.432818	2522.026255
341.824694	2523.465504
342.216506	2525.484486
342.608253	2524.388035
342.999937	2526.154960
343.391557	2523.273940
343.783113	2525.116482
344.174605	2525.229908
344.566033	2523.364681
344.957397	2522.212778
345.348697	2518.885616
345.739934	2519.172962
346.131106	2515.729854
346.522215	2514.698938
346.913260	2511.525531
347.304241	2511.089472
347.695159	2510.187105
348.086012	2505.692916
348.476802	2506.832217
348.867528	2505.884480
349.258191	2503.341218
349.648789	2501.705364
350.039324	2498.574807
350.429796	2502.242247
350.820203	2498.534478
351.210548	2497.869046
351.600828	2493.634476
351.991045	2499.038593
352.381198	2495.570279
352.771288	2496.018942
353.161314	2495.678664
353.551276	2495.834940
353.941175	2494.647748
354.331010	2495.837461
354.720782	2495.920640
355.110490	2492.394353
355.500135	2494.887203
355.889717	2496.150012
356.279235	2494.756133
356.668689	2498.562204
357.058080	2495.973572
357.447408	2493.694970
357.836672	2492.606081
358.225873	2493.919302
358.615010	2492.603560
359.004084	2498.536998
359.393095	2500.392143
359.782043	2499.146978
360.170927	2499.068840
360.559748	2500.316526
360.948505	2501.889366
361.337199	2500.608913
361.725830	2501.856598
362.114398	2504.871208
362.502903	2505.413132
362.891344	2504.684686
363.279722	2503.547905
363.668037	2505.645025
364.056289	2507.059069
364.444478	2506.872546
364.832603	2507.139728
365.220665	2511.039060
365.608665	2506.592762
365.996601	2509.378000
366.384474	2510.114008
366.772284	2512.196005
367.160031	2513.426046
367.547715	2514.459483
367.935336	2519.724968
368.322893	2520.264372
368.710388	2522.721934
369.097820	2529.988757
369.485189	2532.055630
369.872495	2538.692309
370.259738	2543.557023
370.646918	2552.721841
371.034035	2563.315825
371.421090	2570.998544
371.808081	2581.138825
372.195010	2589.050916
372.581875	2602.737648
372.968678	2617.273816
373.355418	2628.238325
373.742096	2643.956643
374.128710	2658.192861
374.515262	2676.005778
374.901751	2690.521781
375.288177	2702.746579
375.674540	2726.931515
376.060841	2743.315265
376.447079	2762.343100
376.833254	2785.013169
377.219367	2794.992133
377.605417	2834.207268
377.991404	2843.982066
378.377329	2865.038965
378.763191	2882.972870
379.148991	2920.292532
379.534727	2944.414453
379.920402	2973.542240
380.306013	2985.577995
380.691563	3033.428627
381.077049	3057.106927
381.462474	3075.381110
381.847835	3116.252264
382.233134	3135.196921
382.618371	3133.591313
383.003545	3203.534802
383.388657	3211.482181
383.773706	3244.658015
384.158693	3261.918925
384.543618	3285.882050
384.928480	3323.577278
385.313280	3369.560163
385.698017	3366.331304
386.082692	3423.152669
386.467305	3425.234666
386.851856	3456.749439
387.236344	3480.712564
387.620770	3509.391688
388.005133	3537.032335
388.389435	3561.842373
388.773674	3573.268149
389.157851	3618.794809
389.541965	3632.355513
389.926018	3596.848146
390.310008	3670.728776
390.693936	3689.522198
391.077802	3730.852097
391.461606	3722.156107
391.845348	3781.896301
392.229027	3782.362607
392.612645	3791.141777
392.996200	3874.925754
393.379694	3913.931682
393.763125	3975.779077
394.146494	3943.510652
394.529801	4006.489787
394.913047	4053.274215
395.296230	4023.934700
395.679351	4074.910847
396.062410	4096.718879
396.445408	4082.475099
396.828343	4114.546919
397.211217	4138.620950
397.594028	4058.829567
397.976778	4122.103609
398.359466	4153.348681
398.742092	4175.073533
399.124656	4102.470835
399.507158	4185.423022
399.889598	4208.816496
400.271977	4269.423768
400.654294	4238.022421
401.036549	4248.727311
401.418742	4219.339905
401.800874	4319.326150
402.182944	4341.981096
402.564952	4403.074839
402.946898	4392.611924
403.328783	4390.645874
403.710606	4300.041216
404.092367	4497.180579
404.474067	4458.804795
404.855705	4468.854335
405.237282	4392.067480
405.618797	4503.514788
406.000250	4540.262279
406.381642	4620.388899
406.762972	4584.548816
407.144240	4593.811936
407.525447	4594.343778
407.906593	4649.756141
408.287677	4698.060477
408.668700	4625.087255
409.049661	4674.833361
409.430560	4716.871543
409.811399	4640.634173
410.192176	4803.710459
410.572891	4739.534050
410.953545	4844.624463
411.334138	4726.336309
411.714669	4794.341474
412.095139	4684.514897
412.475547	4830.176517
412.855894	4811.168846
413.236180	4825.770548
413.616405	4770.302732
413.996568	4863.816136
414.376670	4802.193072
414.756711	4759.013068
415.136691	4789.602790
415.516609	4868.002814
415.896466	4901.319800
416.276262	4941.767498
416.655997	4919.709929
417.035670	5101.025110
417.415283	5191.831414
417.794834	5137.840656
418.174324	5090.657977
418.553753	4999.211446
418.933121	5184.325136
419.312428	5251.773254
419.691674	5189.613306
420.070859	5312.559487
420.449983	5224.674531
420.829045	5342.713149
421.208047	5250.049179
421.586988	5322.281352
421.965867	5334.453218
422.344686	5466.297035
422.723444	5322.208255
423.102141	5137.079442
423.480777	5437.779228
423.859352	5207.176686
424.237866	5467.771573
424.616319	5456.648267
424.994712	5568.584567
425.373044	5444.950269
425.751314	5586.125262
426.129524	5389.225355
426.507673	5580.862297
426.885762	5668.044012
427.263789	5594.445687
427.641756	5478.040403
428.019662	5601.304176
428.397508	5610.640393
428.775292	5558.010747
429.153016	5654.163195
429.530679	5580.476649
429.908282	5665.299104
430.285824	5532.719278
430.663305	5815.069264
431.040726	5543.976175
431.418086	5547.071443
431.795385	5653.331405
432.172624	5661.939175
432.549802	5656.771992
432.926920	5670.128529
433.303977	5679.492472
433.680974	5714.798193
434.057910	5734.050360
434.434786	5742.398511
434.811601	5707.380136
435.188355	5945.214212
435.565050	5819.079502
435.941683	5801.921935
436.318257	6015.230798
436.694770	5995.739177
437.071222	6030.679414
437.447614	5962.921265
437.823946	5873.944900
438.200218	6031.385176
438.576429	5895.258898
438.952580	5989.170553
439.328670	6033.341143
439.704700	5946.872752
440.080670	5930.657881
440.456580	6205.030240
440.832429	6085.171767
441.208218	5936.246000
441.583947	6091.735349
441.959616	6088.093115
442.335224	6021.280183
442.710773	6157.015771
443.086261	6186.113311
443.461689	5978.546322
443.837057	6129.216328
444.212365	6281.005470
444.587612	6171.849366
444.962800	6326.907696
445.337927	6312.583258
445.712995	5917.051806
446.088002	6492.552450
446.462949	6325.619682
446.837837	6254.756182
447.212664	6427.521565
447.587431	6571.713689
447.962139	7113.937676
448.336786	8043.039974
448.711374	7788.867517
449.085901	6860.501228
449.460369	6773.337158
449.834776	6712.840791
450.209124	7099.832527
450.583412	7255.571414
450.957640	7403.289824
451.331808	7163.056158
451.705917	6714.272478
452.079965	6642.509133
452.453954	6848.399938
452.827883	6728.191104
453.201752	6823.446227
453.575562	6623.768643
453.949311	6823.799108
454.323001	6709.117899
454.696632	6789.557070
455.070202	6925.902638
455.443713	7078.606749
455.817164	7182.010897
456.190556	7264.683299
456.563888	7336.345822
456.937160	7384.027576
457.310373	7042.565020
457.683526	7059.382309
458.056619	6954.067564
458.429653	6941.499967
458.802628	6877.603343
459.175542	6986.512430
459.548398	7341.853283
459.921194	7506.474682
460.293930	7506.031060
460.666607	8035.460599
461.039224	8343.457455
461.411782	8476.135583
461.784280	8489.623190
462.156719	8385.851038
462.529099	8262.249508
462.901419	7844.660488
463.273680	7744.976712
463.645882	7759.492714
464.018024	7618.353009
464.390106	7782.160262
464.762130	8175.723143
465.134094	8643.680852
465.505999	9662.606429
465.877845	10891.652339
466.249631	11537.104034
466.621358	11155.962556
466.993026	10529.967195
467.364634	10271.260221
467.736184	9906.825127
468.107674	9573.103263
468.479105	9603.995454
468.850477	9368.762612
469.221790	9143.791040
469.593043	8810.590935
469.964238	8673.138834
470.335373	8689.313376
470.706449	8745.726408
471.077467	8722.590033
471.448425	10037.272544
471.819324	11108.946235
472.190164	11138.862962
472.560945	9889.050018
472.931667	9099.159184
473.302330	8961.142474
473.672934	8608.138197
474.043479	8966.465932
474.413965	8905.946881
474.784393	8786.287532
475.154761	8945.630844
475.525070	9027.053040
475.895321	8852.976957
476.265513	9030.382722
476.635645	9205.976193
477.005719	9205.887973
477.375734	9321.227052
477.745691	9555.318072
478.115588	9681.178040
478.485427	9927.884547
478.855207	10463.323141
479.224928	11288.063472
479.594591	11910.693863
479.964194	11723.760317
480.333739	11665.857624
480.703226	11578.479304
481.072653	11672.393480
481.442022	11916.297106
481.811333	12095.381575
482.180584	11907.860735
482.549777	11610.528440
482.918912	11428.900708
483.287988	11455.422218
483.657005	11474.208078
484.025964	11156.259984
484.394864	11283.841506
484.763706	11256.974676
485.132489	11008.655000
485.501213	10979.749023
485.869879	11052.523120
486.238487	10893.005889
486.607036	11002.605615
486.975527	10782.864239
487.343959	10968.247631
487.712333	11023.594459
488.080648	10941.670668
488.448905	10990.950467
488.817104	10933.282188
489.185244	11193.133504
489.553326	11352.804490
489.921350	11886.201417
490.289315	12952.644910
490.657222	13294.649390
491.025070	13214.381618
491.392861	13079.389600
491.760593	12705.126777
492.128267	12346.189062
492.495883	12017.359637
492.863440	11690.269411
493.230939	11349.986485
493.598380	11284.365786
493.965763	11152.834520
494.333088	11056.122504
494.700354	10973.689557
495.067563	11032.124091
495.434713	10861.097906
495.801805	10988.815539
496.168839	10910.871738
496.535815	10844.325987
496.902733	10852.394354
497.269593	10784.994127
497.636395	10883.916689
498.003139	10865.244255
498.369825	10729.337268
498.736453	10899.834132
499.103023	10817.078551
499.469535	10849.409991
499.835989	10841.792807
500.202385	10797.072732
500.568723	10647.153857
500.935003	10873.504186
501.301226	10683.460247
501.667390	10938.976171
502.033497	11035.894874
502.399546	10900.527291
502.765537	10801.443412
503.131470	10877.035514
503.497345	11055.399099
503.863163	10666.095993
504.228923	10971.574793
504.594625	11038.629700
504.960269	10785.823397
505.325856	11014.089363
505.691385	10806.456839
506.056856	10959.448297
506.422270	10983.466874
506.787625	10871.023938
507.152924	10990.544654
507.518164	10962.682197
507.883347	10885.008099
508.248472	10806.603033
508.613540	11041.190607
508.978550	10924.641650
509.343503	10897.764738
509.708398	11010.928560
510.073236	11124.520880
510.438016	11134.567899
510.802738	11086.762637
511.167403	11132.967333
511.532010	11031.186437
511.896561	11267.319124
512.261053	11341.787049
512.625488	11204.975174
512.989866	11185.155878
513.354186	11176.104486
513.718449	11074.016080
514.082655	11266.240317
514.446803	11169.182982
514.810894	11289.422063
515.174927	11154.160344
515.538904	11173.808241
515.902822	11332.977632
516.266684	11208.819054
516.630488	11158.354584
516.994235	11217.515045
517.357925	11271.886409
517.721558	11364.474762
518.085133	11386.386137
518.448651	11397.559854
518.812112	11275.831112
519.175516	11290.765531
519.538863	11408.789024
519.902152	11328.518732
520.265385	11493.024185
520.628560	11403.049671
520.991678	11377.155784
521.354739	11437.359764
521.717743	11374.254600
522.080690	11350.946825
522.443580	11481.258132
522.806413	11438.597367
523.169189	11474.497944
523.531908	11525.930316
523.894569	11345.978768
524.257174	11346.046824
524.619722	11472.751184
524.982213	11423.264698
525.344647	11474.858387
525.707025	11416.335632
526.069345	11512.818275
526.431608	11434.645102
526.793815	11541.439426
527.155964	11330.482261
527.518057	11379.953624
527.880093	11325.120994
528.242072	11397.375852
528.603995	11306.559466
528.965860	11231.196736
529.327669	11280.136258
529.689421	11222.213400
530.051117	11196.034688
530.412755	11308.442337
530.774337	11190.547392
531.135862	11169.908908
531.497331	11193.884636
531.858743	11053.433049
532.220098	11213.146885
532.581396	11080.128479
532.942638	11062.529811
533.303824	11027.166117
533.664953	11047.693695
534.026025	10956.542072
534.387040	11055.013450
534.747999	11057.385313
535.108902	11118.201793
535.469748	10872.987467
535.830537	10973.671913
536.191270	10950.427152
536.551947	10979.819600
536.912567	10972.855246
537.273131	10899.929914
537.633638	10875.107272
537.994089	10867.427075
538.354483	10818.684158
538.714821	10962.329316
539.075103	10968.585388
539.435328	10936.352251
539.795497	10758.598645
540.155609	10920.031515
540.515665	11005.325318
540.875665	10742.857642
541.235609	10811.891203
541.595496	10806.988681
541.955328	10959.229007
542.315102	10846.183652
542.674821	10796.082145
543.034483	10792.782710
543.394090	10802.769235
543.753640	10725.357277
544.113134	10952.022677
544.472571	10797.395365
544.831953	10950.364138
545.191278	10753.002965
545.550548	10785.596545
545.909761	10915.859960
546.268918	10890.749973
546.628019	10975.953035
546.987064	10838.352220
547.346053	10757.749211
547.704986	10864.979594
548.063863	10847.718684
548.422684	10839.267189
548.781449	10758.928841
549.140158	10859.262926
549.498811	10737.297250
549.857408	10593.042112
550.215949	10812.032356
550.574434	10669.251755
550.932864	10774.011973
551.291237	10828.620272
551.649555	10771.214133
552.007817	10786.002358
552.366022	10748.097922
552.724173	10744.770760
553.082267	10725.165713
553.440305	10862.191836
553.798288	10664.936527
554.156215	10817.179374
554.514086	10794.559716
554.871902	10644.446758
555.229661	10687.694817
555.587365	10663.898050
555.945014	10554.154651
556.302606	10683.593838
556.660143	10573.099307
557.017625	10736.341951
557.375050	10625.484457
557.732421	10757.083779
558.089735	10672.410038
558.446994	10673.640080
558.804197	10706.959586
559.161345	10709.444875
559.518437	10562.951465
559.875474	10654.380351
560.232455	10684.372696
560.589381	10626.724581
560.946251	10626.701896
561.303065	10738.471839
561.659825	10664.266054
562.016528	10600.011507
562.373177	10480.271500
562.729770	10599.492268
563.086307	10513.439772
563.442789	10607.505182
563.799216	10475.704215
564.155587	10524.646257
564.511904	10488.284414
564.868164	10478.381068
565.224370	10492.017389
565.580520	10405.241487
565.936615	10415.679196
566.292654	10284.566346
566.648638	10421.174054
567.004567	10375.095387
567.360441	10358.159631
567.716260	10269.571434
568.072023	10368.768739
568.427732	10307.987547
568.783385	10221.340195
569.138982	10289.179002
569.494525	10312.814452
569.850013	10184.227220
570.205445	10267.809551
570.560823	10162.215022
570.916145	10086.859854
571.271412	10156.190843
571.626625	10098.981309
571.981782	10080.679400
572.336884	10045.610613
572.691931	10057.429598
573.046923	10001.354323
573.401860	9955.547879
573.756743	9892.704855
574.111570	9933.767574
574.466342	9921.850286
574.821059	9957.219021
575.175722	9840.097894
575.530330	9848.655253
575.884882	9839.606382
576.239380	9771.417214
576.593823	9745.465354
576.948211	9760.213250
577.302544	9644.843923
577.656823	9661.426799
578.011047	9657.721551
578.365216	9628.805492
578.719330	9557.279081
579.073389	9568.672089
579.427394	9513.143779
579.781344	9497.604422
580.135239	9440.460423
580.489080	9449.186660
580.842866	9352.522535
581.196597	9349.593625
581.550273	9391.790603
581.903895	9360.182568
582.257463	9430.050440
582.610975	9307.520155
582.964434	9334.744906
583.317837	9257.607691
583.671186	9243.578159
584.024481	9234.758661
584.377721	9153.160024
584.730906	9131.551118
585.084037	9160.976333
585.437113	9093.019059
585.790135	9117.234241
586.143103	9015.975104
586.496016	8995.891147
586.848874	9049.871823
587.201679	9039.426552
587.554428	8922.134026
587.907124	8965.520716
588.259765	8933.958052
588.612352	8943.921892
588.964884	8817.038571
589.317362	8834.034821
589.669786	8835.370727
590.022155	8884.947954
590.374470	8903.481756
590.726731	8827.877052
591.078937	8684.819188
591.431090	8798.517372
591.783188	8669.922578
592.135232	8664.906630
592.487222	8665.912340
592.839157	8711.623003
593.191038	8649.127818
593.542866	8592.707225
593.894639	8494.402204
594.246358	8550.633755
594.598022	8558.071977
594.949633	8459.882903
595.301190	8430.649252
595.652692	8466.151578
596.004141	8572.363648
596.355535	8349.501798
596.706876	8323.887696
597.058162	8258.748426
597.409395	8334.393460
597.760573	8398.325373
598.111698	8309.822877
598.462768	8299.264180
598.813785	8260.696832
599.164748	8231.868994
599.515657	8218.225111
599.866511	8127.776729
600.217312	8253.450174
600.568060	8114.705017
600.918753	8217.509267
601.269392	8185.752519
601.619978	8094.759692
601.970510	8160.408118
602.320988	8154.804875
602.671412	8214.608083
603.021783	8152.851428
603.372100	8123.809341
603.722363	8120.746840
604.072572	8102.550795
604.422728	8111.229141
604.772830	8045.222793
605.122878	8051.398207
605.472872	8046.825880
605.822813	8074.524500
606.172701	8019.006273
606.522534	8093.446471
606.872314	8088.377591
607.222041	8059.567397
607.571714	8115.803988
607.921333	8071.824962
608.270899	8081.851817
608.620411	8170.344232
608.969870	8078.953154
609.319276	8067.502173
609.668627	8083.717044
610.017926	8118.773228
610.367171	8165.474477
610.716362	8142.310375
611.065500	8128.248077
611.414585	8156.738158
611.763616	8149.781365
612.112594	8124.557952
612.461518	8134.725959
612.810389	8201.483439
613.159207	8137.085219
613.507971	8088.100327
613.856682	8206.532155
614.205340	8163.861308
614.553945	8237.406702
614.902496	8134.673027
615.250994	8190.186213
615.599439	8172.136362
615.947830	8180.681118
616.296169	8150.436715
616.644454	8168.075713
616.992686	8161.872573
617.340864	8218.457004
617.688990	8126.138354
618.037063	8216.856438
618.385082	8168.030342
618.733048	8246.095130
619.080961	8179.599790
619.428821	8200.238274
619.776628	8205.561733
620.124382	8155.067015
620.472083	8137.259139
620.819731	8160.468612
621.167326	8060.527737
621.514868	8063.963283
621.862357	7953.425902
622.209793	7971.019529
622.557176	7901.078561
622.904506	7871.181998
623.251783	7806.929972
623.599007	7756.704956
623.946179	7759.006243
624.293297	7717.414203
624.640363	7636.808673
624.987376	7613.624407
625.334336	7569.191677
625.681243	7510.008531
626.028097	7500.510997
626.374899	7471.577294
626.721647	7468.416491
627.068343	7398.377220
627.414987	7368.284052
627.761577	7319.601629
628.108115	7352.371650
628.454600	7247.727378
628.801032	7297.087836
629.147412	7257.177021
629.493739	7242.920638
629.840014	7181.625249
630.186236	7236.021819
630.532405	7113.771318
630.878521	7161.826117
631.224585	7120.579396
631.570597	7039.774741
631.916556	7070.702220
632.262462	7060.819038
632.608316	7023.678337
632.954117	6994.250601
633.299866	6987.452605
633.645562	6972.555996
633.991206	6897.611682
634.336797	6836.835531
634.682336	6793.368182
635.027823	6759.133707
635.373257	6748.234732
635.718639	6679.796027
636.063968	6694.402771
636.409245	6587.018632
636.754470	6580.754998
637.099642	6542.951386
637.444762	6479.400080
637.789829	6490.316698
638.134845	6429.729591
638.479808	6413.413896
638.824719	6412.851808
639.169577	6342.575602
639.514383	6361.038828
639.859137	6285.802128
640.203839	6292.816893
640.548489	6279.455315
