Dividing Wavelength (nm)	Counts (n)	Blue Motor Position (mm): 0.000000	Red Motor Position (mm): 27.300000	
326.493990	2125.579834
326.888308	2125.579834
327.282561	2125.579834
327.676750	2096.242839
328.070874	2093.366861
328.464933	2095.136306
328.858929	2103.655856
329.252859	2112.495519
329.646726	2125.201748
330.040528	2136.688017
330.434265	2155.844401
330.827938	2172.444921
331.221547	2188.259020
331.615091	2210.682073
332.008571	2226.357541
332.401986	2246.756570
332.795338	2265.290372
333.188625	2283.945162
333.581847	2304.122380
333.975006	2321.403455
334.368100	2341.772237
334.761129	2358.498786
335.154095	2377.622403
335.546996	2395.042110
335.939833	2408.348236
336.332606	2424.212747
336.725315	2437.781012
337.117960	2448.004472
337.510540	2455.135184
337.903056	2468.700929
338.295508	2474.667135
338.687896	2481.676859
339.080220	2491.701194
339.472480	2496.553304
339.864676	2501.027328
340.256807	2505.115704
340.648875	2507.865654
341.040879	2509.587208
341.432818	2512.498474
341.824694	2513.184071
342.216506	2517.237159
342.608253	2517.078362
342.999937	2515.273629
343.391557	2513.451252
343.783113	2512.516118
344.174605	2515.394617
344.566033	2511.394461
344.957397	2511.523011
345.348697	2508.079903
345.739934	2508.364728
346.131106	2505.115704
346.522215	2505.057731
346.913260	2502.751403
347.304241	2497.730414
347.695159	2496.835609
348.086012	2495.792090
348.476802	2494.859477
348.867528	2494.640187
349.258191	2490.592140
349.648789	2493.944507
350.039324	2488.492499
350.429796	2489.064670
350.820203	2487.383446
351.210548	2485.528301
351.600828	2485.740029
351.991045	2484.164669
352.381198	2487.093579
352.771288	2485.903867
353.161314	2483.458907
353.551276	2484.578043
353.941175	2483.952940
354.331010	2483.831953
354.720782	2483.968064
355.110490	2484.298259
355.500135	2483.900008
355.889717	2481.936479
356.279235	2480.041005
356.668689	2487.645586
357.058080	2484.948568
357.447408	2483.869761
357.836672	2482.922024
358.225873	2483.350523
358.615010	2481.510501
359.004084	2485.127529
359.393095	2486.889413
359.782043	2488.187510
360.170927	2490.841677
360.559748	2486.203816
360.948505	2492.132213
361.337199	2489.707417
361.725830	2491.615494
362.114398	2492.558190
362.502903	2492.548108
362.891344	2494.136071
363.279722	2497.261587
363.668037	2494.859477
364.056289	2495.303098
364.444478	2496.943994
364.832603	2495.449292
365.220665	2497.952225
365.608665	2496.946514
365.996601	2498.947853
366.384474	2500.271155
366.772284	2501.647390
367.160031	2501.934736
367.547715	2505.057731
367.935336	2505.851713
368.322893	2508.465551
368.710388	2509.766169
369.097820	2520.395442
369.485189	2520.972654
369.872495	2530.185362
370.259738	2534.704757
370.646918	2543.536858
371.034035	2549.520708
371.421090	2559.308108
371.808081	2569.229099
372.195010	2579.071952
372.581875	2593.338417
372.968678	2606.019440
373.355418	2615.643002
373.742096	2635.205200
374.128710	2647.510656
374.515262	2662.137564
374.901751	2679.181705
375.288177	2691.086390
375.674540	2716.201419
376.060841	2729.252966
376.447079	2752.303642
376.833254	2772.596807
377.219367	2784.526697
377.605417	2823.812409
377.991404	2832.861280
378.377329	2853.189733
378.763191	2869.563401
379.148991	2908.755852
379.534727	2933.611261
379.920402	2963.167546
380.306013	2973.073413
380.691563	3024.586443
381.077049	3044.556974
381.462474	3063.131106
381.847835	3103.205758
382.233134	3125.475055
382.618371	3123.642596
383.003545	3190.536187
383.388657	3198.579348
383.773706	3232.846591
384.158693	3249.162286
384.543618	3274.539454
384.928480	3309.514979
385.313280	3357.196733
385.698017	3352.435363
386.082692	3409.367634
386.467305	3413.937440
386.851856	3448.459262
387.236344	3465.568938
387.620770	3499.639576
388.005133	3523.665715
388.389435	3555.818195
388.773674	3564.037796
389.157851	3607.200155
389.541965	3625.577682
389.926018	3586.899429
390.310008	3658.897188
390.693936	3678.320754
391.077802	3719.229717
391.461606	3708.456771
391.845348	3770.054630
392.229027	3770.220988
392.612645	3779.037966
392.996200	3857.339688
393.379694	3898.987181
393.763125	3964.446564
394.146494	3927.845266
394.529801	3991.930934
394.913047	4041.727452
395.296230	4006.794777
395.679351	4060.117581
396.062410	4085.061211
396.445408	4067.291143
396.828343	4100.633335
397.211217	4122.895070
397.594028	4041.359448
397.976778	4112.951394
398.359466	4137.199344
398.742092	4167.814272
399.124656	4091.332406
399.507158	4169.941638
399.889598	4191.860575
400.271977	4255.641254
400.654294	4227.340216
401.036549	4234.362543
401.418742	4205.660734
401.800874	4306.713183
402.182944	4330.220084
402.564952	4390.466913
402.946898	4378.882342
403.328783	4375.051065
403.710606	4289.795071
404.092367	4480.592662
404.474067	4446.529585
404.855705	4453.337664
405.237282	4382.113722
405.618797	4489.787727
406.000250	4524.067573
406.381642	4605.827526
406.762972	4573.302002
407.144240	4581.564453
407.525447	4580.783074
407.906593	4636.697032
408.287677	4676.990975
408.668700	4607.808700
409.049661	4659.896422
409.430560	4699.287998
409.811399	4629.334427
410.192176	4786.746976
410.572891	4727.367225
410.953545	4833.551569
411.334138	4716.034711
411.714669	4783.077016
412.095139	4674.949307
412.475547	4816.232685
412.855894	4795.790806
413.236180	4809.278413
413.616405	4760.432153
413.996568	4845.078167
414.376670	4792.849293
414.756711	4743.521602
415.136691	4773.385398
415.516609	4852.849106
415.896466	4892.822935
416.276262	4927.135549
416.655997	4904.415069
417.035670	5087.245116
417.415283	5178.212737
417.794834	5122.855827
418.174324	5077.626594
418.553753	4985.812059
418.933121	5171.931459
419.312428	5238.066357
419.691674	5175.082180
420.070859	5298.454338
420.449983	5211.048293
420.829045	5329.044060
421.208047	5236.065018
421.586988	5302.479700
421.965867	5318.099715
422.344686	5449.109221
422.723444	5299.765038
423.102141	5120.983038
423.480777	5419.656280
423.859352	5189.242782
424.237866	5451.581907
424.616319	5444.955310
424.994712	5551.560591
425.373044	5433.532056
425.751314	5571.949537
426.129524	5374.119537
426.507673	5571.548766
426.885762	5653.311240
427.263789	5579.740641
427.641756	5460.643381
428.019662	5587.161219
428.397508	5591.148772
428.775292	5540.331421
429.153016	5637.320700
429.530679	5563.432508
429.908282	5649.898379
430.285824	5522.412639
430.663305	5790.939781
431.040726	5529.830697
431.418086	5528.484709
431.795385	5637.605525
432.172624	5648.214633
432.549802	5641.948479
432.926920	5652.774357
433.303977	5661.321633
433.680974	5697.343198
434.057910	5717.502773
434.434786	5718.803390
434.811601	5690.313309
435.188355	5925.652015
435.565050	5798.791378
435.941683	5783.680520
436.318257	5993.639536
436.694770	5980.073791
437.071222	6009.073029
437.447614	5946.287978
437.823946	5856.373958
438.200218	6013.025293
438.576429	5874.799375
438.952580	5971.594570
439.328670	6018.121900
439.704700	5925.188229
440.080670	5910.281537
440.456580	6178.949831
440.832429	6066.572429
441.208218	5905.656278
441.583947	6064.860958
441.959616	6065.977573
442.335224	5995.348487
442.710773	6127.928313
443.086261	6159.249002
443.461689	5951.278720
443.837057	6097.794816
444.212365	6253.576552
444.587612	6141.121012
444.962800	6293.661287
445.337927	6269.998111
445.712995	5878.822216
446.088002	6447.348423
446.462949	6279.286437
446.837837	6207.797834
447.212664	6377.281426
447.587431	6511.204719
447.962139	7040.835904
448.336786	7954.227446
448.711374	7685.042433
449.085901	6770.264574
449.460369	6692.572832
449.834776	6611.435461
450.209124	6990.129458
450.583412	7126.764892
450.957640	7264.400995
451.331808	7017.896133
451.705917	6573.795685
452.079965	6492.383571
452.453954	6683.937335
452.827883	6559.446041
453.201752	6639.192054
453.575562	6428.194559
453.949311	6605.738957
454.323001	6488.078426
454.696632	6548.284926
455.070202	6660.664848
455.443713	6793.736187
455.817164	6871.793413
456.190556	6926.048831
456.563888	6973.385266
456.937160	6992.826475
457.310373	6659.255846
457.683526	6658.981103
458.056619	6536.589449
458.429653	6502.927145
458.802628	6417.678712
459.175542	6498.122925
459.548398	6780.780421
459.921194	6890.576752
460.293930	6861.776640
460.666607	7260.998216
461.039224	7479.754046
461.411782	7555.136940
461.784280	7537.573560
462.156719	7410.788541
462.529099	7271.647653
462.901419	6890.591875
463.273680	6771.950840
463.645882	6744.330358
464.018024	6584.611481
464.390106	6680.312746
464.762130	6930.091836
465.134094	7220.041362
465.505999	7914.344357
465.877845	8752.534487
466.249631	9178.401081
466.621358	8837.911468
466.993026	8315.249679
467.364634	8058.992705
467.736184	7730.044814
468.107674	7414.849190
468.479105	7351.348296
468.850477	7138.896429
469.221790	6914.020638
469.593043	6630.982535
469.964238	6465.831814
470.335373	6411.306694
470.706449	6378.294698
471.077467	6295.458458
471.448425	7000.481467
471.819324	7543.691000
472.190164	7491.101683
472.560945	6694.213727
472.931667	6162.770248
473.302330	6018.106776
473.672934	5759.581284
474.043479	5874.572523
474.413965	5775.970075
474.784393	5634.842973
475.154761	5648.819572
475.525070	5614.993430
475.895321	5468.333661
476.265513	5478.080732
476.635645	5486.128934
477.005719	5402.153394
477.375734	5389.255602
477.745691	5413.125465
478.115588	5387.168564
478.485427	5398.304473
478.855207	5538.705648
479.224928	5760.302169
479.594591	5913.959058
479.964194	5744.261217
480.333739	5624.095233
480.703226	5488.735211
481.072653	5435.435091
481.442022	5424.790695
481.811333	5412.215537
482.180584	5257.888173
482.549777	5079.370833
482.918912	4957.505980
483.287988	4878.672417
483.657005	4809.177590
484.025964	4651.109691
484.394864	4604.181590
484.763706	4521.771327
485.132489	4401.905292
485.501213	4319.099298
485.869879	4274.921147
486.238487	4169.409797
486.607036	4136.675064
486.975527	4028.441491
487.343959	4003.601206
487.712333	3955.218732
488.080648	3888.758680
488.448905	3838.606761
488.817104	3775.615023
489.185244	3767.803755
489.553326	3731.535174
489.921350	3758.286057
490.289315	3849.402392
490.657222	3844.071372
491.025070	3773.361627
491.392861	3706.261349
491.760593	3607.618571
492.128267	3513.664066
492.495883	3433.192127
492.863440	3360.367619
493.230939	3290.421609
493.598380	3252.749067
493.965763	3200.089173
494.333088	3165.756395
494.700354	3123.685446
495.067563	3102.202569
495.434713	3062.808472
495.801805	3047.059907
496.168839	3015.908097
496.535815	2985.882985
496.902733	2965.647793
497.269593	2938.556633
497.636395	2924.093562
498.003139	2902.073802
498.369825	2878.995400
498.736453	2864.552494
499.103023	2846.631192
499.469535	2831.890858
499.835989	2814.695482
500.202385	2801.381795
500.568723	2783.679783
500.935003	2777.370779
501.301226	2760.964344
501.667390	2758.600043
502.033497	2750.105699
502.399546	2738.473236
502.765537	2725.832543
503.131470	2719.563868
503.497345	2716.035061
503.863163	2701.982844
504.228923	2699.316074
504.594625	2693.223839
504.960269	2684.356450
505.325856	2683.723785
505.691385	2671.201559
506.056856	2670.652073
506.422270	2667.057730
506.787625	2660.675630
507.152924	2659.359888
507.518164	2656.733447
507.883347	2649.892602
508.248472	2648.299597
508.613540	2649.461583
508.978550	2643.858340
509.343503	2639.565798
509.708398	2641.453710
510.073236	2640.740387
510.438016	2639.878349
510.802738	2632.919037
511.167403	2634.927936
511.532010	2630.862246
511.896561	2633.670168
512.261053	2634.383492
512.625488	2625.064919
512.989866	2623.182048
513.354186	2623.083745
513.718449	2617.127622
514.082655	2620.515277
514.446803	2622.630042
514.810894	2618.143415
515.174927	2619.645678
515.538904	2617.977057
515.902822	2620.215329
516.266684	2617.961933
516.630488	2618.090482
516.994235	2617.205760
517.357925	2612.696448
517.721558	2614.612086
518.085133	2612.580501
518.448651	2612.215018
518.812112	2611.181581
519.175516	2614.851541
519.538863	2611.078237
519.902152	2611.630244
520.265385	2611.332816
520.628560	2610.667383
520.991678	2609.081941
521.354739	2611.113526
521.717743	2608.356014
522.080690	2610.163268
522.443580	2609.633947
522.806413	2611.330295
523.169189	2608.255191
523.531908	2610.248968
523.894569	2608.116560
524.257174	2607.693103
524.619722	2608.088833
524.982213	2606.962135
525.344647	2606.813421
525.707025	2606.508432
526.069345	2605.391816
526.431608	2604.670931
526.793815	2607.655294
527.155964	2604.832248
527.518057	2605.507762
527.880093	2604.925509
528.242072	2600.968203
528.603995	2604.781836
528.965860	2601.802514
529.327669	2604.701178
529.689421	2601.409304
530.051117	2603.062803
530.412755	2601.686568
530.774337	2602.732607
531.135862	2601.898296
531.497331	2602.304109
531.858743	2597.895620
532.220098	2602.110025
532.581396	2600.340580
532.942638	2599.168512
533.303824	2599.483584
533.664953	2602.659511
534.026025	2601.394181
534.387040	2601.840323
534.747999	2599.584407
535.108902	2603.937443
535.469748	2596.864704
535.830537	2598.167843
536.191270	2602.422576
536.551947	2604.320571
536.912567	2600.164139
537.273131	2601.646239
537.633638	2597.676330
537.994089	2597.641042
538.354483	2599.823862
538.714821	2600.239757
539.075103	2601.704212
539.435328	2603.183791
539.795497	2600.572473
540.155609	2602.425097
540.515665	2601.152206
540.875665	2600.169181
541.235609	2599.042483
541.595496	2600.670775
541.955328	2604.640684
542.315102	2600.587596
542.674821	2599.657503
543.034483	2598.248501
543.394090	2598.805548
543.753640	2598.044334
544.113134	2599.377719
544.472571	2602.868718
544.831953	2599.975096
545.191278	2599.728080
545.550548	2598.518203
545.909761	2598.314036
546.268918	2601.752103
546.628019	2600.506938
546.987064	2598.583738
547.346053	2599.055086
547.704986	2598.971907
548.063863	2602.455344
548.422684	2601.805035
548.781449	2599.682709
549.140158	2598.997112
549.498811	2598.702205
549.857408	2597.968717
550.215949	2596.509303
550.574434	2596.784046
550.932864	2594.238263
551.291237	2597.018459
551.649555	2599.677668
552.007817	2598.876125
552.366022	2599.627257
552.724173	2598.745055
553.082267	2600.854777
553.440305	2601.099273
553.798288	2599.342431
554.156215	2599.286979
554.514086	2600.774119
554.871902	2600.673296
555.229661	2600.706063
555.587365	2598.601382
555.945014	2600.534664
556.302606	2597.371340
556.660143	2599.365117
557.017625	2600.091043
557.375050	2598.792946
557.732421	2600.368306
558.089735	2600.078440
558.446994	2602.372165
558.804197	2600.897627
559.161345	2598.341762
559.518437	2600.005343
559.875474	2600.338059
560.232455	2601.868049
560.589381	2599.017277
560.946251	2600.290168
561.303065	2599.097935
561.659825	2600.748913
562.016528	2600.096084
562.373177	2598.888727
562.729770	2600.080960
563.086307	2599.256732
563.442789	2598.331680
563.799216	2600.149016
564.155587	2597.769591
564.511904	2599.851588
564.868164	2600.327977
565.224370	2602.445262
565.580520	2598.674478
565.936615	2601.132041
566.292654	2596.511823
566.648638	2598.881166
567.004567	2600.028028
567.360441	2595.864035
567.716260	2597.883017
568.072023	2599.957452
568.427732	2594.535691
568.783385	2591.226174
569.138982	2596.761361
569.494525	2596.892431
569.850013	2592.567121
570.205445	2598.651793
570.560823	2597.078953
570.916145	2596.952924
571.271412	2596.882348
571.626625	2595.818665
571.981782	2595.523757
572.336884	2596.897472
572.691931	2595.652307
573.046923	2596.968048
573.401860	2596.045517
573.756743	2595.722883
574.111570	2595.427975
574.466342	2595.690115
574.821059	2596.678182
575.175722	2596.620208
575.530330	2593.381267
575.884882	2595.095259
576.239380	2595.314549
576.593823	2595.979982
576.948211	2595.049889
577.302544	2596.912595
577.656823	2593.406473
578.011047	2593.961000
578.365216	2595.180959
578.719330	2595.306988
579.073389	2594.001329
579.427394	2592.609970
579.781344	2591.231215
580.135239	2594.938983
580.489080	2589.570155
580.842866	2589.456729
581.196597	2598.482915
581.550273	2591.783221
581.903895	2593.464446
582.257463	2592.627614
582.610975	2595.944694
582.964434	2592.814137
583.317837	2590.815320
583.671186	2594.056782
584.024481	2590.386822
584.377721	2591.952100
584.730906	2591.813468
585.084037	2592.221802
585.437113	2591.926894
585.790135	2591.521081
586.143103	2593.313211
586.496016	2591.904209
586.848874	2590.154928
587.201679	2587.694845
587.554428	2586.502612
587.907124	2587.049578
588.259765	2587.150401
588.612352	2591.037130
588.964884	2587.261306
589.317362	2589.993612
589.669786	2587.024372
590.022155	2588.740885
590.374470	2588.579568
590.726731	2589.116451
591.078937	2586.537901
591.431090	2589.048395
591.783188	2585.827098
592.135232	2587.283991
592.487222	2587.331882
592.839157	2587.881368
593.191038	2588.067891
593.542866	2586.933631
593.894639	2590.359095
594.246358	2587.924218
594.598022	2588.788776
594.949633	2587.520926
595.301190	2586.477407
595.652692	2588.430854
596.004141	2587.563775
596.355535	2588.589650
596.706876	2587.891450
597.058162	2584.705441
597.409395	2585.396079
597.760573	2586.023703
598.111698	2585.242324
598.462768	2588.017479
598.813785	2586.616038
599.164748	2585.683425
599.515657	2587.122674
599.866511	2582.073959
600.217312	2586.270719
600.568060	2587.263827
600.918753	2589.013107
601.269392	2583.561099
601.619978	2584.723085
601.970510	2584.481110
602.320988	2584.463466
602.671412	2585.295256
603.021783	2584.816347
603.372100	2588.708117
603.722363	2586.240472
604.072572	2584.251737
604.422728	2585.764083
604.772830	2584.009762
605.122878	2580.947261
605.472872	2583.130081
605.822813	2577.766293
606.172701	2582.744432
606.522534	2584.924731
606.872314	2586.507654
607.222041	2585.040678
607.571714	2584.337437
607.921333	2583.563620
608.270899	2585.093610
608.620411	2585.307859
608.969870	2586.169896
609.319276	2586.227870
609.668627	2588.919846
610.017926	2589.096286
610.367171	2593.126689
610.716362	2591.745413
611.065500	2592.110896
611.414585	2590.676688
611.763616	2588.834146
612.112594	2586.580750
612.461518	2587.480596
612.810389	2588.080494
613.159207	2586.331213
613.507971	2585.252406
613.856682	2586.598394
614.205340	2584.952458
614.553945	2587.442788
614.902496	2586.104361
615.250994	2587.551172
615.599439	2587.160483
615.947830	2587.586461
616.296169	2585.544793
616.644454	2587.699887
616.992686	2581.282498
617.340864	2586.986563
617.688990	2584.954978
618.037063	2583.961871
618.385082	2585.751481
618.733048	2590.260793
619.080961	2586.938672
619.428821	2585.756522
619.776628	2585.522108
620.124382	2588.501430
620.472083	2586.825246
620.819731	2588.977819
621.167326	2585.678384
621.514868	2582.941037
621.862357	2583.356932
622.209793	2583.745101
622.557176	2583.157807
622.904506	2583.745101
623.251783	2580.228897
623.599007	2578.182188
623.946179	2577.572208
624.293297	2579.835687
624.640363	2580.775862
624.987376	2581.463979
625.334336	2580.680080
625.681243	2578.542631
626.028097	2579.755028
626.374899	2578.996334
626.721647	2579.565985
627.068343	2578.499781
627.414987	2578.766962
627.761577	2582.013465
628.108115	2580.722930
628.454600	2576.042218
628.801032	2577.441138
629.147412	2578.688824
629.493739	2579.039184
629.840014	2576.768144
630.186236	2578.343505
630.532405	2577.441138
630.878521	2581.007755
631.224585	2577.310068
631.570597	2577.408371
631.916556	2576.458113
632.262462	2575.956519
632.608316	2578.777044
632.954117	2575.462486
633.299866	2577.481468
633.645562	2575.540623
633.991206	2574.618092
634.336797	2576.155644
634.682336	2576.841241
635.027823	2570.915365
635.373257	2572.594069
635.718639	2572.037022
636.063968	2574.701271
636.409245	2573.730849
636.754470	2571.979048
637.099642	2570.819583
637.444762	2574.212279
637.789829	2570.713719
638.134845	2569.919737
638.479808	2573.761096
638.824719	2574.103895
639.169577	2570.945612
639.514383	2568.883780
639.859137	2569.433266
640.203839	2569.549212
640.548489	2571.237999
640.893086	2570.214644
641.237632	2566.769016
641.582125	2564.508058
641.926566	2564.177863
642.270955	2568.109963
642.615292	2570.496949
642.959576	2569.876887
643.303809	2570.570046
643.647990	2571.285890
643.992118	2569.881928
644.336195	2570.980900
