Dividing Wavelength (nm)	Counts (n)	Blue Motor Position (mm): 0.000000	Red Motor Position (mm): 21.500000	
326.493990	2080.892526
326.888308	2080.892526
327.282561	2080.892526
327.676750	2058.469473
328.070874	2060.211192
328.464933	2067.120093
328.858929	2077.028481
329.252859	2089.018866
329.646726	2103.623088
330.040528	2119.230501
330.434265	2140.776392
330.827938	2157.780204
331.221547	2178.643019
331.615091	2200.713191
332.008571	2220.323279
332.401986	2240.800446
332.795338	2260.271903
333.188625	2278.626744
333.581847	2297.999898
333.975006	2318.711479
334.368100	2333.076247
334.761129	2350.798423
335.154095	2367.565301
335.546996	2384.848897
335.939833	2405.273132
336.332606	2419.617735
336.725315	2431.207348
337.117960	2437.334870
337.510540	2446.842486
337.903056	2456.360185
338.295508	2461.222378
338.687896	2468.005250
339.080220	2474.974645
339.472480	2480.580408
339.864676	2483.567292
340.256807	2488.225318
340.648875	2489.883858
341.040879	2490.531646
341.432818	2491.965854
341.824694	2492.227994
342.216506	2492.142295
342.608253	2491.638179
342.999937	2489.236070
343.391557	2491.507109
343.783113	2486.937303
344.174605	2488.888230
344.566033	2488.404279
344.957397	2486.803713
345.348697	2481.981849
345.739934	2483.872282
346.131106	2479.025212
346.522215	2477.235603
346.913260	2476.791981
347.304241	2474.465489
347.695159	2474.573874
348.086012	2473.492546
348.476802	2472.902731
348.867528	2470.606486
349.258191	2469.885601
349.648789	2466.835702
350.039324	2465.230095
350.429796	2468.285034
350.820203	2463.513582
351.210548	2463.238839
351.600828	2462.490228
351.991045	2463.843778
352.381198	2466.049283
352.771288	2463.964765
353.161314	2465.837554
353.551276	2463.563994
353.941175	2464.312605
354.331010	2461.973510
354.720782	2468.567339
355.110490	2464.491566
355.500135	2466.155147
355.889717	2467.228912
356.279235	2466.051803
356.668689	2465.061216
357.058080	2466.641618
357.447408	2467.811166
357.836672	2465.903089
358.225873	2464.315126
358.615010	2463.115331
359.004084	2469.431897
359.393095	2471.597072
359.782043	2473.159830
360.170927	2470.757720
360.559748	2470.939202
360.948505	2474.694861
361.337199	2476.141673
361.725830	2475.793833
362.114398	2473.553040
362.502903	2475.014975
362.891344	2476.721405
363.279722	2478.274081
363.668037	2479.378093
364.056289	2478.329533
364.444478	2479.070583
364.832603	2482.654843
365.220665	2479.799030
365.608665	2482.317086
365.996601	2482.864051
366.384474	2483.776500
366.772284	2487.171717
367.160031	2486.274392
367.547715	2483.564772
367.935336	2486.702890
368.322893	2487.101141
368.710388	2488.197592
369.097820	2493.684888
369.485189	2490.927377
369.872495	2493.344610
370.259738	2490.577017
370.646918	2495.449292
371.034035	2493.972234
371.421090	2499.787205
371.808081	2503.711743
372.195010	2506.590242
372.581875	2510.676097
372.968678	2518.792355
373.355418	2520.481141
373.742096	2533.585621
374.128710	2541.306148
374.515262	2551.582540
374.901751	2563.335990
375.288177	2581.307703
375.674540	2595.531319
376.060841	2616.762138
376.447079	2634.345683
376.833254	2659.380053
377.219367	2680.467200
377.605417	2712.100440
377.991404	2736.096332
378.377329	2773.158895
378.763191	2803.877166
379.148991	2848.987932
379.534727	2897.047772
379.920402	2936.290634
380.306013	2986.944148
380.691563	3045.482026
381.077049	3095.162597
381.462474	3149.846514
381.847835	3222.570199
382.233134	3283.986576
382.618371	3342.390864
383.003545	3422.119233
383.388657	3494.837877
383.773706	3583.443718
384.158693	3655.375942
384.543618	3739.411977
384.928480	3812.377637
385.313280	3910.869181
385.698017	4008.478522
386.082692	4123.931027
386.467305	4181.057383
386.851856	4300.457112
387.236344	4446.380871
387.620770	4504.422196
388.005133	4622.685145
388.389435	4757.878809
388.773674	4841.695553
389.157851	4964.964368
389.541965	5091.948512
389.926018	5114.691678
390.310008	5283.439262
390.693936	5402.445781
391.077802	5512.605074
391.461606	5641.464528
391.845348	5748.810858
392.229027	5866.360484
392.612645	6081.695891
392.996200	6194.184198
393.379694	6357.172263
393.763125	6575.703762
394.146494	6663.760117
394.529801	6792.491022
394.913047	7028.127155
395.296230	7026.082967
395.679351	7078.528611
396.062410	7327.367527
396.445408	7230.383289
396.828343	7379.377111
397.211217	7509.297728
397.594028	7403.105822
397.976778	7593.265707
398.359466	7759.573373
398.742092	7748.213132
399.124656	7885.672795
399.507158	8071.784633
399.889598	8094.537881
400.271977	8303.438255
400.654294	8341.725819
401.036549	8522.748612
401.418742	8562.730003
401.800874	8851.671298
402.182944	8935.288917
402.564952	9288.756980
402.946898	9128.435685
403.328783	9182.058438
403.710606	9372.039362
404.092367	9627.063774
404.474067	9980.675510
404.855705	9785.557651
405.237282	9743.111135
405.618797	10155.303600
406.000250	10395.053315
406.381642	10758.611248
406.762972	10697.729233
407.144240	10520.172233
407.525447	10766.220870
407.906593	10713.029135
408.287677	10975.048148
408.668700	11111.882707
409.049661	11107.277613
409.430560	11264.564133
409.811399	11237.760318
410.192176	11399.382231
410.572891	11473.824950
410.953545	11950.397991
411.334138	11441.347317
411.714669	12013.220850
412.095139	11376.248376
412.475547	11834.776607
412.855894	11708.667102
413.236180	12024.787778
413.616405	11722.048845
413.996568	11992.499187
414.376670	11968.394910
414.756711	11863.987573
415.136691	12128.721246
415.516609	12306.134574
415.896466	12385.114331
416.276262	12674.726099
416.655997	13125.770736
417.035670	13171.420905
417.415283	13784.415130
417.794834	13870.737328
418.174324	13615.798617
418.553753	13514.204243
418.933121	14007.846631
419.312428	13833.289117
419.691674	13745.217639
420.070859	14192.494014
420.449983	13848.737733
420.829045	14408.618361
421.208047	14158.320032
421.586988	14611.184526
421.965867	14845.600700
422.344686	14844.141286
422.723444	15404.805814
423.102141	14119.223363
423.480777	15287.949347
423.859352	14782.102326
424.237866	15865.864704
424.616319	15588.409678
424.994712	16213.041407
425.373044	15992.100237
425.751314	16663.503792
426.129524	15792.780576
426.507673	16845.872573
426.885762	16560.054273
427.263789	16717.171915
427.641756	16876.522788
428.019662	16908.763488
428.397508	16935.035461
428.775292	17178.747523
429.153016	17130.980070
429.530679	17175.311977
429.908282	17166.149680
430.285824	16873.805607
430.663305	17507.677771
431.040726	17098.446984
431.418086	16898.968526
431.795385	17448.023277
432.172624	17803.349005
432.549802	17324.290676
432.926920	17461.682283
433.303977	17274.670599
433.680974	17442.987164
434.057910	17649.036766
434.434786	17599.394003
434.811601	17445.308615
435.188355	18328.707812
435.565050	17911.300274
435.941683	17768.126463
436.318257	18472.211818
436.694770	18180.356737
437.071222	18595.347042
437.447614	17645.245818
437.823946	17539.968882
438.200218	17566.868478
438.576429	17230.028661
438.952580	17363.238631
439.328670	17187.965273
439.704700	17398.798930
440.080670	16887.273049
440.456580	17238.369250
440.832429	17223.712095
441.208218	16277.550533
441.583947	16457.635671
441.959616	16398.079480
442.335224	16427.809685
442.710773	16363.638317
443.086261	16597.018534
443.461689	15930.189827
443.837057	15860.367325
444.212365	16145.018598
444.587612	15967.479242
444.962800	15494.424927
445.337927	15594.454022
445.712995	14537.926478
446.088002	15596.830926
446.462949	15529.952458
446.837837	15439.287306
447.212664	15230.845677
447.587431	16824.765262
447.962139	18448.977140
448.336786	19613.314800
448.711374	18344.433692
449.085901	15870.159767
449.460369	15587.056128
449.834776	15331.449464
450.209124	16461.209849
450.583412	15942.162567
450.957640	15937.113852
451.331808	14981.164889
451.705917	14015.347868
452.079965	13784.589050
452.453954	13723.487745
452.827883	13443.194550
453.201752	13100.123866
453.575562	12936.946757
453.949311	13187.146784
454.323001	12966.946664
454.696632	12620.810958
455.070202	13028.542002
455.443713	12853.039272
455.817164	12822.933501
456.190556	12775.967592
456.563888	12294.620578
456.937160	12189.714167
457.310373	11350.934222
457.683526	11245.221226
458.056619	11005.612663
458.429653	10763.705334
458.802628	10713.855884
459.175542	10523.257419
459.548398	10700.128822
459.921194	10946.931112
460.293930	10932.233628
460.666607	11276.068047
461.039224	11513.720642
461.411782	11340.315032
461.784280	10740.178269
462.156719	10317.096912
462.529099	9922.165358
462.901419	9362.929997
463.273680	8901.190552
463.645882	8699.889717
464.018024	8486.810226
464.390106	8457.566493
464.762130	8822.598963
465.134094	9461.993712
465.505999	10303.241301
465.877845	10895.947403
466.249631	10769.820254
466.621358	10108.420869
466.993026	9415.673069
467.364634	8798.635839
467.736184	8253.515709
468.107674	7857.275975
468.479105	7537.313941
468.850477	7236.785554
469.221790	6874.417333
469.593043	6491.841647
469.964238	6222.800308
470.335373	6056.669083
470.706449	6083.389719
471.077467	6206.880344
471.448425	6502.954871
471.819324	6624.875177
472.190164	6292.970649
472.560945	5833.086348
472.931667	5432.405358
473.302330	5210.251790
473.672934	5032.324265
474.043479	4953.243685
474.413965	4795.700065
474.784393	4664.882123
475.154761	4628.288387
475.525070	4536.919994
475.895321	4428.015948
476.265513	4375.610633
476.635645	4347.173484
477.005719	4264.559055
477.375734	4210.709450
477.745691	4170.639838
478.115588	4157.976460
478.485427	4180.026467
478.855207	4255.391717
479.224928	4299.509375
479.594591	4293.507881
479.964194	4176.601003
480.333739	4112.671610
480.703226	4058.532138
481.072653	4027.161038
481.442022	3992.094772
481.811333	3949.986014
482.180584	3862.355637
482.549777	3807.243222
482.918912	3752.949995
483.287988	3706.309240
483.657005	3646.586690
484.025964	3600.898713
484.394864	3571.239084
484.763706	3534.189124
485.132489	3490.043740
485.501213	3465.596664
485.869879	3450.072431
486.238487	3416.750404
486.607036	3404.586100
486.975527	3379.085423
487.343959	3369.575286
487.712333	3353.037781
488.080648	3338.562108
488.448905	3338.294927
488.817104	3322.742967
489.185244	3327.317814
489.553326	3347.298428
489.921350	3385.079355
490.289315	3425.332968
490.657222	3429.247424
491.025070	3423.011517
491.392861	3396.812641
491.760593	3366.739637
492.128267	3323.421002
492.495883	3290.156949
492.863440	3259.610077
493.230939	3230.411714
493.598380	3203.920450
493.965763	3189.341433
494.333088	3169.585152
494.700354	3154.358346
495.067563	3141.594145
495.434713	3137.241108
495.801805	3131.053092
496.168839	3119.140846
496.535815	3106.721963
496.902733	3100.801128
497.269593	3089.221597
497.636395	3081.087696
498.003139	3081.685072
498.369825	3066.412897
498.736453	3064.603123
499.103023	3049.215001
499.469535	3046.034033
499.835989	3036.728063
500.202385	3028.137936
500.568723	3024.213398
500.935003	3018.411030
501.301226	3009.725122
501.667390	3012.611182
502.033497	3010.415760
502.399546	2997.606188
502.765537	2982.903663
503.131470	2982.334013
503.497345	2984.221925
503.863163	2964.284161
504.228923	2965.241980
504.594625	2964.334573
504.960269	2952.906277
505.325856	2958.199488
505.691385	2944.633743
506.056856	2943.701130
506.422270	2943.411264
506.787625	2937.797939
507.152924	2934.309460
507.518164	2932.724018
507.883347	2917.182140
508.248472	2921.363777
508.613540	2919.798499
508.978550	2921.502409
509.343503	2914.399423
509.708398	2914.520411
510.073236	2917.749270
510.438016	2915.828590
510.802738	2906.366345
511.167403	2912.493867
511.532010	2909.275090
511.896561	2912.458579
512.261053	2918.402099
512.625488	2909.592683
512.989866	2903.840727
513.354186	2900.619429
513.718449	2896.873852
514.082655	2907.646798
514.446803	2902.638411
514.810894	2905.292579
515.174927	2905.342990
515.538904	2902.706467
515.902822	2904.987589
516.266684	2899.157495
516.630488	2901.582290
516.994235	2900.291754
517.357925	2902.250243
517.721558	2904.163360
518.085133	2904.075140
518.448651	2905.431211
518.812112	2899.512896
519.175516	2898.907958
519.538863	2902.141858
519.902152	2900.445509
520.265385	2902.741755
520.628560	2900.619429
520.991678	2900.112793
521.354739	2898.726476
521.717743	2900.528688
522.080690	2899.686816
522.443580	2901.030283
522.806413	2900.856363
523.169189	2900.251425
523.531908	2900.536250
523.894569	2899.039028
524.257174	2901.027763
524.619722	2899.011301
524.982213	2900.531209
525.344647	2893.786145
525.707025	2896.490724
526.069345	2896.573903
526.431608	2892.251114
526.793815	2898.257649
527.155964	2893.455950
527.518057	2895.333779
527.880093	2892.462842
528.242072	2895.414438
528.603995	2893.566855
528.965860	2889.670043
529.327669	2890.897564
529.689421	2885.576626
530.051117	2883.809702
530.412755	2884.442367
530.774337	2886.257182
531.135862	2880.227962
531.497331	2878.040101
531.858743	2876.686551
532.220098	2880.122098
532.581396	2877.261243
532.942638	2871.960470
533.303824	2874.574308
533.664953	2873.371993
534.026025	2868.179604
534.387040	2869.618854
534.747999	2870.571632
535.108902	2872.189842
535.469748	2863.529140
535.830537	2863.347658
536.191270	2865.933770
536.551947	2864.174408
536.912567	2864.847402
537.273131	2866.173225
537.633638	2857.406658
537.994089	2859.682739
538.354483	2853.023375
538.714821	2860.426310
539.075103	2858.432533
539.435328	2857.482276
539.795497	2852.937676
540.155609	2851.972295
540.515665	2853.204857
540.875665	2850.830473
541.235609	2852.867099
541.595496	2849.771831
541.955328	2852.446163
542.315102	2850.449866
542.674821	2846.006089
543.034483	2845.300327
543.394090	2840.826303
543.753640	2844.158506
544.113134	2846.855523
544.472571	2839.737414
544.831953	2848.708147
545.191278	2842.058866
545.550548	2835.651559
545.909761	2840.818742
546.268918	2843.641788
546.628019	2841.058197
546.987064	2836.596775
547.346053	2830.529747
547.704986	2837.814214
548.063863	2831.260714
548.422684	2831.144767
548.781449	2831.308605
549.140158	2836.054851
549.498811	2832.533605
549.857408	2825.912050
550.215949	2829.617298
550.574434	2825.803665
550.932864	2824.787872
551.291237	2829.045127
551.649555	2829.647545
552.007817	2826.874910
552.366022	2824.361895
552.724173	2826.451453
553.082267	2826.577482
553.440305	2831.225426
553.798288	2824.104796
554.156215	2823.393993
554.514086	2826.471618
554.871902	2822.237049
555.229661	2820.172696
555.587365	2820.190340
555.945014	2821.581699
556.302606	2821.039775
556.660143	2822.025320
557.017625	2819.441729
557.375050	2818.647747
557.732421	2819.741677
558.089735	2819.088848
558.446994	2815.968374
558.804197	2820.641523
559.161345	2817.589105
559.518437	2812.628609
559.875474	2812.212714
560.232455	2817.470638
560.589381	2814.718168
560.946251	2815.323106
561.303065	2818.002479
561.659825	2816.772438
562.016528	2812.558033
562.373177	2809.354380
562.729770	2811.504432
563.086307	2810.125677
563.442789	2810.211376
563.799216	2809.500573
564.155587	2808.023515
564.511904	2810.639874
564.868164	2805.444965
565.224370	2806.327167
565.580520	2806.012095
565.936615	2807.428659
566.292654	2804.986220
566.648638	2802.944553
567.004567	2804.446817
567.360441	2802.596713
567.716260	2803.163843
568.072023	2802.647125
568.427732	2803.030252
568.783385	2797.653862
569.138982	2797.222843
569.494525	2799.037659
569.850013	2796.633028
570.205445	2797.908440
570.560823	2797.961372
570.916145	2795.458439
571.271412	2794.296453
571.626625	2795.196299
571.981782	2791.458284
572.336884	2789.275464
572.691931	2794.848460
573.046923	2790.397121
573.401860	2789.154477
573.756743	2786.333951
574.111570	2787.657254
574.466342	2787.110289
574.821059	2782.336316
575.175722	2779.772889
575.530330	2779.820780
575.884882	2778.351284
576.239380	2775.492950
576.593823	2778.386572
576.948211	2773.037908
577.302544	2771.575973
577.656823	2770.560181
578.011047	2773.284924
578.365216	2771.195366
578.719330	2767.028852
579.073389	2767.938781
579.427394	2763.190014
579.781344	2765.781167
580.135239	2762.885024
580.489080	2763.399222
580.842866	2761.985178
581.196597	2759.149529
581.550273	2758.045516
581.903895	2756.334044
582.257463	2758.542070
582.610975	2756.901174
582.964434	2756.371853
583.317837	2756.704569
583.671186	2754.705752
584.024481	2754.320103
584.377721	2751.479413
584.730906	2750.912283
585.084037	2754.022675
585.437113	2747.229721
585.790135	2748.951275
586.143103	2746.040008
586.496016	2746.624782
586.848874	2741.558422
587.201679	2741.813001
587.554428	2736.713874
587.907124	2739.007599
588.259765	2736.164388
588.612352	2740.361148
588.964884	2737.845613
589.317362	2735.703122
589.669786	2737.548185
590.022155	2734.717577
590.374470	2737.921230
590.726731	2737.086919
591.078937	2731.037534
591.431090	2730.034345
591.783188	2726.921432
592.135232	2727.402862
592.487222	2725.804817
592.839157	2728.811865
593.191038	2725.530074
593.542866	2723.906822
593.894639	2720.496482
594.246358	2720.050340
594.598022	2717.350802
594.949633	2715.712427
595.301190	2715.407437
595.652692	2717.247458
596.004141	2715.742674
596.355535	2714.280739
596.706876	2707.273535
597.058162	2708.075079
597.409395	2708.939637
597.760573	2710.081458
598.111698	2708.823690
598.462768	2707.702033
598.813785	2705.592310
599.164748	2702.852443
599.515657	2704.984851
599.866511	2701.907227
600.217312	2703.379244
600.568060	2700.233564
600.918753	2701.662731
601.269392	2701.793801
601.619978	2700.714994
601.970510	2700.929243
602.320988	2699.263142
602.671412	2701.090560
603.021783	2697.486135
603.372100	2694.302646
603.722363	2695.772143
604.072572	2695.840198
604.422728	2695.068902
604.772830	2693.231401
605.122878	2688.102027
605.472872	2693.095290
605.822813	2689.533715
606.172701	2690.834332
606.522534	2693.193592
606.872314	2693.904395
607.222041	2691.482121
607.571714	2692.757533
607.921333	2687.799558
608.270899	2690.773839
608.620411	2689.523632
608.969870	2692.371884
609.319276	2688.263344
609.668627	2688.596060
610.017926	2690.166380
610.367171	2693.380115
610.716362	2687.595391
611.065500	2687.550021
611.414585	2687.867613
611.763616	2687.905422
612.112594	2687.590350
612.461518	2687.045905
612.810389	2687.887778
613.159207	2686.549352
613.507971	2687.728982
613.856682	2686.758560
614.205340	2687.678570
614.553945	2689.853828
614.902496	2685.309228
615.250994	2686.004907
615.599439	2687.459280
615.947830	2685.067252
616.296169	2684.669001
616.644454	2686.778724
616.992686	2687.474403
617.340864	2687.746626
617.688990	2684.643796
618.037063	2686.652695
618.385082	2685.818384
618.733048	2690.499096
619.080961	2683.454083
619.428821	2688.701924
619.776628	2687.126564
620.124382	2683.925431
620.472083	2685.687314
620.819731	2684.195133
621.167326	2682.657581
621.514868	2683.844773
621.862357	2678.249092
622.209793	2677.233299
622.557176	2676.598114
622.904506	2675.138700
623.251783	2671.236847
623.599007	2671.287258
623.946179	2668.156702
624.293297	2668.227278
624.640363	2668.007988
624.987376	2668.134017
625.334336	2665.749551
625.681243	2661.436844
626.028097	2663.370126
626.374899	2665.295847
626.721647	2659.775784
627.068343	2663.473470
627.414987	2661.925836
627.761577	2661.343582
628.108115	2658.185300
628.454600	2659.543891
628.801032	2655.878972
629.147412	2655.238745
629.493739	2656.030206
629.840014	2653.381080
630.186236	2652.526604
630.532405	2653.129022
630.878521	2652.440905
631.224585	2651.987201
631.570597	2651.289001
631.916556	2652.932417
632.262462	2651.684732
632.608316	2652.324958
632.954117	2649.950575
633.299866	2648.297076
633.645562	2649.499392
633.991206	2647.982004
634.336797	2642.908083
634.682336	2645.393372
635.027823	2640.195942
635.373257	2642.764410
635.718639	2635.852988
636.063968	2639.999337
636.409245	2636.916672
636.754470	2635.729480
637.099642	2635.999182
637.444762	2632.790487
637.789829	2634.925416
638.134845	2628.853346
638.479808	2629.488531
638.824719	2631.487349
639.169577	2627.131792
639.514383	2628.742441
639.859137	2627.827471
640.203839	2629.846453
640.548489	2626.176493
640.893086	2622.161214
641.237632	2621.715072
641.582125	2622.602315
641.926566	2620.633745
642.270955	2624.407048
