Dividing Wavelength (nm)	Counts (n)	Blue Motor Position (mm): 0.000000	Red Motor Position (mm): 47.500000	
326.493990	2138.959056
326.888308	2138.959056
327.282561	2138.959056
327.676750	2112.311517
328.070874	2112.140118
328.464933	2118.738988
328.858929	2126.086470
329.252859	2140.446197
329.646726	2153.233083
330.040528	2168.679179
330.434265	2186.547549
330.827938	2207.816177
331.221547	2227.396018
331.615091	2244.397310
332.008571	2268.395723
332.401986	2285.391973
332.795338	2306.952988
333.188625	2325.295226
333.581847	2343.755931
333.975006	2365.760568
334.368100	2381.796478
334.761129	2398.999416
335.154095	2414.745460
335.546996	2438.370827
335.939833	2470.966928
336.332606	2487.012921
336.725315	2498.763850
337.117960	2506.348266
337.510540	2514.146931
337.903056	2523.147912
338.295508	2528.700743
338.687896	2536.930426
339.080220	2545.384441
339.472480	2549.253527
339.864676	2556.028837
340.256807	2556.976574
340.648875	2557.800803
341.040879	2561.448078
341.432818	2560.270968
341.824694	2565.765826
342.216506	2561.952193
342.608253	2562.904971
342.999937	2559.978582
343.391557	2560.510423
343.783113	2557.911708
344.174605	2555.504557
344.566033	2556.797613
344.957397	2554.138405
345.348697	2553.435164
345.739934	2551.799309
346.131106	2550.281922
346.522215	2549.130018
346.913260	2544.880326
347.304241	2546.067518
347.695159	2545.122301
348.086012	2542.455531
348.476802	2540.698689
348.867528	2538.294058
349.258191	2538.127700
349.648789	2539.995448
350.039324	2535.884387
350.429796	2538.084850
350.820203	2531.117976
351.210548	2533.757020
351.600828	2530.815507
351.991045	2530.981865
352.381198	2530.661751
352.771288	2531.977493
353.161314	2530.142512
353.551276	2531.997657
353.941175	2531.180990
354.331010	2531.599406
354.720782	2530.175280
355.110490	2532.403470
355.500135	2531.675023
355.889717	2533.073943
356.279235	2536.083512
356.668689	2531.949766
357.058080	2534.399767
357.447408	2528.685619
357.836672	2531.120496
358.225873	2530.117307
358.615010	2531.223840
359.004084	2537.139634
359.393095	2533.089067
359.782043	2534.964376
360.170927	2535.907072
360.559748	2536.809438
360.948505	2538.281455
361.337199	2539.720705
361.725830	2538.228523
362.114398	2540.101312
362.502903	2538.331867
362.891344	2538.251208
363.279722	2542.412681
363.668037	2543.118442
364.056289	2542.309337
364.444478	2541.780016
364.832603	2542.420243
365.220665	2541.066693
365.608665	2543.902342
365.996601	2544.948381
366.384474	2545.104657
366.772284	2544.711447
367.160031	2544.439225
367.547715	2543.806560
367.935336	2543.925027
368.322893	2544.230017
368.710388	2546.954761
369.097820	2548.303269
369.485189	2544.401416
369.872495	2547.922662
370.259738	2547.121119
370.646918	2544.008206
371.034035	2547.237065
371.421090	2548.739329
371.808081	2548.845193
372.195010	2548.673794
372.581875	2549.205636
372.968678	2550.095399
373.355418	2548.819988
373.742096	2556.653941
374.128710	2551.322920
374.515262	2554.834084
374.901751	2556.056564
375.288177	2554.405586
375.674540	2558.945145
376.060841	2559.532439
376.447079	2561.364899
376.833254	2561.614436
377.219367	2558.685526
377.605417	2564.583676
377.991404	2567.021073
378.377329	2568.397308
378.763191	2571.842937
379.148991	2579.558423
379.534727	2579.729822
379.920402	2585.506985
380.306013	2590.470001
380.691563	2595.473346
381.077049	2597.033583
381.462474	2602.273862
381.847835	2607.289810
382.233134	2611.542024
382.618371	2616.462190
383.003545	2624.172635
383.388657	2629.468367
383.773706	2638.134110
384.158693	2641.042856
384.543618	2647.399751
384.928480	2655.425268
385.313280	2661.701504
385.698017	2670.178205
386.082692	2681.225893
386.467305	2683.312931
386.851856	2694.242152
387.236344	2705.073072
387.620770	2711.792930
388.005133	2718.790051
388.389435	2731.612226
388.773674	2736.734038
389.157851	2745.961870
389.541965	2755.285484
389.926018	2762.942997
390.310008	2773.184101
390.693936	2781.149124
391.077802	2790.523150
391.461606	2797.336269
391.845348	2805.407157
392.229027	2813.190698
392.612645	2832.032011
392.996200	2842.242868
393.379694	2854.951617
393.763125	2867.998123
394.146494	2880.180071
394.529801	2888.046792
394.913047	2905.181673
395.296230	2908.395409
395.679351	2911.556213
396.062410	2931.982968
396.445408	2929.558173
396.828343	2942.801284
397.211217	2948.165072
397.594028	2940.479833
397.976778	2957.503809
398.359466	2968.231385
398.742092	2966.840026
399.124656	2978.870740
399.507158	2997.182731
399.889598	3000.363699
400.271977	3015.517408
400.654294	3022.481762
401.036549	3036.007177
401.418742	3037.335522
401.800874	3064.542629
402.182944	3070.428176
402.564952	3097.978082
402.946898	3087.142122
403.328783	3097.365582
403.710606	3110.659104
404.092367	3136.895789
404.474067	3160.448060
404.855705	3151.568068
405.237282	3156.216012
405.618797	3181.134435
406.000250	3207.108980
406.381642	3237.965883
406.762972	3238.394381
407.144240	3229.075808
407.525447	3253.643871
407.906593	3255.133532
408.287677	3273.674896
408.668700	3295.677012
409.049661	3290.373718
409.430560	3304.378044
409.811399	3313.484888
410.192176	3334.453568
410.572891	3340.939012
410.953545	3379.118191
411.334138	3349.302286
411.714669	3398.728279
412.095139	3345.166019
412.475547	3397.805748
412.855894	3387.688152
413.236180	3416.354673
413.616405	3392.860376
413.996568	3420.314500
414.376670	3422.507402
414.756711	3419.442380
415.136691	3443.574384
415.516609	3465.352168
415.896466	3474.070844
416.276262	3501.305678
416.655997	3530.032693
417.035670	3537.816234
417.415283	3603.242849
417.794834	3624.153556
418.174324	3609.156123
418.553753	3606.113787
418.933121	3655.146569
419.312428	3642.145434
419.691674	3638.384733
420.070859	3676.057276
420.449983	3656.016168
420.829045	3705.532902
421.208047	3691.768032
421.586988	3732.306470
421.965867	3766.125051
422.344686	3776.363634
422.723444	3814.920899
423.102141	3719.333061
423.480777	3819.793175
423.859352	3789.203453
424.237866	3886.278432
424.616319	3869.665310
424.994712	3930.237294
425.373044	3919.300510
425.751314	3980.484995
426.129524	3917.019388
426.507673	4015.866333
426.885762	3995.111902
427.263789	4014.850540
427.641756	4018.097043
428.019662	4053.604411
428.397508	4052.008885
428.775292	4087.682611
429.153016	4097.686780
429.530679	4107.479222
429.908282	4118.232003
430.285824	4096.040844
430.663305	4171.590096
431.040726	4126.648209
431.418086	4116.918782
431.795385	4193.524156
432.172624	4225.205288
432.549802	4194.187068
432.926920	4214.197928
433.303977	4203.004046
433.680974	4245.753031
434.057910	4268.062657
434.434786	4271.475518
434.811601	4266.567955
435.188355	4372.855642
435.565050	4348.385882
435.941683	4343.067464
436.318257	4431.678346
436.694770	4433.977112
437.071222	4496.570599
437.447614	4424.527469
437.823946	4428.474693
438.200218	4446.277528
438.576429	4431.600208
438.952580	4457.743632
439.328670	4462.794868
439.704700	4505.039738
440.080670	4468.594716
440.456580	4529.741391
440.832429	4562.256834
441.208218	4469.275272
441.583947	4518.976007
441.959616	4532.335065
442.335224	4557.107295
442.710773	4580.838527
443.086261	4635.219974
443.461689	4587.180298
443.837057	4597.050877
444.212365	4672.050644
444.587612	4675.622301
444.962800	4647.180111
445.337927	4686.599414
445.712995	4575.827620
446.088002	4763.852576
446.462949	4787.339312
446.837837	4803.523936
447.212664	4795.221156
447.587431	5015.421276
447.962139	5310.573272
448.336786	5649.996681
448.711374	5638.994363
449.085901	5288.089726
449.460369	5215.411411
449.834776	5157.652391
450.209124	5385.966249
450.583412	5401.303959
450.957640	5521.573287
451.331808	5386.896342
451.705917	5235.276078
452.079965	5229.072938
452.453954	5265.893526
452.827883	5229.763576
453.201752	5235.777673
453.575562	5270.768322
453.949311	5401.389659
454.323001	5402.861676
454.696632	5396.013268
455.070202	5553.791301
455.443713	5582.263738
455.817164	5676.999622
456.190556	5749.753554
456.563888	5716.050920
456.937160	5795.716274
457.310373	5640.501668
457.683526	5702.429722
458.056619	5689.141241
458.429653	5671.310680
458.802628	5716.285334
459.175542	5744.571248
459.548398	5882.414038
459.921194	6071.729530
460.293930	6129.239013
460.666607	6381.803341
461.039224	6595.233192
461.411782	6727.465178
461.784280	6642.173896
462.156719	6650.673282
462.529099	6608.751046
462.901419	6464.102698
463.273680	6335.548234
463.645882	6324.719836
464.018024	6326.922820
464.390106	6390.360700
464.762130	6646.322766
465.134094	7029.699995
465.505999	7663.380595
465.877845	8368.960652
466.249631	8719.956030
466.621358	8651.136718
466.993026	8454.375443
467.364634	8240.801919
467.736184	7965.315464
468.107674	7809.803429
468.479105	7717.993936
468.850477	7654.077146
469.221790	7482.922411
469.593043	7259.894203
469.964238	7164.704616
470.335373	7138.709906
470.706449	7291.913092
471.077467	7467.630071
471.448425	8123.705997
471.819324	8704.068834
472.190164	8753.036082
472.560945	8271.545395
472.931667	7804.742111
473.302330	7607.580063
473.672934	7491.333576
474.043479	7560.152888
474.413965	7463.269473
474.784393	7418.836743
475.154761	7571.109836
475.525070	7583.143070
475.895321	7533.805298
476.265513	7633.128631
476.635645	7796.658621
477.005719	7785.570603
477.375734	7869.268880
477.745691	7979.939851
478.115588	8179.556941
478.485427	8415.230883
478.855207	8884.416112
479.224928	9315.954005
479.594591	9698.675885
479.964194	9714.779851
480.333739	9794.551069
480.703226	9793.709196
481.072653	9898.114013
481.442022	10014.347897
481.811333	10162.635958
482.180584	10008.230457
482.549777	9945.674779
482.918912	9880.596003
483.287988	9872.633501
483.657005	9775.447617
484.025964	9693.019710
484.394864	9759.056305
484.763706	9715.868740
485.132489	9627.827508
485.501213	9624.028999
485.869879	9675.874746
486.238487	9614.085323
486.607036	9681.248616
486.975527	9636.339497
487.343959	9688.764976
487.712333	9739.042924
488.080648	9780.120766
488.448905	9884.361745
488.817104	9882.544409
489.185244	10047.102794
489.553326	10262.506257
489.921350	10724.606145
490.289315	11346.934067
490.657222	11637.808644
491.025070	11814.445633
491.392861	11744.224881
491.760593	11582.900396
492.128267	11341.078767
492.495883	11097.117167
492.863440	10867.011179
493.230939	10636.209512
493.598380	10457.828283
493.965763	10435.009501
494.333088	10303.417741
494.700354	10227.208098
495.067563	10200.757164
495.434713	10204.001146
495.801805	10251.032591
496.168839	10212.482887
496.535815	10182.944247
496.902733	10224.190967
497.269593	10185.321151
497.636395	10193.064363
498.003139	10300.415734
498.369825	10227.170289
498.736453	10318.314351
499.103023	10257.208004
499.469535	10270.325087
499.835989	10320.789557
500.202385	10289.244537
500.568723	10302.490169
500.935003	10364.788748
501.301226	10337.465694
501.667390	10504.600109
502.033497	10608.457960
502.399546	10534.690756
502.765537	10437.772053
503.131470	10547.555781
503.497345	10639.879472
503.863163	10407.285675
504.228923	10541.955059
504.594625	10665.039871
504.960269	10565.409027
505.325856	10720.129600
505.691385	10597.737947
506.056856	10671.474904
506.422270	10763.092834
506.787625	10700.612773
507.152924	10754.081772
507.518164	10816.014867
507.883347	10682.643580
508.248472	10752.009857
508.613540	10862.297701
508.978550	10937.388208
509.343503	10917.760475
509.708398	10968.638320
510.073236	11095.272105
510.438016	11112.144847
510.802738	11024.305262
511.167403	11151.359983
511.532010	11211.606812
511.896561	11309.019549
512.261053	11505.959785
512.625488	11422.866447
512.989866	11408.068139
513.354186	11384.200797
513.718449	11397.960626
514.082655	11533.923066
514.446803	11490.833803
514.810894	11602.704569
515.174927	11598.845566
515.538904	11581.904768
515.902822	11740.839746
516.266684	11615.952721
516.630488	11714.144316
516.994235	11706.083511
517.357925	11818.211375
517.721558	11882.415511
518.085133	11944.469594
518.448651	11976.765746
518.812112	11930.029209
519.175516	11936.141608
519.538863	12027.774661
519.902152	12035.265816
520.265385	12145.596509
520.628560	12168.710199
520.991678	12109.385901
521.354739	12171.513081
521.717743	12238.194943
522.080690	12203.894932
522.443580	12337.016682
522.806413	12348.818023
523.169189	12347.527488
523.531908	12409.039647
523.894569	12362.993748
524.257174	12386.661965
524.619722	12488.092501
524.982213	12469.599028
525.344647	12458.301803
525.707025	12464.502422
526.069345	12564.743245
526.431608	12549.150957
526.793815	12625.826907
527.155964	12527.000127
527.518057	12552.717573
527.880093	12514.117458
528.242072	12621.788942
528.603995	12554.055999
528.965860	12577.729258
529.327669	12603.252620
529.689421	12555.580948
530.051117	12562.552864
530.412755	12602.105757
530.774337	12598.448400
531.135862	12560.871639
531.497331	12619.031431
531.858743	12580.002818
532.220098	12661.961897
532.581396	12579.420565
532.942638	12506.638906
533.303824	12578.319073
533.664953	12567.341960
534.026025	12522.485773
534.387040	12627.976959
534.747999	12604.207918
535.108902	12648.648210
535.469748	12523.151206
535.830537	12552.399980
536.191270	12582.825864
536.551947	12510.155111
536.912567	12574.177765
537.273131	12604.018875
537.633638	12484.374650
537.994089	12546.884958
538.354483	12462.465796
538.714821	12582.394846
539.075103	12663.854851
539.435328	12603.653391
539.795497	12586.319384
540.155609	12580.375863
540.515665	12685.516689
540.875665	12549.735730
541.235609	12647.730720
541.595496	12609.296963
541.955328	12772.521963
542.315102	12615.797531
542.674821	12556.304354
543.034483	12579.687746
543.394090	12569.678535
543.753640	12550.723797
544.113134	12790.284468
544.472571	12556.415259
544.831953	12830.442300
545.191278	12649.439671
545.550548	12592.399015
545.909761	12703.798433
546.268918	12741.413002
546.628019	12802.791571
546.987064	12699.130325
547.346053	12540.051674
547.704986	12741.014751
548.063863	12619.603602
548.422684	12677.982684
548.781449	12631.084830
549.140158	12733.868916
549.498811	12678.827078
549.857408	12551.860577
550.215949	12752.685023
550.574434	12720.963562
550.932864	12662.324860
551.291237	12848.774456
551.649555	12750.177048
552.007817	12814.040906
552.366022	12730.269532
552.724173	12770.780244
553.082267	12860.739635
553.440305	12943.238117
553.798288	12768.743618
554.156215	12840.935462
554.514086	12897.787074
554.871902	12836.562261
555.229661	12861.679810
555.587365	12806.015389
555.945014	12826.013646
556.302606	12803.613279
556.660143	12858.614788
557.017625	12898.878484
557.375050	12858.110673
557.732421	12964.418525
558.089735	12963.148154
558.446994	12923.428903
558.804197	13043.156307
559.161345	13035.536603
559.518437	12853.399715
559.875474	12949.405969
560.232455	12978.906801
560.589381	13026.069316
560.946251	12972.116367
561.303065	13148.982729
561.659825	13098.525820
562.016528	13000.382117
562.373177	12939.381635
562.729770	13062.622723
563.086307	12946.182151
563.442789	13061.601889
563.799216	13102.284001
564.155587	13036.159186
564.511904	13058.478894
564.868164	13069.488774
565.224370	13132.752734
565.580520	13077.201740
565.936615	13149.864931
566.292654	13082.726844
566.648638	13154.210406
567.004567	13152.085559
567.360441	13153.038337
567.716260	13124.628915
568.072023	13207.805433
568.427732	13188.540663
568.783385	13091.790839
569.138982	13201.932489
569.494525	13198.421325
569.850013	13150.364005
570.205445	13140.695072
570.560823	13152.612360
570.916145	13112.784724
571.271412	13114.907050
571.626625	13069.274525
571.981782	13068.286459
572.336884	13021.459181
572.691931	13095.594389
573.046923	12996.639060
573.401860	12975.607366
573.756743	12972.607880
574.111570	12999.283145
574.466342	12970.041932
574.821059	13029.545192
575.175722	12897.814801
575.530330	12927.207248
575.884882	12849.281092
576.239380	12854.264272
576.593823	12835.816170
576.948211	12829.388699
577.302544	12705.593084
577.656823	12723.842061
578.011047	12790.423100
578.365216	12731.096281
578.719330	12661.263698
579.073389	12634.550623
579.427394	12644.975729
579.781344	12630.641208
580.135239	12563.266187
580.489080	12587.458685
580.842866	12464.401599
581.196597	12560.596896
581.550273	12543.542673
581.903895	12512.600071
582.257463	12616.450360
582.610975	12477.216212
582.964434	12535.827187
583.317837	12465.921507
583.671186	12412.775142
584.024481	12469.576343
584.377721	12359.699354
584.730906	12426.333325
585.084037	12441.786983
585.437113	12355.459743
585.790135	12379.937066
586.143103	12293.932461
586.496016	12307.808237
586.848874	12321.401708
587.201679	12314.991881
587.554428	12192.990917
587.907124	12244.385480
588.259765	12178.613546
588.612352	12246.144843
588.964884	12104.997576
589.317362	12168.264057
589.669786	12157.513797
590.022155	12114.071653
590.374470	12212.800131
590.726731	12097.682862
591.078937	11979.782877
591.431090	12010.337310
591.783188	11947.252311
592.135232	11866.795495
592.487222	11926.117273
592.839157	11933.411823
593.191038	11865.530166
593.542866	11821.039462
593.894639	11681.283554
594.246358	11740.829664
594.598022	11745.124727
594.949633	11650.456899
595.301190	11638.995835
595.652692	11592.644946
596.004141	11685.525685
596.355535	11466.583333
596.706876	11449.992895
597.058162	11416.665827
597.409395	11508.039261
597.760573	11541.111751
598.111698	11430.395410
598.462768	11433.727613
598.813785	11438.017634
599.164748	11304.323714
599.515657	11386.229861
599.866511	11256.841086
600.217312	11393.186653
600.568060	11159.695531
600.918753	11318.696043
601.269392	11314.466515
601.619978	11213.744262
601.970510	11258.592887
602.320988	11306.390587
602.671412	11374.930115
603.021783	11297.077055
603.372100	11221.376568
603.722363	11242.390618
604.072572	11249.516289
604.422728	11249.680127
604.772830	11199.533249
605.122878	11204.148425
605.472872	11184.535816
605.822813	11235.640513
606.172701	11199.124915
606.522534	11236.956254
606.872314	11275.954621
607.222041	11215.296937
607.571714	11300.545369
607.921333	11156.781744
608.270899	11216.819365
608.620411	11275.775660
608.969870	11212.567152
609.319276	11212.930115
609.668627	11219.599562
610.017926	11306.214147
610.367171	11337.363436
610.716362	11327.013947
611.065500	11306.017542
611.414585	11319.419449
611.763616	11374.277285
612.112594	11341.686226
612.461518	11366.186233
612.810389	11413.139540
613.159207	11362.354956
613.507971	11355.357835
613.856682	11457.279883
614.205340	11412.247256
614.553945	11551.551981
614.902496	11424.141858
615.250994	11484.106383
615.599439	11477.663789
615.947830	11511.404232
616.296169	11476.809313
616.644454	11486.969759
616.992686	11509.949859
617.340864	11603.241452
617.688990	11486.821045
618.037063	11620.179729
618.385082	11600.917480
618.733048	11633.818570
619.080961	11617.538164
619.428821	11604.390835
619.776628	11613.227978
620.124382	11560.454658
620.472083	11575.931001
620.819731	11602.941503
621.167326	11527.304031
621.514868	11506.983140
621.862357	11407.717779
622.209793	11401.812067
622.557176	11323.149903
622.904506	11263.966757
623.251783	11171.242293
623.599007	11112.956473
623.946179	11076.057747
624.293297	11045.410052
624.640363	10907.874773
624.987376	10894.926569
625.334336	10833.845428
625.681243	10748.052552
626.028097	10721.742770
626.374899	10683.734990
626.721647	10656.117029
627.068343	10609.743455
627.414987	10551.071986
627.761577	10485.224434
628.108115	10528.810250
628.454600	10412.299102
628.801032	10423.215721
629.147412	10412.508310
629.493739	10381.651408
629.840014	10299.921701
630.186236	10350.413898
630.532405	10246.298948
630.878521	10286.144227
631.224585	10235.964582
631.570597	10162.290639
631.916556	10166.994036
632.262462	10151.278239
632.608316	10129.959199
632.954117	10110.006312
633.299866	10094.459394
633.645562	10075.683616
633.991206	9971.911464
634.336797	9871.910095
634.682336	9862.624290
635.027823	9803.844436
635.373257	9770.005691
635.718639	9694.383342
636.063968	9666.281430
636.409245	9561.594309
636.754470	9540.028252
637.099642	9499.184824
637.444762	9393.839832
637.789829	9396.486438
638.134845	9327.115120
638.479808	9304.427407
