Dividing Wavelength (nm)	Counts (n)	Blue Motor Position (mm): 48.100000	Red Motor Position (mm): 0.000000	
326.493990	2279.241765
326.888308	2279.241765
327.282561	2279.241765
327.676750	2240.906311
328.070874	2236.321381
328.464933	2238.894890
328.858929	2243.358832
329.252859	2247.313617
329.646726	2255.729823
330.040528	2265.754158
330.434265	2280.335695
330.827938	2299.063582
331.221547	2314.809626
331.615091	2331.384940
332.008571	2354.992663
332.401986	2373.501260
332.795338	2392.115720
333.188625	2410.352094
333.581847	2431.507296
333.975006	2450.537652
334.368100	2468.829479
334.761129	2487.517036
335.154095	2505.435817
335.546996	2528.423479
335.939833	2573.146075
336.332606	2584.536562
336.725315	2599.241608
337.117960	2611.234513
337.510540	2622.420834
337.903056	2632.891310
338.295508	2640.841210
338.687896	2651.009217
339.080220	2656.539363
339.472480	2663.690240
339.864676	2668.514624
340.256807	2674.874039
340.648875	2679.043074
341.040879	2679.637930
341.432818	2681.944258
341.824694	2684.295956
342.216506	2686.095648
342.608253	2688.170083
342.999937	2686.138498
343.391557	2688.253262
343.783113	2688.028930
344.174605	2684.805112
344.566033	2683.522139
344.957397	2685.150432
345.348697	2682.085410
345.739934	2683.948116
346.131106	2680.840245
346.522215	2677.291273
346.913260	2676.676252
347.304241	2674.196004
347.695159	2675.577280
348.086012	2670.573935
348.476802	2668.723832
348.867528	2664.728717
349.258191	2664.625374
349.648789	2661.600681
350.039324	2659.564055
350.429796	2665.116886
350.820203	2662.349293
351.210548	2662.238387
351.600828	2660.491627
351.991045	2657.948365
352.381198	2657.323262
352.771288	2657.109013
353.161314	2657.739157
353.551276	2657.499703
353.941175	2657.623211
354.331010	2658.006339
354.720782	2653.113899
355.110490	2654.868220
355.500135	2657.058602
355.889717	2658.477687
356.279235	2655.221101
356.668689	2657.154384
357.058080	2659.372491
357.447408	2656.385608
357.836672	2655.936945
358.225873	2659.284271
358.615010	2656.559527
359.004084	2658.213026
359.393095	2659.886689
359.782043	2661.807369
360.170927	2659.700166
360.559748	2661.124292
360.948505	2664.960610
361.337199	2667.224088
361.725830	2665.689057
362.114398	2664.017915
362.502903	2665.615960
362.891344	2662.682009
363.279722	2666.629232
363.668037	2665.729386
364.056289	2667.022442
364.444478	2667.854233
364.832603	2668.469253
365.220665	2670.032011
365.608665	2670.115190
365.996601	2670.465550
366.384474	2669.359017
366.772284	2670.387412
367.160031	2672.277845
367.547715	2671.264573
367.935336	2673.054183
368.322893	2673.515448
368.710388	2671.766168
369.097820	2671.309944
369.485189	2669.555622
369.872495	2675.357990
370.259738	2679.612724
370.646918	2682.433250
371.034035	2683.890143
371.421090	2688.706966
371.808081	2689.823581
372.195010	2699.172401
372.581875	2705.627598
372.968678	2714.807540
373.355418	2725.225084
373.742096	2735.612382
374.128710	2750.057808
374.515262	2763.333687
374.901751	2780.299690
375.288177	2794.135137
375.674540	2816.449804
376.060841	2836.798422
376.447079	2860.955631
376.833254	2889.032337
377.219367	2906.878022
377.605417	2942.133331
377.991404	2966.035962
378.377329	3003.411077
378.763191	3023.421937
379.148991	3067.705953
379.534727	3109.073661
379.920402	3144.848210
380.306013	3167.114986
380.691563	3232.985223
381.077049	3254.964654
381.462474	3295.487969
381.847835	3352.972246
382.233134	3393.614028
382.618371	3420.506064
383.003545	3489.761435
383.388657	3512.764220
383.773706	3572.582552
384.158693	3603.449537
384.543618	3631.599340
384.928480	3694.606201
385.313280	3748.188625
385.698017	3769.227881
386.082692	3862.395966
386.467305	3865.718086
386.851856	3899.987850
387.236344	3976.537771
387.620770	4006.593130
388.005133	4054.539545
388.389435	4101.281123
388.773674	4113.498359
389.157851	4189.183723
389.541965	4254.070934
389.926018	4218.901325
390.310008	4317.781037
390.693936	4378.163978
391.077802	4408.501641
391.461606	4407.216147
391.845348	4471.011949
392.229027	4533.605436
392.612645	4526.663767
392.996200	4632.785097
393.379694	4694.173747
393.763125	4800.048061
394.146494	4825.755425
394.529801	4882.917068
394.913047	4968.102486
395.296230	4915.545936
395.679351	5019.486967
396.062410	5074.334721
396.445408	5045.912695
396.828343	5106.945945
397.211217	5163.605994
397.594028	5049.411256
397.976778	5166.792003
398.359466	5211.910330
398.742092	5231.989246
399.124656	5155.729191
399.507158	5273.941728
399.889598	5336.056305
400.271977	5457.285973
400.654294	5454.102484
401.036549	5502.376573
401.418742	5420.931692
401.800874	5626.736797
402.182944	5690.562846
402.564952	5791.771572
402.946898	5854.581828
403.328783	5685.047824
403.710606	5711.408017
404.092367	6031.145721
404.474067	6056.870729
404.855705	5945.972906
405.237282	5887.150202
405.618797	6152.085522
406.000250	6120.096880
406.381642	6330.577656
406.762972	6352.443661
407.144240	6404.581795
407.525447	6390.527058
407.906593	6402.129273
408.287677	6570.707979
408.668700	6489.326112
409.049661	6593.758655
409.430560	6623.624971
409.811399	6487.826368
410.192176	6748.285143
410.572891	6778.411079
410.953545	6959.426311
411.334138	6692.993768
411.714669	6863.717484
412.095139	6654.617984
412.475547	6901.009420
412.855894	6974.695966
413.236180	7163.025912
413.616405	6813.139588
413.996568	7030.899790
414.376670	7089.382216
414.756711	6984.359857
415.136691	7087.950528
415.516609	7287.328162
415.896466	7266.954339
416.276262	7474.932182
416.655997	7465.515307
417.035670	7635.097202
417.415283	7984.275243
417.794834	8047.708082
418.174324	7911.528873
418.553753	7837.033222
418.933121	8125.873693
419.312428	8224.748364
419.691674	8001.757965
420.070859	8477.723547
420.449983	8165.852564
420.829045	8538.865181
421.208047	8297.535064
421.586988	8617.174465
421.965867	8642.052559
422.344686	8725.909633
422.723444	8807.644381
423.102141	8136.490363
423.480777	8900.691478
423.859352	8432.191845
424.237866	9044.497953
424.616319	8912.782685
424.994712	9346.503398
425.373044	8878.618786
425.751314	9374.161688
426.129524	9253.274819
426.507673	9329.345830
426.885762	9485.888781
427.263789	9402.692098
427.641756	9343.387964
428.019662	9428.636397
428.397508	9712.652484
428.775292	9355.343061
429.153016	9746.216486
429.530679	9579.046783
429.908282	9583.765303
430.285824	9317.877205
430.663305	10007.605354
431.040726	9459.876427
431.418086	9438.517058
431.795385	9772.236402
432.172624	9871.050579
432.549802	9768.546277
432.926920	9840.793573
433.303977	9715.294048
433.680974	9918.903732
434.057910	10017.833855
434.434786	10098.411658
434.811601	9906.842771
435.188355	10474.675820
435.565050	10226.275484
435.941683	10142.546960
436.318257	10621.570002
436.694770	10803.459873
437.071222	10848.343787
437.447614	10665.238997
437.823946	10603.462177
438.200218	10682.641060
438.576429	10530.317555
438.952580	10784.883222
439.328670	10790.168871
439.704700	10601.612073
440.080670	10594.698131
440.456580	11103.985739
440.832429	10901.238093
441.208218	10507.728145
441.583947	10785.639395
441.959616	10977.661986
442.335224	10797.864193
442.710773	10894.210725
443.086261	11134.197374
443.461689	10391.811853
443.837057	11087.392782
444.212365	11311.209930
444.587612	10943.064547
444.962800	11156.474233
445.337927	10894.034285
445.712995	10584.993910
446.088002	11609.726896
446.462949	11320.591517
446.837837	11281.325970
447.212664	11187.989007
447.587431	11805.797534
447.962139	12577.812437
448.336786	14874.985586
448.711374	15345.141238
449.085901	13156.826765
449.460369	12805.327272
449.834776	12251.916964
450.209124	13199.802601
450.583412	13629.215648
450.957640	14547.580288
451.331808	13564.381368
451.705917	12652.870176
452.079965	11883.002805
452.453954	12807.749546
452.827883	12467.164151
453.201752	12749.045309
453.575562	12312.241932
453.949311	12720.910630
454.323001	12714.377294
454.696632	12952.962503
455.070202	13223.407804
455.443713	13410.341350
455.817164	13914.829780
456.190556	13878.001631
456.563888	14237.279624
456.937160	14370.298030
457.310373	13741.875354
457.683526	13864.687944
458.056619	13372.999003
458.429653	13595.417232
458.802628	12934.605141
459.175542	13363.703116
459.548398	14306.414008
459.921194	14687.124467
460.293930	14758.844963
460.666607	15593.155925
461.039224	16649.983417
461.411782	17384.839975
461.784280	17134.198847
462.156719	17270.272192
462.529099	16933.467662
462.901419	15894.798406
463.273680	15644.903369
463.645882	15564.559979
464.018024	15272.755310
464.390106	15513.087278
464.762130	16220.580453
465.134094	17028.301848
465.505999	19117.073698
465.877845	22396.687073
466.249631	25176.865775
466.621358	24770.332006
466.993026	23365.979970
467.364634	22767.942848
467.736184	21286.728340
468.107674	20505.026860
468.479105	20629.992023
468.850477	20083.016748
469.221790	19699.140444
469.593043	19001.008692
469.964238	18420.166946
470.335373	18052.785298
470.706449	18572.424916
471.077467	18166.445673
471.448425	20057.269055
471.819324	24229.653132
472.190164	26007.529462
472.560945	22287.904014
472.931667	20012.569143
473.302330	19421.428320
473.672934	19079.713707
474.043479	19272.868037
474.413965	19090.317774
474.784393	18670.959309
475.154761	19475.177102
475.525070	19357.675368
475.895321	19099.752293
476.265513	19716.988649
476.635645	20296.736465
477.005719	20041.374297
477.375734	20231.035107
477.745691	20727.293853
478.115588	21278.962442
478.485427	21848.693485
478.855207	22950.694757
479.224928	24751.364664
479.594591	26991.330800
479.964194	26845.182708
480.333739	27096.859794
480.703226	26688.049943
481.072653	26408.807829
481.442022	27053.856231
481.811333	27988.208890
482.180584	27844.291510
482.549777	26897.875369
482.918912	26571.889156
483.287988	26719.756280
483.657005	26320.741392
484.025964	26121.729241
484.394864	25978.968805
484.763706	25622.274403
485.132489	25114.383194
485.501213	25283.755881
485.869879	25202.353849
486.238487	25061.360338
486.607036	25165.709702
486.975527	24943.634272
487.343959	25217.489913
487.712333	25118.441323
488.080648	24782.745847
488.448905	25302.995444
488.817104	25073.938017
489.185244	25790.782532
489.553326	25728.791463
489.921350	26797.619422
490.289315	29173.162349
490.657222	30841.237307
491.025070	31378.357126
491.392861	31105.149272
491.760593	30232.704503
492.128267	29302.563727
492.495883	28246.058868
492.863440	27368.474642
493.230939	26521.669181
493.598380	26347.562851
493.965763	25972.001930
494.333088	25453.254597
494.700354	25442.821929
495.067563	25272.188953
495.434713	25026.717528
495.801805	25216.645520
496.168839	24980.999304
496.535815	24858.799214
496.902733	25092.418887
497.269593	24793.667507
497.636395	24943.946823
498.003139	24864.805749
498.369825	24613.592450
498.736453	24826.442568
499.103023	24697.658732
499.469535	24683.046947
499.835989	24926.690954
500.202385	24937.567243
500.568723	24481.098324
500.935003	24651.577544
501.301226	24347.797614
501.667390	25205.076072
502.033497	25395.631687
502.399546	25127.119669
502.765537	24655.406301
503.131470	25041.034405
503.497345	25189.163670
503.863163	24446.243787
504.228923	24960.539781
504.594625	25231.975669
504.960269	24796.762775
505.325856	25274.160044
505.691385	24659.759337
506.056856	25267.150320
506.422270	25274.434787
506.787625	24783.073522
507.152924	25208.569592
507.518164	25252.573824
507.883347	25070.131945
508.248472	24732.299020
508.613540	25505.022205
508.978550	25301.679703
509.343503	25343.256620
509.708398	25520.798496
510.073236	25703.552926
510.438016	25904.447948
510.802738	25563.295423
511.167403	25828.066906
511.532010	25588.264258
511.896561	26311.379969
512.261053	26289.579499
512.625488	26128.156712
512.989866	26012.759659
513.354186	25839.391858
513.718449	25961.574303
514.082655	26344.210483
514.446803	26054.021503
514.810894	26552.410137
515.174927	26049.025720
515.538904	26076.167292
515.902822	26579.322337
516.266684	26324.670971
516.630488	26225.067853
516.994235	26163.913616
517.357925	26520.698759
517.721558	26663.320563
518.085133	26813.683059
518.448651	26688.609511
518.812112	26452.088655
519.175516	26686.731681
519.538863	26826.870717
519.902152	26628.934852
520.265385	26869.375206
520.628560	26682.817225
520.991678	26653.107185
521.354739	26714.579015
521.717743	26823.543556
522.080690	26580.396103
522.443580	26922.445953
522.806413	26880.790899
523.169189	27005.929981
523.531908	27034.407459
523.894569	26683.429726
524.257174	26777.595959
524.619722	26899.486018
524.982213	26628.324873
525.344647	26628.738247
525.707025	26809.929920
526.069345	26746.063542
526.431608	26731.020738
526.793815	26892.405717
527.155964	26406.677941
527.518057	26580.948109
527.880093	26485.236762
528.242072	26713.621196
528.603995	26442.437366
528.965860	26205.848454
529.327669	26254.377122
529.689421	26246.674239
530.051117	26093.312256
530.412755	26259.874500
530.774337	26036.621961
531.135862	25933.812669
531.497331	26128.040765
531.858743	25727.760547
532.220098	26154.685784
532.581396	25871.398143
532.942638	25755.532263
533.303824	25875.529369
533.664953	25874.690017
534.026025	25538.992021
534.387040	25787.939321
534.747999	25818.544166
535.108902	25979.470400
535.469748	25495.814538
535.830537	25639.585725
536.191270	25787.515864
536.551947	25594.790032
536.912567	25211.201074
537.273131	25684.789752
537.633638	25342.157648
537.994089	25558.491204
538.354483	25044.343923
538.714821	25552.961058
539.075103	25610.480623
539.435328	25369.815939
539.795497	24987.567928
540.155609	25295.133765
540.515665	25619.075791
540.875665	24826.921478
541.235609	25189.282137
541.595496	25100.081440
541.955328	25466.994261
542.315102	25390.078857
542.674821	24905.959209
543.034483	24785.848677
543.394090	24950.712052
543.753640	24768.098774
544.113134	25410.946713
544.472571	24979.282791
544.831953	25271.604179
545.191278	24944.760970
545.550548	24818.119623
545.909761	25029.873291
546.268918	25259.339052
546.628019	25264.123107
546.987064	24923.303298
547.346053	24647.295084
547.704986	24754.341466
548.063863	24909.296452
548.422684	24955.133144
548.781449	24436.826911
549.140158	24847.340672
549.498811	24423.979531
549.857408	24191.678120
550.215949	24566.014040
550.574434	24281.521564
550.932864	24462.728360
551.291237	24665.609596
551.649555	24498.218083
552.007817	24556.967690
552.366022	24412.546194
552.724173	24421.038017
553.082267	24388.043665
553.440305	24878.404262
553.798288	24107.652168
554.156215	24595.961015
554.514086	24750.167390
554.871902	24142.831860
555.229661	24401.294338
555.587365	24241.971192
555.945014	24166.981508
556.302606	24352.705177
556.660143	24362.467371
557.017625	24587.809469
557.375050	24114.780359
557.732421	24488.158460
558.089735	24318.707635
558.446994	24360.902093
558.804197	24406.587550
559.161345	24292.607061
559.518437	24100.604635
559.875474	24250.899075
560.232455	24427.291569
560.589381	24234.474996
560.946251	24250.410083
561.303065	24536.475399
561.659825	24646.445650
562.016528	24256.046093
562.373177	23970.252999
562.729770	24343.391645
563.086307	24181.263096
563.442789	24359.019222
563.799216	24214.489341
564.155587	24197.924110
564.511904	24181.051368
564.868164	24146.282530
565.224370	24103.881385
565.580520	24050.790473
565.936615	24162.683924
566.292654	23873.188103
566.648638	24094.693882
567.004567	23934.327216
567.360441	23870.329768
567.716260	23580.856632
568.072023	23888.228385
568.427732	23682.385471
568.783385	23443.220529
569.138982	23702.308111
569.494525	23729.429518
569.850013	23492.265915
570.205445	23597.434467
570.560823	23426.957767
570.916145	23198.464948
571.271412	23383.253484
571.626625	23129.917859
571.981782	23225.941757
572.336884	23043.411659
572.691931	23178.292771
573.046923	22918.164192
573.401860	22784.157719
573.756743	22833.868537
574.111570	22713.821020
574.466342	22636.313280
574.821059	22726.703689
575.175722	22420.249426
575.530330	22374.800904
575.884882	22372.275286
576.239380	22295.737967
576.593823	22184.809898
576.948211	22166.132422
577.302544	22016.533662
577.656823	21868.192668
578.011047	21987.378148
578.365216	21863.688397
578.719330	21734.166032
579.073389	21610.274635
579.427394	21779.957353
579.781344	21512.027588
580.135239	21415.247516
580.489080	21356.631500
580.842866	21140.381123
581.196597	21358.433712
581.550273	21316.037608
581.903895	21188.624965
582.257463	21497.362871
582.610975	21038.539733
582.964434	21382.573277
583.317837	21025.979698
583.671186	21113.990683
584.024481	21105.410639
584.377721	20870.477746
584.730906	20960.971499
585.084037	20931.022004
585.437113	20865.580265
585.790135	21079.020198
586.143103	20530.328411
586.496016	20562.712783
586.848874	20791.936569
587.201679	20692.961075
587.554428	20400.435520
587.907124	20734.527909
588.259765	20479.652212
588.612352	20555.579551
588.964884	20129.201279
589.317362	20289.840167
589.669786	20352.206802
590.022155	20345.567602
590.374470	20599.634194
590.726731	20340.264308
591.078937	20155.838736
591.431090	20225.814992
591.783188	19999.351238
592.135232	19962.427307
592.487222	20049.752694
592.839157	20056.003725
593.191038	19935.099212
593.542866	19827.074847
593.894639	19529.306492
594.246358	19763.531102
594.598022	19627.813158
594.949633	19382.530777
595.301190	19381.691425
595.652692	19554.166942
596.004141	19752.211191
596.355535	19081.808306
596.706876	19118.147463
597.058162	19006.372480
597.409395	19258.757847
597.760573	19298.741759
598.111698	19065.084278
598.462768	19021.926960
598.813785	18996.191870
599.164748	18786.936094
599.515657	18845.239559
599.866511	18653.305188
600.217312	18990.928905
600.568060	18498.514038
600.918753	18813.031627
601.269392	18708.140339
601.619978	18514.991050
601.970510	18685.326597
602.320988	18639.978898
602.671412	18838.612962
603.021783	18779.555845
603.372100	18475.062591
603.722363	18634.496643
604.072572	18584.037213
604.422728	18741.764835
604.772830	18485.361668
605.122878	18437.470707
605.472872	18417.689219
605.822813	18400.506446
606.172701	18401.605418
606.522534	18561.382268
606.872314	18605.600749
607.222041	18437.420295
607.571714	18650.603129
607.921333	18474.646696
608.270899	18558.271876
608.620411	18692.853040
608.969870	18497.047063
609.319276	18492.346187
609.668627	18512.888889
610.017926	18658.001023
610.367171	18770.171737
610.716362	18833.710440
611.065500	18626.665210
611.414585	18791.611764
611.763616	18779.596174
612.112594	18699.681283
612.461518	18676.086162
612.810389	18875.189054
613.159207	18714.834991
613.507971	18640.470410
613.856682	18883.741371
614.205340	18803.554258
614.553945	18963.202559
614.902496	18707.023723
615.250994	18901.637467
615.599439	18858.538123
615.947830	18837.889557
616.296169	18932.249874
616.644454	18874.994969
616.992686	18854.356486
617.340864	19081.483152
617.688990	18822.524120
618.037063	18995.644904
618.385082	18858.016363
618.733048	19120.209295
619.080961	19024.840747
619.428821	19051.863852
619.776628	18915.089787
620.124382	18847.959261
620.472083	18912.818747
620.819731	18909.781452
621.167326	18603.148228
621.514868	18648.747985
621.862357	18437.258978
622.209793	18419.456143
622.557176	18266.913348
622.904506	18092.723839
623.251783	18032.812246
623.599007	17767.544210
623.946179	17706.657154
624.293297	17640.194582
624.640363	17367.987397
624.987376	17398.670380
625.334336	17197.238476
625.681243	17047.201134
626.028097	17069.455308
626.374899	16975.168087
626.721647	16845.063468
627.068343	16686.990527
627.414987	16615.280114
627.761577	16574.383753
628.108115	16601.306035
628.454600	16328.483830
628.801032	16437.854184
629.147412	16380.710184
629.493739	16378.245060
629.840014	16190.746904
630.186236	16287.037984
630.532405	16059.278653
630.878521	16250.303096
631.224585	16159.501833
631.570597	15983.931047
631.916556	16009.280489
632.262462	15975.149357
632.608316	15894.332099
632.954117	15833.775239
633.299866	15828.837429
633.645562	15744.211579
633.991206	15527.210071
634.336797	15389.727723
634.682336	15356.935017
635.027823	15216.904366
635.373257	15080.878912
635.718639	15011.361400
636.063968	14931.509523
