Dividing Wavelength (nm)	Counts (n)	Blue Motor Position (mm): 0.000000	Red Motor Position (mm): 36.900000	
326.493990	2128.576800
326.888308	2128.576800
327.282561	2128.576800
327.676750	2096.406677
328.070874	2096.799887
328.464933	2095.637901
328.858929	2101.954467
329.252859	2113.367639
329.646726	2127.855915
330.040528	2140.249592
330.434265	2155.370533
330.827938	2170.158758
331.221547	2190.938394
331.615091	2208.496733
332.008571	2227.668241
332.401986	2246.323030
332.795338	2268.070568
333.188625	2285.495316
333.581847	2303.101546
333.975006	2321.005204
334.368100	2343.156034
334.761129	2359.421317
335.154095	2374.817001
335.546996	2398.202913
335.939833	2414.621952
336.332606	2432.087029
336.725315	2446.744184
337.117960	2451.538321
337.510540	2463.579117
337.903056	2473.414408
338.295508	2481.084524
338.687896	2489.551142
339.080220	2497.251504
339.472480	2501.528923
339.864676	2505.927330
340.256807	2512.886643
340.648875	2519.054495
341.040879	2515.447549
341.432818	2520.085411
341.824694	2522.996677
342.216506	2521.373425
342.608253	2521.769156
342.999937	2520.037520
343.391557	2523.687315
343.783113	2521.254958
344.174605	2520.771008
344.566033	2517.733712
344.957397	2516.425533
345.348697	2514.698938
345.739934	2509.062928
346.131106	2511.840603
346.522215	2510.108967
346.913260	2510.771879
347.304241	2505.055210
347.695159	2504.044459
348.086012	2502.098574
348.476802	2499.668737
348.867528	2499.038593
349.258191	2497.682523
349.648789	2498.519354
350.039324	2495.875269
350.429796	2494.468787
350.820203	2493.125320
351.210548	2492.729589
351.600828	2492.875783
351.991045	2491.786893
352.381198	2491.096255
352.771288	2487.580051
353.161314	2488.535349
353.551276	2490.874445
353.941175	2489.566265
354.331010	2489.881337
354.720782	2488.653816
355.110490	2491.224805
355.500135	2490.541728
355.889717	2487.466625
356.279235	2490.995432
356.668689	2493.720176
357.058080	2489.687253
357.447408	2489.583909
357.836672	2487.885040
358.225873	2488.353868
358.615010	2487.953096
359.004084	2491.547439
359.393095	2491.383601
359.782043	2493.929384
360.170927	2495.497183
360.559748	2497.243942
360.948505	2495.401401
361.337199	2497.576659
361.725830	2496.313850
362.114398	2499.338542
362.502903	2500.377020
362.891344	2497.942142
363.279722	2500.752586
363.668037	2498.360558
364.056289	2501.939777
364.444478	2502.980776
364.832603	2500.586227
365.220665	2502.063286
365.608665	2502.169150
365.996601	2504.762823
366.384474	2505.541682
366.772284	2507.931189
367.160031	2507.956394
367.547715	2510.557630
367.935336	2514.214987
368.322893	2515.588701
368.710388	2517.645492
369.097820	2523.397449
369.485189	2528.572193
369.872495	2532.063192
370.259738	2540.300438
370.646918	2549.956768
371.034035	2552.358877
371.421090	2563.250290
371.808081	2578.003227
372.195010	2585.718713
372.581875	2598.235898
372.968678	2610.727877
373.355418	2620.963940
373.742096	2642.358597
374.128710	2656.309990
374.515262	2670.820952
374.901751	2686.541790
375.288177	2695.938501
375.674540	2721.600494
376.060841	2741.354256
376.447079	2760.266144
376.833254	2779.016716
377.219367	2792.370733
377.605417	2828.538491
377.991404	2840.163392
378.377329	2863.587113
378.763191	2878.307282
379.148991	2916.604928
379.534727	2940.096705
379.920402	2971.435038
380.306013	2980.982983
380.691563	3034.252856
381.077049	3052.615259
381.462474	3073.347004
381.847835	3110.127262
382.233134	3132.005870
382.618371	3134.070223
383.003545	3198.375181
383.388657	3207.648384
383.773706	3240.846902
384.158693	3255.642689
384.543618	3283.479940
384.928480	3319.299859
385.313280	3363.868700
385.698017	3363.961962
386.082692	3417.771238
386.467305	3422.225097
386.851856	3455.126188
387.236344	3477.440855
387.620770	3507.894466
388.005133	3532.638969
388.389435	3564.007549
388.773674	3575.511462
389.157851	3617.443780
389.541965	3629.285450
389.926018	3595.285388
390.310008	3669.350020
390.693936	3686.477341
391.077802	3727.870255
391.461606	3717.394737
391.845348	3782.075262
392.229027	3779.776495
392.612645	3793.241417
392.996200	3871.180176
393.379694	3909.079571
393.763125	3972.441834
394.146494	3942.131896
394.529801	4000.455526
394.913047	4048.691806
395.296230	4015.631919
395.679351	4073.784149
396.062410	4096.572685
396.445408	4075.021753
396.828343	4111.222278
397.211217	4133.685660
397.594028	4053.185995
397.976778	4119.091520
398.359466	4147.601765
398.742092	4176.553112
399.124656	4100.489662
399.507158	4182.012681
399.889598	4203.866083
400.271977	4265.075773
400.654294	4237.979571
401.036549	4242.032659
401.418742	4210.475036
401.800874	4319.167354
402.182944	4340.919933
402.564952	4402.230446
402.946898	4389.509094
403.328783	4384.278897
403.710606	4303.219664
404.092367	4493.684538
404.474067	4461.466524
404.855705	4468.231753
405.237282	4392.385073
405.618797	4500.414479
406.000250	4538.946538
406.381642	4618.569043
406.762972	4582.900359
407.144240	4589.249692
407.525447	4591.669446
407.906593	4651.694465
408.287677	4693.823387
408.668700	4622.927120
409.049661	4678.578938
409.430560	4715.863312
409.811399	4638.678205
410.192176	4803.987722
410.572891	4741.200151
410.953545	4844.674875
411.334138	4724.092996
411.714669	4792.796361
412.095139	4688.129404
412.475547	4828.291125
412.855894	4808.703722
413.236180	4818.506245
413.616405	4773.224081
413.996568	4859.228686
414.376670	4805.991581
414.756711	4757.001648
415.136691	4788.085402
415.516609	4867.347464
415.896466	4903.167383
416.276262	4939.501499
416.655997	4915.931585
417.035670	5103.041571
417.415283	5193.699162
417.794834	5138.765708
418.174324	5089.642184
418.553753	4997.502495
418.933121	5182.366648
419.312428	5246.621195
419.691674	5189.769582
420.070859	5318.119880
420.449983	5228.883895
420.829045	5340.424465
421.208047	5245.484414
421.586988	5318.414787
421.965867	5331.189071
422.344686	5466.876768
422.723444	5315.763140
423.102141	5137.616325
423.480777	5438.439619
423.859352	5202.571592
424.237866	5464.739319
424.616319	5455.531651
424.994712	5566.958795
425.373044	5442.911122
425.751314	5586.039562
426.129524	5389.240478
426.507673	5582.412452
426.885762	5669.553838
427.263789	5599.638075
427.641756	5480.462677
428.019662	5599.247386
428.397508	5607.512357
428.775292	5559.765069
429.153016	5656.759389
429.530679	5580.222071
429.908282	5665.954454
430.285824	5537.011821
430.663305	5811.104397
431.040726	5547.502462
431.418086	5548.372061
431.795385	5654.989944
432.172624	5662.453372
432.549802	5656.222506
432.926920	5672.339075
433.303977	5680.556156
433.680974	5715.498914
434.057910	5729.898970
434.434786	5737.949693
434.811601	5709.699066
435.188355	5948.196055
435.565050	5818.378782
435.941683	5801.362367
436.318257	6015.319018
436.694770	6002.708572
437.071222	6030.006420
437.447614	5967.942254
437.823946	5874.943048
438.200218	6028.597417
438.576429	5893.189505
438.952580	5995.880329
439.328670	6036.438932
439.704700	5949.310150
440.080670	5933.584270
440.456580	6206.968564
440.832429	6087.510862
441.208218	5932.392038
441.583947	6088.786274
441.959616	6094.419763
442.335224	6020.029977
442.710773	6157.971069
443.086261	6184.248084
443.461689	5978.712680
443.837057	6131.149610
444.212365	6285.411438
444.587612	6175.912536
444.962800	6326.325443
445.337927	6310.962527
445.712995	5919.796715
446.088002	6495.715774
446.462949	6324.543395
446.837837	6258.867243
447.212664	6431.604900
447.587431	6574.766107
447.962139	7119.130064
448.336786	8048.401241
448.711374	7783.458359
449.085901	6862.404264
449.460369	6776.533249
449.834776	6713.165945
450.209124	7105.221521
450.583412	7256.103256
450.957640	7395.357569
451.331808	7168.999679
451.705917	6719.041410
452.079965	6646.088352
452.453954	6856.914447
452.827883	6729.612710
453.201752	6822.019580
453.575562	6624.366020
453.949311	6830.017371
454.323001	6715.207613
454.696632	6792.480939
455.070202	6928.135869
455.443713	7086.297029
455.817164	7189.481887
456.190556	7266.359483
456.563888	7340.930751
456.937160	7383.470528
457.310373	7043.429578
457.683526	7061.340797
458.056619	6955.058151
458.429653	6941.809998
458.802628	6876.900102
459.175542	6984.904302
459.548398	7342.211204
459.921194	7504.117943
460.293930	7507.591297
460.666607	8038.485291
461.039224	8345.448711
461.411782	8467.706774
461.784280	8492.413469
462.156719	8387.088642
462.529099	8260.747244
462.901419	7849.179882
463.273680	7741.208449
463.645882	7754.055830
464.018024	7619.008359
464.390106	7786.745192
464.762130	8175.718102
465.134094	8645.220924
465.505999	9668.398715
465.877845	10884.050279
466.249631	11537.038499
466.621358	11160.308031
466.993026	10530.173882
467.364634	10275.976220
467.736184	9913.013143
468.107674	9577.141227
468.479105	9609.452503
468.850477	9374.166729
469.221790	9145.189960
469.593043	8818.528232
469.964238	8676.256788
470.335373	8689.946041
470.706449	8744.385462
471.077467	8731.618739
471.448425	10033.723572
471.819324	11114.282296
472.190164	11144.864456
472.560945	9888.233352
472.931667	9098.229091
473.302330	8964.285633
473.672934	8608.977549
474.043479	8969.581366
474.413965	8909.326974
474.784393	8786.494220
475.154761	8943.468189
475.525070	9034.153505
475.895321	8858.121454
476.265513	9037.026963
476.635645	9205.910658
477.005719	9204.151295
477.375734	9318.093975
477.745691	9554.173730
478.115588	9690.300008
478.485427	9934.916957
478.855207	10472.979471
479.224928	11280.731114
479.594591	11913.479101
479.964194	11726.041439
480.333739	11674.268789
480.703226	11593.315420
481.072653	11669.590598
481.442022	11914.709142
481.811333	12103.626382
482.180584	11900.543500
482.549777	11611.945004
482.918912	11441.233891
483.287988	11460.629730
483.657005	11476.325363
484.025964	11159.443473
484.394864	11286.956939
484.763706	11259.260840
485.132489	11017.688747
485.501213	10981.052162
485.869879	11058.028060
486.238487	10896.953113
486.607036	11006.389001
486.975527	10783.471698
487.343959	10979.207099
487.712333	11022.175374
488.080648	10946.399270
488.448905	10990.355611
488.817104	10929.024933
489.185244	11198.283043
489.553326	11354.178205
489.921350	11893.891697
490.289315	12952.748254
490.657222	13302.921924
491.025070	13207.712172
491.392861	13079.407244
491.760593	12714.195813
492.128267	12353.821368
492.495883	12022.481450
492.863440	11685.775222
493.230939	11344.232008
493.598380	11291.511621
493.965763	11151.062555
494.333088	11046.917357
494.700354	10970.674947
495.067563	11035.932683
495.434713	10862.075890
495.801805	10989.047432
496.168839	10917.962121
496.535815	10844.073929
496.902733	10848.885711
497.269593	10781.351893
497.636395	10877.849660
498.003139	10864.639317
498.369825	10732.114944
498.736453	10894.664429
499.103023	10818.477471
499.469535	10851.577687
499.835989	10834.815850
500.202385	10793.246496
500.568723	10648.325926
500.935003	10870.098886
501.301226	10678.603096
501.667390	10937.567169
502.033497	11031.171313
502.399546	10894.172916
502.765537	10799.489965
503.131470	10875.180369
503.497345	11047.590351
503.863163	10660.283542
504.228923	10973.107303
504.594625	11036.441840
504.960269	10787.275249
505.325856	11001.486479
505.691385	10793.523759
506.056856	10950.979158
506.422270	10977.535957
506.787625	10864.596467
507.152924	10987.557771
507.518164	10961.311003
507.883347	10883.815866
508.248472	10799.895778
508.613540	11037.518126
508.978550	10913.604044
509.343503	10886.354087
509.708398	11003.074442
510.073236	11121.014757
510.438016	11129.607404
510.802738	11068.685060
511.167403	11130.456838
511.532010	11023.486074
511.896561	11257.118349
512.261053	11325.126035
512.625488	11193.516632
512.989866	11174.640031
513.354186	11167.297591
513.718449	11059.883205
514.082655	11262.378793
514.446803	11147.518623
514.810894	11277.194744
515.174927	11144.730865
515.538904	11162.785758
515.902822	11321.950108
516.266684	11201.968126
516.630488	11151.047431
516.994235	11200.284381
517.357925	11258.698751
517.721558	11347.932215
518.085133	11365.898887
518.448651	11374.146215
518.812112	11263.228228
519.175516	11270.800041
519.538863	11390.023329
519.902152	11300.295832
520.265385	11469.446708
520.628560	11370.808971
520.991678	11345.454488
521.354739	11406.417162
521.717743	11344.947852
522.080690	11316.304016
522.443580	11454.981117
522.806413	11404.861966
523.169189	11430.965060
523.531908	11489.744914
523.894569	11311.149436
524.257174	11304.888323
524.619722	11419.879563
524.982213	11367.537262
525.344647	11418.558781
525.707025	11363.847138
526.069345	11455.938936
526.431608	11366.304700
526.793815	11476.653037
527.155964	11255.699264
527.518057	11314.716052
527.880093	11258.429049
528.242072	11320.626805
528.603995	11223.808925
528.965860	11145.376133
529.327669	11189.385406
529.689421	11136.165945
530.051117	11102.569175
530.412755	11204.158507
530.774337	11083.788357
531.135862	11061.561909
531.497331	11079.765516
531.858743	10931.991653
532.220098	11088.857237
532.581396	10955.475868
532.942638	10937.632704
533.303824	10880.042562
533.664953	10898.314224
534.026025	10806.590430
534.387040	10884.670341
534.747999	10880.644980
535.108902	10934.287898
535.469748	10682.681389
535.830537	10779.411049
536.191270	10757.567729
536.551947	10762.576116
536.912567	10754.626216
537.273131	10666.572382
537.633638	10638.223453
537.994089	10617.282500
538.354483	10556.884436
538.714821	10688.088027
539.075103	10685.020484
539.435328	10637.089194
539.795497	10461.712492
540.155609	10602.758936
540.515665	10671.311067
540.875665	10402.920036
541.235609	10453.508015
541.595496	10443.208937
541.955328	10572.007898
542.315102	10453.790319
542.674821	10384.403878
543.034483	10377.588238
543.394090	10368.186486
543.753640	10275.351117
544.113134	10469.843874
544.472571	10316.965842
544.831953	10437.686353
545.191278	10237.764274
545.550548	10241.217464
545.909761	10358.509991
546.268918	10307.458226
546.628019	10371.274192
546.987064	10218.242406
547.346053	10130.349888
547.704986	10195.131236
548.063863	10168.400518
548.422684	10141.402618
548.781449	10035.165342
549.140158	10113.111663
549.498811	9972.566814
549.857408	9824.460235
550.215949	10000.630918
550.574434	9847.475623
550.932864	9909.484336
551.291237	9945.863822
551.649555	9866.458088
552.007817	9851.974852
552.366022	9794.964444
552.724173	9761.760884
553.082267	9726.745029
553.440305	9804.661103
553.798288	9609.760013
554.156215	9701.952635
554.514086	9663.922170
554.871902	9497.712807
555.229661	9505.214044
555.587365	9454.608421
555.945014	9340.350669
556.302606	9403.160926
556.660143	9293.427609
557.017625	9382.421619
557.375050	9269.151933
557.732421	9348.255198
558.089735	9232.432168
558.446994	9207.743117
558.804197	9207.657418
559.161345	9169.879011
559.518437	9029.923977
559.875474	9050.817039
560.232455	9030.755767
560.589381	8971.446592
560.946251	8919.623531
561.303065	8979.643509
561.659825	8877.981080
562.016528	8797.141137
562.373177	8676.355090
562.729770	8711.383548
563.086307	8618.091955
563.442789	8658.247266
563.799216	8513.251078
564.155587	8519.988580
564.511904	8447.854710
564.868164	8404.125221
565.224370	8383.065801
565.580520	8272.014223
565.936615	8260.555680
566.292654	8102.825538
566.648638	8173.671393
567.004567	8093.524609
567.360441	8054.712766
567.716260	7938.683048
568.072023	7981.001014
568.427732	7889.027683
568.783385	7806.965260
569.138982	7800.096688
569.494525	7783.211343
569.850013	7658.231057
570.205445	7667.103488
570.560823	7569.617654
570.916145	7461.928526
571.271412	7469.396995
571.626625	7392.237095
571.981782	7344.656164
572.336884	7278.377594
572.691931	7260.118535
573.046923	7176.087541
573.401860	7109.438446
573.756743	7031.126642
574.111570	7020.333531
574.466342	6977.662685
574.821059	6950.841226
575.175722	6851.956472
575.530330	6813.522715
575.884882	6774.680625
576.239380	6693.308840
576.593823	6651.053889
576.948211	6610.548218
577.302544	6521.657552
577.656823	6478.684236
578.011047	6446.756088
578.365216	6387.504886
578.719330	6319.161963
579.073389	6270.809736
579.427394	6218.885852
579.781344	6171.320045
580.135239	6102.659529
580.489080	6078.240180
580.842866	5987.627960
581.196597	5958.008661
581.550273	5946.865190
581.903895	5883.250870
582.257463	5890.043825
582.610975	5785.318895
582.964434	5775.183655
583.317837	5692.995203
583.671186	5663.411192
584.024481	5614.859839
584.377721	5548.508172
584.730906	5506.243138
585.084037	5480.071988
585.437113	5430.978711
585.790135	5399.620214
586.143103	5321.842772
586.496016	5279.459271
586.848874	5267.839411
587.201679	5238.643569
587.554428	5153.032173
587.907124	5143.133868
588.259765	5101.080563
588.612352	5069.018824
588.964884	4998.596425
589.317362	4971.401921
589.669786	4945.034166
590.022155	4940.280358
590.374470	4907.812806
590.726731	4863.024675
591.078937	4776.089977
591.431090	4776.490749
591.783188	4714.834917
592.135232	4670.107279
592.487222	4654.693951
592.839157	4638.826919
593.191038	4586.587963
593.542866	4542.475346
593.894639	4481.890759
594.246358	4471.183348
594.598022	4448.813228
594.949633	4387.054052
595.301190	4359.236965
595.652692	4342.205427
596.004141	4340.625025
596.355535	4251.726798
596.706876	4219.286973
597.058162	4177.674768
597.409395	4174.869366
597.760573	4167.547090
598.111698	4121.415492
598.462768	4091.113116
598.813785	4064.122778
599.164748	4027.544166
599.515657	4008.201258
599.866511	3957.237714
600.217312	3971.731031
600.568060	3914.841610
600.918753	3920.381838
601.269392	3890.341602
601.619978	3844.404088
601.970510	3840.272862
602.320988	3819.155469
602.671412	3807.011329
603.021783	3774.143006
603.372100	3747.339191
603.722363	3722.473700
604.072572	3705.921071
604.422728	3685.683359
604.772830	3649.185405
605.122878	3630.548259
605.472872	3616.576701
605.822813	3598.829319
606.172701	3572.229671
606.522534	3565.945873
606.872314	3553.242165
607.222041	3527.648227
607.571714	3521.485416
607.921333	3495.462980
608.270899	3483.535610
608.620411	3485.035353
608.969870	3451.330199
609.319276	3436.194134
609.668627	3422.036054
610.017926	3416.747883
610.367171	3406.471491
610.716362	3389.182854
611.065500	3368.710728
611.414585	3361.907691
611.763616	3345.279445
612.112594	3327.078359
612.461518	3315.405568
612.810389	3315.665187
613.159207	3288.821043
613.507971	3271.986110
613.856682	3272.402005
614.205340	3254.687390
614.553945	3253.333840
614.902496	3225.262175
615.250994	3221.657750
615.599439	3206.151161
615.947830	3195.534491
616.296169	3182.820701
616.644454	3175.047242
616.992686	3161.776404
617.340864	3158.509737
617.688990	3138.476191
618.037063	3141.702530
618.385082	3128.161990
618.733048	3126.059829
619.080961	3110.563322
619.428821	3102.578135
619.776628	3091.192689
620.124382	3080.379414
620.472083	3062.377453
620.819731	3055.917215
621.167326	3035.475336
621.514868	3024.289015
621.862357	3007.290245
622.209793	2997.923781
622.557176	2978.626244
622.904506	2965.297433
623.251783	2949.213632
623.599007	2938.135696
623.946179	2930.160591
624.293297	2915.581574
624.640363	2906.797363
624.987376	2897.481311
625.334336	2888.810526
625.681243	2876.729401
626.028097	2870.488453
626.374899	2864.408821
626.721647	2854.618900
627.068343	2848.085565
627.414987	2841.978207
627.761577	2829.622339
628.108115	2827.681495
628.454600	2818.879640
628.801032	2815.159269
629.147412	2809.780357
629.493739	2802.765592
629.840014	2797.724438
630.186236	2791.145732
630.532405	2783.861265
630.878521	2782.981584
631.224585	2776.904473
631.570597	2768.939450
631.916556	2764.359561
632.262462	2765.569438
632.608316	2757.901843
632.954117	2753.631986
633.299866	2750.098137
633.645562	2745.500605
633.991206	2739.899883
634.336797	2731.292113
634.682336	2725.202399
635.027823	2718.565720
635.373257	2712.476006
635.718639	2709.123639
636.063968	2704.931919
636.409245	2696.568645
636.754470	2696.573686
637.099642	2689.861390
637.444762	2688.071780
637.789829	2684.154804
638.134845	2679.111129
638.479808	2681.992149
638.824719	2673.490243
639.169577	2670.828513
639.514383	2667.995385
639.859137	2663.607061
640.203839	2663.410456
640.548489	2661.532626
640.893086	2652.166162
641.237632	2652.876965
641.582125	2651.082314
