Dividing Wavelength (nm)	Counts (n)	Blue Motor Position (mm): 0.000000	Red Motor Position (mm): 10.000000	
326.493990	2085.600963
326.888308	2085.600963
327.282561	2085.600963
327.676750	2062.628425
328.070874	2061.791594
328.464933	2069.741493
328.858929	2077.741805
329.252859	2091.363002
329.646726	2106.302462
330.040528	2120.805861
330.434265	2139.329581
330.827938	2159.985709
331.221547	2180.853565
331.615091	2202.190249
332.008571	2221.734803
332.401986	2244.125087
332.795338	2264.335073
333.188625	2281.908535
333.581847	2301.778243
333.975006	2318.734164
334.368100	2335.231340
334.761129	2353.180368
335.154095	2367.935826
335.546996	2389.690925
335.939833	2402.956722
336.332606	2411.859399
336.725315	2424.512695
337.117960	2432.502924
337.510540	2442.005499
337.903056	2451.528239
338.295508	2456.274485
338.687896	2464.516772
339.080220	2471.077833
339.472480	2474.783082
339.864676	2477.472537
340.256807	2478.626961
340.648875	2483.257261
341.040879	2484.194916
341.432818	2484.782210
341.824694	2487.902684
342.216506	2484.590646
342.608253	2490.118272
342.999937	2485.785400
343.391557	2483.037971
343.783113	2481.855820
344.174605	2480.368680
344.566033	2479.365490
344.957397	2477.656539
345.348697	2477.044039
345.739934	2476.280304
346.131106	2474.263843
346.522215	2473.366517
346.913260	2468.922740
347.304241	2468.716053
347.695159	2466.747482
348.086012	2465.867801
348.476802	2466.661783
348.867528	2463.543829
349.258191	2461.650876
349.648789	2462.948973
350.039324	2460.325052
350.429796	2460.075515
350.820203	2461.688684
351.210548	2458.245576
351.600828	2458.056533
351.991045	2456.710545
352.381198	2458.540484
352.771288	2458.558128
353.161314	2457.640638
353.551276	2457.174331
353.941175	2455.362036
354.331010	2458.540484
354.720782	2456.287088
355.110490	2458.144753
355.500135	2457.968313
355.889717	2460.786318
356.279235	2460.592233
356.668689	2460.511575
357.058080	2458.905967
357.447408	2456.637448
357.836672	2456.405555
358.225873	2459.400001
358.615010	2456.420679
359.004084	2463.311936
359.393095	2464.957873
359.782043	2462.374281
360.170927	2467.012143
360.559748	2462.913685
360.948505	2465.782101
361.337199	2465.459467
361.725830	2468.015333
362.114398	2466.550877
362.502903	2466.455095
362.891344	2467.546505
363.279722	2470.997175
363.668037	2471.355097
364.056289	2469.366362
364.444478	2470.233440
364.832603	2471.932309
365.220665	2472.330560
365.608665	2471.652525
365.996601	2471.564305
366.384474	2473.847948
366.772284	2473.507670
367.160031	2473.941209
367.547715	2474.314254
367.935336	2475.198977
368.322893	2478.120325
368.710388	2474.949440
369.097820	2482.085193
369.485189	2477.631333
369.872495	2479.531848
370.259738	2478.639564
370.646918	2484.419247
371.034035	2483.920173
371.421090	2486.826398
371.808081	2486.942345
372.195010	2493.233705
372.581875	2494.962820
372.968678	2504.205776
373.355418	2506.469254
373.742096	2516.120543
374.128710	2524.919877
374.515262	2531.042358
374.901751	2545.787733
375.288177	2560.734755
375.674540	2577.927610
376.060841	2595.914447
376.447079	2619.002931
376.833254	2641.675521
377.219367	2662.097235
377.605417	2692.838191
377.991404	2716.597149
378.377329	2755.792120
378.763191	2788.179013
379.148991	2829.486228
379.534727	2875.421222
379.920402	2918.853283
380.306013	2968.853967
380.691563	3022.582585
381.077049	3076.893456
381.462474	3125.810292
381.847835	3193.936445
382.233134	3259.872217
382.618371	3318.813388
383.003545	3397.926736
383.388657	3471.751913
383.773706	3560.055284
384.158693	3627.717651
384.543618	3714.354921
384.928480	3787.764204
385.313280	3884.065366
385.698017	3981.818380
386.082692	4094.049588
386.467305	4146.202845
386.851856	4262.618211
387.236344	4405.522319
387.620770	4461.065753
388.005133	4564.071649
388.389435	4700.449984
388.773674	4767.222587
389.157851	4878.894227
389.541965	4992.698275
389.926018	5003.168752
390.310008	5151.126617
390.693936	5246.475001
391.077802	5332.247713
391.461606	5431.137508
391.845348	5506.926215
392.229027	5591.544502
392.612645	5753.342856
392.996200	5824.551674
393.379694	5934.274908
393.763125	6081.910140
394.146494	6114.697805
394.529801	6175.458832
394.913047	6329.332491
395.296230	6267.492657
395.679351	6255.945894
396.062410	6393.808849
396.445408	6256.881028
396.828343	6306.569161
397.211217	6332.543706
397.594028	6178.521333
397.976778	6248.875676
398.359466	6291.254136
398.742092	6198.975815
399.124656	6209.148863
399.507158	6251.734010
399.889598	6176.426733
400.271977	6222.371810
400.654294	6145.055633
401.036549	6173.341547
401.418742	6091.269042
401.800874	6158.724722
402.182944	6101.207677
402.564952	6187.570204
402.946898	5991.466799
403.328783	5913.099542
403.710606	5897.456841
404.092367	5905.631072
404.474067	5955.316685
404.855705	5750.333287
405.237282	5617.836640
405.618797	5677.201268
406.000250	5656.986241
406.381642	5670.756153
406.762972	5532.063928
407.144240	5349.911916
407.525447	5315.561494
407.906593	5183.982338
408.287677	5150.194004
408.668700	5072.444288
409.049661	4956.752328
409.430560	4882.745669
409.811399	4765.445581
410.192176	4699.759346
410.572891	4606.913895
410.953545	4600.652782
411.334138	4389.602356
411.714669	4400.087956
412.095139	4176.182587
412.475547	4166.175897
412.855894	4051.880336
413.236180	4007.619005
413.616405	3877.927761
413.996568	3827.218794
414.376670	3740.223602
414.756711	3650.957371
415.136691	3606.443982
415.516609	3551.394582
415.896466	3489.436281
416.276262	3445.285855
416.655997	3414.209663
417.035670	3354.008203
417.415283	3338.322653
417.794834	3278.887449
418.174324	3208.449927
418.553753	3148.881133
418.933121	3118.457769
419.312428	3060.910477
419.691674	3014.448683
420.070859	2990.183089
420.449983	2937.908844
420.829045	2919.405289
421.208047	2880.459855
421.586988	2856.743747
421.965867	2833.123420
422.344686	2808.691468
422.723444	2795.982719
423.102141	2744.719226
423.480777	2746.725605
423.859352	2718.883312
424.237866	2717.945658
424.616319	2697.135775
424.994712	2689.475742
425.373044	2676.134328
425.751314	2667.153512
426.129524	2649.562406
426.507673	2649.600215
426.885762	2638.802063
427.263789	2633.483646
427.641756	2628.008953
428.019662	2620.840432
428.397508	2616.336161
428.775292	2613.109822
429.153016	2606.939450
429.530679	2606.445417
429.908282	2600.814448
430.285824	2593.787080
430.663305	2595.657348
431.040726	2592.252048
431.418086	2587.334403
431.795385	2590.487645
432.172624	2587.089907
432.549802	2587.105030
432.926920	2584.846593
433.303977	2583.699731
433.680974	2580.354925
434.057910	2580.533886
434.434786	2577.746128
434.811601	2575.643967
435.188355	2579.165213
435.565050	2578.144379
435.941683	2575.071796
436.318257	2579.628999
436.694770	2571.999213
437.071222	2577.514235
437.447614	2572.468040
437.823946	2568.593913
438.200218	2572.702454
438.576429	2573.705643
438.952580	2572.389902
439.328670	2570.698595
439.704700	2573.715726
440.080670	2569.564336
440.456580	2574.018195
440.832429	2573.415777
441.208218	2568.362020
441.583947	2571.167423
441.959616	2571.593400
442.335224	2573.738411
442.710773	2572.863771
443.086261	2573.950139
443.461689	2573.153637
443.837057	2570.625498
444.212365	2573.158678
444.587612	2573.630026
444.962800	2573.377968
445.337927	2573.788823
445.712995	2567.240364
446.088002	2579.702096
446.462949	2576.284194
446.837837	2577.428536
447.212664	2575.424677
447.587431	2588.665267
447.962139	2596.350507
448.336786	2605.643874
448.711374	2598.823192
449.085901	2586.613518
449.460369	2585.539752
449.834776	2590.429671
450.209124	2596.539550
450.583412	2595.536360
450.957640	2596.161463
451.331808	2587.404979
451.705917	2585.194433
452.079965	2586.873137
452.453954	2587.276430
452.827883	2586.553024
453.201752	2588.254413
453.575562	2586.263158
453.949311	2591.730289
454.323001	2591.170721
454.696632	2588.461101
455.070202	2597.162132
455.443713	2593.988726
455.817164	2592.241966
456.190556	2595.611978
456.563888	2594.215578
456.937160	2593.088880
457.310373	2594.366812
457.683526	2594.283633
458.056619	2595.649786
458.429653	2593.300608
458.802628	2596.416042
459.175542	2595.251535
459.548398	2600.751434
459.921194	2605.553133
460.293930	2606.737804
460.666607	2610.558999
461.039224	2618.327417
461.411782	2620.648868
461.784280	2615.743825
462.156719	2612.361211
462.529099	2613.714761
462.901419	2609.311313
463.273680	2604.534820
463.645882	2609.129832
464.018024	2607.708226
464.390106	2609.797784
464.762130	2621.470576
465.134094	2635.646301
465.505999	2650.406799
465.877845	2665.396670
466.249631	2670.052176
466.621358	2664.806855
466.993026	2659.017090
467.364634	2655.679846
467.736184	2645.658032
468.107674	2642.202321
468.479105	2640.170736
468.850477	2638.522279
469.221790	2634.804428
469.593043	2630.935342
469.964238	2626.846967
470.335373	2626.206740
470.706449	2633.844088
471.077467	2642.829945
471.448425	2659.740496
471.819324	2666.087308
472.190164	2662.883655
472.560945	2649.388486
472.931667	2638.030767
473.302330	2633.947432
473.672934	2632.982051
474.043479	2633.491207
474.413965	2629.511217
474.784393	2622.950155
475.154761	2627.981226
475.525070	2627.368726
475.895321	2624.013838
476.265513	2624.835546
476.635645	2632.407359
477.005719	2628.878552
477.375734	2631.867956
477.745691	2631.512555
478.115588	2634.713687
478.485427	2639.626292
478.855207	2648.012251
479.224928	2654.054074
479.594591	2659.269148
479.964194	2651.097437
480.333739	2651.717499
480.703226	2651.170534
481.072653	2651.578867
481.442022	2651.203302
481.811333	2653.106337
482.180584	2646.220121
482.549777	2644.488485
482.918912	2641.746097
483.287988	2636.936836
483.657005	2636.689820
484.025964	2633.705457
484.394864	2630.791670
484.763706	2633.158491
485.132489	2624.429733
485.501213	2627.555249
485.869879	2622.224229
486.238487	2622.138529
486.607036	2619.605349
486.975527	2620.931173
487.343959	2619.068466
487.712333	2619.804475
488.080648	2616.802468
488.448905	2617.934207
488.817104	2620.263220
489.185244	2619.900257
489.553326	2623.295474
489.921350	2631.210085
490.289315	2637.687968
490.657222	2638.948257
491.025070	2638.391209
491.392861	2636.475571
491.760593	2631.250415
492.128267	2628.422327
492.495883	2621.137860
492.863440	2617.989659
493.230939	2613.500512
493.598380	2611.821808
493.965763	2606.871395
494.333088	2607.488936
494.700354	2601.739500
495.067563	2603.612289
495.434713	2602.687237
495.801805	2605.895931
496.168839	2601.205138
496.535815	2602.979624
496.902733	2602.021805
497.269593	2602.805704
497.636395	2600.179263
498.003139	2603.304778
498.369825	2598.797987
498.736453	2600.806887
499.103023	2598.107349
499.469535	2599.554160
499.835989	2597.585589
500.202385	2596.358068
500.568723	2598.989551
500.935003	2598.258583
501.301226	2592.836822
501.667390	2598.684561
502.033497	2598.651793
502.399546	2594.407142
502.765537	2593.240115
503.131470	2597.386464
503.497345	2596.388315
503.863163	2592.950248
504.228923	2592.723396
504.594625	2595.196082
504.960269	2591.463108
505.325856	2593.610639
505.691385	2591.069898
506.056856	2590.081832
506.422270	2593.880341
506.787625	2591.296750
507.152924	2588.642582
507.518164	2590.301122
507.883347	2587.089907
508.248472	2591.803386
508.613540	2589.892788
508.978550	2589.381111
509.343503	2588.791296
509.708398	2588.599732
510.073236	2589.111410
510.438016	2587.798189
510.802738	2588.088055
511.167403	2586.898343
511.532010	2587.543611
511.896561	2588.841708
512.261053	2591.117789
512.625488	2587.606625
512.989866	2584.786100
513.354186	2584.317272
513.718449	2583.866089
514.082655	2588.138467
514.446803	2586.119485
514.810894	2586.878178
515.174927	2584.808785
515.538904	2586.258117
515.902822	2586.547983
516.266684	2582.225193
516.630488	2584.851635
516.994235	2582.454566
517.357925	2586.805082
517.721558	2585.086048
518.085133	2584.113106
518.448651	2583.939186
518.812112	2582.580595
519.175516	2580.632189
519.538863	2582.036150
519.902152	2580.917014
520.265385	2583.304000
520.628560	2579.016499
520.991678	2581.854669
521.354739	2581.237127
521.717743	2580.153279
522.080690	2581.579926
522.443580	2581.416088
522.806413	2582.479772
523.169189	2580.977508
523.531908	2580.337281
523.894569	2580.100347
524.257174	2578.270408
524.619722	2581.922724
524.982213	2581.433732
525.344647	2579.495409
525.707025	2577.993145
526.069345	2580.859041
526.431608	2578.179667
526.793815	2577.047928
527.155964	2578.633371
527.518057	2578.809812
527.880093	2576.821077
528.242072	2578.519945
528.603995	2576.886612
528.965860	2577.814184
529.327669	2577.637743
529.689421	2575.462486
530.051117	2574.207238
530.412755	2576.536251
530.774337	2577.186560
531.135862	2575.326374
531.497331	2572.672207
531.858743	2570.348235
532.220098	2575.011302
532.581396	2572.422670
532.942638	2570.391085
533.303824	2571.926116
533.664953	2573.314954
534.026025	2570.711198
534.387040	2573.388051
534.747999	2574.953329
535.108902	2574.030798
535.469748	2573.781261
535.830537	2570.736404
536.191270	2570.794377
536.551947	2570.633060
536.912567	2570.857392
537.273131	2569.445868
537.633638	2567.018553
537.994089	2570.930488
538.354483	2569.932340
538.714821	2567.605847
539.075103	2567.273131
539.435328	2568.006619
539.795497	2568.364541
540.155609	2567.058882
540.515665	2568.949315
540.875665	2568.576269
541.235609	2568.407391
541.595496	2567.288255
541.955328	2569.564336
542.315102	2568.346897
542.674821	2567.313460
543.034483	2567.537792
543.394090	2566.199365
543.753640	2564.820610
544.113134	2567.459654
544.472571	2565.763306
544.831953	2566.895045
545.191278	2564.871021
545.550548	2565.392781
545.909761	2564.235836
546.268918	2567.275652
546.628019	2566.267421
546.987064	2566.126269
547.346053	2564.324056
547.704986	2565.334807
548.063863	2565.289437
548.422684	2561.672409
548.781449	2559.524878
549.140158	2564.553429
549.498811	2563.797256
549.857408	2562.453788
550.215949	2561.148129
550.574434	2561.742985
550.932864	2562.110990
551.291237	2559.363561
551.649555	2563.010836
552.007817	2561.342214
552.366022	2563.217523
552.724173	2561.064950
553.082267	2563.666186
553.440305	2563.998902
553.798288	2563.076371
554.156215	2561.309446
554.514086	2561.236349
554.871902	2559.464384
555.229661	2561.841288
555.587365	2559.348437
555.945014	2563.830023
556.302606	2563.824982
556.660143	2560.399518
557.017625	2560.709549
557.375050	2560.737275
557.732421	2562.342883
558.089735	2562.310115
558.446994	2561.069991
558.804197	2559.928170
559.161345	2560.996895
559.518437	2558.509085
559.875474	2558.967830
560.232455	2560.127296
560.589381	2561.228788
560.946251	2560.568397
561.303065	2561.294323
561.659825	2560.800290
562.016528	2560.102090
562.373177	2558.254507
562.729770	2556.517829
563.086307	2562.975547
563.442789	2559.492110
563.799216	2560.008828
564.155587	2559.476987
564.511904	2561.589230
564.868164	2560.412121
565.224370	2559.693756
565.580520	2558.796431
565.936615	2558.786349
566.292654	2556.510268
566.648638	2559.973540
567.004567	2559.214847
567.360441	2559.061092
567.716260	2558.539332
568.072023	2559.910526
568.427732	2555.973385
568.783385	2556.290977
569.138982	2555.353323
569.494525	2555.048333
569.850013	2552.898281
570.205445	2558.299877
570.560823	2556.185113
570.916145	2558.178890
571.271412	2554.672767
571.626625	2558.110834
571.981782	2558.052861
572.336884	2556.948848
572.691931	2556.913560
573.046923	2555.234856
573.401860	2555.764177
573.756743	2556.840463
574.111570	2555.444064
574.466342	2554.400545
574.821059	2551.927859
575.175722	2555.033210
575.530330	2554.299722
575.884882	2555.950700
576.239380	2553.906512
576.593823	2556.268292
576.948211	2552.225287
577.302544	2556.452294
577.656823	2557.115206
578.011047	2555.872562
578.365216	2552.696635
578.719330	2553.099927
579.073389	2551.436346
579.427394	2550.465924
579.781344	2553.898950
580.135239	2552.656306
580.489080	2551.784186
580.842866	2551.534649
581.196597	2556.676626
581.550273	2550.654968
581.903895	2549.213197
582.257463	2550.463404
582.610975	2551.990873
582.964434	2551.401058
583.317837	2550.964998
583.671186	2553.450287
584.024481	2550.670091
584.377721	2552.847869
584.730906	2551.766542
585.084037	2551.751418
585.437113	2551.514484
585.790135	2551.280071
586.143103	2548.751932
586.496016	2553.609084
586.848874	2547.607590
587.201679	2550.614638
587.554428	2545.074410
587.907124	2544.880326
588.259765	2545.956612
588.612352	2551.922818
588.964884	2547.736139
589.317362	2550.239072
589.669786	2546.390151
590.022155	2548.063814
590.374470	2550.717982
590.726731	2548.767055
591.078937	2549.056922
591.431090	2549.016593
591.783188	2547.642878
592.135232	2546.677497
592.487222	2548.111705
592.839157	2547.060625
593.191038	2547.927703
593.542866	2546.516180
593.894639	2546.276725
594.246358	2546.128011
594.598022	2548.583053
594.949633	2545.765048
595.301190	2544.356046
595.652692	2547.713454
596.004141	2544.955943
596.355535	2546.183464
596.706876	2542.024512
597.058162	2546.833773
597.409395	2543.733463
597.760573	2545.999462
598.111698	2545.868392
598.462768	2545.472661
598.813785	2544.603062
599.164748	2543.214224
599.515657	2544.335881
599.866511	2545.646581
600.217312	2542.916796
600.568060	2544.383772
600.918753	2545.898639
601.269392	2544.827394
601.619978	2546.082641
601.970510	2544.774462
602.320988	2543.186498
602.671412	2543.849410
603.021783	2544.998793
603.372100	2547.020296
603.722363	2542.407640
604.072572	2545.029040
604.422728	2545.840666
604.772830	2541.923689
605.122878	2542.410160
605.472872	2541.076775
605.822813	2538.606610
606.172701	2541.265818
606.522534	2542.505942
606.872314	2543.557023
607.222041	2544.373690
607.571714	2545.258412
607.921333	2543.741025
608.270899	2540.764224
608.620411	2543.927548
608.969870	2541.044008
609.319276	2542.470654
609.668627	2543.494008
610.017926	2544.414019
610.367171	2544.582898
610.716362	2541.641384
611.065500	2543.874616
611.414585	2541.371683
611.763616	2542.828576
612.112594	2542.682383
612.461518	2545.036602
612.810389	2542.321940
613.159207	2545.374359
613.507971	2542.919317
613.856682	2546.135573
614.205340	2542.100129
614.553945	2543.751107
614.902496	2543.879657
615.250994	2543.846889
615.599439	2542.916796
615.947830	2542.374872
616.296169	2540.887732
616.644454	2545.621375
616.992686	2542.619368
617.340864	2541.805222
617.688990	2542.059800
618.037063	2541.023843
618.385082	2542.281611
618.733048	2544.109029
619.080961	2543.131045
619.428821	2543.935109
619.776628	2544.792106
620.124382	2545.762528
620.472083	2543.456200
620.819731	2544.305634
621.167326	2542.047197
621.514868	2545.190357
621.862357	2542.911755
622.209793	2544.114070
622.557176	2541.570808
622.904506	2539.267001
623.251783	2539.261960
623.599007	2539.710623
623.946179	2536.935467
624.293297	2539.841692
624.640363	2540.577701
624.987376	2538.614172
625.334336	2540.063503
625.681243	2539.453524
626.028097	2539.433359
626.374899	2541.303627
626.721647	2538.558719
627.068343	2542.329502
627.414987	2540.129038
627.761577	2541.154913
628.108115	2539.461085
628.454600	2540.401261
628.801032	2539.451003
629.147412	2537.943698
629.493739	2537.734490
629.840014	2540.383617
630.186236	2537.953780
630.532405	2537.721887
630.878521	2538.601569
631.224585	2539.829090
631.570597	2539.166178
631.916556	2537.943698
632.262462	2539.587114
632.608316	2539.224151
632.954117	2536.385982
633.299866	2537.893287
633.645562	2536.761548
633.991206	2536.244829
634.336797	2539.569470
634.682336	2536.096115
635.027823	2534.556043
635.373257	2535.947401
635.718639	2534.162833
636.063968	2534.283820
636.409245	2536.491846
636.754470	2535.584438
637.099642	2533.013450
637.444762	2534.319108
637.789829	2537.570653
638.134845	2534.437576
638.479808	2532.380785
638.824719	2535.226516
639.169577	2535.218954
639.514383	2532.794159
639.859137	2533.068902
640.203839	2534.084695
640.548489	2532.348017
640.893086	2533.028573
641.237632	2530.233253
641.582125	2531.208717
641.926566	2530.545805
642.270955	2533.179808
642.615292	2531.501103
642.959576	2534.004036
643.303809	2531.054961
643.647990	2533.371372
643.992118	2533.189890
644.336195	2534.772812
