Dividing Wavelength (nm)	Counts (n)	Blue Motor Position (mm): 0.000000	Red Motor Position (mm): 12.700000	
326.493990	2128.228960
326.888308	2128.228960
327.282561	2128.228960
327.676750	2094.624629
328.070874	2093.225709
328.464933	2096.507500
328.858929	2102.740887
329.252859	2113.934769
329.646726	2123.356685
330.040528	2136.617440
330.434265	2153.318783
330.827938	2171.265291
331.221547	2189.151305
331.615091	2207.155786
332.008571	2229.649414
332.401986	2247.822774
332.795338	2267.142996
333.188625	2282.127826
333.581847	2304.112298
333.975006	2321.887406
334.368100	2340.388441
334.761129	2356.772191
335.154095	2375.442104
335.546996	2391.621687
335.939833	2406.483009
336.332606	2421.795513
336.725315	2433.085178
337.117960	2443.200253
337.510540	2451.603856
337.903056	2463.858901
338.295508	2470.225878
338.687896	2482.168372
339.080220	2486.304639
339.472480	2493.518530
339.864676	2498.340393
340.256807	2502.088491
340.648875	2508.833555
341.040879	2511.228103
341.432818	2510.698782
341.824694	2511.739780
342.216506	2511.709533
342.608253	2511.611231
342.999937	2511.986797
343.391557	2512.027126
343.783113	2514.449401
344.174605	2509.340191
344.566033	2508.145438
344.957397	2507.570746
345.348697	2505.443379
345.739934	2505.173677
346.131106	2501.571773
346.522215	2502.012874
346.913260	2497.175887
347.304241	2498.683192
347.695159	2492.843015
348.086012	2490.977788
348.476802	2491.287819
348.867528	2490.995432
349.258191	2486.907057
349.648789	2487.433857
350.039324	2486.382777
350.429796	2484.162148
350.820203	2485.064515
351.210548	2480.081334
351.600828	2479.728453
351.991045	2480.101499
352.381198	2480.282980
352.771288	2481.528145
353.161314	2482.526294
353.551276	2482.362456
353.941175	2480.736684
354.331010	2480.850110
354.720782	2481.366828
355.110490	2480.320789
355.500135	2481.913794
355.889717	2482.017137
356.279235	2480.666108
356.668689	2481.485296
357.058080	2481.881026
357.447408	2479.640233
357.836672	2476.166878
358.225873	2481.087044
358.615010	2478.624441
359.004084	2484.444453
359.393095	2482.949751
359.782043	2485.016624
360.170927	2487.932931
360.559748	2485.740029
360.948505	2486.307159
361.337199	2485.787920
361.725830	2487.133908
362.114398	2488.663899
362.502903	2489.291522
362.891344	2491.396204
363.279722	2490.902171
363.668037	2492.575834
364.056289	2493.284116
364.444478	2490.834115
364.832603	2492.883344
365.220665	2489.967037
365.608665	2490.975268
365.996601	2495.812255
366.384474	2492.296050
366.772284	2495.731596
367.160031	2495.040958
367.547715	2499.555312
367.935336	2501.181084
368.322893	2505.700478
368.710388	2504.425066
369.097820	2512.684997
369.485189	2516.231448
369.872495	2521.133971
370.259738	2532.940353
370.646918	2535.319778
371.034035	2540.706250
371.421090	2553.094886
371.808081	2564.661813
372.195010	2574.015674
372.581875	2586.124526
372.968678	2601.787391
373.355418	2608.938268
373.742096	2625.584158
374.128710	2639.154944
374.515262	2657.988695
374.901751	2671.393123
375.288177	2682.445852
375.674540	2709.342929
376.060841	2724.945300
376.447079	2746.355080
376.833254	2765.145981
377.219367	2776.213835
377.605417	2814.783703
377.991404	2825.153356
378.377329	2844.161027
378.763191	2859.695342
379.148991	2897.531723
379.534727	2922.717327
379.920402	2951.030968
380.306013	2963.016311
380.691563	3016.059332
381.077049	3034.920809
381.462474	3053.177348
381.847835	3094.398863
382.233134	3112.058024
382.618371	3114.301338
383.003545	3186.336906
383.388657	3188.857483
383.773706	3220.004252
384.158693	3235.851119
384.543618	3263.839605
384.928480	3298.197589
385.313280	3344.167871
385.698017	3340.828107
386.082692	3392.676374
386.467305	3395.325500
386.851856	3423.434974
387.236344	3439.775874
387.620770	3470.347952
388.005133	3488.791013
388.389435	3507.856657
388.773674	3513.558202
389.157851	3544.526010
389.541965	3552.057494
389.926018	3504.710977
390.310008	3561.625604
390.693936	3564.118454
391.077802	3585.137545
391.461606	3560.836663
391.845348	3602.496759
392.229027	3582.742997
392.612645	3574.934250
392.996200	3617.970580
393.379694	3632.186634
393.763125	3658.614883
394.146494	3604.535905
394.529801	3628.110861
394.913047	3637.318529
395.296230	3587.514449
395.679351	3598.486521
396.062410	3579.683017
396.445408	3539.769681
396.828343	3528.369112
397.211217	3506.931605
397.594028	3426.356323
397.976778	3428.685336
398.359466	3412.805701
398.742092	3390.760735
399.124656	3315.972698
399.507158	3322.921928
399.889598	3305.068682
400.271977	3294.242804
400.654294	3245.252871
401.036549	3213.460834
401.418742	3164.536436
401.800874	3169.791839
402.182944	3143.192191
402.564952	3127.849439
402.946898	3087.900815
403.328783	3055.123233
403.710606	2997.195334
404.092367	3015.903056
404.474067	2977.355873
404.855705	2946.619958
405.237282	2902.071282
405.618797	2897.435941
406.000250	2875.869884
406.381642	2865.694315
406.762972	2830.338183
407.144240	2805.331539
407.525447	2782.422016
407.906593	2767.603544
408.287677	2753.354722
408.668700	2725.991339
409.049661	2711.540872
409.430560	2694.466484
409.811399	2674.092661
410.192176	2668.756599
410.572891	2652.690442
410.953545	2641.541930
411.334138	2623.560134
411.714669	2615.607714
412.095139	2601.253029
412.475547	2594.127358
412.855894	2586.487489
413.236180	2577.363001
413.616405	2570.577607
413.996568	2564.815569
414.376670	2559.441699
414.756711	2552.245452
415.136691	2549.588763
415.516609	2546.581715
415.896466	2545.099616
416.276262	2542.155582
416.655997	2536.635519
417.035670	2533.139478
417.415283	2533.804911
417.794834	2531.604447
418.174324	2531.763243
418.553753	2530.593696
418.933121	2532.458923
419.312428	2531.884231
419.691674	2529.870290
420.070859	2529.101514
420.449983	2527.574045
420.829045	2529.275434
421.208047	2528.670496
421.586988	2527.795855
421.965867	2528.211751
422.344686	2525.713859
422.723444	2528.113448
423.102141	2528.226874
423.480777	2528.030269
423.859352	2527.039682
424.237866	2528.252080
424.616319	2526.880886
424.994712	2528.214271
425.373044	2528.015146
425.751314	2528.206709
426.129524	2526.248221
426.507673	2527.468180
426.885762	2527.755526
427.263789	2528.872142
427.641756	2526.429703
428.019662	2528.841895
428.397508	2527.417769
428.775292	2530.921371
429.153016	2527.765608
429.530679	2528.534384
429.908282	2529.338448
430.285824	2528.083201
430.663305	2527.626977
431.040726	2527.327028
431.418086	2525.295443
431.795385	2532.385826
432.172624	2527.231246
432.549802	2526.898530
432.926920	2529.035979
433.303977	2527.871473
433.680974	2528.965403
434.057910	2530.719725
434.434786	2528.884745
434.811601	2528.635208
435.188355	2526.275947
435.565050	2528.967924
435.941683	2527.463139
436.318257	2526.341482
436.694770	2526.810310
437.071222	2527.422810
437.447614	2524.577079
437.823946	2526.714528
438.200218	2527.357275
438.576429	2530.029087
438.952580	2528.678057
439.328670	2527.790814
439.704700	2530.291227
440.080670	2529.424148
440.456580	2530.744930
440.832429	2527.831143
441.208218	2530.208047
441.583947	2532.262318
441.959616	2528.012625
442.335224	2529.711494
442.710773	2529.187214
443.086261	2531.175949
443.461689	2528.836854
443.837057	2533.449509
444.212365	2531.972451
444.587612	2533.199972
444.962800	2531.400280
445.337927	2531.440610
445.712995	2529.242667
446.088002	2534.732483
446.462949	2532.937832
446.837837	2534.135106
447.212664	2533.615868
447.587431	2533.109232
447.962139	2532.277441
448.336786	2539.128369
448.711374	2534.903882
449.085901	2534.762730
449.460369	2532.169056
449.834776	2533.391536
450.209124	2535.871784
450.583412	2536.247350
450.957640	2535.690302
451.331808	2538.208359
451.705917	2532.819365
452.079965	2535.218954
452.453954	2534.682072
452.827883	2537.588297
453.201752	2535.944881
453.575562	2537.043852
453.949311	2535.463450
454.323001	2537.434542
454.696632	2536.396064
455.070202	2535.778522
455.443713	2535.148378
455.817164	2534.051927
456.190556	2534.195600
456.563888	2536.363296
456.937160	2529.434230
457.310373	2535.957483
457.683526	2537.719367
458.056619	2534.908923
458.429653	2534.994623
458.802628	2536.264994
459.175542	2536.184335
459.548398	2540.270191
459.921194	2535.937319
460.293930	2538.102494
460.666607	2537.583256
461.039224	2541.709440
461.411782	2543.373021
461.784280	2540.890252
462.156719	2540.693648
462.529099	2540.325643
462.901419	2540.310520
463.273680	2542.518545
463.645882	2540.678524
464.018024	2541.568288
464.390106	2540.781868
464.762130	2545.883515
465.134094	2541.795140
465.505999	2544.282949
465.877845	2550.440718
466.249631	2551.932900
466.621358	2548.746891
466.993026	2549.566078
467.364634	2551.448949
467.736184	2546.082641
468.107674	2545.833104
468.479105	2545.034081
468.850477	2544.759338
469.221790	2546.402754
469.593043	2544.711447
469.964238	2545.707075
470.335373	2542.659698
470.706449	2546.012065
471.077467	2543.100798
471.448425	2549.341747
471.819324	2550.511295
472.190164	2552.429454
472.560945	2549.187992
472.931667	2546.566592
473.302330	2546.443083
473.672934	2541.893442
474.043479	2545.228165
474.413965	2545.570964
474.784393	2542.619368
475.154761	2546.803526
475.525070	2543.730943
475.895321	2541.888401
476.265513	2539.362783
476.635645	2547.297559
477.005719	2547.635316
477.375734	2547.058104
477.745691	2548.041129
478.115588	2547.839483
478.485427	2545.860830
478.855207	2549.402241
479.224928	2551.136398
479.594591	2552.469783
479.964194	2550.599515
480.333739	2553.311656
480.703226	2549.651778
481.072653	2551.320400
481.442022	2550.539021
481.811333	2552.431974
482.180584	2550.150852
482.549777	2549.498023
482.918912	2547.284956
483.287988	2555.212171
483.657005	2549.311500
484.025964	2553.863662
484.394864	2548.973743
484.763706	2552.318548
485.132489	2549.820657
485.501213	2550.160934
485.869879	2548.320913
486.238487	2546.077600
486.607036	2553.493137
486.975527	2548.691438
487.343959	2548.424257
487.712333	2547.940306
488.080648	2549.026675
488.448905	2547.640357
488.817104	2549.830739
489.185244	2550.239072
489.553326	2549.326623
489.921350	2551.698486
490.289315	2555.512119
490.657222	2553.331820
491.025070	2556.515309
491.392861	2556.444733
491.760593	2552.875596
492.128267	2553.530946
492.495883	2552.172355
492.863440	2552.575647
493.230939	2548.499874
493.598380	2553.583878
493.965763	2545.812939
494.333088	2546.763197
494.700354	2547.184133
495.067563	2548.532642
495.434713	2546.254040
495.801805	2553.881306
496.168839	2545.175233
496.535815	2549.127498
496.902733	2550.269319
497.269593	2550.821326
497.636395	2554.057746
498.003139	2550.654967
498.369825	2550.148332
498.736453	2552.172355
499.103023	2547.715975
499.469535	2549.482899
499.835989	2551.421223
500.202385	2551.050698
500.568723	2551.466593
500.935003	2549.616490
501.301226	2549.644216
501.667390	2550.823846
502.033497	2549.500543
502.399546	2549.989535
502.765537	2549.187992
503.131470	2552.575647
503.497345	2551.973229
503.863163	2549.540873
504.228923	2551.610266
504.594625	2549.371994
504.960269	2549.006510
505.325856	2549.195553
505.691385	2548.983825
506.056856	2551.758980
506.422270	2550.770914
506.787625	2551.413661
507.152924	2551.408620
507.518164	2551.343085
507.883347	2548.328475
508.248472	2549.500543
508.613540	2548.305790
508.978550	2546.987528
509.343503	2550.758311
509.708398	2553.140256
510.073236	2552.658826
510.438016	2550.518856
510.802738	2550.554144
511.167403	2551.025492
511.532010	2551.769063
511.896561	2550.264278
512.261053	2551.592622
512.625488	2549.795451
512.989866	2546.226314
513.354186	2551.413661
513.718449	2545.475182
514.082655	2549.069525
514.446803	2554.264434
514.810894	2551.358208
515.174927	2553.014228
515.538904	2551.824515
515.902822	2550.319731
516.266684	2552.651264
516.630488	2550.533980
516.994235	2551.645554
517.357925	2552.575647
517.721558	2553.848538
518.085133	2553.041954
518.448651	2553.367108
518.812112	2551.600184
519.175516	2553.626728
519.538863	2554.584547
519.902152	2553.039433
520.265385	2553.886347
520.628560	2551.985832
520.991678	2552.976419
521.354739	2549.848383
521.717743	2551.726213
522.080690	2554.377860
522.443580	2551.622869
522.806413	2555.991029
523.169189	2550.559186
523.531908	2555.683518
523.894569	2552.124464
524.257174	2553.914073
524.619722	2551.121274
524.982213	2554.821481
525.344647	2553.329300
525.707025	2551.970709
526.069345	2554.130843
526.431608	2552.684032
526.793815	2552.905843
527.155964	2550.647406
527.518057	2552.399207
527.880093	2555.993549
528.242072	2548.865358
528.603995	2554.834084
528.965860	2555.086142
529.327669	2553.299053
529.689421	2551.557334
530.051117	2552.195040
530.412755	2552.729402
530.774337	2552.613456
531.135862	2552.454659
531.497331	2552.394166
531.858743	2550.108002
532.220098	2549.520708
532.581396	2549.114895
532.942638	2551.171686
533.303824	2551.882488
533.664953	2552.525236
534.026025	2551.317879
534.387040	2554.090514
534.747999	2551.073383
535.108902	2553.651933
535.469748	2552.842828
535.830537	2553.694783
536.191270	2552.747046
536.551947	2553.445246
536.912567	2551.857283
537.273131	2552.701676
537.633638	2550.854093
537.994089	2553.699824
538.354483	2550.309648
538.714821	2551.496840
539.075103	2553.478014
539.435328	2553.357026
539.795497	2553.026830
540.155609	2554.745864
540.515665	2554.234187
540.875665	2552.134546
541.235609	2555.237376
541.595496	2553.604042
541.955328	2552.250493
542.315102	2551.050698
542.674821	2552.270657
543.034483	2553.132695
543.394090	2549.979453
543.753640	2555.391132
544.113134	2552.323589
544.472571	2551.602704
544.831953	2554.178734
545.191278	2553.783003
545.550548	2553.142777
545.909761	2554.324927
546.268918	2553.296532
546.628019	2553.064639
546.987064	2551.287632
547.346053	2553.553631
547.704986	2553.241079
548.063863	2555.186965
548.422684	2554.050185
548.781449	2554.040102
549.140158	2553.719989
549.498811	2554.342572
549.857408	2551.968188
550.215949	2552.459701
550.574434	2549.969371
550.932864	2549.951727
551.291237	2549.515667
551.649555	2553.460370
552.007817	2556.356513
552.366022	2554.922304
552.724173	2552.414330
553.082267	2554.012376
553.440305	2554.571944
553.798288	2554.992880
554.156215	2552.268137
554.514086	2554.234187
554.871902	2554.183775
555.229661	2554.065308
555.587365	2553.702345
555.945014	2555.287788
556.302606	2551.920297
556.660143	2554.622356
557.017625	2552.462221
557.375050	2553.873744
557.732421	2555.411296
558.089735	2553.092365
558.446994	2552.767211
558.804197	2553.142777
559.161345	2552.467262
559.518437	2553.457849
559.875474	2551.234700
560.232455	2554.793755
560.589381	2556.074208
560.946251	2554.634958
561.303065	2554.894578
561.659825	2552.958775
562.016528	2553.137736
562.373177	2552.416851
562.729770	2552.268137
563.086307	2555.454146
563.442789	2549.712272
563.799216	2555.330638
564.155587	2552.777293
564.511904	2552.237890
564.868164	2554.052705
565.224370	2555.388611
565.580520	2552.404248
565.936615	2551.680842
566.292654	2551.022972
566.648638	2552.487427
567.004567	2554.665205
567.360441	2553.414999
567.716260	2552.681511
568.072023	2553.145298
568.427732	2548.182282
568.783385	2550.518856
569.138982	2549.200595
569.494525	2551.101110
569.850013	2546.816129
570.205445	2552.777293
570.560823	2548.988866
570.916145	2552.857952
571.271412	2554.622356
571.626625	2553.125133
571.981782	2550.596994
572.336884	2552.608415
572.691931	2550.836449
573.046923	2554.115720
573.401860	2553.278888
573.756743	2551.895091
574.111570	2553.576316
574.466342	2554.632438
574.821059	2552.447098
575.175722	2552.232849
575.530330	2554.587067
575.884882	2552.106820
576.239380	2553.021789
576.593823	2553.949362
576.948211	2551.209494
577.302544	2550.546583
577.656823	2551.789227
578.011047	2553.210832
578.365216	2552.482386
578.719330	2549.621531
579.073389	2550.082797
579.427394	2552.217725
579.781344	2552.832746
580.135239	2550.407951
580.489080	2551.827036
580.842866	2550.153373
581.196597	2554.574465
581.550273	2553.006666
581.903895	2553.052036
582.257463	2551.718651
582.610975	2551.587581
582.964434	2550.236552
583.317837	2551.867365
583.671186	2551.022972
584.024481	2551.370811
584.377721	2550.907025
584.730906	2550.642365
585.084037	2552.366439
585.437113	2549.787889
585.790135	2552.931048
586.143103	2553.152859
586.496016	2554.130843
586.848874	2546.667415
587.201679	2553.851059
587.554428	2546.014585
587.907124	2548.537683
588.259765	2545.734801
588.612352	2551.249824
588.964884	2552.318548
589.317362	2551.867365
589.669786	2548.187323
590.022155	2550.992725
590.374470	2551.123795
590.726731	2550.765873
591.078937	2549.903836
591.431090	2548.908208
591.783188	2548.560368
592.135232	2551.471634
592.487222	2551.582540
592.839157	2552.923487
593.191038	2548.504915
593.542866	2550.753270
593.894639	2548.141952
594.246358	2550.589432
594.598022	2549.303938
594.949633	2549.319062
595.301190	2550.370142
595.652692	2552.341233
596.004141	2550.057591
596.355535	2548.774617
596.706876	2552.558003
597.058162	2549.067004
597.409395	2547.060625
597.760573	2550.450801
598.111698	2549.046839
598.462768	2550.564227
598.813785	2548.444422
599.164748	2550.226469
599.515657	2549.475338
599.866511	2548.167158
600.217312	2547.942827
600.568060	2552.610935
600.918753	2553.089845
601.269392	2549.530790
601.619978	2546.072559
601.970510	2550.987684
602.320988	2549.051881
602.671412	2551.033054
603.021783	2550.256716
603.372100	2550.599515
603.722363	2548.502395
604.072572	2552.051367
604.422728	2549.039278
604.772830	2547.746222
605.122878	2544.477033
605.472872	2546.821170
605.822813	2544.628268
606.172701	2545.823022
606.522534	2547.572302
606.872314	2550.178578
607.222041	2548.938455
607.571714	2549.019113
607.921333	2549.553475
608.270899	2549.755122
608.620411	2548.683876
608.969870	2551.464073
609.319276	2550.037426
609.668627	2555.456667
610.017926	2555.491955
610.367171	2557.715103
610.716362	2556.132181
611.065500	2554.271995
611.414585	2552.699155
611.763616	2553.757798
612.112594	2551.784186
612.461518	2551.655637
612.810389	2549.112374
613.159207	2551.085986
613.507971	2550.982643
613.856682	2549.251006
614.205340	2549.961809
614.553945	2551.373332
614.902496	2550.748229
615.250994	2549.825698
615.599439	2549.477858
615.947830	2550.692776
616.296169	2547.398382
616.644454	2548.817467
616.992686	2548.641027
617.340864	2550.478527
617.688990	2549.271171
618.037063	2547.587425
618.385082	2548.923331
618.733048	2550.743188
619.080961	2551.862324
619.428821	2549.613969
619.776628	2551.073383
620.124382	2550.496171
620.472083	2549.893753
620.819731	2550.050029
621.167326	2550.080276
621.514868	2550.372663
621.862357	2549.205636
622.209793	2548.215049
622.557176	2551.297715
622.904506	2546.705223
623.251783	2545.001313
623.599007	2547.370656
623.946179	2544.121632
624.293297	2546.115408
624.640363	2547.330327
624.987376	2550.153373
625.334336	2546.271684
625.681243	2547.658002
626.028097	2547.121119
626.374899	2549.160265
626.721647	2544.310675
627.068343	2546.019627
627.414987	2549.429967
627.761577	2549.649257
628.108115	2547.312683
628.454600	2547.642878
628.801032	2549.268650
629.147412	2550.390307
629.493739	2547.544576
629.840014	2546.493495
630.186236	2546.254040
630.532405	2548.686397
630.878521	2546.869061
631.224585	2547.804195
631.570597	2543.995603
631.916556	2547.859648
632.262462	2546.438042
632.608316	2546.627086
632.954117	2545.404606
633.299866	2548.898125
633.645562	2545.593649
633.991206	2546.064997
634.336797	2546.498536
634.682336	2546.475851
635.027823	2546.178423
635.373257	2544.507280
635.718639	2545.008875
636.063968	2547.902497
636.409245	2544.585418
636.754470	2546.934596
637.099642	2545.981818
637.444762	2547.050543
637.789829	2544.847558
638.134845	2544.555171
638.479808	2545.220604
638.824719	2544.787064
639.169577	2543.899821
639.514383	2542.992414
639.859137	2541.951415
640.203839	2543.458720
640.548489	2545.586087
640.893086	2544.376210
641.237632	2539.289686
641.582125	2539.032587
641.926566	2540.423946
642.270955	2544.179605
642.615292	2542.972249
642.959576	2544.230017
643.303809	2547.607590
643.647990	2544.189688
643.992118	2542.241282
644.336195	2542.909235
