Dividing Wavelength (nm)	Counts (n)	Blue Motor Position (mm): 0.000000	Red Motor Position (mm): 11.500000	
326.493990	2146.278812
326.888308	2146.278812
327.282561	2146.278812
327.676750	2122.328290
328.070874	2124.473301
328.464933	2128.223919
328.858929	2136.456123
329.252859	2148.247382
329.646726	2165.281441
330.040528	2176.860972
330.434265	2195.914013
330.827938	2216.549976
331.221547	2235.381206
331.615091	2253.302508
332.008571	2273.308327
332.401986	2297.190793
332.795338	2315.096972
333.188625	2334.941474
333.581847	2355.133816
333.975006	2373.778523
334.368100	2391.195710
334.761129	2411.503998
335.154095	2429.042172
335.546996	2446.403906
335.939833	2457.849846
336.332606	2472.035653
336.725315	2481.858341
337.117960	2490.534167
337.510540	2497.748058
337.903056	2509.330109
338.295508	2514.623320
338.687896	2520.697911
339.080220	2530.278624
339.472480	2535.589479
339.864676	2536.922864
340.256807	2540.867567
340.648875	2541.664070
341.040879	2545.681869
341.432818	2548.767055
341.824694	2546.957281
342.216506	2547.834442
342.608253	2546.773279
342.999937	2546.276725
343.391557	2545.515511
343.783113	2543.224307
344.174605	2541.691796
344.566033	2539.347659
344.957397	2542.568957
345.348697	2540.277752
345.739934	2538.031918
346.131106	2535.662576
346.522215	2532.683254
346.913260	2532.592513
347.304241	2529.678726
347.695159	2528.927594
348.086012	2523.899043
348.476802	2525.338293
348.867528	2523.226049
349.258191	2521.529701
349.648789	2521.794362
350.039324	2519.220853
350.429796	2517.960564
350.820203	2516.508712
351.210548	2514.893022
351.600828	2515.727333
351.991045	2515.636592
352.381198	2515.303876
352.771288	2516.465862
353.161314	2514.646006
353.551276	2515.818074
353.941175	2515.538290
354.331010	2516.664988
354.720782	2514.315810
355.110490	2518.164731
355.500135	2515.641633
355.889717	2518.963754
356.279235	2515.939062
356.668689	2517.252282
357.058080	2518.454597
357.447408	2512.616941
357.836672	2513.337826
358.225873	2515.742457
358.615010	2513.940244
359.004084	2518.444515
359.393095	2519.162879
359.782043	2523.468025
360.170927	2521.312932
360.559748	2520.289577
360.948505	2522.399300
361.337199	2523.578930
361.725830	2522.278312
362.114398	2526.515402
362.502903	2524.161183
362.891344	2525.590351
363.279722	2524.438447
363.668037	2525.360978
364.056289	2525.819723
364.444478	2525.340813
364.832603	2524.995494
365.220665	2530.238294
365.608665	2524.428365
365.996601	2528.945238
366.384474	2525.645803
366.772284	2527.402645
367.160031	2528.141174
367.547715	2527.947090
367.935336	2530.283665
368.322893	2528.899868
368.710388	2528.612522
369.097820	2532.582431
369.485189	2530.528161
369.872495	2529.673685
370.259738	2532.290044
370.646918	2529.335928
371.034035	2530.641587
371.421090	2532.761392
371.808081	2530.714683
372.195010	2533.078985
372.581875	2534.780374
372.968678	2534.692154
373.355418	2535.259284
373.742096	2537.190046
374.128710	2536.885056
374.515262	2539.140972
374.901751	2539.193904
375.288177	2539.561908
375.674540	2542.226158
376.060841	2541.449821
376.447079	2544.040974
376.833254	2544.494677
377.219367	2543.156251
377.605417	2549.210677
377.991404	2548.207487
378.377329	2549.868548
378.763191	2553.737633
379.148991	2560.727193
379.534727	2563.320867
379.920402	2569.675241
380.306013	2573.017526
380.691563	2577.136149
381.077049	2577.352918
381.462474	2582.653692
381.847835	2589.537387
382.233134	2596.037955
382.618371	2597.278079
383.003545	2606.604213
383.388657	2610.997579
383.773706	2617.856069
384.158693	2627.812348
384.543618	2632.593882
384.928480	2637.297279
385.313280	2645.380769
385.698017	2653.504588
386.082692	2661.409117
386.467305	2664.932884
386.851856	2676.351097
387.236344	2690.342820
387.620770	2693.007070
388.005133	2699.888245
388.389435	2714.784854
388.773674	2719.878940
389.157851	2727.730537
389.541965	2738.536251
389.926018	2740.862743
390.310008	2753.130391
390.693936	2762.504417
391.077802	2769.841816
391.461606	2778.454627
391.845348	2787.644651
392.229027	2794.931639
392.612645	2809.147693
392.996200	2817.127839
393.379694	2827.500013
393.763125	2844.899556
394.146494	2849.512212
394.529801	2859.246680
394.913047	2873.480378
395.296230	2874.339894
395.679351	2877.064638
396.062410	2893.516443
396.445408	2885.682490
396.828343	2891.885630
397.211217	2897.960221
397.594028	2889.281874
397.976778	2896.553739
398.359466	2906.807446
398.742092	2898.686147
399.124656	2909.968249
399.507158	2915.165679
399.889598	2914.066707
400.271977	2919.916966
400.654294	2919.725402
401.036549	2925.983995
401.418742	2920.902512
401.800874	2934.029676
402.182944	2934.138061
402.564952	2945.349587
402.946898	2931.766198
403.328783	2930.107659
403.710606	2932.277875
404.092367	2937.871036
404.474067	2944.807663
404.855705	2932.610592
405.237282	2920.395876
405.618797	2931.186466
406.000250	2935.282403
406.381642	2939.718618
406.762972	2933.013884
407.144240	2915.407654
407.525447	2918.525608
407.906593	2905.242167
408.287677	2903.150088
408.668700	2898.030797
409.049661	2884.162583
409.430560	2877.934237
409.811399	2870.611961
410.192176	2864.320601
410.572891	2852.922552
410.953545	2856.612677
411.334138	2831.812720
411.714669	2840.203721
412.095139	2807.902528
412.475547	2813.523414
412.855894	2796.680919
413.236180	2793.136988
413.616405	2774.577980
413.996568	2771.243257
414.376670	2760.152718
414.756711	2748.603435
415.136691	2743.786612
415.516609	2737.465006
415.896466	2726.261041
416.276262	2722.676781
416.655997	2711.835779
417.035670	2703.008719
417.415283	2705.357897
417.794834	2695.520085
418.174324	2685.669670
418.553753	2677.518125
418.933121	2674.662311
419.312428	2663.831392
419.691674	2655.712614
420.070859	2650.442087
420.449983	2642.555202
420.829045	2638.882722
421.208047	2632.261166
421.586988	2628.845784
421.965867	2626.025259
422.344686	2616.570575
422.723444	2613.934051
423.102141	2606.551281
423.480777	2605.391816
423.859352	2597.774633
424.237866	2597.570466
424.616319	2595.959817
424.994712	2594.444950
425.373044	2588.771132
425.751314	2585.292736
426.129524	2584.158476
426.507673	2584.833991
426.885762	2578.305696
427.263789	2578.552713
427.641756	2576.201015
428.019662	2577.181519
428.397508	2573.022567
428.775292	2575.870819
429.153016	2572.891497
429.530679	2572.246229
429.908282	2569.271949
430.285824	2569.125755
430.663305	2568.586352
431.040726	2567.530230
431.418086	2567.147102
431.795385	2566.650549
432.172624	2568.455282
432.549802	2567.431928
432.926920	2563.088973
433.303977	2567.351269
433.680974	2566.514438
434.057910	2565.523851
434.434786	2567.900755
434.811601	2569.279510
435.188355	2565.871690
435.565050	2567.968810
435.941683	2568.682134
436.318257	2564.808007
436.694770	2563.698953
437.071222	2562.128634
437.447614	2563.008315
437.823946	2564.077040
438.200218	2565.266752
438.576429	2567.550395
438.952580	2564.525702
439.328670	2566.832030
439.704700	2564.951680
440.080670	2565.821279
440.456580	2566.847154
440.832429	2567.936043
441.208218	2569.009809
441.583947	2565.977555
441.959616	2565.861608
442.335224	2567.389078
442.710773	2565.468398
443.086261	2566.564849
443.461689	2565.806155
443.837057	2567.724314
444.212365	2567.477298
444.587612	2569.319840
444.962800	2567.258008
445.337927	2570.338153
445.712995	2566.325394
446.088002	2567.525189
446.462949	2569.428224
446.837837	2568.745148
447.212664	2568.659448
447.587431	2570.320509
447.962139	2571.096846
448.336786	2571.391754
448.711374	2567.736917
449.085901	2569.077864
449.460369	2567.048800
449.834776	2571.606003
450.209124	2570.688513
450.583412	2572.059707
450.957640	2572.969635
451.331808	2571.631209
451.705917	2569.208934
452.079965	2574.630695
452.453954	2569.128276
452.827883	2573.171281
453.201752	2569.256825
453.575562	2571.515262
453.949311	2571.119532
454.323001	2573.085582
454.696632	2575.054152
455.070202	2573.503997
455.443713	2570.670869
455.817164	2570.055848
456.190556	2570.365879
456.563888	2568.477967
456.937160	2567.956207
457.310373	2573.970304
457.683526	2572.795715
458.056619	2572.135324
458.429653	2571.938719
458.802628	2574.406364
459.175542	2572.372258
459.548398	2574.068607
459.921194	2576.536251
460.293930	2573.546847
460.666607	2572.503328
461.039224	2575.898545
461.411782	2579.462641
461.784280	2575.477609
462.156719	2576.987435
462.529099	2576.798391
462.901419	2573.967783
463.273680	2575.727146
463.645882	2575.661611
464.018024	2576.526169
464.390106	2576.813515
464.762130	2578.101530
465.134094	2578.129256
465.505999	2580.178485
465.877845	2579.823084
466.249631	2579.800398
466.621358	2582.547827
466.993026	2584.960019
467.364634	2583.843404
467.736184	2582.227714
468.107674	2580.009606
468.479105	2578.146900
468.850477	2577.685634
469.221790	2578.814853
469.593043	2578.945923
469.964238	2581.020358
470.335373	2579.140007
470.706449	2580.130594
471.077467	2579.818042
471.448425	2580.601942
471.819324	2582.631006
472.190164	2584.904567
472.560945	2579.444997
472.931667	2578.933320
473.302330	2580.052456
473.672934	2576.868967
474.043479	2580.181006
474.413965	2579.192939
474.784393	2575.480130
475.154761	2577.592373
475.525070	2576.881570
475.895321	2575.185222
476.265513	2574.824780
476.635645	2578.993814
477.005719	2578.706468
477.375734	2582.648650
477.745691	2578.330902
478.115588	2579.646643
478.485427	2584.677715
478.855207	2581.847107
479.224928	2583.971953
479.594591	2584.529001
479.964194	2583.535893
480.333739	2585.506985
480.703226	2581.264854
481.072653	2581.627817
481.442022	2583.104875
481.811333	2583.858527
482.180584	2583.104875
482.549777	2584.370204
482.918912	2583.664443
483.287988	2582.580595
483.657005	2583.109916
484.025964	2583.024216
484.394864	2580.788465
484.763706	2582.648650
485.132489	2581.698393
485.501213	2582.875502
485.869879	2581.426171
486.238487	2578.895511
486.607036	2581.219483
486.975527	2583.165369
487.343959	2581.206880
487.712333	2583.467838
488.080648	2581.635378
488.448905	2579.384503
488.817104	2581.521952
489.185244	2585.086048
489.553326	2581.854669
489.921350	2586.774835
490.289315	2585.990935
490.657222	2588.304825
491.025070	2584.370204
491.392861	2586.348857
491.760593	2585.159145
492.128267	2585.073445
492.495883	2584.506316
492.863440	2584.536562
493.230939	2583.435070
493.598380	2584.347519
493.965763	2578.572878
494.333088	2579.412230
494.700354	2577.337795
495.067563	2578.585480
495.434713	2578.104050
495.801805	2584.312231
496.168839	2585.443970
496.535815	2583.477920
496.902733	2582.260482
497.269593	2582.741912
497.636395	2582.562951
498.003139	2582.623445
498.369825	2585.569999
498.736453	2583.881213
499.103023	2582.714185
499.469535	2581.332909
499.835989	2580.546489
500.202385	2580.957343
500.568723	2581.108578
500.935003	2582.772159
501.301226	2581.035481
501.667390	2584.818867
502.033497	2582.492375
502.399546	2580.874164
502.765537	2580.528845
503.131470	2583.644278
503.497345	2578.613207
503.863163	2586.290884
504.228923	2581.708475
504.594625	2580.042374
504.960269	2578.681262
505.325856	2582.492375
505.691385	2582.580595
506.056856	2582.326017
506.422270	2584.181161
506.787625	2581.436253
507.152924	2580.244020
507.518164	2582.575554
507.883347	2580.281829
508.248472	2581.189236
508.613540	2581.506829
508.978550	2578.794688
509.343503	2580.513722
509.708398	2583.787951
510.073236	2583.130081
510.438016	2580.491037
510.802738	2583.374577
511.167403	2581.819381
511.532010	2580.493557
511.896561	2583.183013
512.261053	2582.724268
512.625488	2578.280491
512.989866	2578.139338
513.354186	2578.547672
513.718449	2577.811663
514.082655	2580.813670
514.446803	2581.887436
514.810894	2581.388362
515.174927	2583.762745
515.538904	2581.153948
515.902822	2582.507498
516.266684	2580.196129
516.630488	2582.996490
516.994235	2580.793506
517.357925	2578.363670
517.721558	2583.316603
518.085133	2581.443815
518.448651	2586.064032
518.812112	2582.179823
519.175516	2581.932807
519.538863	2583.926583
519.902152	2582.880543
520.265385	2585.620411
520.628560	2585.592684
520.991678	2584.082859
521.354739	2582.928434
521.717743	2581.292580
522.080690	2584.632344
522.443580	2583.130081
522.806413	2580.518763
523.169189	2582.678897
523.531908	2580.740574
523.894569	2582.542786
524.257174	2582.867941
524.619722	2581.189236
524.982213	2585.063363
525.344647	2583.508167
525.707025	2582.893146
526.069345	2582.295770
526.431608	2584.198805
526.793815	2583.679566
527.155964	2585.295256
527.518057	2583.183013
527.880093	2585.380956
528.242072	2583.578743
528.603995	2582.474731
528.965860	2584.269381
529.327669	2582.048753
529.689421	2583.152766
530.051117	2581.766448
530.412755	2580.949782
530.774337	2582.333578
531.135862	2582.429360
531.497331	2579.462641
531.858743	2580.770821
532.220098	2579.923907
532.581396	2578.610686
532.942638	2577.370562
533.303824	2583.117478
533.664953	2581.917683
534.026025	2581.216963
534.387040	2582.023547
534.747999	2582.305852
535.108902	2582.683938
535.469748	2583.341809
535.830537	2582.842735
536.191270	2582.918352
536.551947	2581.325347
536.912567	2582.933476
537.273131	2583.553537
537.633638	2578.542631
537.994089	2581.325347
538.354483	2583.293918
538.714821	2584.133270
539.075103	2579.313927
539.435328	2583.243507
539.795497	2582.573033
540.155609	2580.859041
540.515665	2585.703590
540.875665	2584.617221
541.235609	2582.716706
541.595496	2581.932807
541.955328	2581.751325
542.315102	2581.463979
542.674821	2583.006572
543.034483	2582.552868
543.394090	2584.027406
543.753640	2583.593867
544.113134	2581.733681
544.472571	2581.952971
544.831953	2583.777869
545.191278	2584.700400
545.550548	2581.297621
545.909761	2583.137642
546.268918	2584.758373
546.628019	2583.268712
546.987064	2581.705955
547.346053	2581.615214
547.704986	2582.434401
548.063863	2582.852817
548.422684	2583.455235
548.781449	2582.751994
549.140158	2584.657550
549.498811	2583.818198
549.857408	2581.915162
550.215949	2579.944071
550.574434	2577.597414
550.932864	2580.622107
551.291237	2581.612693
551.649555	2582.832652
552.007817	2582.373907
552.366022	2579.399627
552.724173	2581.385841
553.082267	2583.603949
553.440305	2582.235276
553.798288	2584.408013
554.156215	2584.103023
554.514086	2583.072107
554.871902	2583.913980
555.229661	2586.048909
555.587365	2582.056315
555.945014	2582.842735
556.302606	2580.238979
556.660143	2582.068918
557.017625	2582.235276
557.375050	2584.050091
557.732421	2580.995152
558.089735	2580.738053
558.446994	2582.986408
558.804197	2583.518249
559.161345	2580.647312
559.518437	2582.333578
559.875474	2581.824422
560.232455	2585.597725
560.589381	2582.063877
560.946251	2587.084866
561.303065	2582.817529
561.659825	2581.642940
562.016528	2582.366346
562.373177	2582.875502
562.729770	2582.391552
563.086307	2581.484144
563.442789	2582.232755
563.799216	2584.224011
564.155587	2584.123188
564.511904	2580.982549
564.868164	2584.022365
565.224370	2581.085893
565.580520	2581.151428
565.936615	2584.040009
566.292654	2582.825091
566.648638	2582.005903
567.004567	2585.990935
567.360441	2580.584298
567.716260	2582.255440
568.072023	2583.903898
568.427732	2578.608166
568.783385	2581.481623
569.138982	2581.693352
569.494525	2579.495409
569.850013	2578.111612
570.205445	2583.493044
570.560823	2582.625965
570.916145	2581.463979
571.271412	2581.088413
571.626625	2584.728126
571.981782	2581.325347
572.336884	2581.176633
572.691931	2584.014803
573.046923	2583.775348
573.401860	2580.811150
573.756743	2583.941706
574.111570	2581.670667
574.466342	2583.402303
574.821059	2582.613362
575.175722	2583.659402
575.530330	2582.585636
575.884882	2582.910790
576.239380	2579.593711
576.593823	2583.916501
576.948211	2583.185533
577.302544	2582.124370
577.656823	2580.664956
578.011047	2584.216449
578.365216	2583.742581
578.719330	2584.196285
579.073389	2582.023547
579.427394	2580.465831
579.781344	2580.589339
580.135239	2581.340471
580.489080	2583.583784
580.842866	2583.092272
581.196597	2586.038826
581.550273	2583.614031
581.903895	2583.608990
582.257463	2581.806778
582.610975	2583.306521
582.964434	2584.239134
583.317837	2582.885585
583.671186	2582.815008
584.024481	2582.378949
584.377721	2580.798547
584.730906	2581.421129
585.084037	2583.374577
585.437113	2579.412230
585.790135	2582.031109
586.143103	2581.731160
586.496016	2584.632344
586.848874	2579.371900
587.201679	2577.703278
587.554428	2578.184709
587.907124	2582.792323
588.259765	2577.110943
588.612352	2582.973805
588.964884	2583.369535
589.317362	2580.702765
589.669786	2580.906932
590.022155	2582.494895
590.374470	2580.753177
590.726731	2580.178485
591.078937	2583.087231
591.431090	2583.407344
591.783188	2581.348033
592.135232	2584.211408
592.487222	2583.548496
592.839157	2580.054977
593.191038	2582.401634
593.542866	2581.867272
593.894639	2582.653692
594.246358	2582.252920
594.598022	2577.317630
594.949633	2584.009762
595.301190	2580.662436
595.652692	2580.740574
596.004141	2584.355081
596.355535	2581.131263
596.706876	2582.101685
597.058162	2580.826273
597.409395	2581.373238
597.760573	2584.344999
598.111698	2581.322827
598.462768	2582.590677
598.813785	2584.224011
599.164748	2580.276787
599.515657	2583.208218
599.866511	2578.731674
600.217312	2583.228383
600.568060	2577.549523
600.918753	2582.562951
601.269392	2580.811150
601.619978	2580.186047
601.970510	2581.799216
602.320988	2577.912486
602.671412	2581.887436
603.021783	2578.245202
603.372100	2583.530852
603.722363	2580.775862
604.072572	2584.226532
604.422728	2580.667477
604.772830	2577.178998
605.122878	2576.125397
605.472872	2578.368711
605.822813	2574.373596
606.172701	2577.725964
606.522534	2578.948443
606.872314	2581.668146
607.222041	2581.607652
607.571714	2583.084710
607.921333	2578.209914
608.270899	2579.742425
608.620411	2580.677559
608.969870	2579.989442
609.319276	2581.917683
609.668627	2581.421129
610.017926	2582.648650
610.367171	2580.750656
610.716362	2581.151428
611.065500	2581.653023
611.414585	2578.487178
611.763616	2583.407344
612.112594	2579.013978
612.461518	2581.456417
612.810389	2582.502457
613.159207	2582.305852
613.507971	2581.053125
613.856682	2583.029257
614.205340	2579.850810
614.553945	2581.206880
614.902496	2580.596901
615.250994	2581.083372
615.599439	2582.220152
615.947830	2581.131263
616.296169	2581.864751
616.644454	2582.411716
616.992686	2581.940368
617.340864	2581.360636
617.688990	2581.012796
618.037063	2579.984401
618.385082	2580.044894
618.733048	2582.706624
619.080961	2580.818712
619.428821	2582.651171
619.776628	2580.367528
620.124382	2582.048753
620.472083	2582.348702
620.819731	2580.082703
621.167326	2581.655543
621.514868	2582.595718
621.862357	2578.782085
622.209793	2582.323496
622.557176	2581.834504
622.904506	2579.813001
623.251783	2578.328382
623.599007	2576.478278
623.946179	2578.136818
624.293297	2574.885273
624.640363	2576.435428
624.987376	2581.988259
625.334336	2579.359297
625.681243	2581.448856
626.028097	2580.153279
626.374899	2579.462641
626.721647	2579.097157
627.068343	2581.388362
627.414987	2581.665625
627.761577	2580.919535
628.108115	2579.427353
628.454600	2581.219483
628.801032	2580.415419
629.147412	2580.158320
629.493739	2580.662436
629.840014	2578.809812
630.186236	2580.052456
630.532405	2579.465162
630.878521	2577.872157
631.224585	2582.862899
631.570597	2580.095306
631.916556	2580.566654
632.262462	2578.340984
632.608316	2581.882395
632.954117	2578.099009
633.299866	2578.875347
633.645562	2576.957188
633.991206	2578.305696
634.336797	2578.961046
634.682336	2581.378280
635.027823	2578.378793
635.373257	2578.779565
635.718639	2578.298135
636.063968	2579.505491
636.409245	2578.832497
636.754470	2578.908114
637.099642	2578.421643
637.444762	2580.236458
637.789829	2578.499781
638.134845	2577.846951
638.479808	2579.477765
638.824719	2578.653536
639.169577	2579.392065
639.514383	2579.117322
639.859137	2580.536407
640.203839	2581.244689
640.548489	2580.070100
640.893086	2574.179512
641.237632	2575.878381
641.582125	2577.320151
641.926566	2573.050293
642.270955	2579.381983
642.615292	2578.426684
642.959576	2581.882395
643.303809	2579.306365
643.647990	2579.883578
643.992118	2580.922055
644.336195	2578.393917
