Dividing Wavelength (nm)	Counts (n)	Blue Motor Position (mm): 0.000000	Red Motor Position (mm): 30.500000	
326.493990	2078.906311
326.888308	2078.906311
327.282561	2078.906311
327.676750	2054.917981
328.070874	2058.461912
328.464933	2062.746893
328.858929	2072.967832
329.252859	2086.412589
329.646726	2099.141503
330.040528	2115.409306
330.434265	2133.665845
330.827938	2154.873979
331.221547	2174.985662
331.615091	2193.340503
332.008571	2215.418237
332.401986	2237.380023
332.795338	2258.636049
333.188625	2276.862340
333.581847	2297.442851
333.975006	2313.758545
334.368100	2331.306802
334.761129	2346.203412
335.154095	2362.987933
335.546996	2386.716644
335.939833	2419.254772
336.332606	2430.226843
336.725315	2442.847372
337.117960	2452.818774
337.510540	2457.428909
337.903056	2467.062554
338.295508	2475.067907
338.687896	2483.660553
339.080220	2488.900833
339.472480	2493.654641
339.864676	2496.449961
340.256807	2501.539006
340.648875	2503.472288
341.040879	2506.320540
341.432818	2504.982114
341.824694	2506.655777
342.216506	2505.778616
342.608253	2506.655777
342.999937	2504.430107
343.391557	2502.244767
343.783113	2502.017915
344.174605	2500.676968
344.566033	2499.787205
344.957397	2493.309322
345.348697	2499.361227
345.739934	2496.167656
346.131106	2493.934425
346.522215	2491.088694
346.913260	2490.720689
347.304241	2487.660709
347.695159	2488.595843
348.086012	2485.828250
348.476802	2485.762715
348.867528	2484.174751
349.258191	2480.285501
349.648789	2481.366828
350.039324	2481.069400
350.429796	2481.329020
350.820203	2480.925728
351.210548	2479.864565
351.600828	2479.307517
351.991045	2478.563947
352.381198	2478.926910
352.771288	2477.648977
353.161314	2477.628813
353.551276	2477.346508
353.941175	2480.993783
354.331010	2479.390696
354.720782	2477.454893
355.110490	2480.308186
355.500135	2480.376242
355.889717	2479.574698
356.279235	2477.956488
356.668689	2481.036633
357.058080	2479.599904
357.447408	2480.363639
357.836672	2479.418423
358.225873	2482.218783
358.615010	2478.024543
359.004084	2483.262302
359.393095	2485.558548
359.782043	2488.736995
360.170927	2487.501913
360.559748	2490.413179
360.948505	2490.874445
361.337199	2489.180617
361.725830	2490.745895
362.114398	2493.604229
362.502903	2491.370998
362.891344	2492.051554
363.279722	2494.698160
363.668037	2495.971051
364.056289	2492.071719
364.444478	2496.593634
364.832603	2495.419045
365.220665	2499.651093
365.608665	2498.915085
365.996601	2501.821310
366.384474	2500.508090
366.772284	2499.386433
367.160031	2498.920126
367.547715	2504.291476
367.935336	2502.930364
368.322893	2504.576301
368.710388	2505.312309
369.097820	2506.234840
369.485189	2507.106960
369.872495	2511.185253
370.259738	2512.531242
370.646918	2513.239524
371.034035	2514.646006
371.421090	2516.186078
371.808081	2518.182375
372.195010	2522.439629
372.581875	2528.178983
372.968678	2534.011598
373.355418	2538.808256
373.742096	2551.446429
374.128710	2561.422872
374.515262	2571.159861
374.901751	2583.601428
375.288177	2597.603233
375.674540	2614.803650
376.060841	2634.907772
376.447079	2654.081800
376.833254	2675.567198
377.219367	2698.713656
377.605417	2729.948645
377.991404	2754.516708
378.377329	2791.785959
378.763191	2821.054898
379.148991	2868.822351
379.534727	2910.311048
379.920402	2956.803089
380.306013	3001.646673
380.691563	3061.603636
381.077049	3112.887294
381.462474	3167.825789
381.847835	3235.281468
382.233134	3299.699853
382.618371	3355.076928
383.003545	3438.533230
383.388657	3518.465765
383.773706	3600.553394
384.158693	3668.520751
384.543618	3758.732199
384.928480	3829.646110
385.313280	3927.721758
385.698017	4027.448384
386.082692	4137.363182
386.467305	4199.437430
386.851856	4318.219617
387.236344	4463.661947
387.620770	4526.550341
388.005133	4644.074761
388.389435	4778.353455
388.773674	4859.213563
389.157851	4978.066326
389.541965	5112.284527
389.926018	5134.165655
390.310008	5304.634793
390.693936	5423.598462
391.077802	5530.143249
391.461606	5658.929606
391.845348	5769.046050
392.229027	5887.797991
392.612645	6099.271874
392.996200	6217.123968
393.379694	6383.257714
393.763125	6590.955773
394.146494	6685.656369
394.529801	6817.001112
394.913047	7052.264200
395.296230	7044.258847
395.679351	7099.930830
396.062410	7347.358222
396.445408	7248.791062
396.828343	7397.225316
397.211217	7533.220524
397.594028	7425.216323
397.976778	7623.389122
398.359466	7785.540356
398.742092	7770.260619
399.124656	7907.042246
399.507158	8092.342458
399.889598	8115.786344
400.271977	8329.178387
400.654294	8360.804065
401.036549	8556.191627
401.418742	8590.181607
401.800874	8872.355152
402.182944	8964.784708
402.564952	9315.046598
402.946898	9156.724120
403.328783	9205.835041
403.710606	9398.066840
404.092367	9650.124532
404.474067	10007.804480
404.855705	9810.218975
405.237282	9767.585937
405.618797	10191.337768
406.000250	10422.983828
406.381642	10778.972469
406.762972	10733.735675
407.144240	10552.362521
407.525447	10801.234204
407.906593	10738.446633
408.287677	11008.639876
408.668700	11150.336628
409.049661	11142.603498
409.430560	11303.310442
409.811399	11277.507296
410.192176	11438.801534
410.572891	11515.399346
410.953545	11987.775626
411.334138	11474.863428
411.714669	12050.709391
412.095139	11411.264231
412.475547	11881.876107
412.855894	11746.017011
413.236180	12064.809498
413.616405	11765.314548
413.996568	12039.802854
414.376670	12015.360820
414.756711	11901.231617
415.136691	12177.053309
415.516609	12348.228208
415.896466	12433.809357
416.276262	12711.362684
416.655997	13173.218076
417.035670	13221.199779
417.415283	13828.547912
417.794834	13927.840998
418.174324	13674.757431
418.553753	13582.063215
418.933121	14059.689857
419.312428	13895.945618
419.691674	13807.460765
420.070859	14264.595117
420.449983	13924.352520
420.829045	14468.005674
421.208047	14229.191093
421.586988	14686.060784
421.965867	14931.454071
422.344686	14933.720069
422.723444	15497.605895
423.102141	14205.928689
423.480777	15390.758639
423.859352	14887.525456
424.237866	15982.227137
424.616319	15704.416711
424.994712	16348.895462
425.373044	16136.730941
425.751314	16831.197774
426.129524	15963.078314
426.507673	17040.299795
426.885762	16764.853669
427.263789	16942.115762
427.641756	17131.471583
428.019662	17184.665838
428.397508	17228.725523
428.775292	17524.275770
429.153016	17507.309766
429.530679	17577.560766
429.908282	17605.382894
430.285824	17350.688678
430.663305	18057.758396
431.040726	17671.180034
431.418086	17507.355137
431.795385	18139.646899
432.172624	18572.185461
432.549802	18140.473648
432.926920	18359.854581
433.303977	18232.643585
433.680974	18488.837544
434.057910	18804.781779
434.434786	18836.873764
434.811601	18762.370551
435.188355	19809.801333
435.565050	19471.799529
435.941683	19429.456357
436.318257	20329.249387
436.694770	20126.131216
437.071222	20721.499047
437.447614	19799.822369
437.823946	19825.731379
438.200218	20013.456387
438.576429	19778.329409
438.952580	20098.684654
439.328670	20055.343334
439.704700	20482.286215
440.080670	20039.569563
440.456580	20658.512350
440.832429	20832.593475
441.208218	19835.634726
441.583947	20279.105030
441.959616	20399.553318
442.335224	20650.229735
442.710773	20799.737755
443.086261	21340.378820
443.461689	20674.472643
443.837057	20842.012871
444.212365	21493.065287
444.587612	21498.441678
444.962800	21095.676171
445.337927	21531.892254
445.712995	20251.061091
446.088002	22136.898771
446.462949	22338.222291
446.837837	22517.016895
447.212664	22529.798740
447.587431	25481.686704
447.962139	28457.646178
448.336786	30755.008370
448.711374	29100.151318
449.085901	25371.771906
449.460369	25387.991819
449.834776	25369.783171
450.209124	27924.352595
450.583412	27414.344101
450.957640	27903.318380
451.331808	26557.610087
451.705917	25185.337434
452.079965	25216.068308
452.453954	25602.341680
452.827883	25524.937284
453.201752	25319.676622
453.575562	25481.212836
453.949311	26613.922296
454.323001	26682.098861
454.696632	26457.465046
455.070202	28052.002172
455.443713	28226.229490
455.817164	28818.862495
456.190556	29383.133968
456.563888	28790.621951
456.937160	29210.295488
457.310373	27520.039453
457.683526	27960.500188
458.056619	27958.496330
458.429653	27930.601105
458.802628	28543.653303
459.175542	28671.953189
459.548398	30050.519723
459.921194	31675.112208
460.293930	32412.075969
460.666607	34495.027806
461.039224	36283.873686
461.411782	36636.935937
461.784280	35349.553794
462.156719	34785.594872
462.529099	34225.527721
462.901419	32892.316449
463.273680	31830.788080
463.645882	31979.945740
464.018024	31956.106124
464.390106	32887.741602
464.762130	35796.956198
465.134094	40130.263989
465.505999	45597.342403
465.877845	50119.408637
466.249631	51127.110085
466.621358	49260.930384
466.993026	47027.459776
467.364634	44883.769596
467.736184	42910.253647
468.107674	41645.541573
468.479105	40846.039779
468.850477	40126.646961
469.221790	38669.171246
469.593043	36889.933805
469.964238	35982.652141
470.335373	35936.044153
470.706449	37772.889380
471.077467	40525.631603
471.448425	45150.373538
471.819324	47910.521215
472.190164	45904.497386
472.560945	42273.744960
472.931667	39126.663519
473.302330	38038.568270
473.672934	37175.217742
474.043479	37683.809671
474.413965	36891.857005
474.784393	36522.801693
475.154761	37435.454706
475.525070	37452.725699
475.895321	36962.685216
476.265513	37562.693429
476.635645	38541.398161
477.005719	38374.036894
477.375734	38837.702060
477.745691	39539.619719
478.115588	40889.615513
478.485427	42929.215948
478.855207	46350.609254
479.224928	48952.787335
479.594591	50478.018678
479.964194	49341.157827
480.333739	49429.083112
480.703226	49457.706783
481.072653	50068.049362
481.442022	50485.255254
481.811333	50650.191726
482.180584	49308.735646
482.549777	48728.887007
482.918912	48141.033016
483.287988	47753.184283
483.657005	46869.916156
484.025964	46161.954154
484.394864	46086.399861
484.763706	45583.695999
485.132489	44621.485923
485.501213	44399.407973
485.869879	44445.824397
486.238487	43975.837624
486.607036	44070.490329
486.975527	43442.327271
487.343959	43559.317329
487.712333	43514.481306
488.080648	43304.247547
488.448905	43637.475378
488.817104	43332.535982
489.185244	44187.762691
489.553326	45740.657365
489.921350	48287.725552
490.289315	51001.212309
490.657222	51417.415012
491.025070	51502.857528
491.392861	50384.737167
491.760593	48937.358883
492.128267	47083.285513
492.495883	45420.339929
492.863440	43905.420267
493.230939	42434.509877
493.598380	41250.511717
493.965763	40774.820878
494.333088	39827.930869
494.700354	39198.452071
495.067563	38741.463913
495.434713	38392.439626
495.801805	38298.301119
496.168839	37747.053467
496.535815	37243.575788
496.902733	37063.354538
497.269593	36471.908725
497.636395	36211.427264
498.003139	36341.448704
498.369825	35662.732956
498.736453	35706.406993
499.103023	35061.870268
499.469535	34742.964355
499.835989	34586.640695
500.202385	34072.783280
500.568723	33856.540465
500.935003	33760.698048
501.301226	33353.599670
501.667390	33609.622229
502.033497	33554.774476
502.399546	32845.920189
502.765537	32044.590977
503.131470	32081.850145
503.497345	32105.840996
503.863163	30808.409313
504.228923	31014.526970
504.594625	31060.242674
504.960269	30232.777599
505.325856	30485.173049
505.691385	29755.897048
506.056856	29577.667054
506.422270	29610.800038
506.787625	29005.455763
507.152924	28884.805828
507.518164	28642.863211
507.883347	27808.642990
508.248472	27687.859465
508.613540	27743.307116
508.978550	27631.310322
509.343503	27177.326691
509.708398	27016.765941
510.073236	27054.211632
510.438016	26757.204492
510.802738	26112.849248
511.167403	26206.760903
511.532010	26038.459461
511.896561	25922.505361
512.261053	26112.425791
512.625488	25535.957246
512.989866	25145.691280
513.354186	24744.168417
513.718449	24438.830770
514.082655	24512.729044
514.446803	24021.143447
514.810894	24009.105172
515.174927	23640.264110
515.538904	23275.269448
515.902822	23323.662004
516.266684	22725.667732
516.630488	22646.826606
516.994235	22252.197522
517.357925	22246.984968
517.721558	22026.177389
518.085133	21864.928521
518.448651	21619.908280
518.812112	21210.238913
519.175516	20956.668874
519.538863	20815.874488
519.902152	20496.938328
520.265385	20410.845503
520.628560	20123.681215
520.991678	19734.315095
521.354739	19557.547036
521.717743	19400.129445
522.080690	19064.040759
522.443580	19003.201594
522.806413	18741.837932
523.169189	18430.602134
523.531908	18221.694198
523.894569	17890.250936
524.257174	17670.862441
524.619722	17500.872213
524.982213	17232.123260
525.344647	16947.189683
525.707025	16688.253336
526.069345	16572.155563
526.431608	16294.670291
526.793815	16138.848226
527.155964	15750.722229
527.518057	15552.725871
527.880093	15244.774385
528.242072	15169.136913
528.603995	14860.557804
528.965860	14621.909581
529.327669	14425.506227
529.689421	14183.881202
530.051117	13957.666985
530.412755	13778.259882
530.774337	13583.946086
531.135862	13329.322446
531.497331	13155.821054
531.858743	12931.189760
532.220098	12816.480824
532.581396	12534.629913
532.942638	12262.894077
533.303824	12139.199285
533.664953	11954.032663
534.026025	11713.635159
534.387040	11626.944957
534.747999	11446.393512
535.108902	11303.615432
535.469748	11044.379136
535.830537	10890.752493
536.191270	10766.011662
536.551947	10543.903465
536.912567	10439.402866
537.273131	10305.514861
537.633638	10060.608046
537.994089	9965.363005
538.354483	9755.184699
538.714821	9702.187048
539.075103	9619.277712
539.435328	9439.200134
539.795497	9278.205845
540.155609	9137.509762
540.515665	9076.224455
540.875665	8859.434675
541.235609	8771.529554
541.595496	8639.295048
541.955328	8599.679140
542.315102	8396.921412
542.674821	8237.956187
543.034483	8128.232953
543.394090	8002.166298
543.753640	7882.852269
544.113134	7883.195068
544.472571	7645.882750
544.831953	7679.023296
545.191278	7478.624828
545.550548	7334.515883
545.909761	7281.462780
546.268918	7195.528751
546.628019	7130.303782
546.987064	6983.107131
547.346053	6813.069012
547.704986	6797.169212
548.063863	6668.997876
548.422684	6586.436379
548.781449	6483.339741
549.140158	6423.012253
549.498811	6330.018088
549.857408	6193.566657
550.215949	6169.217883
550.574434	6085.653197
550.932864	5982.117979
551.291237	5957.103774
551.649555	5851.544533
552.007817	5792.172343
552.366022	5690.842630
552.724173	5629.043125
553.082267	5580.595116
553.440305	5533.180544
553.798288	5418.423718
554.156215	5366.968660
554.514086	5313.335825
554.871902	5230.257609
555.229661	5166.403834
555.587365	5096.541003
555.945014	5040.795924
556.302606	4976.921984
556.660143	4934.082259
557.017625	4876.663517
557.375050	4808.081139
557.732421	4770.138895
558.089735	4715.381882
558.446994	4657.965660
558.804197	4628.618583
559.161345	4575.530192
559.518437	4492.653623
559.875474	4455.023930
560.232455	4417.963887
560.589381	4378.766395
560.946251	4325.320082
561.303065	4302.765960
561.659825	4250.171602
562.016528	4201.950445
562.373177	4151.107888
562.729770	4129.244403
563.086307	4077.630550
563.442789	4057.256727
563.799216	4023.052498
564.155587	3979.592710
564.511904	3947.074747
564.868164	3920.134821
565.224370	3896.547262
565.580520	3861.740616
565.936615	3834.341945
566.292654	3798.690905
566.648638	3783.325468
567.004567	3752.806322
567.360441	3730.894947
567.716260	3699.382694
568.072023	3685.824511
568.427732	3662.289884
568.783385	3630.664206
569.138982	3620.206332
569.494525	3598.980554
569.850013	3571.317222
570.205445	3558.827763
570.560823	3539.550391
570.916145	3519.350488
571.271412	3502.729803
571.626625	3485.761280
571.981782	3469.067499
572.336884	3446.715023
572.691931	3439.773354
573.046923	3417.370466
573.401860	3403.542581
573.756743	3390.672515
574.111570	3380.827142
574.466342	3364.511447
574.821059	3353.859489
575.175722	3332.981551
575.530330	3325.258503
575.884882	3311.972542
576.239380	3301.265131
576.593823	3291.240797
576.948211	3279.338632
577.302544	3267.617950
577.656823	3256.754263
578.011047	3250.941813
578.365216	3240.609968
578.719330	3228.362485
579.073389	3219.064077
579.427394	3215.111812
579.781344	3210.572253
580.135239	3200.182435
580.489080	3192.262782
580.842866	3179.052438
581.196597	3177.368693
581.550273	3174.197807
581.903895	3166.197496
582.257463	3165.726148
582.610975	3150.950526
582.964434	3151.482368
583.317837	3141.926861
583.671186	3134.962507
584.024481	3134.405459
584.377721	3121.885754
584.730906	3122.851135
585.084037	3119.922224
585.437113	3105.996037
585.790135	3106.832868
586.143103	3093.698142
586.496016	3095.792742
586.848874	3085.899477
587.201679	3087.646237
587.554428	3071.509503
587.907124	3074.637539
588.259765	3066.112948
588.612352	3069.803073
588.964884	3059.398131
589.317362	3058.591547
589.669786	3053.865465
590.022155	3048.247099
590.374470	3052.592574
590.726731	3044.367931
591.078937	3033.211858
591.431090	3034.177239
591.783188	3024.538553
592.135232	3020.082173
592.487222	3019.497399
592.839157	3019.555372
593.191038	3011.847448
593.542866	3003.829493
593.894639	2997.097032
594.246358	2998.821106
594.598022	2995.546877
594.949633	2988.166627
595.301190	2986.097234
595.652692	2985.255361
596.004141	2982.384424
596.355535	2971.152733
596.706876	2968.029738
597.058162	2964.289202
597.409395	2969.131231
597.760573	2969.557208
598.111698	2959.863069
598.462768	2958.885085
598.813785	2955.878037
599.164748	2949.604321
599.515657	2953.458283
599.866511	2943.870009
600.217312	2949.175823
600.568060	2938.475974
600.918753	2946.123404
601.269392	2940.051335
601.619978	2937.117383
601.970510	2938.085285
602.320988	2937.369441
602.671412	2940.240378
603.021783	2934.732917
603.372100	2927.713111
603.722363	2928.749068
604.072572	2929.744696
604.422728	2929.233018
604.772830	2918.356729
605.122878	2917.557706
605.472872	2918.576019
605.822813	2916.534352
606.172701	2915.508477
606.522534	2918.044178
606.872314	2918.797830
607.222041	2913.214752
607.571714	2915.606780
607.921333	2908.987745
608.270899	2910.147210
608.620411	2911.099988
608.969870	2908.897004
609.319276	2908.758372
609.668627	2908.183681
610.017926	2909.900193
610.367171	2910.416912
610.716362	2907.319123
611.065500	2907.956829
611.414585	2907.372055
611.763616	2908.405491
612.112594	2908.813825
612.461518	2909.670821
612.810389	2907.790471
613.159207	2903.835685
613.507971	2905.012795
613.856682	2906.389030
614.205340	2904.760737
614.553945	2908.710481
614.902496	2903.185377
615.250994	2908.723084
615.599439	2905.791653
615.947830	2907.009092
616.296169	2904.768299
616.644454	2905.635377
616.992686	2905.960532
617.340864	2909.701068
617.688990	2903.533216
618.037063	2906.744431
618.385082	2907.175450
618.733048	2909.146541
619.080961	2905.645460
619.428821	2904.952301
619.776628	2904.990110
620.124382	2902.106570
620.472083	2900.826117
620.819731	2900.823596
621.167326	2898.976013
621.514868	2897.650190
621.862357	2891.623490
622.209793	2888.356823
622.557176	2885.770711
622.904506	2881.165617
623.251783	2875.766541
623.599007	2874.322250
623.946179	2870.687578
624.293297	2869.475181
624.640363	2864.111393
624.987376	2865.021321
625.334336	2862.190713
625.681243	2858.009076
626.028097	2855.087728
626.374899	2853.482120
626.721647	2854.306349
627.068343	2853.958509
627.414987	2849.096316
627.761577	2844.450893
628.108115	2849.005576
628.454600	2842.225224
628.801032	2844.828980
629.147412	2841.849658
629.493739	2839.465192
629.840014	2839.719770
630.186236	2839.528206
630.532405	2835.616271
630.878521	2835.041579
631.224585	2833.753565
631.570597	2828.019252
631.916556	2835.084429
632.262462	2832.475632
632.608316	2831.127123
632.954117	2825.607060
633.299866	2827.994046
633.645562	2824.918942
633.991206	2821.385094
634.336797	2817.150524
634.682336	2816.956440
635.027823	2813.467962
635.373257	2813.225986
635.718639	2810.707930
636.063968	2810.423105
636.409245	2801.132258
636.754470	2802.752989
637.099642	2799.123358
637.444762	2795.735703
637.789829	2796.955662
638.134845	2792.892492
638.479808	2794.170425
638.824719	2790.664302
639.169577	2786.699435
