Dividing Wavelength (nm)	Counts (n)	Blue Motor Position (mm): 0.000000	Red Motor Position (mm): 28.700000	
326.493990	2129.799280
326.888308	2129.799280
327.282561	2129.799280
327.676750	2093.056830
328.070874	2092.635894
328.464933	2096.885586
328.858929	2102.456061
329.252859	2112.755139
329.646726	2125.859618
330.040528	2135.193314
330.434265	2155.917498
330.827938	2173.296876
331.221547	2192.052489
331.615091	2208.098481
332.008571	2228.263097
332.401986	2248.916704
332.795338	2264.652666
333.188625	2287.400873
333.581847	2304.019036
333.975006	2321.247179
334.368100	2341.696620
334.761129	2359.726307
335.154095	2374.690972
335.546996	2394.537995
335.939833	2411.130953
336.332606	2426.077974
336.725315	2438.748914
337.117960	2448.264092
337.510540	2454.368929
337.903056	2467.271762
338.295508	2477.895994
338.687896	2483.448825
339.080220	2492.427120
339.472480	2500.437513
339.864676	2500.387102
340.256807	2508.402537
340.648875	2509.977897
341.040879	2513.741118
341.432818	2513.728516
341.824694	2515.324041
342.216506	2516.884278
342.608253	2516.198681
342.999937	2516.027282
343.391557	2516.758249
343.783113	2516.057529
344.174605	2512.526200
344.566033	2513.967970
344.957397	2513.214318
345.348697	2508.473113
345.739934	2506.406240
346.131106	2504.460354
346.522215	2502.040600
346.913260	2500.336690
347.304241	2500.777791
347.695159	2500.785353
348.086012	2497.470794
348.476802	2495.043479
348.867528	2496.036586
349.258191	2492.883344
349.648789	2494.393170
350.039324	2490.680360
350.429796	2490.876965
350.820203	2489.339413
351.210548	2487.995946
351.600828	2487.912767
351.991045	2484.673825
352.381198	2483.136273
352.771288	2484.938486
353.161314	2483.965543
353.551276	2486.619711
353.941175	2483.227014
354.331010	2486.523929
354.720782	2485.684577
355.110490	2485.324134
355.500135	2485.026706
355.889717	2485.341778
356.279235	2487.759012
356.668689	2485.619042
357.058080	2483.305152
357.447408	2487.678353
357.836672	2482.218783
358.225873	2487.446460
358.615010	2483.184164
359.004084	2487.985863
359.393095	2488.517705
359.782043	2489.319249
360.170927	2486.534011
360.559748	2491.270175
360.948505	2490.450988
361.337199	2493.183293
361.725830	2491.335710
362.114398	2494.493993
362.502903	2494.436020
362.891344	2495.862666
363.279722	2492.283447
363.668037	2496.540702
364.056289	2495.028355
364.444478	2494.796462
364.832603	2499.323418
365.220665	2497.753099
365.608665	2498.451299
365.996601	2499.671258
366.384474	2500.036742
366.772284	2500.893738
367.160031	2502.557319
367.547715	2504.707371
367.935336	2507.013699
368.322893	2513.080727
368.710388	2513.297497
369.097820	2520.259330
369.485189	2522.026255
369.872495	2530.255938
370.259738	2535.725590
370.646918	2545.097095
371.034035	2548.830070
371.421090	2560.729713
371.808081	2571.611044
372.195010	2580.130594
372.581875	2594.427306
372.968678	2607.337701
373.355418	2618.415637
373.742096	2635.119500
374.128710	2649.544762
374.515262	2666.341887
374.901751	2680.205060
375.288177	2693.032276
375.674540	2716.639999
376.060841	2734.717577
376.447079	2757.329672
376.833254	2774.048659
377.219367	2789.245217
377.605417	2824.233346
377.991404	2832.359686
378.377329	2857.991432
378.763191	2872.898124
379.148991	2910.936151
379.534727	2937.271138
379.920402	2964.702577
380.306013	2975.528455
380.691563	3028.861342
381.077049	3048.967984
381.462474	3066.301992
381.847835	3103.684668
382.233134	3126.790797
382.618371	3126.561424
383.003545	3191.630117
383.388657	3201.982127
383.773706	3232.007239
384.158693	3249.096751
384.543618	3276.651697
384.928480	3312.726194
385.313280	3358.451980
385.698017	3357.204295
386.082692	3409.087850
386.467305	3419.374325
386.851856	3447.882050
387.236344	3472.450113
387.620770	3501.192252
388.005133	3530.216695
388.389435	3554.794840
388.773674	3565.592992
389.157851	3608.440279
389.541965	3626.210346
389.926018	3589.334306
390.310008	3659.764266
390.693936	3680.332174
391.077802	3719.275088
391.461606	3704.539795
391.845348	3775.100825
392.229027	3772.290382
392.612645	3785.097433
392.996200	3862.194320
393.379694	3902.997419
393.763125	3964.849856
394.146494	3933.259465
394.529801	3995.361440
394.913047	4042.254253
395.296230	4010.053882
395.679351	4061.390473
396.062410	4088.249740
396.445408	4070.280547
396.828343	4104.187348
397.211217	4129.471255
397.594028	4048.182650
397.976778	4114.259574
398.359466	4143.281496
398.742092	4170.279396
399.124656	4091.198815
399.507158	4170.980116
399.889598	4199.230742
400.271977	4257.350205
400.654294	4228.915577
401.036549	4239.055858
401.418742	4205.353224
401.800874	4306.294768
402.182944	4331.545907
402.564952	4393.562182
402.946898	4381.271849
403.328783	4379.005850
403.710606	4289.878250
404.092367	4484.257581
404.474067	4449.503866
404.855705	4461.395948
405.237282	4385.206469
405.618797	4495.368284
406.000250	4529.272564
406.381642	4607.579327
406.762972	4573.130602
407.144240	4581.330039
407.525447	4582.194597
407.906593	4642.799349
408.287677	4686.594373
408.668700	4613.502683
409.049661	4662.827853
409.430560	4705.297053
409.811399	4632.061691
410.192176	4793.010610
410.572891	4733.784614
410.953545	4831.590560
411.334138	4711.860636
411.714669	4782.787150
412.095139	4679.690512
412.475547	4819.610258
412.855894	4799.554027
413.236180	4807.609791
413.616405	4761.377369
413.996568	4850.850288
414.376670	4790.888284
414.756711	4748.804732
415.136691	4775.008649
415.516609	4856.347667
415.896466	4890.834200
416.276262	4925.822328
416.655997	4910.623250
417.035670	5090.988173
417.415283	5181.847409
417.794834	5128.713647
418.174324	5083.214713
418.553753	4988.161237
418.933121	5171.084545
419.312428	5238.716665
419.691674	5178.643756
420.070859	5305.680832
420.449983	5218.395774
420.829045	5335.027910
421.208047	5240.244135
421.586988	5305.542201
421.965867	5323.365200
422.344686	5454.984686
422.723444	5307.417510
423.102141	5124.302638
423.480777	5425.085602
423.859352	5194.430129
424.237866	5451.896979
424.616319	5443.329538
424.994712	5556.221137
425.373044	5427.996869
425.751314	5572.556997
426.129524	5375.558787
426.507673	5572.541873
426.885762	5655.115973
427.263789	5583.007308
427.641756	5466.629751
428.019662	5586.820941
428.397508	5593.238330
428.775292	5543.499786
429.153016	5640.458818
429.530679	5566.520215
429.908282	5652.953318
430.285824	5524.517321
430.663305	5797.571419
431.040726	5530.659967
431.418086	5534.166089
431.795385	5639.669878
432.172624	5652.066075
432.549802	5643.833871
432.926920	5658.528834
433.303977	5663.123846
433.680974	5700.919897
434.057910	5721.041663
434.434786	5727.645574
434.811601	5699.457962
435.188355	5930.811636
435.565050	5808.558614
435.941683	5782.528616
436.318257	6001.909549
436.694770	5984.870449
437.071222	6017.315315
437.447614	5946.620694
437.823946	5862.241861
438.200218	6017.700963
438.576429	5881.403287
438.952580	5979.388194
439.328670	6024.889649
439.704700	5933.301966
440.080670	5918.090284
440.456580	6192.901224
440.832429	6069.934879
441.208218	5918.415438
441.583947	6073.826650
441.959616	6073.844294
442.335224	6003.195043
442.710773	6141.526825
443.086261	6165.678993
443.461689	5964.216842
443.837057	6113.989522
444.212365	6263.883191
444.587612	6156.622561
444.962800	6309.238452
445.337927	6290.271111
445.712995	5901.010855
446.088002	6479.145501
446.462949	6305.467669
446.837837	6242.516260
447.212664	6413.552528
447.587431	6554.064609
447.962139	7096.976714
448.336786	8021.209257
448.711374	7761.859536
449.085901	6831.940571
449.460369	6758.047338
449.834776	6688.418921
450.209124	7078.715134
450.583412	7226.269707
450.957640	7373.002572
451.331808	7140.073538
451.705917	6691.930085
452.079965	6612.846984
452.453954	6823.138716
452.827883	6698.604572
453.201752	6790.237626
453.575562	6586.864877
453.949311	6783.900895
454.323001	6676.443660
454.696632	6746.296408
455.070202	6881.258179
455.443713	7035.693927
455.817164	7131.178422
456.190556	7203.334978
456.563888	7269.991634
456.937160	7311.301370
457.310373	6967.971066
457.683526	6988.667523
458.056619	6874.936572
458.429653	6857.335383
458.802628	6783.154805
459.175542	6887.118520
459.548398	7224.802731
459.921194	7375.210597
460.293930	7366.411263
460.666607	7865.261163
461.039224	8147.422105
461.411782	8264.288654
461.784280	8269.634798
462.156719	8155.276223
462.529099	8024.271758
462.901419	7614.617514
463.273680	7503.034094
463.645882	7498.713826
464.018024	7355.729058
464.390106	7501.178950
464.762130	7849.862958
465.134094	8259.076101
465.505999	9168.868259
465.877845	10277.821283
466.249631	10853.122801
466.621358	10486.973714
466.993026	9878.861847
467.364634	9619.562537
467.736184	9256.337320
468.107674	8917.924662
468.479105	8905.324298
468.850477	8670.320829
469.221790	8435.753420
469.593043	8109.293338
469.964238	7944.664377
470.335373	7924.134278
470.706449	7937.379910
471.077467	7879.948565
471.448425	8949.870454
471.819324	9801.986771
472.190164	9796.101224
472.560945	8708.210142
472.931667	7984.756674
473.302330	7830.164650
473.672934	7482.972823
474.043479	7727.536840
474.413965	7634.409084
474.784393	7477.745146
475.154761	7556.798000
475.525070	7570.441883
475.895321	7383.571351
476.265513	7462.780481
476.635645	7543.761576
477.005719	7470.916903
477.375734	7498.060996
477.745691	7608.162317
478.115588	7636.750700
478.485427	7742.851865
478.855207	8045.172382
479.224928	8513.109926
479.594591	8863.213019
479.964194	8654.854569
480.333739	8554.212974
480.703226	8388.800113
481.072653	8364.035445
481.442022	8401.075323
481.811333	8443.085778
482.180584	8236.645487
482.549777	7952.538659
482.918912	7759.979185
483.287988	7681.836260
483.657005	7598.284176
484.025964	7324.292423
484.394864	7306.179557
484.763706	7198.064451
485.132489	6989.547205
485.501213	6878.636779
485.869879	6835.723957
486.238487	6654.554970
486.607036	6636.051415
486.975527	6429.994251
487.343959	6441.757784
487.712333	6373.767742
488.080648	6264.520897
488.448905	6188.991809
488.817104	6080.659934
489.185244	6106.823522
489.553326	6079.558442
489.921350	6216.007353
490.289315	6524.205855
490.657222	6572.883237
491.025070	6434.034736
491.392861	6299.526669
491.760593	6069.834056
492.128267	5845.676630
492.495883	5647.488707
492.863440	5449.923367
493.230939	5262.437815
493.598380	5161.065252
493.965763	5034.406262
494.333088	4948.570535
494.700354	4845.526830
495.067563	4803.985202
495.434713	4680.988610
495.801805	4652.276718
496.168839	4570.413421
496.535815	4487.405781
496.902733	4429.666926
497.269593	4345.983772
497.636395	4312.848268
498.003139	4245.909306
498.369825	4167.516843
498.736453	4137.040548
499.103023	4073.743820
499.469535	4018.883463
499.835989	3962.883806
500.202385	3904.872728
500.568723	3830.087211
500.935003	3825.328362
501.301226	3737.377871
501.667390	3733.768405
502.033497	3700.700956
502.399546	3639.072850
502.765537	3580.446752
503.131470	3546.073644
503.497345	3525.775438
503.863163	3445.706792
504.228923	3431.694905
504.594625	3406.647932
504.960269	3345.755834
505.325856	3329.482990
505.691385	3279.222686
506.056856	3262.949841
506.422270	3227.084552
506.787625	3194.919470
507.152924	3170.472395
507.518164	3142.015081
507.883347	3109.403857
508.248472	3079.431677
508.613540	3069.256108
508.978550	3035.114893
509.343503	3014.254599
509.708398	2995.844305
510.073236	2978.848055
510.438016	2957.511371
510.802738	2936.028494
511.167403	2920.481575
511.532010	2898.338307
511.896561	2893.314797
512.261053	2877.495657
512.625488	2856.685773
512.989866	2839.611385
513.354186	2829.324911
513.718449	2808.583083
514.082655	2801.964048
514.446803	2791.803603
514.810894	2785.025772
515.174927	2771.381889
515.538904	2761.402925
515.902822	2756.863366
516.266684	2744.351222
516.630488	2732.461660
516.994235	2728.567369
517.357925	2723.387583
517.721558	2717.416337
518.085133	2710.948536
518.448651	2707.245809
518.812112	2697.120651
519.175516	2693.327183
519.538863	2692.616380
519.902152	2685.064732
520.265385	2681.808147
520.628560	2678.302024
520.991678	2674.120387
521.354739	2671.758606
521.717743	2669.195180
522.080690	2666.493121
522.443580	2663.856598
522.806413	2658.926349
523.169189	2658.581030
523.531908	2655.909219
523.894569	2650.237921
524.257174	2650.023672
524.619722	2646.172230
524.982213	2648.183650
525.344647	2643.487816
525.707025	2640.735346
526.069345	2643.268525
526.431608	2640.072434
526.793815	2639.270890
527.155964	2636.888945
527.518057	2634.295272
527.880093	2634.161681
528.242072	2632.314098
528.603995	2632.387195
528.965860	2628.276134
529.327669	2627.220012
529.689421	2625.879065
530.051117	2626.108438
530.412755	2625.889147
530.774337	2624.550721
531.135862	2621.810854
531.497331	2621.084928
531.858743	2618.019906
532.220098	2621.256327
532.581396	2616.063939
532.942638	2615.620317
533.303824	2617.167951
533.664953	2616.295832
534.026025	2616.368928
534.387040	2617.868672
534.747999	2612.152003
535.108902	2615.524535
535.469748	2612.477158
535.830537	2614.642333
536.191270	2611.869699
536.551947	2611.995727
536.912567	2611.415995
537.273131	2611.678135
537.633638	2611.277363
537.994089	2612.094030
538.354483	2607.501539
538.714821	2612.540172
539.075103	2610.604369
539.435328	2609.961622
539.795497	2607.993051
540.155609	2610.647219
540.515665	2610.596807
540.875665	2609.139914
541.235609	2608.509770
541.595496	2606.876436
541.955328	2610.876591
542.315102	2607.667897
542.674821	2609.119749
543.034483	2609.696961
543.394090	2610.059924
543.753640	2607.446086
544.113134	2610.526231
544.472571	2607.680500
544.831953	2610.259050
545.191278	2610.259050
545.550548	2607.146137
545.909761	2609.979266
546.268918	2609.767537
546.628019	2609.863319
546.987064	2607.211672
547.346053	2608.711416
547.704986	2608.005654
548.063863	2609.021447
548.422684	2607.471292
548.781449	2607.569594
549.140158	2606.543720
549.498811	2607.824173
549.857408	2602.851074
550.215949	2602.016763
550.574434	2601.603389
550.932864	2605.369131
551.291237	2599.367637
551.649555	2607.057917
552.007817	2606.158071
552.366022	2606.503390
552.724173	2606.705037
553.082267	2606.321909
553.440305	2605.051538
553.798288	2603.113214
554.156215	2603.834099
554.514086	2606.246292
554.871902	2607.521703
555.229661	2605.946343
555.587365	2605.658997
555.945014	2606.705037
556.302606	2606.205962
556.660143	2603.234202
557.017625	2605.185129
557.375050	2603.166147
557.732421	2606.387444
558.089735	2605.545571
558.446994	2605.969028
558.804197	2602.709922
559.161345	2607.337701
559.518437	2606.321909
559.875474	2604.469285
560.232455	2607.594800
560.589381	2604.391147
560.946251	2606.858792
561.303065	2604.648246
561.659825	2605.477516
562.016528	2602.452823
562.373177	2605.626230
562.729770	2603.990375
563.086307	2606.715119
563.442789	2603.259408
563.799216	2606.952053
564.155587	2603.965169
564.511904	2604.537340
564.868164	2604.383585
565.224370	2602.888883
565.580520	2602.049531
565.936615	2606.722681
566.292654	2603.332505
566.648638	2605.669079
567.004567	2602.074737
567.360441	2603.473657
567.716260	2601.406784
568.072023	2601.215220
568.427732	2598.906372
568.783385	2598.402256
569.138982	2600.285127
569.494525	2598.742534
569.850013	2599.617174
570.205445	2601.714294
570.560823	2602.077257
570.916145	2600.083481
571.271412	2599.503748
571.626625	2601.842844
571.981782	2600.517020
572.336884	2602.412494
572.691931	2598.450147
573.046923	2598.308995
573.401860	2601.368975
573.756743	2601.023656
574.111570	2598.271186
574.466342	2600.106166
574.821059	2601.487442
575.175722	2600.448965
575.530330	2600.179263
575.884882	2598.863522
576.239380	2598.487956
576.593823	2598.286310
576.948211	2595.254056
577.302544	2597.341093
577.656823	2596.355548
578.011047	2599.070209
578.365216	2598.157760
578.719330	2595.289344
579.073389	2599.281937
579.427394	2595.959817
579.781344	2595.785897
580.135239	2597.081474
580.489080	2595.155753
580.842866	2596.295054
581.196597	2597.479725
581.550273	2598.359406
581.903895	2596.731114
582.257463	2599.841506
582.610975	2597.605754
582.964434	2594.197934
583.317837	2595.818665
583.671186	2597.043665
584.024481	2598.966865
584.377721	2595.571648
584.730906	2595.619539
585.084037	2597.920826
585.437113	2593.194744
585.790135	2595.639704
586.143103	2592.735999
586.496016	2593.620722
586.848874	2590.280957
587.201679	2593.860177
587.554428	2590.167531
587.907124	2593.429158
588.259765	2587.858683
588.612352	2593.411514
588.964884	2593.416555
589.317362	2591.972264
589.669786	2590.575865
590.022155	2594.664241
590.374470	2593.610639
590.726731	2593.066195
591.078937	2593.623242
591.431090	2591.367326
591.783188	2591.208530
592.135232	2591.697522
592.487222	2591.674836
592.839157	2592.037799
593.191038	2590.888416
593.542866	2590.013776
593.894639	2591.543766
594.246358	2589.441605
594.598022	2589.121492
594.949633	2589.343303
595.301190	2589.691142
595.652692	2592.078129
596.004141	2589.870103
596.355535	2588.579568
596.706876	2589.108889
597.058162	2589.751636
597.409395	2586.628641
597.760573	2590.500247
598.111698	2589.423961
598.462768	2589.761718
598.813785	2591.568972
599.164748	2589.867583
599.515657	2588.912284
599.866511	2586.177458
600.217312	2587.054619
600.568060	2587.510843
600.918753	2587.515884
601.269392	2586.426995
601.619978	2585.738878
601.970510	2587.392376
602.320988	2588.607294
602.671412	2588.841708
603.021783	2588.317428
603.372100	2588.730803
603.722363	2586.260637
604.072572	2589.245000
604.422728	2589.015628
604.772830	2584.375246
605.122878	2581.474062
605.472872	2584.145873
605.822813	2582.240317
606.172701	2583.568661
606.522534	2585.925400
606.872314	2589.640731
607.222041	2589.371029
607.571714	2587.772983
607.921333	2588.556883
608.270899	2586.580750
608.620411	2591.140474
608.969870	2587.142839
609.319276	2591.170721
609.668627	2591.881524
610.017926	2595.995105
610.367171	2592.814137
610.716362	2595.521237
611.065500	2591.422779
611.414585	2594.046699
611.763616	2593.330855
612.112594	2588.322469
612.461518	2591.087542
612.810389	2590.580906
613.159207	2590.084352
613.507971	2589.618046
613.856682	2590.243149
614.205340	2588.385483
614.553945	2590.240628
614.902496	2588.224167
615.250994	2588.130905
615.599439	2590.981678
615.947830	2590.787593
616.296169	2589.504620
616.644454	2586.870617
616.992686	2588.549321
617.340864	2588.163673
617.688990	2587.200812
618.037063	2588.622418
618.385082	2587.105030
618.733048	2588.778693
619.080961	2590.338931
619.428821	2588.322469
619.776628	2587.326841
620.124382	2590.023858
620.472083	2586.663929
620.819731	2588.871955
621.167326	2586.134608
621.514868	2589.086204
621.862357	2587.730133
622.209793	2585.549834
622.557176	2588.196440
622.904506	2583.724937
623.251783	2582.144535
623.599007	2580.130594
623.946179	2582.661253
624.293297	2579.571026
624.640363	2584.196285
624.987376	2583.838363
625.334336	2582.610842
625.681243	2582.525142
626.028097	2581.771490
626.374899	2584.019844
626.721647	2584.803744
627.068343	2582.686459
627.414987	2581.136304
627.761577	2582.898187
628.108115	2581.257292
628.454600	2579.051787
628.801032	2580.669998
629.147412	2581.501788
629.493739	2580.826273
629.840014	2581.791654
630.186236	2581.940368
630.532405	2580.997673
630.878521	2582.555389
631.224585	2580.758218
631.570597	2582.386510
631.916556	2579.843248
632.262462	2581.209401
632.608316	2578.935841
632.954117	2579.140007
633.299866	2582.101685
633.645562	2577.960377
633.991206	2577.141190
634.336797	2577.415933
634.682336	2577.292424
635.027823	2576.105233
635.373257	2575.706982
635.718639	2575.815366
636.063968	2573.824111
636.409245	2574.381158
636.754470	2573.400654
637.099642	2573.740932
637.444762	2573.899728
637.789829	2573.307392
638.134845	2573.312433
638.479808	2573.899728
638.824719	2574.030798
639.169577	2573.667835
639.514383	2573.312433
639.859137	2571.812690
640.203839	2577.277301
640.548489	2573.335119
640.893086	2570.131465
641.237632	2568.389747
641.582125	2570.542319
641.926566	2569.045097
642.270955	2570.784295
642.615292	2572.014336
642.959576	2572.924265
643.303809	2572.793195
643.647990	2573.713205
643.992118	2576.871488
644.336195	2570.489387
