Dividing Wavelength (nm)	Counts (n)	Blue Motor Position (mm): 0.000000	Red Motor Position (mm): 18.500000	
326.493990	2081.212639
326.888308	2081.212639
327.282561	2081.212639
327.676750	2057.488969
328.070874	2057.804041
328.464933	2067.024312
328.858929	2078.334140
329.252859	2088.391242
329.646726	2104.467482
330.040528	2118.068515
330.434265	2139.868985
330.827938	2158.362458
331.221547	2180.036898
331.615091	2196.370237
332.008571	2216.897815
332.401986	2241.110477
332.795338	2260.408014
333.188625	2282.248813
333.581847	2296.238015
333.975006	2316.095120
334.368100	2334.124807
334.761129	2352.459483
335.154095	2367.303161
335.546996	2385.826881
335.939833	2403.687689
336.332606	2416.774524
336.725315	2425.364650
337.117960	2437.019798
337.510540	2443.931220
337.903056	2452.241562
338.295508	2459.405042
338.687896	2466.616412
339.080220	2476.328195
339.472480	2480.489668
339.864676	2482.206181
340.256807	2488.293374
340.648875	2487.131388
341.040879	2492.643890
341.432818	2488.661378
341.824694	2489.294043
342.216506	2489.601553
342.608253	2491.370998
342.999937	2486.092910
343.391557	2485.740029
343.783113	2486.957468
344.174605	2485.803044
344.566033	2481.931438
344.957397	2482.584267
345.348697	2479.209215
345.739934	2477.585963
346.131106	2476.728967
346.522215	2474.568832
346.913260	2471.287041
347.304241	2470.377113
347.695159	2471.143368
348.086012	2471.639922
348.476802	2468.524489
348.867528	2465.782101
349.258191	2464.738582
349.648789	2465.968624
350.039324	2460.365382
350.429796	2462.845629
350.820203	2461.723973
351.210548	2459.768005
351.600828	2460.995526
351.991045	2460.667851
352.381198	2461.703808
352.771288	2459.455453
353.161314	2460.015021
353.551276	2461.441668
353.941175	2457.864969
354.331010	2464.287399
354.720782	2460.398149
355.110490	2463.221195
355.500135	2460.932511
355.889717	2463.410238
356.279235	2460.524178
356.668689	2465.265383
357.058080	2463.861422
357.447408	2463.871504
357.836672	2459.599126
358.225873	2465.144395
358.615010	2460.922429
359.004084	2465.777060
359.393095	2469.651187
359.782043	2471.392906
360.170927	2469.822586
360.559748	2468.655559
360.948505	2473.341312
361.337199	2475.945067
361.725830	2469.507514
362.114398	2473.563122
362.502903	2473.243009
362.891344	2473.837865
363.279722	2476.204687
363.668037	2478.117805
364.056289	2474.115129
364.444478	2476.086220
364.832603	2476.673514
365.220665	2479.902373
365.608665	2478.596714
365.996601	2481.593680
366.384474	2479.693165
366.772284	2484.041161
367.160031	2478.407671
367.547715	2484.540235
367.935336	2481.996973
368.322893	2483.257261
368.710388	2481.026551
369.097820	2486.370174
369.485189	2488.290853
369.872495	2487.181799
370.259738	2489.200782
370.646918	2493.324445
371.034035	2491.519712
371.421090	2495.199755
371.808081	2498.431134
372.195010	2499.842657
372.581875	2506.280211
372.968678	2511.162568
373.355418	2515.518125
373.742096	2525.194620
374.128710	2536.330529
374.515262	2547.461397
374.901751	2558.816596
375.288177	2573.942578
375.674540	2590.633838
376.060841	2609.444904
376.447079	2630.653038
376.833254	2653.416368
377.219367	2675.783968
377.605417	2708.816128
377.991404	2730.452761
378.377329	2766.035745
378.763191	2800.882721
379.148991	2840.269256
379.534727	2890.000239
379.920402	2935.005140
380.306013	2980.778817
380.691563	3038.399205
381.077049	3088.851073
381.462474	3143.045997
381.847835	3209.962273
382.233134	3280.757717
382.618371	3335.512210
383.003545	3415.641350
383.388657	3489.267402
383.773706	3578.750403
384.158693	3646.891680
384.543618	3737.299733
384.928480	3809.688182
385.313280	3909.450096
385.698017	4007.785363
386.082692	4120.971870
386.467305	4183.177188
386.851856	4296.106596
387.236344	4447.618475
387.620770	4510.678268
388.005133	4619.005103
388.389435	4757.465434
388.773674	4837.771015
389.157851	4968.548628
389.541965	5093.985138
389.926018	5114.827789
390.310008	5283.207369
390.693936	5402.665071
391.077802	5518.062123
391.461606	5643.370085
391.845348	5751.162557
392.229027	5870.723603
392.612645	6079.891158
392.996200	6195.096647
393.379694	6363.133428
393.763125	6572.908442
394.146494	6667.593914
394.529801	6794.273069
394.913047	7027.607916
395.296230	7022.632297
395.679351	7079.967861
396.062410	7325.131775
396.445408	7232.540902
396.828343	7382.217801
397.211217	7509.280084
397.594028	7400.323105
397.976778	7598.180832
398.359466	7757.221674
398.742092	7744.674242
399.124656	7882.504430
399.507158	8067.628202
399.889598	8091.866069
400.271977	8297.388871
400.654294	8333.266763
401.036549	8527.688943
401.418742	8556.940238
401.800874	8845.758024
402.182944	8929.645345
402.564952	9282.750445
402.946898	9125.501733
403.328783	9171.015791
403.710606	9361.941931
404.092367	9614.032391
404.474067	9965.468870
404.855705	9773.965517
405.237282	9734.581503
405.618797	10151.668928
406.000250	10389.941585
406.381642	10741.816644
406.762972	10695.682525
407.144240	10500.531898
407.525447	10753.519683
407.906593	10699.357526
408.287677	10958.014089
408.668700	11101.651685
409.049661	11087.901938
409.430560	11246.315157
409.811399	11222.044521
410.192176	11372.401976
410.572891	11449.917278
410.953545	11919.591500
411.334138	11404.380535
411.714669	11976.571662
412.095139	11327.457569
412.475547	11795.022068
412.855894	11655.674493
413.236180	11962.461472
413.616405	11655.767754
413.996568	11919.188207
414.376670	11877.157587
414.756711	11755.091088
415.136691	12013.268741
415.516609	12173.164059
415.896466	12230.189591
416.276262	12485.314825
416.655997	12921.109973
417.035670	12929.924430
417.415283	13504.386596
417.794834	13555.125809
418.174324	13282.149849
418.553753	13148.168583
418.933121	13577.495930
419.312428	13358.223381
419.691674	13225.812434
420.070859	13614.866003
420.449983	13232.781830
420.829045	13680.988298
421.208047	13388.268658
421.586988	13730.706677
421.965867	13878.218401
422.344686	13793.889979
422.723444	14217.467890
423.102141	12955.747741
423.480777	13923.825719
423.859352	13384.651630
424.237866	14225.541298
424.616319	13875.576836
424.994712	14304.964677
425.373044	14004.862268
425.751314	14435.366724
426.129524	13602.253036
426.507673	14322.049147
426.885762	13969.763234
427.263789	13959.507006
427.641756	13948.517291
428.019662	13838.526876
428.397508	13707.708933
428.775292	13751.312394
429.153016	13564.242736
429.530679	13447.300570
429.908282	13290.371971
430.285824	12929.662290
430.663305	13222.951580
431.040726	12777.038837
431.418086	12475.267806
431.795385	12695.077237
432.172624	12783.451184
432.549802	12303.215746
432.926920	12227.918551
433.303977	11961.901904
433.680974	11915.737538
434.057910	11887.307950
434.434786	11706.708614
434.811601	11463.581326
435.188355	11801.731843
435.565050	11422.228741
435.941683	11197.408403
436.318257	11410.797924
436.694770	11110.902202
437.071222	11165.651654
437.447614	10532.094562
437.823946	10329.246093
438.200218	10188.602942
438.576429	9885.122960
438.952580	9805.001381
439.328670	9589.890305
439.704700	9542.581597
440.080670	9193.779121
440.456580	9203.740441
440.832429	9059.313904
441.208218	8527.893110
441.583947	8479.878640
441.959616	8336.611568
442.335224	8216.934576
442.710773	8071.991320
443.086261	8037.282976
443.461689	7673.919128
443.837057	7531.914865
444.212365	7521.477156
444.587612	7345.361926
444.962800	7073.222797
445.337927	7000.047928
445.712995	6557.114507
446.088002	6789.859539
446.462949	6670.169944
446.837837	6550.379526
447.212664	6385.654783
447.587431	6751.153560
447.962139	7096.638957
448.336786	7333.091757
448.711374	6884.358489
449.085901	6132.263705
449.460369	5942.527277
449.834776	5785.759996
450.209124	5964.907480
450.583412	5766.505308
450.957640	5683.147309
451.331808	5383.695209
451.705917	5089.495991
452.079965	4963.638544
452.453954	4874.725193
452.827883	4752.245319
453.201752	4622.266729
453.575562	4528.526473
453.949311	4516.407539
454.323001	4422.987397
454.696632	4306.627484
455.070202	4323.086851
455.443713	4244.318822
455.817164	4189.004762
456.190556	4133.025269
456.563888	4019.400182
456.937160	3953.401396
457.310373	3793.375008
457.683526	3741.042790
458.056619	3668.518230
458.429653	3603.053806
458.802628	3567.382602
459.175542	3515.085672
459.548398	3513.706916
459.921194	3517.034077
460.293930	3497.819720
460.666607	3520.772093
461.039224	3525.301570
461.411782	3478.905310
461.784280	3393.798031
462.156719	3330.647496
462.529099	3276.197994
462.901419	3204.850543
463.273680	3148.566061
463.645882	3119.279477
464.018024	3095.860797
464.390106	3084.263623
464.762130	3115.223869
465.134094	3172.987930
465.505999	3246.792943
465.877845	3295.568627
466.249631	3280.286369
466.621358	3224.657237
466.993026	3172.178825
467.364634	3121.275774
467.736184	3076.467478
468.107674	3044.496481
468.479105	3020.321627
468.850477	3000.658607
469.221790	2975.072230
469.593043	2945.037036
469.964238	2926.876279
470.335373	2913.645771
470.706449	2931.045313
471.077467	2954.373253
471.448425	2998.644666
471.819324	3028.062319
472.190164	3000.847650
472.560945	2955.021041
472.931667	2920.443767
473.302330	2902.023391
473.672934	2891.396638
474.043479	2888.795403
474.413965	2880.109495
474.784393	2871.103473
475.154761	2878.440873
475.525070	2876.152189
475.895321	2872.560367
476.265513	2872.182280
476.635645	2887.189795
477.005719	2881.921790
477.375734	2885.306924
477.745691	2895.079201
478.115588	2901.612537
478.485427	2924.781680
478.855207	2958.141515
479.224928	2978.094402
479.594591	2997.112155
479.964194	2986.187975
480.333739	2988.083448
480.703226	2986.946668
481.072653	2993.840446
481.442022	2997.654079
481.811333	2999.708349
482.180584	2986.530773
482.549777	2980.763693
482.918912	2975.493167
483.287988	2972.118114
483.657005	2961.047740
484.025964	2957.483645
484.394864	2957.183696
484.763706	2951.396451
485.132489	2941.619133
485.501213	2942.115687
485.869879	2942.687858
486.238487	2935.116045
486.607036	2938.934719
486.975527	2932.608071
487.343959	2934.317022
487.712333	2935.786518
488.080648	2933.535643
488.448905	2935.476488
488.817104	2931.277206
489.185244	2943.665842
489.553326	2951.950978
489.921350	2978.593476
490.289315	3006.735718
490.657222	3013.937006
491.025070	3009.853671
491.392861	2998.377485
491.760593	2985.169662
492.128267	2965.799028
492.495883	2948.850669
492.863440	2934.972372
493.230939	2918.177768
493.598380	2907.682086
493.965763	2893.962586
494.333088	2889.468397
494.700354	2880.187633
495.067563	2878.173692
495.434713	2869.795294
495.801805	2875.214534
496.168839	2866.193390
496.535815	2863.103162
496.902733	2858.014117
497.269593	2855.024713
497.636395	2851.619414
498.003139	2851.896677
498.369825	2842.918382
498.736453	2847.082375
499.103023	2838.940912
499.469535	2837.539471
499.835989	2836.054851
500.202385	2832.659634
500.568723	2830.902792
500.935003	2831.739624
501.301226	2827.358861
501.667390	2830.065961
502.033497	2830.149140
502.399546	2827.860456
502.765537	2816.956440
503.131470	2821.735454
503.497345	2822.408448
503.863163	2811.469144
504.228923	2816.500216
504.594625	2818.582212
504.960269	2810.050059
505.325856	2816.117088
505.691385	2810.856644
506.056856	2811.287662
506.422270	2811.050728
506.787625	2811.335553
507.152924	2807.731128
507.518164	2809.908907
507.883347	2802.773154
508.248472	2805.689461
508.613540	2807.269863
508.978550	2810.433187
509.343503	2807.471509
509.708398	2809.354380
510.073236	2812.064000
510.438016	2813.011737
510.802738	2805.505459
511.167403	2811.774134
511.532010	2807.002682
511.896561	2811.816984
512.261053	2819.847542
512.625488	2810.599545
512.989866	2809.069555
513.354186	2809.949236
513.718449	2805.394554
514.082655	2810.138279
514.446803	2811.345636
514.810894	2814.229176
515.174927	2813.137766
515.538904	2811.993424
515.902822	2812.628609
516.266684	2807.640388
516.630488	2813.959474
516.994235	2807.688279
517.357925	2814.352684
517.721558	2813.142807
518.085133	2814.055256
518.448651	2816.487613
518.812112	2811.131387
519.175516	2811.161634
519.538863	2810.423105
519.902152	2812.575677
520.265385	2813.843527
520.628560	2813.737663
520.991678	2811.123825
521.354739	2810.975111
521.717743	2812.295893
522.080690	2808.366314
522.443580	2812.394196
522.806413	2812.048877
523.169189	2811.249854
523.531908	2809.498053
523.894569	2806.478402
524.257174	2807.824390
524.619722	2806.168371
524.982213	2808.346149
525.344647	2803.539409
525.707025	2803.602423
526.069345	2805.361786
526.431608	2803.736014
526.793815	2801.666620
527.155964	2799.146043
527.518057	2798.006743
527.880093	2792.958027
528.242072	2799.256949
528.603995	2794.586320
528.965860	2792.360650
529.327669	2792.053140
529.689421	2791.911988
530.051117	2787.989970
530.412755	2787.599281
530.774337	2785.378652
531.135862	2784.693055
531.497331	2784.352777
531.858743	2779.364556
532.220098	2782.245575
532.581396	2777.743825
532.942638	2774.875408
533.303824	2778.033691
533.664953	2774.792229
534.026025	2770.119080
534.387040	2774.333484
534.747999	2772.685027
535.108902	2772.947167
535.469748	2766.239912
535.830537	2763.593306
536.191270	2766.549943
536.551947	2765.377874
536.912567	2764.752771
537.273131	2764.271341
537.633638	2760.906371
537.994089	2761.110538
538.354483	2757.977461
538.714821	2761.100455
539.075103	2758.937800
539.435328	2757.939652
539.795497	2756.286153
540.155609	2754.514188
540.515665	2757.531318
540.875665	2751.988570
541.235609	2752.462438
541.595496	2752.321286
541.955328	2752.487644
542.315102	2751.844897
542.674821	2746.607138
543.034483	2746.541603
543.394090	2747.537231
543.753640	2742.173443
544.113134	2748.971439
544.472571	2743.325347
544.831953	2745.971953
545.191278	2742.206211
545.550548	2739.110942
545.909761	2740.424163
546.268918	2738.422825
546.628019	2742.904411
546.987064	2736.792012
547.346053	2734.833523
547.704986	2735.017525
548.063863	2735.998030
548.422684	2735.808987
548.781449	2731.702967
549.140158	2731.937380
549.498811	2729.933522
549.857408	2728.070815
550.215949	2729.540312
550.574434	2725.845146
550.932864	2726.500496
551.291237	2723.616956
551.649555	2726.646689
552.007817	2725.580485
552.366022	2721.837429
552.724173	2723.501009
553.082267	2725.993860
553.440305	2727.203737
553.798288	2720.521687
554.156215	2723.647203
554.514086	2720.657799
554.871902	2722.165104
555.229661	2720.650237
555.587365	2717.461707
555.945014	2717.320555
556.302606	2717.108826
556.660143	2716.140925
557.017625	2718.192674
557.375050	2713.907694
557.732421	2716.221583
558.089735	2717.617983
558.446994	2714.051367
558.804197	2716.892057
559.161345	2712.801160
559.518437	2709.685727
559.875474	2710.514997
560.232455	2711.646736
560.589381	2711.308979
560.946251	2712.090358
561.303065	2712.763352
561.659825	2709.610110
562.016528	2709.244626
562.373177	2706.194728
562.729770	2706.877805
563.086307	2706.703885
563.442789	2705.284800
563.799216	2707.049204
564.155587	2701.965200
564.511904	2703.792618
564.868164	2699.709284
565.224370	2704.710108
565.580520	2700.793132
565.936615	2701.584593
566.292654	2698.406146
566.648638	2700.359593
567.004567	2698.446475
567.360441	2700.984696
567.716260	2698.398584
568.072023	2699.300950
568.427732	2693.775846
568.783385	2694.216947
569.138982	2693.238963
569.494525	2691.875331
569.850013	2690.007583
570.205445	2694.663089
570.560823	2694.148891
570.916145	2689.188396
571.271412	2688.928776
571.626625	2690.080680
571.981782	2687.807120
572.336884	2687.464321
572.691931	2689.989939
573.046923	2685.374763
573.401860	2686.365350
573.756743	2683.199505
574.111570	2684.527849
574.466342	2686.990453
574.821059	2682.985256
575.175722	2680.363856
575.530330	2678.919565
575.884882	2676.038546
576.239380	2680.275636
576.593823	2679.622806
576.948211	2674.697599
577.302544	2674.135510
577.656823	2672.330777
578.011047	2676.845131
578.365216	2673.081909
578.719330	2670.488236
579.073389	2671.002433
579.427394	2668.635612
579.781344	2671.282217
580.135239	2668.275169
580.489080	2667.163595
580.842866	2668.179387
581.196597	2664.587565
581.550273	2665.197545
581.903895	2666.508245
582.257463	2666.795590
582.610975	2665.986485
582.964434	2664.698470
583.317837	2662.913902
583.671186	2662.359375
584.024481	2663.934736
584.377721	2661.701504
584.730906	2660.761329
585.084037	2664.643018
585.437113	2661.308294
585.790135	2660.105979
586.143103	2660.226967
586.496016	2657.739157
586.848874	2654.192706
587.201679	2656.083138
587.554428	2650.439567
587.907124	2652.629948
588.259765	2649.776655
588.612352	2656.781338
588.964884	2652.541728
589.317362	2655.916780
589.669786	2653.776811
590.022155	2651.495688
590.374470	2653.222284
590.726731	2653.935607
591.078937	2650.391676
591.431090	2647.631644
591.783188	2645.756335
592.135232	2646.552837
592.487222	2644.634678
592.839157	2646.930924
593.191038	2643.444966
593.542866	2645.370687
593.894639	2643.192908
594.246358	2642.507311
594.598022	2643.747435
594.949633	2638.116466
595.301190	2638.035808
595.652692	2639.795170
596.004141	2638.111425
596.355535	2638.282824
596.706876	2635.719397
597.058162	2634.159160
597.409395	2638.338277
597.760573	2637.030097
598.111698	2636.304171
598.462768	2635.477422
598.813785	2633.760909
599.164748	2632.051958
599.515657	2630.925260
599.866511	2631.005919
600.217312	2633.339973
600.568060	2632.157822
600.918753	2632.961886
601.269392	2629.929632
601.619978	2629.952317
601.970510	2633.801238
602.320988	2630.448871
602.671412	2632.172946
603.021783	2630.358130
603.372100	2626.284878
603.722363	2630.227060
604.072572	2630.973151
604.422728	2630.597585
604.772830	2622.967799
605.122878	2622.004938
605.472872	2624.399487
605.822813	2622.874537
606.172701	2625.359826
606.522534	2627.930815
606.872314	2628.318984
607.222041	2625.644652
607.571714	2626.196658
607.921333	2627.446864
608.270899	2626.176493
608.620411	2627.162039
608.969870	2624.951493
609.319276	2624.089456
609.668627	2624.820423
610.017926	2623.814713
610.367171	2625.511061
610.716362	2626.088273
611.065500	2626.864611
611.414585	2622.498972
611.763616	2626.274796
612.112594	2625.506020
612.461518	2627.812348
612.810389	2625.513582
613.159207	2627.295629
613.507971	2624.885958
613.856682	2627.376288
614.205340	2625.687501
614.553945	2624.636421
614.902496	2620.263220
615.250994	2624.782614
615.599439	2623.698766
615.947830	2622.400669
616.296169	2625.460649
616.644454	2627.000722
616.992686	2627.212450
617.340864	2625.546349
617.688990	2623.550052
618.037063	2627.439302
618.385082	2626.645321
618.733048	2622.680453
619.080961	2625.763119
619.428821	2626.481483
619.776628	2623.726492
620.124382	2624.187758
620.472083	2623.240021
620.819731	2622.327572
621.167326	2625.566514
621.514868	2621.972171
621.862357	2621.536111
622.209793	2622.793879
622.557176	2618.566872
622.904506	2614.465893
623.251783	2613.500512
623.599007	2615.799278
623.946179	2612.429267
624.293297	2612.719133
624.640363	2611.194184
624.987376	2614.891870
625.334336	2613.346757
625.681243	2612.467075
626.028097	2611.968001
626.374899	2613.598814
626.721647	2610.397682
627.068343	2610.710233
627.414987	2609.460027
627.761577	2609.959101
628.108115	2611.075717
628.454600	2606.611775
628.801032	2607.206631
629.147412	2607.499018
629.493739	2605.958946
629.840014	2606.609255
630.186236	2605.694285
630.532405	2606.490787
630.878521	2609.278546
631.224585	2604.270159
631.570597	2600.665734
631.916556	2602.596496
632.262462	2603.692947
632.608316	2602.215889
632.954117	2602.427617
633.299866	2601.736979
633.645562	2600.121290
633.991206	2599.990220
634.336797	2599.453337
634.682336	2601.676486
635.027823	2596.133737
635.373257	2598.956783
635.718639	2595.682554
636.063968	2594.177769
636.409245	2592.786411
636.754470	2594.815475
637.099642	2592.950248
637.444762	2591.901688
637.789829	2592.337748
638.134845	2590.873293
638.479808	2589.527305
638.824719	2589.587799
639.169577	2589.572675
639.514383	2588.740885
639.859137	2588.887078
640.203839	2588.014959
640.548489	2591.321956
640.893086	2582.225193
641.237632	2584.087900
641.582125	2583.538414
641.926566	2581.549679
642.270955	2585.186871
642.615292	2587.684763
642.959576	2586.835329
643.303809	2586.162335
