Dividing Wavelength (nm)	Counts (n)	Blue Motor Position (mm): 0.000000	Red Motor Position (mm): 38.000000	
326.493990	2140.179016
326.888308	2140.179016
327.282561	2140.179016
327.676750	2114.688421
328.070874	2115.585747
328.464933	2124.586727
328.858929	2127.954218
329.252859	2143.944758
329.646726	2155.907416
330.040528	2171.136741
330.434265	2187.694411
330.827938	2207.919520
331.221547	2227.557335
331.615091	2249.224214
332.008571	2266.845568
332.401986	2289.936573
332.795338	2307.305868
333.188625	2327.425113
333.581847	2346.314317
333.975006	2366.713346
334.368100	2381.302445
334.761129	2404.645508
335.154095	2417.807961
335.546996	2436.276228
335.939833	2456.871862
336.332606	2472.290231
336.725315	2481.969246
337.117960	2490.813951
337.510540	2502.375837
337.903056	2508.576456
338.295508	2516.937210
338.687896	2521.645648
339.080220	2529.955990
339.472480	2535.949922
339.864676	2540.302958
340.256807	2542.362269
340.648875	2544.950902
341.040879	2545.349153
341.432818	2547.494164
341.824694	2546.019627
342.216506	2547.408464
342.608253	2549.077086
342.999937	2548.391489
343.391557	2546.574153
343.783113	2547.766386
344.174605	2544.724050
344.566033	2543.277239
344.957397	2540.980993
345.348697	2538.820859
345.739934	2538.624254
346.131106	2536.567463
346.522215	2534.309026
346.913260	2530.906247
347.304241	2530.858356
347.695159	2531.969931
348.086012	2526.311236
348.476802	2525.653365
348.867528	2526.016328
349.258191	2522.651358
349.648789	2524.932480
350.039324	2519.538445
350.429796	2521.645648
350.820203	2521.522139
351.210548	2518.888137
351.600828	2520.589526
351.991045	2518.159690
352.381198	2515.066942
352.771288	2516.823784
353.161314	2519.321676
353.551276	2517.723630
353.941175	2517.305214
354.331010	2517.461490
354.720782	2518.411748
355.110490	2517.038033
355.500135	2517.814371
355.889717	2516.521315
356.279235	2516.644823
356.668689	2519.218332
357.058080	2519.873682
357.447408	2517.547190
357.836672	2517.693383
358.225873	2517.078362
358.615010	2517.506860
359.004084	2521.552386
359.393095	2520.317304
359.782043	2522.321162
360.170927	2523.876358
360.559748	2524.307377
360.948505	2523.278982
361.337199	2526.157480
361.725830	2526.311236
362.114398	2522.507685
362.502903	2526.165042
362.891344	2527.926925
363.279722	2528.599919
363.668037	2525.764270
364.056289	2526.858201
364.444478	2529.056144
364.832603	2526.323838
365.220665	2529.078829
365.608665	2529.373737
365.996601	2530.739889
366.384474	2529.930784
366.772284	2530.686957
367.160031	2530.019004
367.547715	2532.123686
367.935336	2530.092101
368.322893	2528.047913
368.710388	2532.579910
369.097820	2531.629653
369.485189	2533.376413
369.872495	2533.948584
370.259738	2530.833151
370.646918	2532.060672
371.034035	2535.934798
371.421090	2535.329860
371.808081	2536.171732
372.195010	2535.092926
372.581875	2537.288348
372.968678	2537.376568
373.355418	2539.082999
373.742096	2537.658873
374.128710	2538.467978
374.515262	2541.366642
374.901751	2542.591642
375.288177	2545.079451
375.674540	2543.761190
376.060841	2547.733619
376.447079	2549.170348
376.833254	2551.610266
377.219367	2549.223280
377.605417	2555.890206
377.991404	2555.512119
378.377329	2556.699311
378.763191	2561.339693
379.148991	2563.325908
379.534727	2568.039387
379.920402	2572.198338
380.306013	2574.494584
380.691563	2581.398444
381.077049	2585.368353
381.462474	2590.472521
381.847835	2592.834302
382.233134	2598.929057
382.618371	2601.863008
383.003545	2610.899277
383.388657	2616.578136
383.773706	2623.988632
384.158693	2628.634056
384.543618	2635.963893
384.928480	2641.269708
385.313280	2647.477889
385.698017	2655.384939
386.082692	2665.767195
386.467305	2670.168122
386.851856	2679.791685
387.236344	2692.974302
387.620770	2698.857329
388.005133	2705.236909
388.389435	2716.657643
388.773674	2721.570247
389.157851	2733.182545
389.541965	2746.085379
389.926018	2744.880543
390.310008	2759.474683
390.693936	2766.282762
391.077802	2777.814401
391.461606	2786.273457
391.845348	2795.904582
392.229027	2806.077630
392.612645	2819.618169
392.996200	2827.399190
393.379694	2839.192970
393.763125	2857.840198
394.146494	2868.545088
394.529801	2876.615975
394.913047	2893.158522
395.296230	2895.772360
395.679351	2902.580438
396.062410	2921.978798
396.445408	2915.634506
396.828343	2927.256886
397.211217	2935.390788
397.594028	2928.796959
397.976778	2940.578135
398.359466	2955.265537
398.742092	2952.666822
399.124656	2970.179791
399.507158	2984.917604
399.889598	2987.574292
400.271977	3002.969976
400.654294	3007.973321
401.036549	3020.964374
401.418742	3028.647093
401.800874	3049.499826
402.182944	3056.330589
402.564952	3088.417533
402.946898	3076.225503
403.328783	3085.377718
403.710606	3100.944801
404.092367	3124.812144
404.474067	3151.346257
404.855705	3142.100781
405.237282	3142.877118
405.618797	3171.427693
406.000250	3196.444419
406.381642	3227.051785
406.762972	3229.874831
407.144240	3217.012327
407.525447	3239.122828
407.906593	3240.005030
408.287677	3260.767022
408.668700	3282.136473
409.049661	3280.251081
409.430560	3298.631128
409.811399	3298.585758
410.192176	3320.716423
410.572891	3325.298832
410.953545	3369.131665
411.334138	3333.823423
411.714669	3384.746639
412.095139	3328.754543
412.475547	3381.389230
412.855894	3373.903117
413.236180	3404.951583
413.616405	3384.900394
413.996568	3410.963159
414.376670	3412.578849
414.756711	3405.856471
415.136691	3436.857046
415.516609	3453.800364
415.896466	3460.255562
416.276262	3486.303204
416.655997	3517.124818
417.035670	3525.357023
417.415283	3592.530397
417.794834	3612.359776
418.174324	3596.172631
418.553753	3598.047940
418.933121	3642.697440
419.312428	3628.819143
419.691674	3625.688587
420.070859	3662.758712
420.449983	3648.547699
420.829045	3696.105944
421.208047	3679.674303
421.586988	3723.421437
421.965867	3753.368411
422.344686	3763.002056
422.723444	3801.549239
423.102141	3704.406204
423.480777	3807.752379
423.859352	3774.221144
424.237866	3869.640104
424.616319	3857.921942
424.994712	3917.336981
425.373044	3906.677461
425.751314	3973.598778
426.129524	3904.769384
426.507673	4006.918285
426.885762	3983.734018
427.263789	4007.455168
427.641756	4009.154037
428.019662	4039.542112
428.397508	4041.646794
428.775292	4079.319336
429.153016	4082.893514
429.530679	4102.029734
429.908282	4103.531998
430.285824	4084.972990
430.663305	4158.354546
431.040726	4115.416518
431.418086	4106.158439
431.795385	4185.352446
432.172624	4217.832600
432.549802	4183.003268
432.926920	4202.199982
433.303977	4196.924414
433.680974	4234.831371
434.057910	4260.634517
434.434786	4264.175927
434.811601	4256.596553
435.188355	4365.671998
435.565050	4336.861804
435.941683	4333.393490
436.318257	4418.286521
436.694770	4425.404630
437.071222	4483.130883
437.447614	4419.148558
437.823946	4421.333898
438.200218	4437.894089
438.576429	4420.887756
438.952580	4444.956745
439.328670	4450.943116
439.704700	4491.872244
440.080670	4456.075010
440.456580	4516.974669
440.832429	4553.878436
441.208218	4456.712716
441.583947	4505.690046
441.959616	4523.628992
442.335224	4546.518351
442.710773	4568.391918
443.086261	4625.276298
443.461689	4576.208227
443.837057	4585.597376
444.212365	4662.966485
444.587612	4664.851876
444.962800	4634.584788
445.337927	4677.485008
445.712995	4562.430753
446.088002	4753.734980
446.462949	4779.379330
446.837837	4791.636895
447.212664	4783.344197
447.587431	5007.950286
447.962139	5299.588598
448.336786	5644.169107
448.711374	5630.704186
449.085901	5274.019866
449.460369	5209.162901
449.834776	5143.945494
450.209124	5379.044744
450.583412	5389.973966
450.957640	5515.612123
451.331808	5376.151122
451.705917	5228.853648
452.079965	5220.548347
452.453954	5254.059417
452.827883	5218.481474
453.201752	5227.154779
453.575562	5258.402371
453.949311	5394.095109
454.323001	5394.248864
454.696632	5390.805756
455.070202	5541.281678
455.443713	5569.136574
455.817164	5665.183157
456.190556	5738.471452
456.563888	5710.223346
456.937160	5786.932064
457.310373	5631.004134
457.683526	5689.622671
458.056619	5682.151681
458.429653	5661.490512
458.802628	5710.493048
459.175542	5739.653603
459.548398	5876.946907
459.921194	6059.098919
460.293930	6119.224761
460.666607	6378.249328
461.039224	6584.621563
461.411782	6716.503189
461.784280	6630.914479
462.156719	6638.393031
462.529099	6598.013388
462.901419	6452.871008
463.273680	6327.857954
463.645882	6314.700542
464.018024	6323.484753
464.390106	6381.420213
464.762130	6641.674822
465.134094	7022.806217
465.505999	7650.354254
465.877845	8354.086728
466.249631	8722.249755
466.621358	8647.134042
466.993026	8450.052653
467.364634	8239.118173
467.736184	7957.801624
468.107674	7801.573746
468.479105	7715.301959
468.850477	7651.811147
469.221790	7475.705999
469.593043	7256.148626
469.964238	7154.050137
470.335373	7133.537682
470.706449	7283.779190
471.077467	7466.039587
471.448425	8118.077549
471.819324	8705.674441
472.190164	8744.365297
472.560945	8268.198069
472.931667	7798.428066
473.302330	7602.773323
473.672934	7481.405024
474.043479	7558.506951
474.413965	7463.050183
474.784393	7414.476145
475.154761	7559.273207
475.525070	7575.581339
475.895321	7530.334463
476.265513	7624.150336
476.635645	7787.035058
477.005719	7780.363091
477.375734	7859.887293
477.745691	7976.516908
478.115588	8176.668359
478.485427	8407.641426
478.855207	8881.373776
479.224928	9315.127256
479.594591	9692.044247
479.964194	9708.513696
480.333739	9791.831367
480.703226	9793.298342
481.072653	9892.588908
481.442022	9999.726031
481.811333	10160.964816
482.180584	10003.194344
482.549777	9936.378891
482.918912	9874.488646
483.287988	9863.229228
483.657005	9775.198079
484.025964	9689.034678
484.394864	9751.610521
484.763706	9708.906906
485.132489	9616.668914
485.501213	9611.562226
485.869879	9669.613633
486.238487	9605.031411
486.607036	9681.598976
486.975527	9631.406728
487.343959	9685.170633
487.712333	9736.068643
488.080648	9774.255384
488.448905	9872.784736
488.817104	9879.045849
489.185244	10036.526454
489.553326	10249.172405
489.921350	10719.812008
490.289315	11339.185813
490.657222	11631.408899
491.025070	11816.598206
491.392861	11736.993346
491.760593	11576.193141
492.128267	11320.752834
492.495883	11083.695095
492.863440	10853.599190
493.230939	10630.543255
493.598380	10448.441655
493.965763	10423.450135
494.333088	10293.267378
494.700354	10224.135515
495.067563	10194.911946
495.434713	10194.523777
495.801805	10245.520089
496.168839	10193.175268
496.535815	10170.207771
496.902733	10211.809893
497.269593	10170.487555
497.636395	10176.884780
498.003139	10289.496595
498.369825	10213.549092
498.736453	10305.436723
499.103023	10249.590821
499.469535	10254.190874
499.835989	10304.103338
500.202385	10277.281879
500.568723	10299.031937
500.935003	10351.742242
501.301226	10324.414147
501.667390	10485.093364
502.033497	10593.266443
502.399546	10524.646257
502.765537	10423.684548
503.131470	10536.245952
503.497345	10625.045877
503.863163	10395.161700
504.228923	10529.561382
504.594625	10644.555142
504.960269	10551.497963
505.325856	10698.354336
505.691385	10577.603578
506.056856	10644.166974
506.422270	10741.050389
506.787625	10686.401761
507.152924	10734.118802
507.518164	10795.817484
507.883347	10657.848665
508.248472	10741.136088
508.613540	10844.202479
508.978550	10918.670403
509.343503	10897.928576
509.708398	10949.696185
510.073236	11080.519168
510.438016	11090.803122
510.802738	11004.624597
511.167403	11130.787034
511.532010	11184.929026
511.896561	11284.572473
512.261053	11480.486835
512.625488	11402.051522
512.989866	11385.975283
513.354186	11357.568381
513.718449	11368.341327
514.082655	11507.504899
514.446803	11457.733587
514.810894	11580.800755
515.174927	11569.788355
515.538904	11551.582228
515.902822	11711.840508
516.266684	11582.262690
516.630488	11678.100066
516.994235	11670.717296
517.357925	11789.663321
517.721558	11838.174344
518.085133	11905.957699
518.448651	11946.909512
518.812112	11901.518963
519.175516	11906.976012
519.538863	11997.968839
519.902152	12008.852690
520.265385	12110.701642
520.628560	12126.248560
520.991678	12076.003380
521.354739	12134.989921
521.717743	12210.093031
522.080690	12171.732371
522.443580	12308.075418
522.806413	12316.854587
523.169189	12306.273205
523.531908	12369.910211
523.894569	12338.198833
524.257174	12345.223681
524.619722	12447.778394
524.982213	12425.473809
525.344647	12422.524734
525.707025	12426.416504
526.069345	12533.563709
526.431608	12512.746264
526.793815	12588.570259
527.155964	12492.296823
527.518057	12517.192562
527.880093	12472.149852
528.242072	12582.596492
528.603995	12508.375584
528.965860	12517.464784
529.327669	12556.047255
529.689421	12511.216274
530.051117	12523.509127
530.412755	12548.477962
530.774337	12558.643449
531.135862	12517.212726
531.497331	12578.838312
531.858743	12538.216694
532.220098	12622.401442
532.581396	12539.882795
532.942638	12464.608286
533.303824	12534.768545
533.664953	12515.972603
534.026025	12470.919811
534.387040	12568.650140
534.747999	12543.353630
535.108902	12581.757140
535.469748	12460.073768
535.830537	12485.642500
536.191270	12527.804191
536.551947	12460.285497
536.912567	12517.321111
537.273131	12558.156978
537.633638	12437.426384
537.994089	12489.635094
538.354483	12405.450346
538.714821	12530.730580
539.075103	12611.736882
539.435328	12547.681460
539.795497	12514.336748
540.155609	12517.996626
540.515665	12628.561732
540.875665	12484.374650
541.235609	12574.938979
541.595496	12538.993032
541.955328	12705.880430
542.315102	12552.735217
542.674821	12491.034014
543.034483	12498.444511
543.394090	12512.869772
543.753640	12475.348464
544.113134	12710.359495
544.472571	12486.227274
544.831953	12754.164601
545.191278	12567.309193
545.550548	12507.427847
545.909761	12618.441616
546.268918	12659.632884
546.628019	12712.869989
546.987064	12612.538425
547.346053	12462.765744
547.704986	12655.121052
548.063863	12534.178730
548.422684	12586.047162
548.781449	12543.426726
549.140158	12636.007517
549.498811	12597.185591
549.857408	12464.628451
550.215949	12650.026966
550.574434	12619.109569
550.932864	12553.004919
551.291237	12748.831060
551.649555	12646.039413
552.007817	12700.032691
552.366022	12618.174435
552.724173	12651.758602
553.082267	12734.788926
553.440305	12821.809324
553.798288	12640.053043
554.156215	12710.195657
554.514086	12750.358530
554.871902	12699.483205
555.229661	12711.652551
555.587365	12664.605982
555.945014	12675.315914
556.302606	12653.442347
556.660143	12710.520812
557.017625	12744.301584
557.375050	12691.354345
557.732421	12785.112245
558.089735	12775.191254
558.446994	12747.243097
558.804197	12856.585724
559.161345	12841.515194
559.518437	12656.315805
559.875474	12750.053540
560.232455	12768.113474
560.589381	12815.316318
560.946251	12743.742016
561.303065	12914.213674
561.659825	12862.372968
562.016528	12761.113832
562.373177	12707.309597
562.729770	12828.541785
563.086307	12694.542875
563.442789	12801.402733
563.799216	12827.180673
564.155587	12764.211621
564.511904	12779.834157
564.868164	12788.199951
565.224370	12839.271881
565.580520	12772.900049
565.936615	12836.695851
566.292654	12751.701998
566.648638	12819.361844
567.004567	12811.873210
567.360441	12810.751553
567.716260	12759.167946
568.072023	12836.100995
568.427732	12801.367445
568.783385	12688.700177
569.138982	12789.228347
569.494525	12775.632355
569.850013	12719.420969
570.205445	12695.450282
570.560823	12706.132487
570.916145	12645.943631
571.271412	12655.357986
571.626625	12589.752410
571.981782	12568.750963
572.336884	12506.575892
572.691931	12577.973754
573.046923	12466.982669
573.401860	12431.084613
573.756743	12405.120150
574.111570	12426.797112
574.466342	12384.181717
574.821059	12419.709249
575.175722	12292.977162
575.530330	12295.255764
575.884882	12223.295813
576.239380	12201.944006
576.593823	12173.653051
576.948211	12150.839309
577.302544	12032.306658
577.656823	12027.578056
578.011047	12057.933364
578.365216	11989.802170
578.719330	11919.296592
579.073389	11877.775128
579.427394	11868.222142
579.781344	11841.617453
580.135239	11762.173909
580.489080	11759.668456
580.842866	11633.009465
581.196597	11696.243178
581.550273	11670.631596
581.903895	11624.968825
582.257463	11689.896366
582.610975	11535.319465
582.964434	11579.079201
583.317837	11482.704943
583.671186	11427.075810
584.024481	11447.618512
584.377721	11325.037815
584.730906	11364.999042
585.084037	11357.747342
585.437113	11254.741445
585.790135	11252.946794
586.143103	11156.575056
586.496016	11143.740279
586.848874	11138.134516
587.201679	11103.421130
587.554428	10971.733589
587.907124	10987.338481
588.259765	10906.185986
588.612352	10947.283993
588.964884	10797.866713
589.317362	10819.430249
589.669786	10786.793819
590.022155	10720.295958
590.374470	10771.546849
590.726731	10644.416511
591.078937	10531.711434
591.431090	10537.544049
591.783188	10444.169277
592.135232	10354.010761
592.487222	10378.052024
592.839157	10351.538075
593.191038	10272.321384
593.542866	10206.796466
593.894639	10055.801305
594.246358	10081.788453
594.598022	10060.146780
594.949633	9963.916194
595.301190	9919.148228
595.652692	9856.489206
596.004141	9904.445702
596.355535	9696.714876
596.706876	9652.635027
597.058162	9606.430331
597.409395	9647.866095
597.760573	9634.484352
598.111698	9525.998721
598.462768	9494.816664
598.813785	9469.988982
599.164748	9350.611938
599.515657	9377.168736
599.866511	9240.177901
600.217312	9309.992841
600.568060	9104.137323
600.918753	9197.149133
601.269392	9158.947269
601.619978	9068.725738
601.970510	9061.763905
602.320988	9058.265344
602.671412	9083.861803
603.021783	8990.003080
603.372100	8910.980473
603.722363	8893.613698
604.072572	8859.613636
604.422728	8833.714708
604.772830	8755.367615
605.122878	8730.295437
605.472872	8682.699383
605.822813	8691.740692
606.172701	8629.053944
606.522534	8625.719221
606.872314	8625.610836
607.222041	8546.956233
607.571714	8563.665137
607.921333	8439.675438
608.270899	8433.797453
608.620411	8447.590049
608.969870	8374.261426
609.319276	8327.892893
609.668627	8307.236765
610.017926	8323.313004
610.367171	8305.550499
610.716362	8265.576669
611.065500	8217.854586
611.414585	8188.058847
611.763616	8192.731996
612.112594	8130.705639
612.461518	8112.106302
612.810389	8104.176567
613.159207	8033.973459
613.507971	7989.298753
613.856682	8022.310749
614.205340	7959.548384
614.553945	8004.581011
614.902496	7890.028352
615.250994	7892.851398
615.599439	7846.341712
615.947830	7830.721697
616.296169	7778.462576
616.644454	7750.032989
616.992686	7719.680202
617.340864	7725.348979
617.688990	7632.299361
618.037063	7672.051380
618.385082	7615.726568
618.733048	7603.348015
619.080961	7557.654996
619.428821	7511.546083
619.776628	7482.400652
620.124382	7412.247955
620.472083	7387.011939
620.819731	7363.071499
621.167326	7292.452495
621.514868	7244.372491
621.862357	7155.764129
622.209793	7118.444467
622.557176	7043.754732
622.904506	6976.586398
623.251783	6905.133084
623.599007	6838.731005
623.946179	6783.119517
624.293297	6735.331899
624.640363	6641.881509
624.987376	6599.253512
625.334336	6533.151382
625.681243	6466.570343
626.028097	6418.182828
626.374899	6363.498912
626.721647	6321.498538
627.068343	6274.436847
627.414987	6212.400407
627.761577	6149.804400
628.108115	6143.959182
628.454600	6058.771244
628.801032	6032.458941
629.147412	5995.444269
629.493739	5955.019257
629.840014	5891.336881
630.186236	5880.969748
630.532405	5813.630015
630.878521	5794.176202
631.224585	5749.405715
631.570597	5692.014699
631.916556	5665.415050
632.262462	5631.374659
632.608316	5597.576243
632.954117	5554.781888
633.299866	5527.771386
633.645562	5487.923585
633.991206	5423.774902
634.336797	5358.875088
634.682336	5328.184543
635.027823	5280.013798
635.373257	5238.562910
635.718639	5185.086350
636.063968	5147.285258
636.409245	5080.820165
636.754470	5051.909148
637.099642	5005.906098
637.444762	4948.502480
637.789829	4919.228499
638.134845	4873.177559
638.479808	4843.724617
638.824719	4810.783198
639.169577	4760.122122
639.514383	4732.105910
639.859137	4689.979507
640.203839	4676.902754
