Dividing Wavelength (nm)	Counts (n)	Blue Motor Position (mm): 0.000000	Red Motor Position (mm): 15.000000	
326.493990	2148.086065
326.888308	2148.086065
327.282561	2148.086065
327.676750	2122.098917
328.070874	2124.720317
328.464933	2128.342386
328.858929	2139.611886
329.252859	2148.103709
329.646726	2163.023004
330.040528	2177.218893
330.434265	2195.989630
330.827938	2214.314224
331.221547	2235.182080
331.615091	2253.972981
332.008571	2275.647422
332.401986	2296.149795
332.795338	2313.052784
333.188625	2336.363079
333.581847	2355.161542
333.975006	2375.258102
334.368100	2391.422562
334.761129	2410.773031
335.154095	2426.221647
335.546996	2440.999789
335.939833	2455.099896
336.332606	2471.229068
336.725315	2478.493371
337.117960	2489.934269
337.510540	2497.669920
337.903056	2507.134686
338.295508	2516.854031
338.687896	2522.542973
339.080220	2530.069416
339.472480	2531.337266
339.864676	2539.501415
340.256807	2540.676003
340.648875	2541.520397
341.040879	2545.258412
341.432818	2546.228834
341.824694	2547.048022
342.216506	2547.279915
342.608253	2547.852086
342.999937	2544.255223
343.391557	2543.592311
343.783113	2545.392003
344.174605	2542.286652
344.566033	2541.291024
344.957397	2540.615510
345.348697	2540.718853
345.739934	2536.194418
346.131106	2535.801208
346.522215	2535.148378
346.913260	2531.158305
347.304241	2526.762419
347.695159	2525.741585
348.086012	2525.804600
348.476802	2523.894002
348.867528	2523.389887
349.258191	2522.159845
349.648789	2522.185051
350.039324	2519.359484
350.429796	2518.114319
350.820203	2516.952333
351.210548	2519.377128
351.600828	2517.758918
351.991045	2516.183557
352.381198	2512.253978
352.771288	2515.810512
353.161314	2514.766993
353.551276	2517.519463
353.941175	2516.004597
354.331010	2515.268588
354.720782	2514.527538
355.110490	2515.984432
355.500135	2515.051818
355.889717	2517.330420
356.279235	2517.733712
356.668689	2517.547190
357.058080	2518.651202
357.447408	2516.284381
357.836672	2516.745646
358.225873	2514.109123
358.615010	2515.008969
359.004084	2518.290760
359.393095	2521.196985
359.782043	2520.034999
360.170927	2520.821419
360.559748	2521.512057
360.948505	2522.830319
361.337199	2524.345186
361.725830	2521.771677
362.114398	2522.853004
362.502903	2520.513909
362.891344	2525.963396
363.279722	2525.842408
363.668037	2527.301822
364.056289	2526.338962
364.444478	2525.547501
364.832603	2523.157994
365.220665	2526.454908
365.608665	2525.602953
365.996601	2525.721421
366.384474	2528.057995
366.772284	2530.427338
367.160031	2527.911802
367.547715	2528.388191
367.935336	2530.472708
368.322893	2529.424148
368.710388	2528.708304
369.097820	2535.481094
369.485189	2530.913809
369.872495	2529.570342
370.259738	2529.376257
370.646918	2528.972965
371.034035	2532.358100
371.421090	2534.881197
371.808081	2530.513037
372.195010	2531.065044
372.581875	2532.627801
372.968678	2534.866074
373.355418	2535.564273
373.742096	2535.130734
374.128710	2535.241640
374.515262	2539.498894
374.901751	2538.543595
375.288177	2538.770447
375.674540	2537.119469
376.060841	2540.829759
376.447079	2546.201108
376.833254	2547.925183
377.219367	2542.750438
377.605417	2548.225131
377.991404	2550.841490
378.377329	2552.951213
378.763191	2556.389280
379.148991	2559.610577
379.534727	2565.160888
379.920402	2568.906465
380.306013	2572.533575
380.691563	2575.200346
381.077049	2577.486509
381.462474	2584.032447
381.847835	2589.744074
382.233134	2595.979982
382.618371	2599.907041
383.003545	2606.208483
383.388657	2613.016561
383.773706	2619.701131
384.158693	2624.016359
384.543618	2630.814355
384.928480	2638.519758
385.313280	2646.688948
385.698017	2656.062974
386.082692	2661.641011
386.467305	2668.128976
386.851856	2676.088958
387.236344	2685.873837
387.620770	2693.642255
388.005133	2702.053420
388.389435	2716.299721
388.773674	2717.199567
389.157851	2726.823130
389.541965	2741.076992
389.926018	2741.313927
390.310008	2754.657861
390.693936	2761.859149
391.077802	2773.617640
391.461606	2783.689866
391.845348	2791.133129
392.229027	2800.993626
392.612645	2815.648261
392.996200	2822.736123
393.379694	2838.950994
393.763125	2854.313911
394.146494	2862.384798
394.529801	2871.968031
394.913047	2886.146277
395.296230	2892.500651
395.679351	2895.784963
396.062410	2915.425298
396.445408	2911.520924
396.828343	2920.922676
397.211217	2928.018100
397.594028	2924.259920
397.976778	2938.367589
398.359466	2951.376287
398.742092	2948.064249
399.124656	2961.453553
399.507158	2975.828403
399.889598	2979.694968
400.271977	2996.960920
400.654294	3001.485356
401.036549	3014.506656
401.418742	3019.888088
401.800874	3038.865512
402.182944	3048.325237
402.564952	3074.811459
402.946898	3063.254614
403.328783	3074.148547
403.710606	3089.299735
404.092367	3106.790019
404.474067	3130.672485
404.855705	3123.211577
405.237282	3120.088582
405.618797	3147.852737
406.000250	3165.658093
406.381642	3191.713296
406.762972	3192.151877
407.144240	3176.294927
407.525447	3197.833257
407.906593	3194.223791
408.287677	3205.999926
408.668700	3220.246227
409.049661	3210.037891
409.430560	3220.699931
409.811399	3219.759756
410.192176	3229.065726
410.572891	3227.636559
410.953545	3253.676639
411.334138	3221.831670
411.714669	3257.283584
412.095139	3200.638659
412.475547	3236.193917
412.855894	3217.145917
413.236180	3232.871797
413.616405	3206.683003
413.996568	3215.232800
414.376670	3206.733414
414.756711	3192.890406
415.136691	3200.444575
415.516609	3200.240408
415.896466	3198.208823
416.276262	3201.611602
416.655997	3208.303734
417.035670	3200.900799
417.415283	3229.852146
417.794834	3227.502968
418.174324	3204.452292
418.553753	3188.461752
418.933121	3200.114379
419.312428	3174.273425
419.691674	3158.313132
420.070859	3164.145747
420.449983	3133.556025
420.829045	3140.427118
421.208047	3116.824435
421.586988	3119.360136
421.965867	3119.249230
422.344686	3104.289606
422.723444	3104.236674
423.102141	3042.961449
423.480777	3071.824576
423.859352	3037.456509
424.237866	3058.694890
424.616319	3032.064995
424.994712	3033.673123
425.373044	3011.242509
425.751314	3011.257633
426.129524	2974.232878
426.507673	2985.015906
426.885762	2959.185034
427.263789	2946.393106
427.641756	2928.655806
428.019662	2918.568458
428.397508	2900.483318
428.775292	2889.735578
429.153016	2874.274359
429.530679	2860.743902
429.908282	2846.074145
430.285824	2826.338027
430.663305	2824.238387
431.040726	2803.441107
431.418086	2786.306225
431.795385	2784.199022
432.172624	2775.089657
432.549802	2755.615680
432.926920	2746.576891
433.303977	2736.028277
433.680974	2727.123078
434.057910	2717.713765
434.434786	2707.094574
434.811601	2697.660055
435.188355	2693.717872
435.565050	2683.000379
435.941683	2674.886642
436.318257	2667.370282
436.694770	2656.536842
437.071222	2655.198416
437.447614	2644.072589
437.823946	2635.671507
438.200218	2637.355252
438.576429	2628.447533
438.952580	2622.899743
439.328670	2616.762138
439.704700	2616.868003
440.080670	2611.400871
440.456580	2607.667897
440.832429	2605.575818
441.208218	2597.988882
441.583947	2598.157760
441.959616	2595.821185
442.335224	2594.467636
442.710773	2591.493355
443.086261	2591.130392
443.461689	2585.048240
443.837057	2585.050760
444.212365	2586.094279
444.587612	2582.943558
444.962800	2582.409196
445.337927	2580.196129
445.712995	2577.357959
446.088002	2583.072107
446.462949	2578.794688
446.837837	2577.201684
447.212664	2578.008268
447.587431	2580.244020
447.962139	2580.233938
448.336786	2585.905236
448.711374	2584.221490
449.085901	2578.696386
449.460369	2577.277301
449.834776	2578.562795
450.209124	2577.582291
450.583412	2579.021540
450.957640	2578.913155
451.331808	2577.635223
451.705917	2576.889132
452.079965	2577.773855
452.453954	2577.824266
452.827883	2575.840572
453.201752	2576.533731
453.575562	2577.410892
453.949311	2578.419122
454.323001	2578.688824
454.696632	2577.612538
455.070202	2577.451221
455.443713	2576.657239
455.817164	2573.854357
456.190556	2577.201684
456.563888	2576.213617
456.937160	2573.624985
457.310373	2577.652867
457.683526	2578.950964
458.056619	2579.061869
458.429653	2577.299986
458.802628	2580.238979
459.175542	2579.364339
459.548398	2581.063208
459.921194	2579.714699
460.293930	2580.395255
460.666607	2582.101685
461.039224	2578.887950
461.411782	2583.777869
461.784280	2582.376428
462.156719	2580.614545
462.529099	2583.175451
462.901419	2579.785275
463.273680	2582.678897
463.645882	2579.387024
464.018024	2581.849627
464.390106	2580.271746
464.762130	2585.960688
465.134094	2584.894484
465.505999	2585.191913
465.877845	2589.439085
466.249631	2592.718355
466.621358	2587.231059
466.993026	2593.585434
467.364634	2590.341451
467.736184	2587.470514
468.107674	2587.841039
468.479105	2584.612180
468.850477	2587.851121
469.221790	2587.009248
469.593043	2582.794844
469.964238	2583.971953
470.335373	2585.534711
470.706449	2585.000349
471.077467	2588.163673
471.448425	2588.403127
471.819324	2591.044692
472.190164	2592.748602
472.560945	2594.003849
472.931667	2587.926738
473.302330	2590.815320
473.672934	2586.762232
474.043479	2586.449680
474.413965	2588.637541
474.784393	2582.872982
475.154761	2584.027406
475.525070	2584.914649
475.895321	2583.992118
476.265513	2585.731316
476.635645	2589.053436
477.005719	2586.618559
477.375734	2587.437747
477.745691	2589.718869
478.115588	2589.749116
478.485427	2590.913622
478.855207	2591.362285
479.224928	2593.277923
479.594591	2595.685074
479.964194	2592.907398
480.333739	2598.757657
480.703226	2598.190528
481.072653	2593.010742
481.442022	2595.057451
481.811333	2597.567945
482.180584	2594.485280
482.549777	2598.407297
482.918912	2592.310022
483.287988	2594.850763
483.657005	2593.439240
484.025964	2593.547625
484.394864	2592.463777
484.763706	2596.022832
485.132489	2592.292378
485.501213	2592.385639
485.869879	2593.114086
486.238487	2591.339600
486.607036	2588.690473
486.975527	2594.046699
487.343959	2590.502768
487.712333	2592.229363
488.080648	2591.488314
488.448905	2592.796493
488.817104	2592.867069
489.185244	2592.970413
489.553326	2590.522933
489.921350	2592.612491
490.289315	2594.583582
490.657222	2597.764550
491.025070	2597.242791
491.392861	2596.070722
491.760593	2595.611977
492.128267	2595.869076
492.495883	2592.526791
492.863440	2595.475866
493.230939	2593.472008
493.598380	2588.246852
493.965763	2588.062850
494.333088	2589.066039
494.700354	2586.278281
495.067563	2589.862542
495.434713	2587.770463
495.801805	2594.071905
496.168839	2590.646441
496.535815	2589.595360
496.902733	2589.860021
497.269593	2589.615525
497.636395	2587.800710
498.003139	2591.367326
498.369825	2587.775504
498.736453	2592.708273
499.103023	2587.541090
499.469535	2590.482603
499.835989	2590.860690
500.202385	2593.015783
500.568723	2590.815320
500.935003	2590.497727
501.301226	2589.547469
501.667390	2591.127871
502.033497	2591.594178
502.399546	2593.023345
502.765537	2588.766091
503.131470	2586.616038
503.497345	2591.979826
503.863163	2592.907398
504.228923	2590.434713
504.594625	2590.346492
504.960269	2588.771132
505.325856	2589.779363
505.691385	2588.738364
506.056856	2592.781370
506.422270	2588.017479
506.787625	2589.698704
507.152924	2593.386308
507.518164	2591.652151
507.883347	2590.192737
508.248472	2589.151739
508.613540	2587.775504
508.978550	2587.483117
509.343503	2591.687439
509.708398	2589.902871
510.073236	2589.991091
510.438016	2590.827923
510.802738	2588.519074
511.167403	2589.245000
511.532010	2590.754826
511.896561	2590.550659
512.261053	2592.496544
512.625488	2584.307190
512.989866	2588.161152
513.354186	2585.955647
513.718449	2583.798033
514.082655	2589.764239
514.446803	2586.064032
514.810894	2589.839856
515.174927	2590.432192
515.538904	2588.617377
515.902822	2591.732810
516.266684	2588.365319
516.630488	2591.188365
516.994235	2590.026379
517.357925	2591.193406
517.721558	2591.863880
518.085133	2591.337079
518.448651	2592.194075
518.812112	2591.705083
519.175516	2588.173755
519.538863	2590.379260
519.902152	2589.993612
520.265385	2589.791965
520.628560	2589.388673
520.991678	2589.413879
521.354739	2591.175762
521.717743	2589.030751
522.080690	2589.595360
522.443580	2591.392532
522.806413	2588.599732
523.169189	2591.654672
523.531908	2591.442943
523.894569	2590.666606
524.257174	2590.149887
524.619722	2589.318097
524.982213	2591.392532
525.344647	2588.566965
525.707025	2590.679208
526.069345	2590.759867
526.431608	2591.367326
526.793815	2590.132243
527.155964	2591.236256
527.518057	2589.519743
527.880093	2589.330700
528.242072	2593.466967
528.603995	2591.765577
528.965860	2592.423448
529.327669	2589.597881
529.689421	2589.257603
530.051117	2589.872624
530.412755	2589.802048
530.774337	2589.749116
531.135862	2588.256934
531.497331	2586.177458
531.858743	2586.046388
532.220098	2588.861872
532.581396	2586.250555
532.942638	2584.841552
533.303824	2588.955134
533.664953	2591.949579
534.026025	2590.722058
534.387040	2591.972264
534.747999	2587.404979
535.108902	2590.742223
535.469748	2591.760536
535.830537	2587.457911
536.191270	2586.648806
536.551947	2590.298601
536.912567	2587.218456
537.273131	2590.742223
537.633638	2588.766091
537.994089	2587.125195
538.354483	2588.201481
538.714821	2589.159301
539.075103	2590.585947
539.435328	2588.909763
539.795497	2589.633169
540.155609	2587.639393
540.515665	2589.305494
540.875665	2589.802048
541.235609	2590.757346
541.595496	2590.938828
541.955328	2589.592840
542.315102	2591.180803
542.674821	2587.157962
543.034483	2591.148036
543.394090	2590.906060
543.753640	2589.245000
544.113134	2589.257603
544.472571	2587.296594
544.831953	2589.950762
545.191278	2589.726430
545.550548	2588.143508
545.909761	2588.882037
546.268918	2588.677870
546.628019	2587.977150
546.987064	2590.313725
547.346053	2589.708786
547.704986	2587.316759
548.063863	2590.913622
548.422684	2590.505289
548.781449	2589.618046
549.140158	2589.668457
549.498811	2592.110896
549.857408	2589.613004
550.215949	2585.718713
550.574434	2589.610484
550.932864	2583.679566
551.291237	2585.509505
551.649555	2589.429002
552.007817	2589.902871
552.366022	2591.546287
552.724173	2590.648962
553.082267	2588.385483
553.440305	2588.713158
553.798288	2590.280957
554.156215	2590.341451
554.514086	2589.071080
554.871902	2588.108220
555.229661	2588.972778
555.587365	2589.892788
555.945014	2591.309353
556.302606	2589.897830
556.660143	2591.175762
557.017625	2591.369847
557.375050	2588.100658
557.732421	2587.679722
558.089735	2588.246852
558.446994	2588.400607
558.804197	2588.057808
559.161345	2585.988415
559.518437	2588.158632
559.875474	2587.399938
560.232455	2590.706935
560.589381	2586.454722
560.946251	2592.650300
561.303065	2586.847932
561.659825	2589.681060
562.016528	2589.670978
562.373177	2587.841039
562.729770	2589.555031
563.086307	2589.965885
563.442789	2588.955134
563.799216	2588.551842
564.155587	2591.085021
564.511904	2589.744074
564.868164	2588.324990
565.224370	2591.548807
565.580520	2587.435226
565.936615	2588.685432
566.292654	2588.191399
566.648638	2589.721389
567.004567	2589.721389
567.360441	2588.677870
567.716260	2587.863724
568.072023	2589.726430
568.427732	2583.919021
568.783385	2588.382963
569.138982	2584.934814
569.494525	2584.009762
569.850013	2584.236614
570.205445	2589.328179
570.560823	2588.451018
570.916145	2585.030596
571.271412	2587.044537
571.626625	2589.187027
571.981782	2590.558221
572.336884	2593.237594
572.691931	2590.316245
573.046923	2587.049578
573.401860	2587.094948
573.756743	2589.693663
574.111570	2586.711820
574.466342	2590.278437
574.821059	2591.170721
575.175722	2587.641913
575.530330	2587.107551
575.884882	2589.711307
576.239380	2588.012438
576.593823	2588.753488
576.948211	2587.641913
577.302544	2588.037644
577.656823	2588.826584
578.011047	2589.053436
578.365216	2588.370360
578.719330	2588.917325
579.073389	2587.024372
579.427394	2586.812643
579.781344	2585.917839
580.135239	2585.650657
580.489080	2588.975298
580.842866	2588.309866
581.196597	2587.747778
581.550273	2587.389856
581.903895	2587.019331
582.257463	2586.311049
582.610975	2586.021182
582.964434	2586.421954
583.317837	2586.610997
583.671186	2586.074114
584.024481	2586.492530
584.377721	2588.619897
584.730906	2588.619897
585.084037	2588.728282
585.437113	2586.815164
585.790135	2587.604105
586.143103	2587.982191
586.496016	2587.583940
586.848874	2581.431212
587.201679	2585.204515
587.554428	2584.952458
587.907124	2585.948086
588.259765	2582.678897
588.612352	2587.969588
588.964884	2586.721903
589.317362	2586.013621
589.669786	2586.101841
590.022155	2588.718200
590.374470	2587.253744
590.726731	2590.409507
591.078937	2584.526480
591.431090	2585.252406
591.783188	2585.471697
592.135232	2587.112592
592.487222	2586.585792
592.839157	2586.225349
593.191038	2588.324990
593.542866	2586.779876
593.894639	2586.474886
594.246358	2587.964547
594.598022	2588.992942
594.949633	2587.503282
595.301190	2586.570668
595.652692	2584.579412
596.004141	2583.253589
596.355535	2588.327510
596.706876	2587.536049
597.058162	2587.707448
597.409395	2586.674012
597.760573	2586.051429
598.111698	2585.441450
598.462768	2583.679566
598.813785	2585.106213
599.164748	2583.672005
599.515657	2587.394897
599.866511	2585.436408
600.217312	2585.075966
600.568060	2586.376584
600.918753	2588.236769
601.269392	2588.075452
601.619978	2587.183168
601.970510	2585.544793
602.320988	2583.999680
602.671412	2582.764597
603.021783	2585.292736
603.372100	2586.714341
603.722363	2585.587643
604.072572	2584.224011
604.422728	2585.277612
604.772830	2584.077818
605.122878	2583.127560
605.472872	2581.637899
605.822813	2576.793350
606.172701	2582.809967
606.522534	2585.766604
606.872314	2583.798033
607.222041	2585.794330
607.571714	2584.350040
607.921333	2584.914649
608.270899	2584.347519
608.620411	2586.381625
608.969870	2584.619742
609.319276	2583.959350
609.668627	2586.137129
610.017926	2586.608477
610.367171	2584.743250
610.716362	2584.307190
611.065500	2583.840883
611.414585	2587.548652
611.763616	2587.276430
612.112594	2583.556058
612.461518	2583.936665
612.810389	2586.658888
613.159207	2586.943713
613.507971	2586.192582
613.856682	2584.957499
614.205340	2586.081676
614.553945	2586.326172
614.902496	2586.288363
615.250994	2584.256778
615.599439	2585.075966
615.947830	2583.490523
616.296169	2587.044537
616.644454	2586.230390
616.992686	2588.118302
617.340864	2585.968250
617.688990	2586.326172
618.037063	2583.805595
618.385082	2583.102354
618.733048	2585.396079
619.080961	2588.428333
619.428821	2586.711820
619.776628	2585.746439
620.124382	2586.825246
620.472083	2583.155286
620.819731	2587.709969
621.167326	2584.188723
621.514868	2587.077304
621.862357	2584.962540
622.209793	2585.963209
622.557176	2587.054619
622.904506	2580.778382
623.251783	2583.777869
623.599007	2581.489185
623.946179	2580.657395
624.293297	2583.324165
624.640363	2584.302149
624.987376	2585.706110
625.334336	2584.639906
625.681243	2582.157138
626.028097	2585.433888
626.374899	2583.987077
626.721647	2585.950606
627.068343	2584.352560
627.414987	2582.787282
627.761577	2584.927252
628.108115	2582.948599
628.454600	2584.541604
628.801032	2584.564289
629.147412	2583.692169
629.493739	2582.688980
629.840014	2581.196798
630.186236	2582.802406
630.532405	2581.065728
630.878521	2580.412899
631.224585	2586.041347
631.570597	2583.682087
631.916556	2582.441963
632.262462	2585.285174
632.608316	2583.906418
632.954117	2583.868610
633.299866	2583.709813
633.645562	2581.287539
633.991206	2586.185020
634.336797	2581.486664
634.682336	2587.243662
635.027823	2581.635378
635.373257	2582.583115
635.718639	2585.635534
636.063968	2582.925914
636.409245	2580.617065
636.754470	2584.450863
637.099642	2583.417426
637.444762	2583.934145
637.789829	2582.217632
638.134845	2583.677046
638.479808	2583.135122
638.824719	2580.750656
639.169577	2582.925914
639.514383	2581.446335
639.859137	2581.917683
640.203839	2585.927921
640.548489	2580.823753
640.893086	2579.278639
641.237632	2578.749318
641.582125	2579.974318
641.926566	2575.888463
642.270955	2582.510019
642.615292	2580.367528
642.959576	2582.928434
643.303809	2582.724268
643.647990	2581.786613
643.992118	2582.618403
644.336195	2582.416757
