Dividing Wavelength (nm)	Counts (n)	Blue Motor Position (mm): 16.100000	Red Motor Position (mm): 0.000000	
326.493990	2173.508604
326.888308	2173.508604
327.282561	2173.508604
327.676750	2134.263222
328.070874	2130.628550
328.464933	2130.920937
328.858929	2135.173150
329.252859	2139.727832
329.646726	2149.966416
330.040528	2159.524443
330.434265	2174.905004
330.827938	2192.607016
331.221547	2206.200487
331.615091	2226.937273
332.008571	2245.345047
332.401986	2262.666451
332.795338	2279.876950
333.188625	2300.059210
333.581847	2317.877168
333.975006	2338.167812
334.368100	2354.569206
334.761129	2375.313554
335.154095	2391.654455
335.546996	2413.565830
335.939833	2439.951229
336.332606	2456.771039
336.725315	2468.406022
337.117960	2479.902373
337.510540	2493.694970
337.903056	2504.137720
338.295508	2511.442352
338.687896	2521.078518
339.080220	2528.284847
339.472480	2536.252391
339.864676	2538.377237
340.256807	2548.149514
340.648875	2548.966181
341.040879	2551.237221
341.432818	2556.361554
341.824694	2556.825340
342.216506	2557.205947
342.608253	2560.175187
342.999937	2559.837429
343.391557	2560.833057
343.783113	2556.969013
344.174605	2555.486913
344.566033	2556.868190
344.957397	2554.519012
345.348697	2556.739640
345.739934	2552.472303
346.131106	2553.709907
346.522215	2548.121788
346.913260	2549.999618
347.304241	2549.306459
347.695159	2545.944009
348.086012	2545.185316
348.476802	2539.554347
348.867528	2539.256919
349.258191	2532.191742
349.648789	2532.181659
350.039324	2530.603778
350.429796	2529.519930
350.820203	2530.891124
351.210548	2531.044879
351.600828	2528.695701
351.991045	2529.209899
352.381198	2530.986906
352.771288	2528.138654
353.161314	2528.912471
353.551276	2527.105217
353.941175	2525.953314
354.331010	2524.594723
354.720782	2522.051461
355.110490	2525.933149
355.500135	2524.466173
355.889717	2526.931298
356.279235	2525.421472
356.668689	2526.696884
357.058080	2526.885927
357.447408	2526.714528
357.836672	2526.648993
358.225873	2526.845598
358.615010	2526.931298
359.004084	2529.414066
359.393095	2527.216123
359.782043	2528.610002
360.170927	2527.420289
360.559748	2529.658562
360.948505	2527.964734
361.337199	2530.792821
361.725830	2531.395239
362.114398	2532.373223
362.502903	2531.155784
362.891344	2534.326670
363.279722	2533.530168
363.668037	2533.240302
364.056289	2532.995806
364.444478	2533.774664
364.832603	2536.025539
365.220665	2536.126362
365.608665	2533.694005
365.996601	2534.503111
366.384474	2536.368338
366.772284	2537.822710
367.160031	2539.309851
367.547715	2539.796322
367.935336	2538.677186
368.322893	2536.360776
368.710388	2534.407329
369.097820	2536.736342
369.485189	2535.448327
369.872495	2540.449152
370.259738	2540.169368
370.646918	2540.880170
371.034035	2540.796991
371.421090	2540.618030
371.808081	2542.931920
372.195010	2540.239944
372.581875	2541.563247
372.968678	2541.354039
373.355418	2542.256405
373.742096	2540.121477
374.128710	2540.726415
374.515262	2541.245654
374.901751	2541.951415
375.288177	2542.581560
375.674540	2543.763710
376.060841	2542.314378
376.447079	2540.950746
376.833254	2542.561395
377.219367	2543.478885
377.605417	2544.290511
377.991404	2545.807898
378.377329	2543.562064
378.763191	2545.797816
379.148991	2545.553320
379.534727	2543.836807
379.920402	2545.228165
380.306013	2545.520552
380.691563	2546.823691
381.077049	2543.758669
381.462474	2545.233207
381.847835	2547.037940
382.233134	2548.857796
382.618371	2547.479041
383.003545	2546.672456
383.388657	2545.202960
383.773706	2547.673125
384.158693	2547.216901
384.543618	2546.039791
384.928480	2547.756304
385.313280	2547.161448
385.698017	2548.948537
386.082692	2551.259906
386.467305	2548.071376
386.851856	2547.615152
387.236344	2548.323434
387.620770	2547.529452
388.005133	2547.312682
388.389435	2547.229503
388.773674	2544.802188
389.157851	2552.283260
389.541965	2552.142108
389.926018	2549.291335
390.310008	2549.656819
390.693936	2552.167314
391.077802	2549.838301
391.461606	2554.713096
391.845348	2552.437015
392.229027	2552.857952
392.612645	2552.905843
392.996200	2551.660678
393.379694	2551.229659
393.763125	2554.125802
394.146494	2555.476831
394.529801	2553.954403
394.913047	2554.219063
395.296230	2553.840977
395.679351	2553.946841
396.062410	2555.832232
396.445408	2553.898950
396.828343	2556.132181
397.211217	2551.958106
397.594028	2555.789383
397.976778	2555.091183
398.359466	2556.704352
398.742092	2552.961295
399.124656	2557.024465
399.507158	2556.432130
399.889598	2558.194013
400.271977	2556.296019
400.654294	2555.058415
401.036549	2555.842315
401.418742	2556.969013
401.800874	2557.221070
402.182944	2555.658313
402.564952	2557.946997
402.946898	2557.359702
403.328783	2557.147974
403.710606	2556.492624
404.092367	2557.944476
404.474067	2560.971689
404.855705	2559.224929
405.237282	2557.359702
405.618797	2558.110834
406.000250	2559.822306
406.381642	2560.268448
406.762972	2556.719476
407.144240	2554.645041
407.525447	2557.077397
407.906593	2556.404403
408.287677	2558.995557
408.668700	2559.789538
409.049661	2562.224416
409.430560	2559.048489
409.811399	2563.197358
410.192176	2563.088973
410.572891	2560.676781
410.953545	2563.769529
411.334138	2558.987995
411.714669	2564.261042
412.095139	2561.816082
412.475547	2561.526216
412.855894	2562.940259
413.236180	2562.922615
413.616405	2561.737944
413.996568	2562.032852
414.376670	2562.965465
414.756711	2561.742985
415.136691	2561.884138
415.516609	2565.322205
415.896466	2564.445044
416.276262	2564.457647
416.655997	2566.990827
417.035670	2562.574776
417.415283	2565.969993
417.794834	2561.911864
418.174324	2563.653583
418.553753	2565.793553
418.933121	2564.949159
419.312428	2565.959911
419.691674	2564.997050
420.070859	2565.055023
420.449983	2565.526371
420.829045	2563.797256
421.208047	2565.982596
421.586988	2565.874211
421.965867	2563.280537
422.344686	2564.833213
422.723444	2565.783470
423.102141	2566.169118
423.480777	2568.253636
423.859352	2566.247256
424.237866	2564.646690
424.616319	2567.961249
424.994712	2568.286403
425.373044	2568.548543
425.751314	2561.153170
426.129524	2561.095197
426.507673	2565.942267
426.885762	2565.090312
427.263789	2567.618450
427.641756	2567.341187
428.019662	2567.263049
428.397508	2565.710373
428.775292	2567.247925
429.153016	2566.970662
429.530679	2567.172308
429.908282	2566.587534
430.285824	2568.535940
430.663305	2569.813873
431.040726	2568.740107
431.418086	2569.375292
431.795385	2569.060220
432.172624	2567.137020
432.549802	2568.578790
432.926920	2570.882597
433.303977	2570.471743
433.680974	2568.629202
434.057910	2568.994685
434.434786	2568.299006
434.811601	2568.099880
435.188355	2571.185067
435.565050	2572.697413
435.941683	2567.265569
436.318257	2571.598441
436.694770	2569.781105
437.071222	2569.735735
437.447614	2568.311609
437.823946	2571.663976
438.200218	2570.423852
438.576429	2569.337484
438.952580	2572.430232
439.328670	2572.556260
439.704700	2572.024419
440.080670	2570.900241
440.456580	2572.137845
440.832429	2570.504511
441.208218	2569.644994
441.583947	2572.478122
441.959616	2572.647001
442.335224	2572.594069
442.710773	2572.712536
443.086261	2572.369738
443.461689	2572.074830
443.837057	2572.079871
444.212365	2571.167422
444.587612	2569.723132
444.962800	2569.029973
445.337927	2569.466033
445.712995	2569.813873
446.088002	2571.258163
446.462949	2570.985941
446.837837	2573.219172
447.212664	2574.466858
447.587431	2573.403174
447.962139	2572.793195
448.336786	2575.679255
448.711374	2575.434759
449.085901	2576.117836
449.460369	2575.616241
449.834776	2574.348391
450.209124	2572.576425
450.583412	2576.901735
450.957640	2576.863926
451.331808	2575.994327
451.705917	2576.770665
452.079965	2576.475758
452.453954	2576.374934
452.827883	2577.257136
453.201752	2575.197825
453.575562	2574.424008
453.949311	2576.478278
454.323001	2577.617579
454.696632	2576.385017
455.070202	2577.045408
455.443713	2575.674214
455.817164	2576.284194
456.190556	2578.058680
456.563888	2578.451890
456.937160	2577.899883
457.310373	2575.981724
457.683526	2577.156313
458.056619	2577.983063
458.429653	2577.307548
458.802628	2579.467682
459.175542	2578.993814
459.548398	2579.417271
459.921194	2580.889288
460.293930	2578.237641
460.666607	2581.708475
461.039224	2580.130594
461.411782	2582.046232
461.784280	2579.326530
462.156719	2581.849628
462.529099	2585.945565
462.901419	2583.929103
463.273680	2577.796540
463.645882	2580.332240
464.018024	2578.766962
464.390106	2578.565316
464.762130	2580.894329
465.134094	2584.284505
465.505999	2583.823239
465.877845	2586.984043
466.249631	2588.876996
466.621358	2587.296594
466.993026	2586.124526
467.364634	2589.018148
467.736184	2585.660740
468.107674	2586.152252
468.479105	2589.040833
468.850477	2584.869279
469.221790	2586.064032
469.593043	2586.048909
469.964238	2584.390369
470.335373	2585.002869
470.706449	2586.462283
471.077467	2585.648137
471.448425	2588.309866
471.819324	2590.727099
472.190164	2588.284660
472.560945	2590.051585
472.931667	2588.246852
473.302330	2587.072263
473.672934	2588.214084
474.043479	2588.430854
474.413965	2586.928590
474.784393	2587.185689
475.154761	2588.100658
475.525070	2588.405648
475.895321	2590.459918
476.265513	2588.539239
476.635645	2587.853642
477.005719	2588.904722
477.375734	2590.848087
477.745691	2590.878334
478.115588	2591.526122
478.485427	2588.826584
478.855207	2592.821699
479.224928	2595.536360
479.594591	2594.278592
479.964194	2597.121803
480.333739	2596.163984
480.703226	2596.131216
481.072653	2595.685074
481.442022	2595.480907
481.811333	2595.808582
482.180584	2591.105186
482.549777	2595.546442
482.918912	2593.850094
483.287988	2597.300764
483.657005	2595.952255
484.025964	2599.070209
484.394864	2595.992585
484.763706	2599.045003
485.132489	2597.572986
485.501213	2596.380753
485.869879	2595.518716
486.238487	2597.015939
486.607036	2599.934767
486.975527	2595.485949
487.343959	2597.784715
487.712333	2598.888727
488.080648	2597.913264
488.448905	2600.103646
488.817104	2598.369489
489.185244	2599.042483
489.553326	2599.700353
489.921350	2600.524582
490.289315	2602.402412
490.657222	2602.994747
491.025070	2605.971549
491.392861	2606.745366
491.760593	2607.932557
492.128267	2605.618668
492.495883	2603.173708
492.863440	2600.960642
493.230939	2602.299068
493.598380	2602.057093
493.965763	2600.748913
494.333088	2601.989037
494.700354	2602.823348
495.067563	2602.790581
495.434713	2604.444079
495.801805	2603.445931
496.168839	2604.348297
496.535815	2604.552464
496.902733	2604.164295
497.269593	2604.113883
497.636395	2606.205962
498.003139	2604.479367
498.369825	2606.183277
498.736453	2607.947681
499.103023	2608.214862
499.469535	2605.900972
499.835989	2607.383072
500.202385	2605.248143
500.568723	2600.990889
500.935003	2606.558843
501.301226	2600.360744
501.667390	2612.454472
502.033497	2611.761314
502.399546	2609.454986
502.765537	2609.240737
503.131470	2610.939606
503.497345	2611.574791
503.863163	2610.891715
504.228923	2613.460183
504.594625	2614.133177
504.960269	2614.647374
505.325856	2613.881119
505.691385	2614.685183
506.056856	2615.262395
506.422270	2619.512088
506.787625	2616.396655
507.152924	2617.195678
507.518164	2620.865638
507.883347	2620.512757
508.248472	2619.648199
508.613540	2622.609877
508.978550	2622.874537
509.343503	2627.230094
509.708398	2627.404014
510.073236	2627.051133
510.438016	2631.285703
510.802738	2629.644807
511.167403	2630.806793
511.532010	2630.108593
511.896561	2634.801907
512.261053	2636.498256
512.625488	2633.864253
512.989866	2636.195787
513.354186	2639.883391
513.718449	2641.345325
514.082655	2646.268012
514.446803	2645.138793
514.810894	2648.024854
515.174927	2646.356232
515.538904	2650.973929
515.902822	2652.214053
516.266684	2654.900988
516.630488	2656.168838
516.994235	2662.407266
517.357925	2663.654952
517.721558	2667.455982
518.085133	2669.172494
518.448651	2669.893379
518.812112	2667.786177
519.175516	2674.795902
519.538863	2676.764472
519.902152	2682.377797
520.265385	2686.395597
520.628560	2688.336441
520.991678	2691.867769
521.354739	2696.591330
521.717743	2699.744572
522.080690	2707.235727
522.443580	2709.466437
522.806413	2716.244268
523.169189	2720.355329
523.531908	2724.529405
523.894569	2726.603840
524.257174	2735.168760
524.619722	2738.836199
524.982213	2744.313413
525.344647	2748.505132
525.707025	2757.581730
526.069345	2768.147988
526.431608	2770.232506
526.793815	2778.439504
527.155964	2784.146090
527.518057	2789.961061
527.880093	2800.005560
528.242072	2811.204483
528.603995	2816.253199
528.965860	2824.072029
529.327669	2835.772547
529.689421	2845.131449
530.051117	2853.461956
530.412755	2868.935777
530.774337	2876.099257
531.135862	2886.451266
531.497331	2901.894841
531.858743	2909.375913
532.220098	2929.684202
532.581396	2934.380037
532.942638	2951.726647
533.303824	2970.270531
533.664953	2985.736791
534.026025	2997.323883
534.387040	3019.136956
534.747999	3044.335164
535.108902	3058.556259
535.469748	3069.208217
535.830537	3092.843667
536.191270	3119.720578
536.551947	3138.337559
536.912567	3146.284938
537.273131	3178.812984
537.633638	3195.393339
537.994089	3230.653689
538.354483	3241.499732
538.714821	3284.745270
539.075103	3319.211639
539.435328	3338.070595
539.795497	3355.714634
540.155609	3397.767939
540.515665	3436.504165
540.875665	3445.563119
541.235609	3480.931854
541.595496	3525.054553
541.955328	3571.707912
542.315102	3608.929271
542.674821	3623.127681
543.034483	3651.723626
543.394090	3690.238041
543.753640	3713.991958
544.113134	3780.719191
544.472571	3813.012823
544.831953	3883.911610
545.191278	3898.798138
545.550548	3943.437555
545.909761	3977.470385
546.268918	4050.945202
546.628019	4094.150411
546.987064	4148.168895
547.346053	4176.311136
547.704986	4228.897933
548.063863	4301.868635
548.422684	4328.591791
548.781449	4370.216598
549.140158	4457.403354
549.498811	4503.023276
549.857408	4516.767982
550.215949	4612.134010
550.574434	4642.512003
550.932864	4724.592070
551.291237	4786.237820
551.649555	4853.222151
552.007817	4924.025157
552.366022	4979.724866
552.724173	5024.389489
553.082267	5098.123926
553.440305	5210.193817
553.798288	5205.424885
554.156215	5335.894988
554.514086	5411.887862
554.871902	5405.876286
555.229661	5505.527294
555.587365	5583.014870
555.945014	5624.037260
556.302606	5759.873671
556.660143	5800.205422
557.017625	5935.308345
557.375050	5953.418690
557.732421	6064.649229
558.089735	6141.302494
558.446994	6214.542898
558.804197	6318.070554
559.161345	6406.346199
559.518437	6403.550879
559.875474	6562.816052
560.232455	6647.212529
560.589381	6737.804585
560.946251	6790.517410
561.303065	6955.524457
561.659825	7062.180149
562.016528	7076.565082
562.373177	7127.573997
562.729770	7253.312977
563.086307	7364.326746
563.442789	7482.115827
563.799216	7543.244858
564.155587	7611.930579
564.511904	7741.122749
564.868164	7781.590612
565.224370	7913.205057
565.580520	7950.439019
565.936615	8102.775126
566.292654	8101.414015
566.648638	8308.786919
567.004567	8343.759924
567.360441	8434.964480
567.716260	8454.461142
568.072023	8669.967948
568.427732	8696.948204
568.783385	8727.777380
569.138982	8892.217298
569.494525	9021.369139
569.850013	9076.635309
570.205445	9180.732615
570.560823	9192.289460
570.916145	9269.046069
571.271412	9376.578921
571.626625	9456.302249
571.981782	9552.948730
572.336884	9575.149971
572.691931	9734.095032
573.046923	9700.646976
573.401860	9812.653853
573.756743	9925.676522
574.111570	9981.406477
574.466342	10036.450836
574.821059	10190.826091
575.175722	10166.240383
575.530330	10299.031937
575.884882	10383.471264
576.239380	10476.299071
576.593823	10518.518735
576.948211	10588.046328
577.302544	10618.492377
577.656823	10677.753661
578.011047	10831.433236
578.365216	10873.184072
578.719330	10913.800649
579.073389	10962.440222
579.427394	11156.247381
579.781344	11109.508323
580.135239	11195.434791
580.489080	11246.410938
580.842866	11218.626619
581.196597	11448.188162
581.550273	11460.586880
581.903895	11585.345356
582.257463	11795.266563
582.610975	11679.350272
582.964434	11909.115982
583.317837	11872.923018
583.671186	12003.549396
584.024481	12094.809404
584.377721	12043.548432
584.730906	12166.940754
585.084037	12289.594548
585.437113	12317.293168
585.790135	12499.903925
586.143103	12327.826659
586.496016	12384.370761
586.848874	12677.889423
587.201679	12694.842823
587.554428	12585.104466
587.907124	12873.949978
588.259765	12826.215292
588.612352	12988.510199
588.964884	12817.083242
589.317362	12998.804236
589.669786	13115.554838
590.022155	13231.269483
590.374470	13420.708483
590.726731	13408.372780
591.078937	13325.072754
591.431090	13454.025469
591.783188	13366.067417
592.135232	13435.554681
592.487222	13608.466258
592.839157	13687.433413
593.191038	13710.567268
593.542866	13696.331049
593.894639	13631.264877
594.246358	13827.537160
594.598022	13832.389271
594.949633	13771.671093
595.301190	13791.094659
595.652692	13979.785048
596.004141	14211.864647
596.355535	13847.326210
596.706876	13919.192899
597.058162	13930.936267
597.409395	14121.771666
597.760573	14293.753150
598.111698	14198.177915
598.462768	14224.359147
598.813785	14239.301127
599.164748	14202.679665
599.515657	14277.540800
599.866511	14204.282752
600.217312	14509.701058
600.568060	14243.394544
600.918753	14532.126631
601.269392	14543.630544
601.619978	14417.609259
601.970510	14667.146375
602.320988	14660.086239
602.671412	14873.626995
603.021783	14859.975550
603.372100	14727.269696
603.722363	14888.775662
604.072572	14904.768723
604.422728	15041.535227
604.772830	14955.127329
605.122878	14935.360965
605.472872	15007.225134
605.822813	15050.274067
606.172701	15068.699484
606.522534	15290.653926
606.872314	15359.730337
607.222041	15262.826757
607.571714	15485.978473
607.921333	15416.655046
608.270899	15521.458114
608.620411	15747.896662
608.969870	15565.205247
609.319276	15619.715244
609.668627	15707.607761
610.017926	15861.763725
610.367171	15996.876730
610.716362	16091.736122
611.065500	15960.837522
611.414585	16119.291069
611.763616	16141.036086
612.112594	16157.810526
612.461518	16160.552913
612.810389	16372.359513
613.159207	16269.698935
613.507971	16228.910960
613.856682	16551.091102
614.205340	16513.423600
614.553945	16687.161927
614.902496	16474.826006
615.250994	16761.513905
615.599439	16724.768934
615.947830	16737.472642
616.296169	16797.709389
616.644454	16818.098336
616.992686	16808.996533
617.340864	17025.690531
617.688990	16854.051845
618.037063	17041.078653
618.385082	16934.004545
618.733048	17204.807768
619.080961	17106.137264
619.428821	17176.645362
619.776628	17128.378835
620.124382	17064.386428
620.472083	17130.465872
620.819731	17196.681428
621.167326	16941.014270
621.514868	17016.684509
621.862357	16829.035119
622.209793	16875.690998
622.557176	16771.442457
622.904506	16630.353164
623.251783	16584.433293
623.599007	16420.341215
623.946179	16388.851648
624.293297	16374.446551
624.640363	16172.455078
624.987376	16207.838937
625.334336	16015.276942
625.681243	15894.453087
626.028097	15920.515853
626.374899	15886.407406
626.721647	15772.966321
627.068343	15636.802235
627.414987	15589.551500
627.761577	15594.375884
628.108115	15659.580688
628.454600	15386.357712
628.801032	15487.483258
629.147412	15437.291009
629.493739	15479.785416
629.840014	15306.848633
630.186236	15427.619556
630.532405	15207.069075
630.878521	15404.349590
631.224585	15308.522296
631.570597	15153.164017
631.916556	15195.340831
632.262462	15179.496484
632.608316	15116.046001
632.954117	15070.259721
633.299866	15080.790692
633.645562	15022.671229
633.991206	14779.692655
634.336797	14664.308205
634.682336	14650.911339
635.027823	14561.556887
635.373257	14470.070027
635.718639	14360.797976
636.063968	14328.123737
636.409245	14101.458337
636.754470	14139.060303
637.099642	13996.627543
637.444762	13787.505358
637.789829	13839.189788
638.134845	13697.919013
638.479808	13719.066653
638.824719	13685.835367
639.169577	13540.125856
639.514383	13591.845574
639.859137	13412.299839
640.203839	13499.594979
640.548489	13345.854910
640.893086	13335.661697
641.237632	13209.837018
641.582125	13359.430738
