Dividing Wavelength (nm)	Counts (n)	Blue Motor Position (mm): 0.000000	Red Motor Position (mm): 49.300000	
326.493990	2128.037397
326.888308	2128.037397
327.282561	2128.037397
327.676750	2096.147057
328.070874	2096.615885
328.464933	2095.889958
328.858929	2100.815166
329.252859	2113.697834
329.646726	2125.330297
330.040528	2138.278501
330.434265	2154.458084
330.827938	2170.410815
331.221547	2188.523681
331.615091	2211.622248
332.008571	2229.805690
332.401986	2250.391242
332.795338	2267.437903
333.188625	2285.666716
333.581847	2307.036167
333.975006	2325.489310
334.368100	2343.191322
334.761129	2359.416276
335.154095	2375.656353
335.546996	2399.029663
335.939833	2421.614032
336.332606	2439.121959
336.725315	2451.097220
337.117960	2461.534929
337.510540	2468.910137
337.903056	2481.641571
338.295508	2485.530822
338.687896	2497.808552
339.080220	2505.340036
339.472480	2513.123577
339.864676	2516.901922
340.256807	2520.498785
340.648875	2521.973323
341.040879	2525.040865
341.432818	2525.310567
341.824694	2530.190403
342.216506	2530.122348
342.608253	2532.244674
342.999937	2531.914478
343.391557	2529.285516
343.783113	2528.146216
344.174605	2527.314425
344.566033	2525.602953
344.957397	2525.308046
345.348697	2522.616070
345.739934	2520.153466
346.131106	2517.249762
346.522215	2516.594412
346.913260	2513.085768
347.304241	2515.134997
347.695159	2512.919410
348.086012	2510.108967
348.476802	2508.102588
348.867528	2504.843482
349.258191	2505.516476
349.648789	2506.222238
350.039324	2503.802484
350.429796	2502.176712
350.820203	2502.716115
351.210548	2498.816783
351.600828	2500.916423
351.991045	2497.352327
352.381198	2496.540702
352.771288	2497.304436
353.161314	2498.529437
353.551276	2497.599344
353.941175	2498.416011
354.331010	2499.323418
354.720782	2494.773777
355.110490	2496.966679
355.500135	2498.335352
355.889717	2498.831906
356.279235	2497.014570
356.668689	2502.466578
357.058080	2500.412308
357.447408	2497.629591
357.836672	2495.396360
358.225873	2499.671258
358.615010	2494.955259
359.004084	2502.058244
359.393095	2499.724190
359.782043	2503.321053
360.170927	2502.075888
360.559748	2502.322905
360.948505	2504.029336
361.337199	2502.098574
361.725830	2506.776764
362.114398	2509.688031
362.502903	2505.864316
362.891344	2507.477485
363.279722	2508.964625
363.668037	2508.263905
364.056289	2510.882784
364.444478	2508.921775
364.832603	2510.512259
365.220665	2510.729029
365.608665	2509.398164
365.996601	2513.796571
366.384474	2517.075842
366.772284	2516.992663
367.160031	2516.813702
367.547715	2516.939731
367.935336	2519.198167
368.322893	2524.839219
368.710388	2526.548170
369.097820	2533.167205
369.485189	2536.171733
369.872495	2544.020809
370.259738	2549.550955
370.646918	2558.055381
371.034035	2564.041752
371.421090	2573.519121
371.808081	2585.368353
372.195010	2593.270362
372.581875	2605.245622
372.968678	2616.830194
373.355418	2627.766977
373.742096	2646.472179
374.128710	2660.400887
374.515262	2677.576098
374.901751	2689.188396
375.288177	2705.710777
375.674540	2726.878582
376.060841	2746.289545
376.447079	2766.824686
376.833254	2785.605504
377.219367	2795.208902
377.605417	2834.681137
377.991404	2847.500791
378.377329	2869.631457
378.763191	2885.017058
379.148991	2923.929725
379.534727	2948.704475
379.920402	2977.600369
380.306013	2988.597646
380.691563	3040.017415
381.077049	3059.730848
381.462474	3079.015782
381.847835	3115.322172
382.233134	3138.103146
382.618371	3137.024339
383.003545	3205.394988
383.388657	3211.943447
383.773706	3245.827562
384.158693	3262.750716
384.543618	3287.220477
384.928480	3324.731702
385.313280	3372.015205
385.698017	3370.802807
386.082692	3423.868513
386.467305	3425.670726
386.851856	3458.488637
387.236344	3483.396978
387.620770	3512.958305
388.005133	3538.605175
388.389435	3568.368147
388.773674	3581.502873
389.157851	3621.033081
389.541965	3635.644866
389.926018	3599.217488
390.310008	3671.845392
390.693936	3688.448432
391.077802	3729.990060
391.461606	3720.616034
391.845348	3783.227165
392.229027	3781.092237
392.612645	3797.110503
392.996200	3873.070609
393.379694	3911.602668
393.763125	3975.839571
394.146494	3943.785395
394.529801	4001.988036
394.913047	4056.790420
395.296230	4022.790358
395.679351	4077.146599
396.062410	4099.713324
396.445408	4081.668514
396.828343	4113.286631
397.211217	4136.886793
397.594028	4056.082138
397.976778	4124.609063
398.359466	4150.432373
398.742092	4178.604861
399.124656	4105.311526
399.507158	4180.190304
399.889598	4209.219789
400.271977	4266.242800
400.654294	4237.634252
401.036549	4249.969956
401.418742	4220.156572
401.800874	4320.611645
402.182944	4339.334490
402.564952	4409.046086
402.946898	4389.945154
403.328783	4391.192840
403.710606	4305.891475
404.092367	4498.750898
404.474067	4458.938386
404.855705	4468.395590
405.237282	4396.309611
405.618797	4508.671889
406.000250	4540.423596
406.381642	4619.047952
406.762972	4584.405143
407.144240	4592.695321
407.525447	4592.909570
407.906593	4653.317716
408.287677	4692.628634
408.668700	4624.459631
409.049661	4676.305378
409.430560	4720.992686
409.811399	4644.057117
410.192176	4806.281447
410.572891	4746.216099
410.953545	4844.657231
411.334138	4727.566351
411.714669	4794.192760
412.095139	4685.800391
412.475547	4831.530066
412.855894	4811.400739
413.236180	4821.886339
413.616405	4773.392960
413.996568	4859.402606
414.376670	4803.685253
414.756711	4761.067338
415.136691	4790.406854
415.516609	4870.692270
415.896466	4907.018825
416.276262	4939.453608
416.655997	4917.426287
417.035670	5104.372436
417.415283	5193.910890
417.794834	5135.410820
418.174324	5091.688893
418.553753	4996.700952
418.933121	5182.449827
419.312428	5250.505404
419.691674	5192.078431
420.070859	5314.898582
420.449983	5228.291559
420.829045	5342.090566
421.208047	5246.185135
421.586988	5319.218851
421.965867	5331.869627
422.344686	5462.826201
422.723444	5317.502338
423.102141	5138.180934
423.480777	5434.951141
423.859352	5207.027972
424.237866	5464.469617
424.616319	5457.618689
424.994712	5565.244803
425.373044	5443.032110
425.751314	5587.796405
426.129524	5390.712495
426.507673	5581.005970
426.885762	5665.823384
427.263789	5595.398465
427.641756	5478.605012
428.019662	5599.721254
428.397508	5605.327017
428.775292	5553.171239
429.153016	5654.629502
429.530679	5578.437502
429.908282	5665.067211
430.285824	5534.614752
430.663305	5807.704138
431.040726	5544.475249
431.418086	5547.459612
431.795385	5652.814686
432.172624	5666.566954
432.549802	5655.090767
432.926920	5666.370349
433.303977	5673.281771
433.680974	5714.402463
434.057910	5734.735957
434.434786	5740.258541
434.811601	5703.841246
435.188355	5945.723369
435.565050	5816.931970
435.941683	5798.874557
436.318257	6015.566035
436.694770	5997.236399
437.071222	6032.640423
437.447614	5961.824814
437.823946	5873.145877
438.200218	6030.568509
438.576429	5896.128497
438.952580	5991.401264
439.328670	6036.945568
439.704700	5946.968534
440.080670	5929.984887
440.456580	6202.403799
440.832429	6084.735707
441.208218	5930.534372
441.583947	6086.094298
441.959616	6092.947746
442.335224	6019.200707
442.710773	6152.965203
443.086261	6182.738258
443.461689	5975.390559
443.837057	6122.428414
444.212365	6281.224760
444.587612	6178.188617
444.962800	6322.955432
445.337927	6309.692156
445.712995	5913.951497
446.088002	6491.027501
446.462949	6323.441903
446.837837	6259.862871
447.212664	6427.778664
447.587431	6569.425005
447.962139	7109.488858
448.336786	8040.736167
448.711374	7778.356712
449.085901	6854.524940
449.460369	6776.031654
449.834776	6711.888013
450.209124	7099.109122
450.583412	7253.935559
450.957640	7396.421252
451.331808	7157.689850
451.705917	6713.357509
452.079965	6638.264481
452.453954	6854.807245
452.827883	6727.457616
453.201752	6816.527243
453.575562	6616.675740
453.949311	6824.824982
454.323001	6708.747374
454.696632	6788.294261
455.070202	6924.450785
455.443713	7079.506595
455.817164	7182.182296
456.190556	7262.034173
456.563888	7338.705082
456.937160	7378.205043
457.310373	7036.001438
457.683526	7058.396763
458.056619	6948.597912
458.429653	6942.155318
458.802628	6875.904474
459.175542	6984.024621
459.548398	7334.483116
459.921194	7496.392374
460.293930	7503.492839
460.666607	8034.243160
461.039224	8343.578443
461.411782	8462.905075
461.784280	8487.153025
462.156719	8377.210501
462.529099	8256.381605
462.901419	7842.767534
463.273680	7731.947849
463.645882	7748.301352
464.018024	7616.455015
464.390106	7781.235211
464.762130	8167.483377
465.134094	8638.609451
465.505999	9661.056274
465.877845	10886.296113
466.249631	11533.681090
466.621358	11149.913172
466.993026	10523.819508
467.364634	10268.041444
467.736184	9891.419361
468.107674	9564.583713
468.479105	9602.513354
468.850477	9362.977888
469.221790	9134.409452
469.593043	8805.227147
469.964238	8666.925612
470.335373	8680.839197
470.706449	8741.494360
471.077467	8720.147594
471.448425	10029.667964
471.819324	11103.365678
472.190164	11129.677980
472.560945	9880.086847
472.931667	9090.682484
473.302330	8953.190054
473.672934	8596.377185
474.043479	8959.080642
474.413965	8900.028566
474.784393	8781.747973
475.154761	8936.713043
475.525070	9022.397534
475.895321	8850.698355
476.265513	9030.622177
476.635645	9198.311118
477.005719	9194.048823
477.375734	9305.090319
477.745691	9544.867760
478.115588	9685.684831
478.485427	9920.862220
478.855207	10464.883378
479.224928	11276.746082
479.594591	11905.095662
479.964194	11714.935777
480.333739	11656.614668
480.703226	11576.470404
481.072653	11665.766883
481.442022	11900.808160
481.811333	12089.236409
482.180584	11892.497818
482.549777	11611.594644
482.918912	11426.367528
483.287988	11450.255035
483.657005	11466.684156
484.025964	11143.407562
484.394864	11278.570979
484.763706	11247.003274
485.132489	11003.989412
485.501213	10966.649585
485.869879	11043.844774
486.238487	10879.755216
486.607036	10997.171251
486.975527	10774.095152
487.343959	10965.621190
487.712333	11009.824547
488.080648	10948.022522
488.448905	10987.333439
488.817104	10924.137535
489.185244	11187.522700
489.553326	11343.538850
489.921350	11877.296219
490.289315	12941.962705
490.657222	13287.611939
491.025070	13198.509545
491.392861	13074.592943
491.760593	12691.460209
492.128267	12346.612518
492.495883	12007.794048
492.863440	11672.048161
493.230939	11336.430823
493.598380	11275.684919
493.965763	11141.958231
494.333088	11040.016018
494.700354	10961.013575
495.067563	11023.100426
495.434713	10856.311330
495.801805	10985.168264
496.168839	10904.552652
496.535815	10842.095277
496.902733	10846.065185
497.269593	10772.723958
497.636395	10879.684640
498.003139	10859.837618
498.369825	10727.209901
498.736453	10883.485670
499.103023	10815.016719
499.469535	10836.552528
499.835989	10827.506177
500.202385	10790.930086
500.568723	10638.876283
500.935003	10865.869358
501.301226	10669.450881
501.667390	10929.652557
502.033497	11029.830366
502.399546	10885.817204
502.765537	10795.048708
503.131470	10865.645027
503.497345	11042.380319
503.863163	10651.930351
504.228923	10971.113527
504.594625	11031.027640
504.960269	10780.147058
505.325856	10994.259985
505.691385	10793.163317
506.056856	10949.391195
506.422270	10966.826026
506.787625	10855.353511
507.152924	10980.565690
507.518164	10960.189347
507.883347	10878.384023
508.248472	10793.589294
508.613540	11022.868533
508.978550	10918.236864
509.343503	10892.403471
509.708398	11013.431493
510.073236	11120.006526
510.438016	11127.419543
510.802738	11070.827550
511.167403	11126.693617
511.532010	11023.748214
511.896561	11252.233471
512.261053	11321.168729
512.625488	11190.776765
512.989866	11175.607933
513.354186	11167.191726
513.718449	11068.148177
514.082655	11260.246385
514.446803	11153.381485
514.810894	11285.895776
515.174927	11149.893007
515.538904	11170.644917
515.902822	11319.464819
516.266684	11203.419978
516.630488	11155.077834
516.994235	11202.797396
517.357925	11277.038469
517.721558	11355.007475
518.085133	11376.777697
518.448651	11386.345807
518.812112	11268.897005
519.175516	11287.811414
519.538863	11408.806668
519.902152	11319.825262
520.265385	11481.316105
520.628560	11388.389995
520.991678	11370.892150
521.354739	11432.187540
521.717743	11363.368228
522.080690	11341.172028
522.443580	11481.104376
522.806413	11433.755339
523.169189	11463.293980
523.531908	11522.588031
523.894569	11338.361585
524.257174	11345.136895
524.619722	11463.286418
524.982213	11416.106259
525.344647	11460.682662
525.707025	11417.243039
526.069345	11510.078408
526.431608	11422.674883
526.793815	11534.490196
527.155964	11322.028246
527.518057	11380.694674
527.880093	11328.629637
528.242072	11393.531972
528.603995	11303.128960
528.965860	11225.661549
529.327669	11273.393714
529.689421	11225.916128
530.051117	11193.713237
530.412755	11299.053188
530.774337	11193.320027
531.135862	11168.141984
531.497331	11188.871208
531.858743	11045.152953
532.220098	11216.524458
532.581396	11081.920609
532.942638	11059.948740
533.303824	11029.326251
533.664953	11038.904443
534.026025	10957.754469
534.387040	11049.939529
534.747999	11054.721063
535.108902	11113.763057
535.469748	10875.384536
535.830537	10974.975051
536.191270	10953.716505
536.551947	10977.130144
536.912567	10976.646193
537.273131	10903.186499
537.633638	10877.930319
537.994089	10867.036385
538.354483	10817.121400
538.714821	10966.420213
539.075103	10968.807199
539.435328	10937.773856
539.795497	10761.252813
540.155609	10920.109653
540.515665	11008.314722
540.875665	10748.818807
541.235609	10812.196193
541.595496	10807.220574
541.955328	10970.921963
542.315102	10847.988385
542.674821	10794.494181
543.034483	10795.706579
543.394090	10804.629421
543.753640	10734.244831
544.113134	10960.537186
544.472571	10809.695781
544.831953	10955.659870
545.191278	10758.268450
545.550548	10786.672831
545.909761	10932.745305
546.268918	10899.990408
546.628019	10980.800104
546.987064	10839.872128
547.346053	10770.009297
547.704986	10865.710562
548.063863	10854.718326
548.422684	10843.229536
548.781449	10760.758780
549.140158	10861.884326
549.498811	10738.607950
549.857408	10598.632752
550.215949	10819.359673
550.574434	10670.905254
550.932864	10778.748137
551.291237	10836.756695
551.649555	10783.529672
552.007817	10797.339913
552.366022	10752.372820
552.724173	10748.397871
553.082267	10737.065357
553.440305	10872.316994
553.798288	10673.148567
554.156215	10823.069962
554.514086	10802.111365
554.871902	10653.062090
555.229661	10689.681031
555.587365	10672.394915
555.945014	10562.931300
556.302606	10688.508963
556.660143	10585.545916
557.017625	10735.406817
557.375050	10633.026024
557.732421	10768.819585
558.089735	10680.216265
558.446994	10679.689464
558.804197	10718.259332
559.161345	10720.457275
559.518437	10568.365664
559.875474	10658.219190
560.232455	10677.718373
560.589381	10638.720007
560.946251	10631.508636
561.303065	10740.929401
561.659825	10672.959524
562.016528	10612.034659
562.373177	10483.349125
562.729770	10597.309449
563.086307	10520.827583
563.442789	10606.711201
563.799216	10481.839299
564.155587	10531.487103
564.511904	10487.233334
564.868164	10480.571449
565.224370	10497.083748
565.580520	10412.964535
565.936615	10423.180433
566.292654	10296.639910
566.648638	10426.157234
567.004567	10378.407425
567.360441	10361.506957
567.716260	10268.290981
568.072023	10369.174552
568.427732	10317.759824
568.783385	10226.628365
569.138982	10302.429675
569.494525	10313.772271
569.850013	10189.341471
570.205445	10275.194841
570.560823	10165.191823
570.916145	10088.657026
571.271412	10153.393003
571.626625	10102.046330
571.981782	10079.083874
572.336884	10061.878416
572.691931	10051.942302
573.046923	10005.588893
573.401860	9959.452252
573.756743	9895.424558
574.111570	9941.142782
574.466342	9925.588302
574.821059	9956.422519
575.175722	9846.767341
575.530330	9856.637920
575.884882	9850.255819
576.239380	9771.449982
576.593823	9748.227906
576.948211	9774.449468
577.302544	9647.699737
577.656823	9662.412344
578.011047	9664.030555
578.365216	9636.163056
578.719330	9560.092045
579.073389	9567.275689
579.427394	9517.890025
579.781344	9493.188372
580.135239	9446.277914
580.489080	9456.004821
580.842866	9356.179892
581.196597	9363.681129
581.550273	9401.267972
581.903895	9367.819917
582.257463	9433.589330
582.610975	9308.198190
582.964434	9335.889248
583.317837	9259.805634
583.671186	9244.725022
584.024481	9237.296882
584.377721	9156.524994
584.730906	9135.294175
585.084037	9162.655037
585.437113	9097.009132
585.790135	9118.542421
586.143103	9020.466772
586.496016	8997.683278
586.848874	9054.663440
587.201679	9045.672542
587.554428	8922.295342
587.907124	8978.093354
588.259765	8943.984907
588.612352	8946.470196
588.964884	8826.387391
589.317362	8839.804422
589.669786	8842.698044
590.022155	8885.636072
590.374470	8899.869770
590.726731	8843.192077
591.078937	8697.119603
591.431090	8808.342580
591.783188	8681.807098
592.135232	8664.213471
592.487222	8673.852158
592.839157	8718.567192
593.191038	8653.780803
593.542866	8600.450437
593.894639	8497.910847
594.246358	8555.105258
594.598022	8566.904079
594.949633	8463.683933
595.301190	8439.962784
595.652692	8468.266342
596.004141	8576.462106
596.355535	8356.108231
596.706876	8332.263573
597.058162	8269.297041
597.409395	8346.290583
597.760573	8407.384327
598.111698	8317.782858
598.462768	8303.586969
598.813785	8271.507587
599.164748	8234.119869
599.515657	8225.285247
599.866511	8136.167729
600.217312	8262.136082
600.568060	8120.900595
600.918753	8227.145433
601.269392	8199.393881
601.619978	8108.398533
601.970510	8172.073348
602.320988	8165.512286
602.671412	8219.240904
603.021783	8159.548601
603.372100	8135.008264
603.722363	8137.957339
604.072572	8112.693597
604.422728	8116.875234
604.772830	8051.501551
605.122878	8060.535298
605.472872	8057.263589
605.822813	8083.913649
606.172701	8031.228550
606.522534	8106.288811
606.872314	8105.323430
607.222041	8072.422339
607.571714	8127.595247
607.921333	8086.063701
608.270899	8090.968744
608.620411	8180.703803
608.969870	8090.794824
609.319276	8073.932165
609.668627	8095.339424
610.017926	8130.907285
610.367171	8177.530397
610.716362	8157.985843
611.065500	8145.934965
611.414585	8171.049993
611.763616	8156.473497
612.112594	8142.567474
612.461518	8152.896798
612.810389	8221.368271
613.159207	8160.382912
613.507971	8108.975746
613.856682	8225.345741
614.205340	8174.856065
614.553945	8258.408148
614.902496	8151.346644
615.250994	8211.275881
615.599439	8191.302829
615.947830	8203.399078
616.296169	8177.129625
616.644454	8191.842233
616.992686	8190.440792
617.340864	8246.458093
617.688990	8153.879823
618.037063	8240.680931
618.385082	8196.331380
618.733048	8271.555478
619.080961	8215.565903
619.428821	8234.860919
619.776628	8236.524500
620.124382	8188.058847
620.472083	8173.394130
620.819731	8198.806587
621.167326	8093.575021
621.514868	8107.153368
621.862357	7992.210020
622.209793	8005.929520
622.557176	7940.931403
622.904506	7909.467041
623.251783	7845.898091
623.599007	7800.537789
623.946179	7799.368241
624.293297	7759.545646
624.640363	7674.589601
624.987376	7660.020666
625.334336	7611.323120
625.681243	7556.926550
626.028097	7547.073614
626.374899	7523.765840
626.721647	7513.275198
627.068343	7443.056967
627.414987	7418.123420
627.761577	7369.584670
628.108115	7407.395844
628.454600	7301.773589
628.801032	7357.092691
629.147412	7313.771535
629.493739	7305.115874
629.840014	7243.512974
630.186236	7296.319060
630.532405	7182.774632
630.878521	7231.943526
631.224585	7189.902823
631.570597	7113.935155
631.916556	7142.631924
632.262462	7141.646378
632.608316	7097.914368
632.954117	7078.140442
633.299866	7067.271715
633.645562	7055.503141
633.991206	6980.044630
634.336797	6923.364417
634.682336	6880.809516
635.027823	6845.957499
635.373257	6835.454255
635.718639	6770.955212
636.063968	6781.496265
636.409245	6677.159504
636.754470	6674.850655
637.099642	6631.315251
637.444762	6571.575057
637.789829	6586.312870
638.134845	6525.196442
638.479808	6503.169120
638.824719	6517.680081
639.169577	6446.806499
639.514383	6465.352904
639.859137	6396.566360
640.203839	6404.962402
640.548489	6387.444392
