Dividing Wavelength (nm)	Counts (n)	Blue Motor Position (mm): 0.000000	Red Motor Position (mm): 38.900000	
326.493990	2125.811727
326.888308	2125.811727
327.282561	2125.811727
327.676750	2095.073292
328.070874	2092.628332
328.464933	2097.175453
328.858929	2103.048397
329.252859	2113.733123
329.646726	2123.220574
330.040528	2136.251957
330.434265	2153.550676
330.827938	2171.834941
331.221547	2189.824299
331.615091	2209.177288
332.008571	2228.253014
332.401986	2247.424523
332.795338	2266.412028
333.188625	2286.866510
333.581847	2305.891825
333.975006	2323.188024
334.368100	2339.909531
334.761129	2358.922243
335.154095	2375.757176
335.546996	2395.276524
335.939833	2416.623290
336.332606	2431.174580
336.725315	2442.428956
337.117960	2453.632921
337.510540	2461.983592
337.903056	2473.101857
338.295508	2479.151241
338.687896	2488.956286
339.080220	2496.064313
339.472480	2503.182422
339.864676	2508.871364
340.256807	2514.041067
340.648875	2514.545183
341.040879	2518.938548
341.432818	2520.186234
341.824694	2515.883609
342.216506	2522.729496
342.608253	2523.765453
342.999937	2520.506347
343.391557	2522.832839
343.783113	2521.590195
344.174605	2519.079700
344.566033	2518.323527
344.957397	2517.098527
345.348697	2513.874709
345.739934	2513.960409
346.131106	2511.712054
346.522215	2510.366066
346.913260	2507.222907
347.304241	2506.892711
347.695159	2504.490601
348.086012	2504.283914
348.476802	2498.610095
348.867528	2500.321567
349.258191	2499.041114
349.648789	2495.971051
350.039324	2495.270331
350.429796	2496.654127
350.820203	2494.614981
351.210548	2491.116420
351.600828	2492.139774
351.991045	2493.876452
352.381198	2488.048878
352.771288	2489.921667
353.161314	2492.601040
353.551276	2490.950062
353.941175	2488.447129
354.331010	2488.124495
354.720782	2489.737664
355.110490	2490.899650
355.500135	2491.093735
355.889717	2489.543580
356.279235	2488.618528
356.668689	2493.097593
357.058080	2491.615494
357.447408	2490.022490
357.836672	2489.714979
358.225873	2489.667088
358.615010	2489.896461
359.004084	2494.446102
359.393095	2494.458705
359.782043	2495.235043
360.170927	2494.627584
360.559748	2497.743017
360.948505	2496.291164
361.337199	2499.358707
361.725830	2497.523727
362.114398	2499.018429
362.502903	2501.140754
362.891344	2501.521362
363.279722	2502.809376
363.668037	2499.089005
364.056289	2501.788543
364.444478	2502.834582
364.832603	2499.149499
365.220665	2503.525220
365.608665	2502.373317
365.996601	2505.395488
366.384474	2507.963956
366.772284	2508.919255
367.160031	2510.691220
367.547715	2512.130470
367.935336	2512.473268
368.322893	2516.518794
368.710388	2516.140708
369.097820	2525.635721
369.485189	2527.410207
369.872495	2536.852288
370.259738	2542.397557
370.646918	2548.736808
371.034035	2556.764846
371.421090	2565.589386
371.808081	2577.688155
372.195010	2585.138980
372.581875	2601.114397
372.968678	2611.468927
373.355418	2623.058540
373.742096	2639.399440
374.128710	2652.440905
374.515262	2668.751558
374.901751	2685.188240
375.288177	2700.432689
375.674540	2721.207284
376.060841	2736.693709
376.447079	2757.364960
376.833254	2779.661984
377.219367	2790.301339
377.605417	2828.954386
377.991404	2840.803618
378.377329	2857.494879
378.763191	2878.952550
379.148991	2917.227511
379.534727	2939.769030
379.920402	2969.065696
380.306013	2980.975422
380.691563	3031.490304
381.077049	3053.134498
381.462474	3071.706108
381.847835	3108.123404
382.233134	3130.705252
382.618371	3129.918833
383.003545	3198.647403
383.388657	3203.547405
383.773706	3237.489494
384.158693	3254.994901
384.543618	3281.745783
384.928480	3314.858603
385.313280	3364.554297
385.698017	3361.068339
386.082692	3415.543048
386.467305	3419.260899
386.851856	3452.474541
387.236344	3475.623519
387.620770	3507.261801
388.005133	3532.137374
388.389435	3558.185016
388.773674	3568.423600
389.157851	3614.877832
389.541965	3631.473311
389.926018	3592.558124
390.310008	3664.427334
390.693936	3683.654294
391.077802	3726.599884
391.461606	3717.805591
391.845348	3776.663583
392.229027	3777.001340
392.612645	3789.069863
392.996200	3867.139692
393.379694	3904.426586
393.763125	3972.414107
394.146494	3938.225002
394.529801	3999.013756
394.913047	4050.632650
395.296230	4012.294675
395.679351	4070.923295
396.062410	4091.473558
396.445408	4075.780446
396.828343	4108.840333
397.211217	4131.091986
397.594028	4052.034091
397.976778	4114.846868
398.359466	4144.435921
398.742092	4172.961290
399.124656	4091.743260
399.507158	4175.000436
399.889598	4200.690156
400.271977	4262.587964
400.654294	4233.944128
401.036549	4240.994181
401.418742	4209.275241
401.800874	4314.284997
402.182944	4334.850384
402.564952	4399.823295
402.946898	4385.718147
403.328783	4385.219072
403.710606	4296.283036
404.092367	4490.899301
404.474067	4453.705668
404.855705	4461.106082
405.237282	4390.998755
405.618797	4499.794417
406.000250	4531.546124
406.381642	4614.987303
406.762972	4574.428700
407.144240	4583.714505
407.525447	4585.932613
407.906593	4645.498887
408.287677	4686.465823
408.668700	4616.628198
409.049661	4671.362526
409.430560	4708.145305
409.811399	4635.444305
410.192176	4798.714675
410.572891	4736.012804
410.953545	4839.827806
411.334138	4721.186770
411.714669	4788.982728
412.095139	4681.951470
412.475547	4826.206608
412.855894	4808.723886
413.236180	4816.341070
413.616405	4764.243265
413.996568	4853.065876
414.376670	4797.736692
414.756711	4755.506946
415.136691	4782.981234
415.516609	4860.960322
415.896466	4899.167228
416.276262	4933.308442
416.655997	4912.707767
417.035670	5097.307259
417.415283	5186.916289
417.794834	5131.035099
418.174324	5082.932409
418.553753	4992.544520
418.933121	5177.295247
419.312428	5246.071709
419.691674	5182.800187
420.070859	5308.559331
420.449983	5219.265373
420.829045	5337.666954
421.208047	5242.109362
421.586988	5316.262214
421.965867	5325.059028
422.344686	5456.675993
422.723444	5312.556966
423.102141	5132.555007
423.480777	5431.215646
423.859352	5199.438515
424.237866	5453.739521
424.616319	5445.958500
424.994712	5558.492177
425.373044	5439.271409
425.751314	5579.496145
426.129524	5383.387698
426.507673	5578.084622
426.885762	5663.166696
427.263789	5590.445531
427.641756	5471.852387
428.019662	5595.426191
428.397508	5602.025061
428.775292	5551.416918
429.153016	5646.165404
429.530679	5575.584209
429.908282	5657.576056
430.285824	5529.974370
430.663305	5801.037212
431.040726	5536.069125
431.418086	5543.829981
431.795385	5641.361185
432.172624	5659.980687
432.549802	5647.445857
432.926920	5660.724257
433.303977	5673.201112
433.680974	5707.165887
434.057910	5730.498867
434.434786	5728.061469
434.811601	5702.966605
435.188355	5936.893788
435.565050	5810.754036
435.941683	5797.195853
436.318257	6010.494634
436.694770	5992.394371
437.071222	6025.403847
437.447614	5954.696623
437.823946	5870.786617
438.200218	6020.697929
438.576429	5887.515686
438.952580	5986.070244
439.328670	6031.609507
439.704700	5941.309839
440.080670	5929.200987
440.456580	6197.125711
440.832429	6081.320325
441.208218	5926.400626
441.583947	6084.614719
441.959616	6084.120686
442.335224	6011.444892
442.710773	6149.257435
443.086261	6176.814902
443.461689	5970.147759
443.837057	6117.064626
444.212365	6271.759994
444.587612	6166.228479
444.962800	6320.374361
445.337927	6301.044057
445.712995	5913.165077
446.088002	6487.108004
446.462949	6317.379916
446.837837	6251.194607
447.212664	6425.129538
447.587431	6563.317647
447.962139	7104.740091
448.336786	8030.845423
448.711374	7775.707585
449.085901	6847.830288
449.460369	6768.517814
449.834776	6699.363266
450.209124	7096.560819
450.583412	7248.115547
450.957640	7393.557877
451.331808	7157.528533
451.705917	6710.456325
452.079965	6629.989427
452.453954	6849.072932
452.827883	6721.587193
453.201752	6812.706048
453.575562	6611.821109
453.949311	6814.800648
454.323001	6702.191353
454.696632	6782.471728
455.070202	6920.606905
455.443713	7076.255051
455.817164	7172.659557
456.190556	7255.982268
456.563888	7331.755851
456.937160	7378.230249
457.310373	7027.955756
457.683526	7056.453399
458.056619	6944.196985
458.429653	6933.340860
458.802628	6871.049842
459.175542	6982.086297
459.548398	7331.909607
459.921194	7493.100501
460.293930	7501.065524
460.666607	8027.112448
461.039224	8338.093667
461.411782	8468.261301
461.784280	8485.996080
462.156719	8373.913586
462.529099	8254.004701
462.901419	7841.779468
463.273680	7732.653611
463.645882	7743.040908
464.018024	7614.433512
464.390106	7781.225128
464.762130	8164.587234
465.134094	8633.507803
465.505999	9652.342640
465.877845	10878.356296
466.249631	11531.347036
466.621358	11145.237501
466.993026	10509.479946
467.364634	10256.857644
467.736184	9894.428930
468.107674	9565.682684
468.479105	9591.569009
468.850477	9357.755253
469.221790	9130.527764
469.593043	8807.828383
469.964238	8666.945777
470.335373	8672.087754
470.706449	8737.390861
471.077467	8711.610400
471.448425	10024.737715
471.819324	11097.674215
472.190164	11125.256888
472.560945	9879.002999
472.931667	9083.221576
473.302330	8949.530176
473.672934	8598.945653
474.043479	8957.711969
474.413965	8886.755208
474.784393	8770.758258
475.154761	8931.780273
475.525070	9017.157255
475.895321	8850.957974
476.265513	9024.081280
476.635645	9186.502216
477.005719	9189.869706
477.375734	9309.763468
477.745691	9539.100680
478.115588	9673.424745
478.485427	9918.487836
478.855207	10455.622779
479.224928	11266.389031
479.594591	11896.737429
479.964194	11709.869417
480.333739	11650.431693
480.703226	11569.967316
481.072653	11659.208342
481.442022	11897.849003
481.811333	12082.498907
482.180584	11890.055379
482.549777	11598.674166
482.918912	11419.851837
483.287988	11448.359562
483.657005	11456.972373
484.025964	11130.630758
484.394864	11267.006573
484.763706	11239.063457
485.132489	10999.525470
485.501213	10960.542227
485.869879	11036.769515
486.238487	10875.923939
486.607036	10979.749023
486.975527	10763.564182
487.343959	10956.957967
487.712333	11007.848415
488.080648	10935.217991
488.448905	10973.137550
488.817104	10916.404405
489.185244	11178.670434
489.553326	11332.924700
489.921350	11871.249355
490.289315	12940.881378
490.657222	13281.738995
491.025070	13187.197196
491.392861	13064.266139
491.760593	12684.516020
492.128267	12335.043070
492.495883	12005.772545
492.863440	11666.207984
493.230939	11328.370018
493.598380	11268.740729
493.965763	11141.310442
494.333088	11035.547035
494.700354	10962.301590
495.067563	11021.797288
495.434713	10846.382778
495.801805	10970.775770
496.168839	10902.158104
496.535815	10833.991622
496.902733	10829.136991
497.269593	10767.793710
497.636395	10866.686025
498.003139	10846.914620
498.369825	10718.632378
498.736453	10875.553415
499.103023	10808.047323
499.469535	10838.841212
499.835989	10821.786988
500.202385	10787.194591
500.568723	10635.208843
500.935003	10853.967194
501.301226	10660.724643
501.667390	10922.027812
502.033497	11017.756803
502.399546	10873.534433
502.765537	10783.645618
503.131470	10859.893070
503.497345	11032.504698
503.863163	10645.586058
504.228923	10955.715322
504.594625	11025.426918
504.960269	10770.992322
505.325856	10987.061217
505.691385	10779.365679
506.056856	10937.849473
506.422270	10961.157248
506.787625	10850.014929
507.152924	10966.480707
507.518164	10945.854826
507.883347	10872.017045
508.248472	10782.254260
508.613540	11019.871567
508.978550	10899.718186
509.343503	10872.405214
509.708398	10998.610501
510.073236	11109.374733
510.438016	11114.274734
510.802738	11063.611138
511.167403	11108.726945
511.532010	11006.762046
511.896561	11237.268806
512.261053	11309.314456
512.625488	11172.396718
512.989866	11162.221149
513.354186	11157.520273
513.718449	11051.421628
514.082655	11248.921433
514.446803	11146.941411
514.810894	11263.392065
515.174927	11139.641821
515.538904	11160.764255
515.902822	11306.433437
516.266684	11193.531755
516.630488	11135.583692
516.994235	11193.221724
517.357925	11247.580486
517.721558	11341.272851
518.085133	11354.790705
518.448651	11368.517767
518.812112	11246.153840
519.175516	11272.642583
519.538863	11385.551826
519.902152	11306.698097
520.265385	11461.174175
520.628560	11371.499609
520.991678	11349.956238
521.354739	11408.428582
521.717743	11346.944149
522.080690	11323.719553
522.443580	11460.843979
522.806413	11415.435786
523.169189	11443.512492
523.531908	11496.467293
523.894569	11323.732156
524.257174	11327.623927
524.619722	11439.930752
524.982213	11394.774617
525.344647	11442.695825
525.707025	11389.947712
526.069345	11482.427679
526.431608	11401.381049
526.793815	11509.758295
527.155964	11305.828498
527.518057	11351.786177
527.880093	11295.652929
528.242072	11371.514733
528.603995	11278.550815
528.965860	11193.998062
529.327669	11249.818758
529.689421	11199.407220
530.051117	11164.545121
530.412755	11271.447829
530.774337	11158.762917
531.135862	11143.460495
531.497331	11162.765593
531.858743	11013.751606
532.220098	11180.202944
532.581396	11056.717360
532.942638	11044.394260
533.303824	10996.634368
533.664953	11012.703046
534.026025	10921.309448
534.387040	11023.770899
534.747999	11028.650736
535.108902	11082.525548
535.469748	10844.197438
535.830537	10947.780546
536.191270	10927.421847
536.551947	10944.972624
536.912567	10945.534712
537.273131	10868.397497
537.633638	10838.831129
537.994089	10836.169400
538.354483	10786.549323
538.714821	10926.189284
539.075103	10929.965109
539.435328	10897.633668
539.795497	10724.381814
540.155609	10881.222192
540.515665	10972.925822
540.875665	10700.884996
541.235609	10771.700604
541.595496	10764.779100
541.955328	10922.476475
542.315102	10803.827878
542.674821	10754.215362
543.034483	10758.870868
543.394090	10759.538821
543.753640	10686.570639
544.113134	10909.775288
544.472571	10759.911866
544.831953	10902.475697
545.191278	10711.244567
545.550548	10737.763557
545.909761	10872.894206
546.268918	10843.426141
546.628019	10924.573595
546.987064	10787.308017
547.346053	10706.687364
547.704986	10812.438168
548.063863	10793.911928
548.422684	10781.326687
548.781449	10694.535662
549.140158	10798.688421
549.498811	10671.732003
549.857408	10527.867554
550.215949	10749.590103
550.574434	10598.680642
550.932864	10695.352329
551.291237	10745.226985
551.649555	10696.242093
552.007817	10707.635101
552.366022	10668.064563
552.724173	10662.143728
553.082267	10643.131017
553.440305	10774.813517
553.798288	10579.436038
554.156215	10723.403830
554.514086	10689.045846
554.871902	10543.666531
555.229661	10578.077447
555.587365	10550.777078
555.945014	10450.579104
556.302606	10563.022041
556.660143	10460.454725
557.017625	10607.870666
557.375050	10503.798565
557.732421	10626.709458
558.089735	10540.233505
558.446994	10538.446416
558.804197	10563.639582
559.161345	10559.873840
559.518437	10407.789790
559.875474	10485.602521
560.232455	10511.761068
560.589381	10463.005548
560.946251	10451.725967
561.303065	10548.248939
561.659825	10474.179266
562.016528	10404.036651
562.373177	10283.653898
562.729770	10387.869671
563.086307	10293.940372
563.442789	10383.168795
563.799216	10253.396892
564.155587	10298.086721
564.511904	10237.050951
564.868164	10221.713240
565.224370	10232.171114
565.580520	10145.924533
565.936615	10145.301951
566.292654	10013.516107
566.648638	10129.392069
567.004567	10072.946270
567.360441	10051.077744
567.716260	9952.008989
568.072023	10041.872597
568.427732	9974.064037
568.783385	9882.955263
569.138982	9940.464747
569.494525	9947.913051
569.850013	9820.132404
570.205445	9874.828923
570.560823	9772.291854
570.916145	9677.868522
571.271412	9733.275844
571.626625	9667.718159
571.981782	9637.635073
572.336884	9590.623793
572.691931	9594.344165
573.046923	9523.745326
573.401860	9467.894382
573.756743	9389.428822
574.111570	9418.276825
574.466342	9384.543944
574.821059	9402.775277
575.175722	9286.737998
575.530330	9286.949727
575.884882	9260.478628
576.239380	9175.489815
576.593823	9140.080750
576.948211	9140.272314
577.302544	9025.190334
577.656823	9014.586267
578.011047	8998.893155
578.365216	8954.765414
578.719330	8866.192341
579.073389	8860.556331
579.427394	8798.174573
579.781344	8756.801823
580.135239	8699.229326
580.489080	8686.034106
580.842866	8576.187363
581.196597	8564.912823
581.550273	8581.115091
581.903895	8526.272379
582.257463	8573.071930
582.610975	8435.067823
582.964434	8442.465717
583.317837	8353.093621
583.671186	8317.974422
584.024481	8293.766802
584.377721	8201.654838
584.730906	8162.112028
585.084037	8166.238212
585.437113	8098.538037
585.790135	8092.186183
586.143103	7986.382446
586.496016	7945.274357
586.848874	7966.532902
587.201679	7939.250178
587.554428	7814.436250
587.907124	7833.675813
588.259765	7794.601830
588.612352	7765.055627
588.964884	7644.496433
589.317362	7629.244422
589.669786	7605.898839
590.022155	7629.269628
590.374470	7617.909388
590.726731	7549.760549
591.078937	7398.289000
591.431090	7462.936757
591.783188	7344.880495
592.135232	7309.216852
592.487222	7296.485418
592.839157	7306.630741
593.191038	7239.006182
593.542866	7176.631986
593.894639	7066.802887
594.246358	7085.969354
594.598022	7077.011224
594.949633	6972.291335
595.301190	6937.086437
595.652692	6933.968484
596.004141	6983.321380
596.355535	6809.895605
596.706876	6772.896057
597.058162	6692.472009
597.409395	6722.582821
597.760573	6752.018118
598.111698	6668.743298
598.462768	6624.303006
598.813785	6589.685402
599.164748	6533.549634
599.515657	6510.340161
599.866511	6418.981851
600.217312	6494.818449
600.568060	6371.254727
600.918753	6420.174084
601.269392	6378.672785
601.619978	6290.084588
601.970510	6308.598226
602.320988	6286.906141
602.671412	6294.369569
603.021783	6230.586370
603.372100	6195.189908
603.722363	6167.115722
604.072572	6129.707840
604.422728	6114.302074
604.772830	6042.563934
605.122878	6021.582652
605.472872	6003.966340
605.822813	5991.980997
606.172701	5936.808088
606.522534	5958.333815
606.872314	5938.181803
607.222041	5895.536162
607.571714	5902.853397
607.921333	5853.571077
608.270899	5826.938661
608.620411	5857.873701
608.969870	5778.082318
609.319276	5750.754223
609.668627	5731.318055
610.017926	5733.820987
610.367171	5732.230503
610.716362	5696.639957
611.065500	5661.924051
611.414585	5647.821423
611.763616	5626.845182
612.112594	5595.693372
612.461518	5574.679322
612.810389	5583.897072
613.159207	5522.563874
613.507971	5477.450588
613.856682	5507.936966
614.205340	5464.348629
614.553945	5480.792873
614.902496	5406.254372
615.250994	5407.386111
615.599439	5374.449733
615.947830	5355.517679
616.296169	5325.195139
616.644454	5307.712417
616.992686	5280.354076
617.340864	5284.059324
617.688990	5214.015012
618.037063	5239.651799
618.385082	5191.884346
618.733048	5203.620152
619.080961	5159.852855
619.428821	5143.509434
619.776628	5114.053972
620.124382	5077.450154
620.472083	5039.245769
620.819731	5032.364594
621.167326	4961.125529
621.514868	4946.143220
621.862357	4875.652765
622.209793	4862.787741
622.557176	4812.141789
622.904506	4772.805665
623.251783	4728.713213
623.599007	4686.037325
623.946179	4665.330786
624.293297	4630.877020
624.640363	4585.862037
624.987376	4551.047828
625.334336	4513.322353
625.681243	4475.012105
626.028097	4444.011529
626.374899	4423.158796
626.721647	4391.311307
627.068343	4355.440977
627.414987	4325.259588
627.761577	4290.309269
628.108115	4287.438332
628.454600	4229.918766
628.801032	4226.125298
629.147412	4200.690156
629.493739	4171.234694
629.840014	4137.360661
630.186236	4144.350221
630.532405	4083.856375
630.878521	4088.179164
631.224585	4059.494999
631.570597	4019.450593
631.916556	4013.602855
632.262462	3998.852439
632.608316	3969.485197
632.954117	3946.563070
633.299866	3929.307201
633.645562	3906.957245
633.991206	3868.740258
634.336797	3836.754137
634.682336	3809.294972
635.027823	3781.586270
635.373257	3764.090945
635.718639	3725.566447
636.063968	3718.624779
636.409245	3678.116587
636.754470	3657.780572
637.099642	3634.445071
637.444762	3606.093622
637.789829	3593.284050
638.134845	3570.135072
638.479808	3550.958522
638.824719	3543.958880
639.169577	3510.538551
639.514383	3503.765761
639.859137	3474.017912
640.203839	3467.454329
640.548489	3447.461113
