Dividing Wavelength (nm)	Counts (n)	Blue Motor Position (mm): 0.000000	Red Motor Position (mm): 40.500000	
326.493990	2137.444190
326.888308	2137.444190
327.282561	2137.444190
327.676750	2115.389142
328.070874	2114.748915
328.464933	2121.088166
328.858929	2128.609568
329.252859	2140.047946
329.646726	2156.474545
330.040528	2170.788902
330.434265	2190.320852
330.827938	2208.073276
331.221547	2229.495659
331.615091	2248.117681
332.008571	2266.928747
332.401986	2288.819957
332.795338	2309.839048
333.188625	2326.984013
333.581847	2346.377331
333.975006	2362.672861
334.368100	2385.242107
334.761129	2404.504356
335.154095	2417.414751
335.546996	2435.825045
335.939833	2458.558128
336.332606	2473.316106
336.725315	2486.576861
337.117960	2494.667913
337.510540	2502.804335
337.903056	2511.001251
338.295508	2516.788496
338.687896	2524.241842
339.080220	2531.644776
339.472480	2537.416897
339.864676	2539.498894
340.256807	2543.695655
340.648875	2546.619524
341.040879	2546.286808
341.432818	2548.507436
341.824694	2548.504915
342.216506	2552.147149
342.608253	2549.636654
342.999937	2552.152190
343.391557	2546.480892
343.783113	2547.945347
344.174605	2545.954092
344.566033	2543.173895
344.957397	2543.262115
345.348697	2540.350849
345.739934	2540.847403
346.131106	2538.606610
346.522215	2537.525282
346.913260	2534.661907
347.304241	2534.588810
347.695159	2529.000691
348.086012	2529.782070
348.476802	2530.681916
348.867528	2525.590351
349.258191	2525.096318
349.648789	2526.033972
350.039324	2524.259486
350.429796	2523.137829
350.820203	2525.282840
351.210548	2521.171779
351.600828	2518.598270
351.991045	2520.491223
352.381198	2518.517612
352.771288	2518.739423
353.161314	2519.079700
353.551276	2520.052643
353.941175	2519.344361
354.331010	2519.621624
354.720782	2518.699093
355.110490	2517.741274
355.500135	2519.730009
355.889717	2520.718075
356.279235	2518.968795
356.668689	2520.587005
357.058080	2518.943589
357.447408	2517.050636
357.836672	2520.337468
358.225873	2517.708507
358.615010	2516.125584
359.004084	2522.313601
359.393095	2523.536080
359.782043	2524.415762
360.170927	2523.135309
360.559748	2524.138498
360.948505	2524.758560
361.337199	2524.176307
361.725830	2526.903571
362.114398	2529.749302
362.502903	2529.403983
362.891344	2527.672347
363.279722	2526.896009
363.668037	2528.894827
364.056289	2529.013294
364.444478	2529.850126
364.832603	2529.668644
365.220665	2528.824251
365.608665	2532.317770
365.996601	2533.535209
366.384474	2532.254756
366.772284	2532.801721
367.160031	2532.365661
367.547715	2533.396577
367.935336	2531.768285
368.322893	2534.205683
368.710388	2533.779705
369.097820	2536.696013
369.485189	2533.472195
369.872495	2537.033770
370.259738	2535.919675
370.646918	2533.028573
371.034035	2534.959335
371.421090	2535.844057
371.808081	2537.333718
372.195010	2537.968904
372.581875	2539.879501
372.968678	2538.392361
373.355418	2541.671631
373.742096	2540.658359
374.128710	2541.318751
374.515262	2543.715819
374.901751	2543.637681
375.288177	2546.811088
375.674540	2545.102137
376.060841	2547.363094
376.447079	2548.943496
376.833254	2551.922818
377.219367	2549.200595
377.605417	2551.829556
377.991404	2554.587068
378.377329	2557.163097
378.763191	2560.507903
379.148991	2566.123748
379.534727	2569.932340
379.920402	2575.051632
380.306013	2576.921900
380.691563	2582.255440
381.077049	2586.437078
381.462474	2590.326328
381.847835	2595.097780
382.233134	2600.970724
382.618371	2605.054059
383.003545	2612.343567
383.388657	2616.414299
383.773706	2622.688015
384.158693	2629.359982
384.543618	2639.865747
384.928480	2642.219965
385.313280	2651.006697
385.698017	2657.895433
386.082692	2669.394305
386.467305	2673.286076
386.851856	2681.568692
387.236344	2693.254086
387.620770	2699.696681
388.005133	2708.097764
388.389435	2721.088817
388.773674	2728.453943
389.157851	2733.563152
389.541965	2744.240316
389.926018	2747.585122
390.310008	2759.162132
390.693936	2767.830396
391.077802	2777.002775
391.461606	2788.660443
391.845348	2797.822741
392.229027	2807.559729
392.612645	2820.336534
392.996200	2829.428255
393.379694	2844.322344
393.763125	2857.275588
394.146494	2867.914944
394.529801	2881.531100
394.913047	2895.656413
395.296230	2897.105745
395.679351	2900.967269
396.062410	2920.375711
396.445408	2915.014444
396.828343	2932.053544
397.211217	2939.075871
397.594028	2931.277206
397.976778	2942.569391
398.359466	2957.216463
398.742092	2957.075311
399.124656	2969.685758
399.507158	2986.215701
399.889598	2991.277019
400.271977	3006.955008
400.654294	3008.270749
401.036549	3021.342461
401.418742	3026.615508
401.800874	3047.803478
402.182944	3059.710683
402.564952	3086.035588
402.946898	3077.795822
403.328783	3085.163469
403.710606	3102.605861
404.092367	3125.270889
404.474067	3153.234169
404.855705	3138.468629
405.237282	3142.476347
405.618797	3173.660924
406.000250	3193.999460
406.381642	3229.554718
406.762972	3228.831312
407.144240	3222.378635
407.525447	3241.300606
407.906593	3240.063003
408.287677	3263.942949
408.668700	3281.564302
409.049661	3282.159158
409.430560	3295.155253
409.811399	3296.844039
410.192176	3321.893533
410.572891	3329.732527
410.953545	3368.453630
411.334138	3333.248732
411.714669	3386.289232
412.095139	3334.078002
412.475547	3385.434756
412.855894	3372.446223
413.236180	3404.296233
413.616405	3385.769993
413.996568	3408.818148
414.376670	3412.147831
414.756711	3406.869743
415.136691	3433.560132
415.516609	3453.359263
415.896466	3461.110037
416.276262	3487.500478
416.655997	3517.313862
417.035670	3525.057074
417.415283	3591.663319
417.794834	3612.614354
418.174324	3599.555245
418.553753	3598.945266
418.933121	3642.213489
419.312428	3635.271820
419.691674	3625.998618
420.070859	3664.011438
420.449983	3645.535610
420.829045	3691.717620
421.208047	3677.980476
421.586988	3722.942527
421.965867	3755.526025
422.344686	3763.720420
422.723444	3800.246101
423.102141	3705.356462
423.480777	3807.800270
423.859352	3774.856329
424.237866	3875.550857
424.616319	3859.088969
424.994712	3918.188936
425.373044	3907.594951
425.751314	3974.296978
426.129524	3906.422883
426.507673	4005.105990
426.885762	3985.382476
427.263789	4002.582892
427.641756	4010.570601
428.019662	4041.424983
428.397508	4045.258780
428.775292	4082.084409
429.153016	4086.623968
429.530679	4099.622583
429.908282	4111.746558
430.285824	4085.298145
430.663305	4157.237931
431.040726	4116.215541
431.418086	4105.808079
431.795385	4179.862629
432.172624	4217.336046
432.549802	4181.798432
432.926920	4203.631670
433.303977	4193.778734
433.680974	4237.374633
434.057910	4256.183178
434.434786	4266.494858
434.811601	4260.536214
435.188355	4364.268037
435.565050	4335.503213
435.941683	4331.016586
436.318257	4421.822890
436.694770	4426.982511
437.071222	4481.661387
437.447614	4419.206532
437.823946	4423.763735
438.200218	4439.683698
438.576429	4418.198301
438.952580	4448.475471
439.328670	4449.042601
439.704700	4496.716793
440.080670	4457.020227
440.456580	4516.959546
440.832429	4551.012540
441.208218	4455.281028
441.583947	4507.532588
441.959616	4523.460114
442.335224	4548.902817
442.710773	4570.942742
443.086261	4626.163541
443.461689	4574.446344
443.837057	4589.506791
444.212365	4665.754243
444.587612	4669.640972
444.962800	4634.184017
445.337927	4674.747661
445.712995	4564.593408
446.088002	4757.273870
446.462949	4776.770533
446.837837	4794.434736
447.212664	4779.971665
447.587431	5006.765615
447.962139	5305.590092
448.336786	5640.305063
448.711374	5630.810050
449.085901	5276.704280
449.460369	5212.149785
449.834776	5142.944825
450.209124	5377.285382
450.583412	5388.728801
450.957640	5511.294374
451.331808	5371.304053
451.705917	5228.629317
452.079965	5217.763109
452.453954	5255.354994
452.827883	5223.303338
453.201752	5227.300972
453.575562	5256.305251
453.949311	5392.300458
454.323001	5396.897991
454.696632	5389.885746
455.070202	5541.725300
455.443713	5568.435853
455.817164	5662.902035
456.190556	5736.951544
456.563888	5711.440785
456.937160	5785.449965
457.310373	5630.787365
457.683526	5688.921951
458.056619	5681.982802
458.429653	5664.038815
458.802628	5708.524478
459.175542	5739.527574
459.548398	5878.144181
459.921194	6063.366256
460.293930	6127.950998
460.666607	6372.943513
461.039224	6584.344300
461.411782	6719.258180
461.784280	6631.963039
462.156719	6641.793289
462.529099	6598.847699
462.901419	6454.133817
463.273680	6325.105484
463.645882	6313.140305
464.018024	6318.166336
464.390106	6382.299895
464.762130	6636.812629
465.134094	7026.554315
465.505999	7647.700086
465.877845	8354.401800
466.249631	8714.710709
466.621358	8644.353846
466.993026	8449.122560
467.364634	8231.473263
467.736184	7954.358516
468.107674	7800.752038
468.479105	7714.651651
468.850477	7646.613718
469.221790	7476.494940
469.593043	7251.483038
469.964238	7149.893706
470.335373	7125.928060
470.706449	7280.028572
471.077467	7460.839637
471.448425	8112.630582
471.819324	8699.872073
472.190164	8743.344463
472.560945	8261.667254
472.931667	7799.592572
473.302330	7603.864733
473.672934	7477.906463
474.043479	7558.254894
474.413965	7458.044317
474.784393	7406.445587
475.154761	7565.161274
475.525070	7575.823315
475.895321	7528.799432
476.265513	7619.807382
476.635645	7786.009183
477.005719	7773.683562
477.375734	7862.551543
477.745691	7974.250909
478.115588	8174.851023
478.485427	8406.986076
478.855207	8880.872181
479.224928	9308.483015
479.594591	9691.756901
479.964194	9701.516575
480.333739	9789.779617
480.703226	9791.065111
481.072653	9889.191171
481.442022	9996.353499
481.811333	10159.288632
482.180584	9997.911215
482.549777	9935.731103
482.918912	9875.562411
483.287988	9864.242500
483.657005	9776.503738
484.025964	9686.834214
484.394864	9747.403678
484.763706	9705.753665
485.132489	9618.652608
485.501213	9608.461916
485.869879	9669.270834
486.238487	9605.709446
486.607036	9683.139048
486.975527	9629.339855
487.343959	9684.386734
487.712333	9724.721006
488.080648	9773.199262
488.448905	9874.972596
488.817104	9875.824551
489.185244	10038.855467
489.553326	10254.062324
489.921350	10717.888808
490.289315	11343.435506
490.657222	11638.121195
491.025070	11815.975623
491.392861	11733.620814
491.760593	11572.581154
492.128267	11327.187867
492.495883	11084.947822
492.863440	10850.536689
493.230939	10630.754984
493.598380	10454.196132
493.965763	10427.359550
494.333088	10285.015009
494.700354	10219.727026
495.067563	10190.223673
495.434713	10200.961330
495.801805	10246.359441
496.168839	10202.302277
496.535815	10173.013173
496.902733	10218.237365
497.269593	10170.333800
497.636395	10184.885091
498.003139	10287.835535
498.369825	10218.252488
498.736453	10309.855295
499.103023	10261.064487
499.469535	10258.727912
499.835989	10305.318256
500.202385	10280.770357
500.568723	10301.968409
500.935003	10360.216422
501.301226	10332.800106
501.667390	10500.831846
502.033497	10600.329100
502.399546	10526.844200
502.765537	10434.023955
503.131470	10539.217712
503.497345	10625.837338
503.863163	10396.492565
504.228923	10533.107834
504.594625	10646.790894
504.960269	10550.472088
505.325856	10701.898267
505.691385	10584.497356
506.056856	10647.315174
506.422270	10752.203942
506.787625	10690.180105
507.152924	10743.820503
507.518164	10803.152363
507.883347	10675.913640
508.248472	10746.010884
508.613540	10856.686896
508.978550	10920.394478
509.343503	10906.062478
509.708398	10962.392331
510.073236	11089.089130
510.438016	11101.351737
510.802738	11014.031390
511.167403	11134.580502
511.532010	11196.896725
511.896561	11292.008175
512.261053	11490.927065
512.625488	11409.625856
512.989866	11392.334698
513.354186	11369.442819
513.718449	11386.721373
514.082655	11521.715912
514.446803	11478.273768
514.810894	11580.074829
515.174927	11581.635066
515.538904	11566.370452
515.902822	11726.480019
516.266684	11594.293404
516.630488	11701.564116
516.994235	11690.571880
517.357925	11798.664301
517.721558	11859.019516
518.085133	11921.625605
518.448651	11953.730193
518.812112	11914.048751
519.175516	11923.206007
519.538863	12010.039882
519.902152	12013.178000
520.265385	12119.077519
520.628560	12146.617342
520.991678	12092.883684
521.354739	12138.485961
521.717743	12224.009136
522.080690	12187.488497
522.443580	12321.293323
522.806413	12338.012310
523.169189	12324.905310
523.531908	12381.640976
523.894569	12351.290709
524.257174	12358.555012
524.619722	12457.291051
524.982213	12434.283225
525.344647	12429.421032
525.707025	12445.489710
526.069345	12538.314996
526.431608	12518.561235
526.793815	12608.379473
527.155964	12503.198319
527.518057	12534.985314
527.880093	12483.252993
528.242072	12604.162548
528.603995	12529.981969
528.965860	12540.555789
529.327669	12572.370511
529.689421	12517.074095
530.051117	12536.379193
530.412755	12579.957448
530.774337	12577.333527
531.135862	12539.779452
531.497331	12594.002102
531.858743	12555.225547
532.220098	12639.311993
532.581396	12552.394939
532.942638	12479.361223
533.303824	12550.186914
533.664953	12539.169472
534.026025	12486.522182
534.387040	12586.523551
534.747999	12563.175447
535.108902	12611.767128
535.469748	12488.556287
535.830537	12511.836336
536.191270	12556.879045
536.551947	12480.603867
536.912567	12542.224411
537.273131	12576.204309
537.633638	12456.794498
537.994089	12510.407169
538.354483	12427.331474
538.714821	12556.458109
539.075103	12638.921304
539.435328	12570.696848
539.795497	12552.949466
540.155609	12548.127602
540.515665	12650.894044
540.875665	12504.138494
541.235609	12608.250924
541.595496	12573.235069
541.955328	12740.016603
542.315102	12587.927512
542.674821	12520.890248
543.034483	12532.270653
543.394090	12535.900284
543.753640	12504.506498
544.113134	12752.344745
544.472571	12519.299764
544.831953	12791.645580
545.191278	12606.834359
545.550548	12544.603836
545.909761	12661.304027
546.268918	12697.222248
546.628019	12766.580963
546.987064	12659.582473
547.346053	12508.892302
547.704986	12699.735263
548.063863	12587.476329
548.422684	12651.776246
548.781449	12596.520159
549.140158	12694.414325
549.498811	12648.189465
549.857408	12519.294723
550.215949	12714.054661
550.574434	12684.150536
550.932864	12627.833286
551.291237	12821.189262
551.649555	12715.211605
552.007817	12778.334413
552.366022	12693.857278
552.724173	12736.177764
553.082267	12825.559943
553.440305	12916.441864
553.798288	12735.106519
554.156215	12804.177888
554.514086	12852.593130
554.871902	12801.846355
555.229661	12816.929487
555.587365	12770.013989
555.945014	12787.877317
556.302606	12768.388217
556.660143	12836.837004
557.017625	12857.805683
557.375050	12822.373933
557.732421	12922.544181
558.089735	12910.077407
558.446994	12893.015622
558.804197	12998.330367
559.161345	12991.623112
559.518437	12816.107779
559.875474	12913.039085
560.232455	12936.777879
560.589381	12980.668685
560.946251	12924.641301
561.303065	13102.450359
561.659825	13049.659396
562.016528	12958.873256
562.373177	12899.261612
562.729770	13024.733410
563.086307	12902.503074
563.442789	13017.292667
563.799216	13045.860886
564.155587	12993.926919
564.511904	13017.885003
564.868164	13024.549408
565.224370	13086.074170
565.580520	13030.482846
565.936615	13099.821397
566.292654	13030.031663
566.648638	13104.038322
567.004567	13102.548661
567.360441	13100.643105
567.716260	13063.388978
568.072023	13148.138336
568.427732	13124.626394
568.783385	13030.291282
569.138982	13139.283549
569.494525	13140.238848
569.850013	13093.532557
570.205445	13073.844331
570.560823	13095.574225
570.916145	13040.900391
571.271412	13056.192731
571.626625	13013.209333
571.981782	13011.810413
572.336884	12952.425620
572.691931	13038.281511
573.046923	12934.723608
573.401860	12915.350454
573.756743	12904.867375
574.111570	12936.548506
574.466342	12903.009710
574.821059	12963.886683
575.175722	12832.645284
575.530330	12855.509437
575.884882	12783.773818
576.239380	12774.150256
576.593823	12754.822472
576.948211	12752.317018
577.302544	12629.411167
577.656823	12644.726192
578.011047	12698.621168
578.365216	12639.110347
578.719330	12580.000298
579.073389	12555.157491
579.427394	12562.447000
579.781344	12552.233622
580.135239	12479.512457
580.489080	12490.348418
580.842866	12375.077394
581.196597	12466.216414
581.550273	12453.953807
581.903895	12415.676326
582.257463	12520.184487
582.610975	12369.980787
582.964434	12438.895881
583.317837	12366.336033
583.671186	12309.401241
584.024481	12361.985517
584.377721	12249.303126
584.730906	12314.334010
585.084037	12330.851351
585.437113	12239.324162
585.790135	12267.599994
586.143103	12170.005776
586.496016	12190.087212
586.848874	12201.293697
587.201679	12194.175588
587.554428	12069.429715
587.907124	12111.727517
588.259765	12054.749875
588.612352	12119.352262
588.964884	11975.606281
589.317362	12024.102181
589.669786	12013.258659
590.022155	11961.178498
590.374470	12056.199207
590.726731	11937.215373
591.078937	11828.732263
591.431090	11847.452588
591.783188	11782.550253
592.135232	11698.015144
592.487222	11754.934812
592.839157	11758.607293
593.191038	11693.553723
593.542866	11643.691670
593.894639	11490.319606
594.246358	11549.182638
594.598022	11548.799511
594.949633	11451.603544
595.301190	11449.219078
595.652692	11392.478371
596.004141	11474.112296
596.355535	11259.528021
596.706876	11237.175545
597.058162	11205.373426
597.409395	11289.525407
597.760573	11310.121041
598.111698	11205.345699
598.462768	11196.475789
598.813785	11202.608353
599.164748	11070.794783
599.515657	11140.312294
599.866511	11009.335555
600.217312	11131.374328
600.568060	10895.740715
600.918753	11053.601927
601.269392	11043.988447
601.619978	10940.223857
601.970510	10976.399177
602.320988	11013.144147
602.671412	11077.950700
603.021783	10999.064204
603.372100	10917.384909
603.722363	10924.674418
604.072572	10928.341857
604.422728	10933.188927
604.772830	10868.344565
605.122878	10870.363547
605.472872	10832.627990
605.822813	10881.333098
606.172701	10829.502474
606.522534	10869.060408
606.872314	10903.514174
607.222041	10836.771818
607.571714	10905.069370
607.921333	10767.324883
608.270899	10802.416355
608.620411	10851.209683
608.969870	10790.834304
609.319276	10767.405541
609.668627	10770.800758
610.017926	10837.238125
610.367171	10855.431649
610.716362	10840.950935
611.065500	10806.734103
611.414585	10799.648761
611.763616	10857.027174
612.112594	10809.781480
612.461518	10823.891670
612.810389	10854.466268
613.159207	10793.221290
613.507971	10774.168249
613.856682	10856.313851
614.205340	10803.595985
614.553945	10924.422360
614.902496	10785.911617
615.250994	10834.977167
615.599439	10809.587396
615.947830	10827.526342
616.296169	10784.802563
616.644454	10780.610844
616.992686	10779.327870
617.340864	10841.336583
617.688990	10731.492361
618.037063	10831.481127
618.385082	10789.054776
618.733048	10813.758951
619.080961	10776.184711
619.428821	10752.181257
619.776628	10745.499207
620.124382	10680.445637
620.472083	10683.339260
620.819731	10688.355208
621.167326	10611.056675
621.514868	10574.805738
621.862357	10466.786414
622.209793	10451.216810
622.557176	10360.995280
622.904506	10300.932452
623.251783	10219.364063
623.599007	10143.910592
623.946179	10092.092572
624.293297	10058.584022
624.640363	9921.983877
624.987376	9901.040403
625.334336	9821.178444
625.681243	9736.809693
626.028097	9698.817037
626.374899	9644.947267
626.721647	9610.037277
627.068343	9554.461076
627.414987	9486.395417
627.761577	9411.161237
628.108115	9433.919526
628.454600	9309.536616
628.801032	9306.234661
629.147412	9277.878170
629.493739	9233.352179
629.840014	9148.232296
630.186236	9173.196090
630.532405	9062.084018
630.878521	9074.490298
631.224585	9013.036112
631.570597	8931.553422
631.916556	8912.061800
632.262462	8883.894353
632.608316	8849.309517
632.954117	8809.141603
633.299866	8780.220504
633.645562	8744.347653
633.991206	8648.389289
634.336797	8551.019403
634.682336	8526.474025
635.027823	8468.636867
635.373257	8415.114936
635.718639	8340.067279
636.063968	8299.029766
636.409245	8195.207203
636.754470	8171.082761
637.099642	8111.067824
637.444762	8014.575099
637.789829	8009.191146
638.134845	7927.330370
638.479808	7892.380050
638.824719	7855.733382
