Dividing Wavelength (nm)	Counts (n)	Blue Motor Position (mm): 0.000000	Red Motor Position (mm): 10.100000	
326.493990	2128.337345
326.888308	2128.337345
327.282561	2128.337345
327.676750	2097.256111
328.070874	2091.549525
328.464933	2096.144537
328.858929	2103.126535
329.252859	2113.932248
329.646726	2124.311984
330.040528	2138.601134
330.434265	2154.543783
330.827938	2171.860147
331.221547	2191.558456
331.615091	2207.327185
332.008571	2227.741337
332.401986	2246.759090
332.795338	2265.189549
333.188625	2284.766870
333.581847	2305.155816
333.975006	2321.012766
334.368100	2341.068996
334.761129	2357.215812
335.154095	2371.988913
335.546996	2393.358365
335.939833	2406.639284
336.332606	2420.517581
336.725315	2434.264807
337.117960	2443.379214
337.510540	2454.424382
337.903056	2462.926288
338.295508	2470.057000
338.687896	2481.845738
339.080220	2485.379587
339.472480	2494.378047
339.864676	2496.455002
340.256807	2503.071516
340.648875	2507.001096
341.040879	2508.745335
341.432818	2508.987310
341.824694	2508.735253
342.216506	2510.696262
342.608253	2513.335306
342.999937	2511.152486
343.391557	2513.504184
343.783113	2512.727847
344.174605	2507.190139
344.566033	2508.881446
344.957397	2506.605365
345.348697	2506.111332
345.739934	2502.559839
346.131106	2501.264263
346.522215	2499.819972
346.913260	2497.725373
347.304241	2497.001967
347.695159	2495.466936
348.086012	2492.107007
348.476802	2493.586585
348.867528	2490.735813
349.258191	2491.272696
349.648789	2487.123826
350.039324	2486.556696
350.429796	2486.070225
350.820203	2483.337920
351.210548	2481.505460
351.600828	2481.908752
351.991045	2481.497898
352.381198	2480.517394
352.771288	2479.864565
353.161314	2478.780717
353.551276	2480.961016
353.941175	2479.662918
354.331010	2481.855820
354.720782	2480.905563
355.110490	2479.733495
355.500135	2481.639051
355.889717	2479.403299
356.279235	2476.852475
356.668689	2482.402786
357.058080	2479.529328
357.447408	2480.356077
357.836672	2478.611838
358.225873	2479.511684
358.615010	2478.266519
359.004084	2484.492344
359.393095	2482.097796
359.782043	2485.843373
360.170927	2482.906901
360.559748	2486.065184
360.948505	2485.924032
361.337199	2487.549804
361.725830	2486.695328
362.114398	2487.345637
362.502903	2485.112406
362.891344	2490.345123
363.279722	2489.180617
363.668037	2490.829074
364.056289	2490.864362
364.444478	2492.301091
364.832603	2491.633138
365.220665	2491.592809
365.608665	2491.978457
365.996601	2491.086173
366.384474	2491.131543
366.772284	2494.325114
367.160031	2495.867708
367.547715	2497.919457
367.935336	2497.130517
368.322893	2500.805518
368.710388	2505.072854
369.097820	2513.151303
369.485189	2514.008300
369.872495	2522.810154
370.259738	2525.043385
370.646918	2532.655528
371.034035	2544.519883
371.421090	2552.608415
371.808081	2563.472101
372.195010	2569.017370
372.581875	2585.496902
372.968678	2596.375712
373.355418	2608.098916
373.742096	2625.747995
374.128710	2640.863895
374.515262	2656.851914
374.901751	2673.028977
375.288177	2678.901921
375.674540	2705.463761
376.060841	2722.724672
376.447079	2743.353073
376.833254	2762.262441
377.219367	2774.993875
377.605417	2811.335553
377.991404	2819.381235
378.377329	2842.714216
378.763191	2859.125692
379.148991	2892.160373
379.534727	2914.903539
379.920402	2941.281376
380.306013	2952.321503
380.691563	2994.644510
381.077049	3010.541789
381.462474	3023.174920
381.847835	3054.230949
382.233134	3064.772001
382.618371	3059.259500
383.003545	3112.549537
383.388657	3107.342025
383.773706	3125.936321
384.158693	3128.555200
384.543618	3139.827220
384.928480	3156.200888
385.313280	3182.248530
385.698017	3162.872855
386.082692	3188.733974
386.467305	3178.697037
386.851856	3180.789116
387.236344	3181.799867
387.620770	3177.706450
388.005133	3176.849454
388.389435	3174.717046
388.773674	3158.171979
389.157851	3162.250273
389.541965	3142.952736
389.926018	3101.811879
390.310008	3117.081534
390.693936	3098.416662
391.077802	3097.017742
391.461606	3057.270764
391.845348	3061.449881
392.229027	3034.751930
392.612645	3015.078827
392.996200	3016.359280
393.379694	3006.581963
393.763125	3001.664317
394.146494	2956.553552
394.529801	2952.470217
394.913047	2933.762495
395.296230	2898.043400
395.679351	2885.352295
396.062410	2861.779859
396.445408	2832.586537
396.828343	2813.931748
397.211217	2786.381842
397.594028	2755.580392
397.976778	2743.194277
398.359466	2727.314642
398.742092	2708.193546
399.124656	2685.909125
399.507158	2677.881088
399.889598	2666.011691
400.271977	2652.534166
400.654294	2637.458596
401.036549	2623.524846
401.418742	2610.861468
401.800874	2604.249995
402.182944	2595.503593
402.564952	2584.954978
402.946898	2575.112125
403.328783	2567.638615
403.710606	2559.355999
404.092367	2559.897923
404.474067	2552.890719
404.855705	2548.159596
405.237282	2541.207845
405.618797	2539.876981
406.000250	2537.028729
406.381642	2535.347504
406.762972	2531.672503
407.144240	2531.052441
407.525447	2533.676361
407.906593	2528.002543
408.287677	2524.622449
408.668700	2524.083046
409.049661	2526.472553
409.430560	2525.925587
409.811399	2525.393746
410.192176	2522.500123
410.572891	2522.293436
410.953545	2520.042561
411.334138	2520.622293
411.714669	2522.137160
412.095139	2520.602129
412.475547	2520.682787
412.855894	2518.996521
413.236180	2518.600791
413.616405	2519.178003
413.996568	2521.965761
414.376670	2519.795544
414.756711	2519.596419
415.136691	2519.409896
415.516609	2520.604649
415.896466	2522.686646
416.276262	2519.951820
416.655997	2519.984588
417.035670	2516.291942
417.415283	2518.557941
417.794834	2514.872858
418.174324	2523.959537
418.553753	2520.662623
418.933121	2521.431399
419.312428	2521.229753
419.691674	2525.035824
420.070859	2522.255627
420.449983	2521.827129
420.829045	2524.065402
421.208047	2524.771163
421.586988	2520.274454
421.965867	2522.510206
422.344686	2520.854187
422.723444	2522.381656
423.102141	2521.746471
423.480777	2525.149250
423.859352	2524.592202
424.237866	2521.323014
424.616319	2522.474918
424.994712	2522.376615
425.373044	2523.654548
425.751314	2522.434588
426.129524	2523.984743
426.507673	2524.806451
426.885762	2522.616070
427.263789	2525.103879
427.641756	2525.671009
428.019662	2523.014321
428.397508	2526.260824
428.775292	2523.503313
429.153016	2524.244363
429.530679	2526.863242
429.908282	2525.789476
430.285824	2526.391894
430.663305	2526.293592
431.040726	2524.977850
431.418086	2523.452901
431.795385	2526.686802
432.172624	2524.229239
432.549802	2527.009435
432.926920	2526.351565
433.303977	2528.151257
433.680974	2527.591689
434.057910	2529.197296
434.434786	2525.804600
434.811601	2527.642100
435.188355	2526.868283
435.565050	2527.261493
435.941683	2527.203520
436.318257	2524.569517
436.694770	2520.871831
437.071222	2525.008097
437.447614	2522.553055
437.823946	2525.010618
438.200218	2525.333252
438.576429	2526.792666
438.952580	2526.817872
439.328670	2527.775691
439.704700	2527.664785
440.080670	2524.776204
440.456580	2526.835516
440.832429	2529.789632
441.208218	2529.547656
441.583947	2530.260980
441.959616	2528.650331
442.335224	2528.927594
442.710773	2530.238294
443.086261	2527.211082
443.461689	2527.876514
443.837057	2529.101514
444.212365	2529.202337
444.587612	2531.672503
444.962800	2528.917512
445.337927	2531.070085
445.712995	2527.493386
446.088002	2529.509848
446.462949	2532.965559
446.837837	2530.568490
447.212664	2533.368851
447.587431	2529.552698
447.962139	2532.534540
448.336786	2534.520755
448.711374	2533.525127
449.085901	2528.771319
449.460369	2530.913809
449.834776	2531.180990
450.209124	2531.506145
450.583412	2528.965403
450.957640	2533.993954
451.331808	2535.521424
451.705917	2530.959179
452.079965	2531.775846
452.453954	2532.786598
452.827883	2534.606454
453.201752	2531.443130
453.575562	2532.345497
453.949311	2530.563449
454.323001	2534.871115
454.696632	2531.727955
455.070202	2534.475384
455.443713	2531.397760
455.817164	2530.714683
456.190556	2529.177132
456.563888	2533.444468
456.937160	2527.387522
457.310373	2530.969262
457.683526	2535.259284
458.056619	2531.440610
458.429653	2534.165353
458.802628	2532.113604
459.175542	2534.172915
459.548398	2535.758358
459.921194	2533.202493
460.293930	2534.334232
460.666607	2535.057638
461.039224	2535.985210
461.411782	2533.961187
461.784280	2539.619882
462.156719	2537.928575
462.529099	2535.977648
462.901419	2535.380271
463.273680	2539.718184
463.645882	2534.878677
464.018024	2538.110056
464.390106	2537.096784
464.762130	2539.410674
465.134094	2538.074768
465.505999	2540.224820
465.877845	2540.368493
466.249631	2540.696168
466.621358	2539.708102
466.993026	2544.396375
467.364634	2545.792775
467.736184	2541.583411
468.107674	2540.766744
468.479105	2542.999975
468.850477	2538.019315
469.221790	2542.279090
469.593043	2537.489994
469.964238	2539.864378
470.335373	2539.105684
470.706449	2539.919830
471.077467	2537.777340
471.448425	2543.136087
471.819324	2541.946374
472.190164	2542.301776
472.560945	2541.381765
472.931667	2540.867567
473.302330	2537.767258
473.672934	2539.277083
474.043479	2539.173740
474.413965	2542.379913
474.784393	2533.459592
475.154761	2533.406660
475.525070	2534.404808
475.895321	2535.881866
476.265513	2534.278779
476.635645	2535.342463
477.005719	2537.217772
477.375734	2537.857998
477.745691	2538.775488
478.115588	2540.060983
478.485427	2540.189532
478.855207	2541.790098
479.224928	2540.660880
479.594591	2543.597352
479.964194	2542.778165
480.333739	2542.246323
480.703226	2543.816642
481.072653	2544.658515
481.442022	2543.425953
481.811333	2542.896632
482.180584	2542.571477
482.549777	2542.117773
482.918912	2543.635161
483.287988	2542.027033
483.657005	2543.675490
484.025964	2545.855789
484.394864	2542.858823
484.763706	2541.180119
485.132489	2542.243802
485.501213	2540.791950
485.869879	2540.802032
486.238487	2541.180119
486.607036	2539.377906
486.975527	2544.658515
487.343959	2541.971580
487.712333	2543.846889
488.080648	2542.576518
488.448905	2542.185829
488.817104	2541.495191
489.185244	2542.848741
489.553326	2542.732794
489.921350	2544.187167
490.289315	2545.409647
490.657222	2545.553320
491.025070	2546.541386
491.392861	2544.678680
491.760593	2545.802857
492.128267	2542.947043
492.495883	2544.865202
492.863440	2542.672300
493.230939	2542.765562
493.598380	2542.188350
493.965763	2539.662732
494.333088	2543.801519
494.700354	2540.214738
495.067563	2540.761703
495.434713	2538.619213
495.801805	2541.969059
496.168839	2542.208514
496.535815	2543.299924
496.902733	2544.600542
497.269593	2543.191539
497.636395	2547.645399
498.003139	2545.641540
498.369825	2541.653987
498.736453	2543.683052
499.103023	2540.736497
499.469535	2544.320758
499.835989	2545.134904
500.202385	2542.783206
500.568723	2543.030222
500.935003	2544.426622
501.301226	2543.105840
501.667390	2544.567774
502.033497	2546.685059
502.399546	2542.624409
502.765537	2544.716488
503.131470	2544.587939
503.497345	2544.280428
503.863163	2544.688762
504.228923	2543.675490
504.594625	2544.025850
504.960269	2544.406457
505.325856	2543.534338
505.691385	2542.984852
506.056856	2543.879657
506.422270	2545.686910
506.787625	2544.235058
507.152924	2542.269008
507.518164	2544.688762
507.883347	2546.412837
508.248472	2543.645243
508.613540	2545.308824
508.978550	2543.496529
509.343503	2541.724563
509.708398	2544.219935
510.073236	2546.145655
510.438016	2545.578526
510.802738	2544.504760
511.167403	2545.384441
511.532010	2546.001983
511.896561	2544.540048
512.261053	2546.473330
512.625488	2543.083154
512.989866	2541.230530
513.354186	2544.477033
513.718449	2540.371014
514.082655	2543.022661
514.446803	2546.750594
514.810894	2544.638350
515.174927	2548.583053
515.538904	2545.001313
515.902822	2543.902342
516.266684	2543.972918
516.630488	2544.250182
516.994235	2548.094061
517.357925	2547.012734
517.721558	2546.019627
518.085133	2547.408464
518.448651	2544.066179
518.812112	2546.506098
519.175516	2545.318906
519.538863	2546.014585
519.902152	2545.767569
520.265385	2545.449976
520.628560	2546.312013
520.991678	2547.731098
521.354739	2546.448125
521.717743	2547.647919
522.080690	2544.277908
522.443580	2547.612631
522.806413	2546.959802
523.169189	2548.404092
523.531908	2546.690100
523.894569	2543.856972
524.257174	2548.008362
524.619722	2545.011396
524.982213	2545.936447
525.344647	2548.419216
525.707025	2543.675490
526.069345	2546.740512
526.431608	2545.951571
526.793815	2546.092723
527.155964	2545.820501
527.518057	2546.007024
527.880093	2545.442414
528.242072	2548.605738
528.603995	2548.343598
528.965860	2548.386448
529.327669	2546.811088
529.689421	2547.658002
530.051117	2548.772097
530.412755	2545.182795
530.774337	2549.641696
531.135862	2546.773279
531.497331	2543.665408
531.858743	2541.747249
532.220098	2545.931406
532.581396	2541.447300
532.942638	2543.481406
533.303824	2546.425439
533.664953	2550.516336
534.026025	2548.814946
534.387040	2547.010213
534.747999	2546.924514
535.108902	2545.291180
535.469748	2548.005841
535.830537	2545.243289
536.191270	2547.942827
536.551947	2544.590459
536.912567	2547.547096
537.273131	2549.825698
537.633638	2546.155738
537.994089	2547.045501
538.354483	2544.371169
538.714821	2547.428629
539.075103	2544.746735
539.435328	2548.706562
539.795497	2547.905018
540.155609	2547.582384
540.515665	2547.244627
540.875665	2549.054401
541.235609	2547.723537
541.595496	2548.968702
541.955328	2547.698331
542.315102	2547.547096
542.674821	2545.427291
543.034483	2545.686910
543.394090	2542.599204
543.753640	2549.918959
544.113134	2548.489792
544.472571	2548.371325
544.831953	2550.042467
545.191278	2546.501057
545.550548	2547.136242
545.909761	2544.746735
546.268918	2546.826211
546.628019	2547.615152
546.987064	2546.115408
547.346053	2546.478372
547.704986	2547.776469
548.063863	2548.472148
548.422684	2547.506767
548.781449	2547.194215
549.140158	2548.414175
549.498811	2548.903167
549.857408	2550.526418
550.215949	2542.863864
550.574434	2544.131714
550.932864	2548.348640
551.291237	2544.121632
551.649555	2549.775286
552.007817	2545.969215
552.366022	2547.592467
552.724173	2547.534493
553.082267	2546.450645
553.440305	2548.020965
553.798288	2550.271840
554.156215	2547.620193
554.514086	2547.239586
554.871902	2547.443753
555.229661	2547.955430
555.587365	2546.816129
555.945014	2545.467620
556.302606	2548.066335
556.660143	2548.835111
557.017625	2546.163299
557.375050	2547.436191
557.732421	2548.338557
558.089735	2545.651622
558.446994	2548.724206
558.804197	2548.933413
559.161345	2547.675646
559.518437	2547.700851
559.875474	2549.482899
560.232455	2549.419885
560.589381	2547.186654
560.946251	2551.859803
561.303065	2549.447611
561.659825	2547.229503
562.016528	2548.993907
562.373177	2548.550286
562.729770	2544.391334
563.086307	2547.060625
563.442789	2547.002652
563.799216	2547.784030
564.155587	2547.547096
564.511904	2548.290666
564.868164	2550.491130
565.224370	2548.751932
565.580520	2545.588608
565.936615	2546.274205
566.292654	2547.892415
566.648638	2549.135060
567.004567	2547.922662
567.360441	2548.187323
567.716260	2548.666232
568.072023	2548.157076
568.427732	2541.659028
568.783385	2543.965356
569.138982	2543.617517
569.494525	2546.385110
569.850013	2540.885211
570.205445	2549.916438
570.560823	2545.802857
570.916145	2545.321427
571.271412	2545.046684
571.626625	2549.785368
571.981782	2547.756304
572.336884	2546.511139
572.691931	2549.064483
573.046923	2547.673125
573.401860	2545.328988
573.756743	2546.188505
574.111570	2548.003321
574.466342	2547.171530
574.821059	2548.267981
575.175722	2548.986346
575.530330	2548.943496
575.884882	2550.135729
576.239380	2548.782179
576.593823	2550.095399
576.948211	2548.008362
577.302544	2546.117929
577.656823	2545.636499
578.011047	2546.899308
578.365216	2546.138094
578.719330	2548.399051
579.073389	2547.229503
579.427394	2547.143804
579.781344	2547.410985
580.135239	2546.783361
580.489080	2547.098433
580.842866	2546.420398
581.196597	2545.301262
581.550273	2548.678835
581.903895	2548.623383
582.257463	2547.680687
582.610975	2547.821839
582.964434	2548.262940
583.317837	2549.924000
583.671186	2548.875440
584.024481	2546.107847
584.377721	2549.737477
584.730906	2549.689587
585.084037	2551.048178
585.437113	2546.511139
585.790135	2545.938968
586.143103	2550.158414
586.496016	2547.642878
586.848874	2542.190870
587.201679	2545.124822
587.554428	2544.648433
587.907124	2543.854451
588.259765	2542.163144
588.612352	2545.946530
588.964884	2544.391334
589.317362	2545.487785
589.669786	2546.216232
590.022155	2549.301418
590.374470	2548.600697
590.726731	2547.973074
591.078937	2545.702034
591.431090	2544.966025
591.783188	2546.798485
592.135232	2542.072403
592.487222	2543.753628
592.839157	2542.571477
593.191038	2544.003165
593.542866	2547.955430
593.894639	2544.177085
594.246358	2550.533980
594.598022	2543.945192
594.949633	2545.331509
595.301190	2543.594832
595.652692	2546.140614
596.004141	2546.092723
596.355535	2547.504246
596.706876	2545.971736
597.058162	2545.220604
597.409395	2545.291180
597.760573	2544.492157
598.111698	2545.911242
598.462768	2547.342929
598.813785	2544.950902
599.164748	2546.120450
599.515657	2545.334030
599.866511	2544.633309
600.217312	2544.358566
600.568060	2543.249512
600.918753	2547.935265
601.269392	2546.128011
601.619978	2544.182126
601.970510	2548.875440
602.320988	2547.317724
602.671412	2544.839997
603.021783	2545.150028
603.372100	2545.644061
603.722363	2543.267157
604.072572	2546.072559
604.422728	2545.296221
604.772830	2543.332692
605.122878	2541.164995
605.472872	2544.287990
605.822813	2539.839172
606.172701	2542.516025
606.522534	2544.003165
606.872314	2546.496016
607.222041	2543.804039
607.571714	2542.435366
607.921333	2546.551468
608.270899	2546.591797
608.620411	2544.779503
608.969870	2547.289997
609.319276	2548.333516
609.668627	2551.204453
610.017926	2553.682180
610.367171	2552.832746
610.716362	2552.769732
611.065500	2551.358208
611.414585	2550.118085
611.763616	2547.602549
612.112594	2549.785368
612.461518	2544.204811
612.810389	2545.931406
613.159207	2547.053063
613.507971	2546.801005
613.856682	2546.226314
614.205340	2544.509801
614.553945	2550.019782
614.902496	2547.494164
615.250994	2549.160265
615.599439	2546.886705
615.947830	2548.565409
616.296169	2548.318393
616.644454	2543.632640
616.992686	2543.642723
617.340864	2546.390151
617.688990	2545.384441
618.037063	2545.160110
618.385082	2546.072559
618.733048	2550.939793
619.080961	2546.153217
619.428821	2545.334030
619.776628	2545.434853
620.124382	2549.261088
620.472083	2544.978628
620.819731	2546.029709
621.167326	2547.496685
621.514868	2548.406613
621.862357	2543.637681
622.209793	2547.509287
622.557176	2546.949719
622.904506	2540.310520
623.251783	2540.582742
623.599007	2545.059287
623.946179	2541.785057
624.293297	2543.930068
624.640363	2544.091385
624.987376	2544.771941
625.334336	2543.955274
625.681243	2544.285470
626.028097	2543.216745
626.374899	2543.030222
626.721647	2544.401416
627.068343	2543.284801
627.414987	2542.107691
627.761577	2547.403423
628.108115	2544.545089
628.454600	2545.172713
628.801032	2543.846889
629.147412	2543.483926
629.493739	2545.265974
629.840014	2543.960315
630.186236	2546.664894
630.532405	2545.041643
630.878521	2542.727753
631.224585	2541.991745
631.570597	2540.754141
631.916556	2541.033925
632.262462	2542.364790
632.608316	2544.046015
632.954117	2540.101312
633.299866	2540.481919
633.645562	2543.375541
633.991206	2543.057949
634.336797	2543.635161
634.682336	2542.205994
635.027823	2540.988555
635.373257	2543.476364
635.718639	2541.260777
636.063968	2541.104502
636.409245	2541.958977
636.754470	2540.965870
637.099642	2541.298586
637.444762	2541.631302
637.789829	2542.213555
638.134845	2541.268339
638.479808	2540.880170
638.824719	2542.127856
639.169577	2541.827907
639.514383	2541.613658
639.859137	2539.456044
640.203839	2544.809750
640.548489	2540.086188
640.893086	2538.198276
641.237632	2537.293389
641.582125	2540.567619
641.926566	2536.564942
642.270955	2542.914276
642.615292	2537.033770
642.959576	2538.944367
643.303809	2542.750438
643.647990	2542.642053
643.992118	2540.277752
644.336195	2544.076262
