Dividing Wavelength (nm)	Counts (n)	Blue Motor Position (mm): 0.000000	Red Motor Position (mm): 10.500000	
326.493990	2083.949986
326.888308	2083.949986
327.282561	2083.949986
327.676750	2059.392005
328.070874	2062.935936
328.464933	2067.619168
328.858929	2078.256002
329.252859	2092.378795
329.646726	2107.305651
330.040528	2123.276027
330.434265	2139.687503
330.827938	2159.665596
331.221547	2180.926662
331.615091	2200.738397
332.008571	2223.295040
332.401986	2243.326064
332.795338	2263.019332
333.188625	2282.047167
333.581847	2299.106432
333.975006	2317.882209
334.368100	2336.894921
334.761129	2352.136850
335.154095	2369.861547
335.546996	2385.658002
335.939833	2400.410939
336.332606	2415.088258
336.725315	2424.961358
337.117960	2433.493511
337.510540	2442.030705
337.903056	2451.243414
338.295508	2455.180555
338.687896	2463.669858
339.080220	2470.793008
339.472480	2478.127887
339.864676	2477.591004
340.256807	2481.303814
340.648875	2482.284318
341.040879	2485.278764
341.432818	2487.751450
341.824694	2487.131388
342.216506	2486.654999
342.608253	2486.342447
342.999937	2485.072077
343.391557	2485.014103
343.783113	2482.521253
344.174605	2481.064359
344.566033	2478.135449
344.957397	2480.456900
345.348697	2475.309882
345.739934	2477.664101
346.131106	2472.391054
346.522215	2473.510190
346.913260	2471.440797
347.304241	2467.894345
347.695159	2469.570528
348.086012	2466.051803
348.476802	2464.042903
348.867528	2464.065588
349.258191	2460.403190
349.648789	2463.057358
350.039324	2459.760443
350.429796	2460.680454
350.820203	2460.521657
351.210548	2460.710701
351.600828	2459.732717
351.991045	2456.723148
352.381198	2457.587706
352.771288	2458.122068
353.161314	2457.045782
353.551276	2458.921091
353.941175	2461.103911
354.331010	2457.761626
354.720782	2459.851184
355.110490	2458.968982
355.500135	2459.667182
355.889717	2458.757253
356.279235	2460.272120
356.668689	2462.170115
357.058080	2461.494600
357.447408	2457.633076
357.836672	2460.675412
358.225873	2462.162553
358.615010	2459.699949
359.004084	2462.492748
359.393095	2465.154478
359.782043	2463.901751
360.170927	2466.324025
360.559748	2465.025928
360.948505	2468.227061
361.337199	2468.156485
361.725830	2466.550877
362.114398	2467.733028
362.502903	2469.734366
362.891344	2469.086578
363.279722	2469.991465
363.668037	2471.680251
364.056289	2472.272587
364.444478	2473.759727
364.832603	2471.453399
365.220665	2474.296610
365.608665	2472.252422
365.996601	2471.332412
366.384474	2475.637557
366.772284	2475.400623
367.160031	2476.865078
367.547715	2477.734677
367.935336	2476.590335
368.322893	2475.254429
368.710388	2476.925572
369.097820	2480.371201
369.485189	2479.632672
369.872495	2483.098465
370.259738	2481.475213
370.646918	2484.285657
371.034035	2483.862200
371.421090	2488.802530
371.808081	2490.098107
372.195010	2490.405617
372.581875	2499.998933
372.968678	2501.105466
373.355418	2510.010665
373.742096	2516.475944
374.128710	2526.187727
374.515262	2537.484953
374.901751	2548.076417
375.288177	2564.649211
375.674540	2581.416088
376.060841	2597.262955
376.447079	2619.121398
376.833254	2643.956643
377.219367	2665.416835
377.605417	2696.019159
377.991404	2719.422716
378.377329	2754.993097
378.763191	2789.451905
379.148991	2829.715600
379.534727	2874.050028
379.920402	2920.761359
380.306013	2964.022021
380.691563	3024.445291
381.077049	3074.685430
381.462474	3128.386322
381.847835	3194.735468
382.233134	3263.353134
382.618371	3316.512101
383.003545	3400.792632
383.388657	3473.937253
383.773706	3560.735840
384.158693	3626.941314
384.543618	3715.471537
384.928480	3790.335192
385.313280	3885.267681
385.698017	3983.870129
386.082692	4096.179475
386.467305	4152.196777
386.851856	4272.539202
387.236344	4413.550357
387.620770	4470.800221
388.005133	4581.617385
388.389435	4712.962128
388.773674	4786.494918
389.157851	4905.065377
389.541965	5026.441239
389.926018	5044.443199
390.310008	5198.941962
390.693936	5297.085665
391.077802	5389.588318
391.461606	5504.168703
391.845348	5586.273976
392.229027	5685.241908
392.612645	5860.323702
392.996200	5943.512823
393.379694	6072.306742
393.763125	6233.232976
394.146494	6277.373319
394.529801	6356.897521
394.913047	6527.744745
395.296230	6475.147866
395.679351	6473.809440
396.062410	6631.489171
396.445408	6498.944633
396.828343	6566.468368
397.211217	6607.049657
397.594028	6450.723476
397.976778	6543.624380
398.359466	6594.865188
398.742092	6513.385018
399.124656	6542.928700
399.507158	6600.430622
399.889598	6531.853285
400.271977	6599.447597
400.654294	6532.876640
401.036549	6570.198822
401.418742	6496.844992
401.800874	6588.409990
402.182944	6542.656478
402.564952	6656.188304
402.946898	6456.591379
403.328783	6373.099789
403.710606	6374.297063
404.092367	6405.378297
404.474067	6474.966385
404.855705	6255.524958
405.237282	6114.589420
405.618797	6201.133428
406.000250	6194.143869
406.381642	6232.935547
406.762972	6087.410039
407.144240	5883.389502
407.525447	5857.926633
407.906593	5714.571342
408.287677	5689.317681
408.668700	5617.879490
409.049661	5489.158668
409.430560	5419.237864
409.811399	5295.343947
410.192176	5229.637547
410.572891	5127.758349
410.953545	5137.306294
411.334138	4886.594590
411.714669	4914.825051
412.095139	4647.278414
412.475547	4643.583248
412.855894	4513.672713
413.236180	4474.374399
413.616405	4308.361641
413.996568	4259.167541
414.376670	4161.648940
414.756711	4051.091395
415.136691	4000.029548
415.516609	3936.533695
415.896466	3863.336141
416.276262	3810.542657
416.655997	3783.111219
417.035670	3702.765309
417.415283	3693.867672
417.794834	3618.419243
418.174324	3524.575644
418.553753	3445.590845
418.933121	3414.408788
419.312428	3334.161181
419.691674	3267.189452
420.070859	3238.245667
420.449983	3166.472239
420.829045	3141.452992
421.208047	3079.638364
421.586988	3054.331772
421.965867	3020.740043
422.344686	2979.122798
422.723444	2958.650672
423.102141	2880.636295
423.480777	2883.003117
423.859352	2842.542816
424.237866	2838.328412
424.616319	2802.846250
424.994712	2791.327214
425.373044	2767.684202
425.751314	2755.063674
426.129524	2723.294322
426.507673	2724.783983
426.885762	2703.177598
427.263789	2693.659899
427.641756	2679.353105
428.019662	2670.828513
428.397508	2660.554642
428.775292	2651.964516
429.153016	2642.265336
429.530679	2637.261991
429.908282	2633.433234
430.285824	2623.449229
430.663305	2623.517285
431.040726	2615.562344
431.418086	2607.148658
431.795385	2609.951540
432.172624	2608.313165
432.549802	2602.740169
432.926920	2601.127000
433.303977	2597.346134
433.680974	2593.439240
434.057910	2596.600044
434.434786	2593.449322
434.811601	2592.206678
435.188355	2588.761049
435.565050	2586.789958
435.941683	2589.096286
436.318257	2589.575196
436.694770	2586.691656
437.071222	2589.807089
437.447614	2580.400296
437.823946	2578.033474
438.200218	2581.746284
438.576429	2581.315265
438.952580	2582.444484
439.328670	2579.976839
439.704700	2578.507342
440.080670	2578.892991
440.456580	2579.921386
440.832429	2583.125039
441.208218	2574.847465
441.583947	2577.378124
441.959616	2577.138669
442.335224	2579.482806
442.710773	2575.253278
443.086261	2581.673187
443.461689	2578.146900
443.837057	2578.817373
444.212365	2580.208732
444.587612	2580.296952
444.962800	2578.189750
445.337927	2579.881057
445.712995	2572.198338
446.088002	2583.190574
446.462949	2583.056984
446.837837	2581.526994
447.212664	2581.680749
447.587431	2592.236925
447.962139	2603.125817
448.336786	2613.059411
448.711374	2607.703185
449.085901	2592.312542
449.460369	2591.352202
449.834776	2593.474528
450.209124	2601.802514
450.583412	2600.849736
450.957640	2600.960642
451.331808	2598.707246
451.705917	2592.947728
452.079965	2591.929415
452.453954	2593.116606
452.827883	2592.945207
453.201752	2590.333889
453.575562	2591.853797
453.949311	2596.020311
454.323001	2596.678182
454.696632	2596.965527
455.070202	2600.396032
455.443713	2602.694799
455.817164	2602.677155
456.190556	2601.268152
456.563888	2602.291506
456.937160	2601.673965
457.310373	2599.102977
457.683526	2601.013574
458.056619	2600.068358
458.429653	2600.491814
458.802628	2601.603389
459.175542	2602.122628
459.548398	2607.123452
459.921194	2610.614451
460.293930	2615.025461
460.666607	2622.660288
461.039224	2628.475259
461.411782	2628.828140
461.784280	2626.504168
462.156719	2621.581482
462.529099	2622.763632
462.901419	2615.789196
463.273680	2612.552775
463.645882	2614.546551
464.018024	2616.066459
464.390106	2615.320368
464.762130	2630.156484
465.134094	2644.765748
465.505999	2662.256031
465.877845	2678.866633
466.249631	2685.808302
466.621358	2677.777744
466.993026	2671.040242
467.364634	2665.613440
467.736184	2658.056750
468.107674	2653.973416
468.479105	2652.607263
468.850477	2649.973260
469.221790	2645.284987
469.593043	2637.733338
469.964238	2636.430200
470.335373	2637.650159
470.706449	2643.036632
471.077467	2654.230514
471.448425	2671.438493
471.819324	2683.229752
472.190164	2675.915038
472.560945	2662.334169
472.931667	2649.698517
473.302330	2645.804226
473.672934	2642.948412
474.043479	2642.529996
474.413965	2640.992444
474.784393	2633.750827
475.154761	2638.275262
475.525070	2639.865747
475.895321	2635.737042
476.265513	2635.674027
476.635645	2642.003196
477.005719	2641.703247
477.375734	2641.330202
477.745691	2643.497898
478.115588	2650.590801
478.485427	2653.565082
478.855207	2663.901968
479.224928	2671.952691
479.594591	2674.803463
479.964194	2670.359686
480.333739	2671.314985
480.703226	2668.837258
481.072653	2669.348935
481.442022	2669.497649
481.811333	2670.089984
482.180584	2661.809889
482.549777	2659.800989
482.918912	2656.751091
483.287988	2657.015752
483.657005	2651.664567
484.025964	2648.541572
484.394864	2646.192395
484.763706	2645.400933
485.132489	2639.540592
485.501213	2639.139820
485.869879	2637.796353
486.238487	2634.154119
486.607036	2635.888276
486.975527	2630.678244
487.343959	2632.140178
487.712333	2633.922226
488.080648	2630.811834
488.448905	2632.820734
488.817104	2629.377626
489.185244	2634.333080
489.553326	2637.539254
489.921350	2641.567136
490.289315	2650.832777
490.657222	2653.822181
491.025070	2651.369660
491.392861	2648.682725
491.760593	2645.007723
492.128267	2637.700571
492.495883	2634.265025
492.863440	2631.454581
493.230939	2624.281019
493.598380	2619.912860
493.965763	2619.315483
494.333088	2617.762807
494.700354	2616.459669
495.067563	2615.033023
495.434713	2611.305089
495.801805	2619.010493
496.168839	2612.877929
496.535815	2613.818105
496.902733	2614.158383
497.269593	2610.538834
497.636395	2609.644029
498.003139	2612.346088
498.369825	2610.425408
498.736453	2606.856271
499.103023	2609.258381
499.469535	2610.014554
499.835989	2608.618154
500.202385	2606.223606
500.568723	2607.345263
500.935003	2604.912906
501.301226	2605.480036
501.667390	2604.991044
502.033497	2609.785182
502.399546	2603.519027
502.765537	2603.766044
503.131470	2604.262597
503.497345	2607.254522
503.863163	2600.665734
504.228923	2603.526589
504.594625	2603.466095
504.960269	2600.058275
505.325856	2602.596496
505.691385	2599.556680
506.056856	2598.676999
506.422270	2599.811259
506.787625	2599.576845
507.152924	2599.861670
507.518164	2598.016608
507.883347	2596.847060
508.248472	2596.179107
508.613540	2598.359406
508.978550	2596.073243
509.343503	2597.189859
509.708398	2597.373861
510.073236	2595.924529
510.438016	2596.521906
510.802738	2593.189703
511.167403	2598.107349
511.532010	2595.538881
511.896561	2594.888572
512.261053	2596.547112
512.625488	2592.088211
512.989866	2590.333889
513.354186	2592.315063
513.718449	2586.663929
514.082655	2595.337235
514.446803	2590.772470
514.810894	2594.697008
515.174927	2593.840012
515.538904	2592.821699
515.902822	2596.710949
516.266684	2591.881524
516.630488	2592.584765
516.994235	2590.298601
517.357925	2590.545618
517.721558	2592.284816
518.085133	2592.884713
518.448651	2590.051585
518.812112	2593.315732
519.175516	2591.747933
519.538863	2591.652151
519.902152	2588.128385
520.265385	2592.410845
520.628560	2590.616194
520.991678	2591.533684
521.354739	2589.088724
521.717743	2591.042172
522.080690	2588.030082
522.443580	2589.368508
522.806413	2587.026892
523.169189	2587.846080
523.531908	2588.408169
523.894569	2589.310535
524.257174	2588.337593
524.619722	2586.605956
524.982213	2586.726944
525.344647	2585.562437
525.707025	2588.231728
526.069345	2587.735175
526.431608	2586.737026
526.793815	2585.917839
527.155964	2586.311049
527.518057	2585.322982
527.880093	2585.552355
528.242072	2584.713003
528.603995	2585.932962
528.965860	2582.898187
529.327669	2585.370873
529.689421	2583.493044
530.051117	2583.485482
530.412755	2582.010944
530.774337	2581.789134
531.135862	2581.244689
531.497331	2581.184195
531.858743	2575.656570
532.220098	2577.831828
532.581396	2577.574729
532.942638	2575.094481
533.303824	2577.413412
533.664953	2577.705799
534.026025	2577.562126
534.387040	2579.482806
534.747999	2579.810481
535.108902	2577.983062
535.469748	2575.694379
535.830537	2577.347877
536.191270	2576.004410
536.551947	2576.448031
536.912567	2577.705799
537.273131	2575.734708
537.633638	2573.524162
537.994089	2575.044070
538.354483	2572.236147
538.714821	2575.323854
539.075103	2576.742939
539.435328	2574.728998
539.795497	2573.274625
540.155609	2573.372927
540.515665	2572.520972
540.875665	2575.477609
541.235609	2572.480643
541.595496	2573.841755
541.955328	2573.834193
542.315102	2573.667835
542.674821	2571.096846
543.034483	2572.473081
543.394090	2571.353945
543.753640	2573.219172
544.113134	2571.318657
544.472571	2570.557443
544.831953	2569.687844
545.191278	2572.347052
545.550548	2564.530743
545.909761	2571.790005
546.268918	2569.108111
546.628019	2570.166753
546.987064	2570.539799
547.346053	2569.458471
547.704986	2569.771023
548.063863	2571.606003
548.422684	2571.013667
548.781449	2570.872515
549.140158	2567.641135
549.498811	2568.089798
549.857408	2568.583831
550.215949	2566.746331
550.574434	2567.225240
550.932864	2567.086608
551.291237	2564.984447
551.649555	2569.123235
552.007817	2568.735066
552.366022	2566.108625
552.724173	2565.481001
553.082267	2568.034345
553.440305	2566.569890
553.798288	2567.817576
554.156215	2565.375137
554.514086	2567.389078
554.871902	2564.828172
555.229661	2568.364541
555.587365	2566.418656
555.945014	2565.914540
556.302606	2565.733059
556.660143	2566.847154
557.017625	2567.371434
557.375050	2564.026628
557.732421	2564.384550
558.089735	2565.889334
558.446994	2563.610733
558.804197	2569.299675
559.161345	2565.506207
559.518437	2567.255487
559.875474	2565.377657
560.232455	2563.265414
560.589381	2566.030487
560.946251	2567.152143
561.303065	2567.129458
561.659825	2567.537792
562.016528	2566.337997
562.373177	2563.212482
562.729770	2565.115517
563.086307	2564.913871
563.442789	2563.494786
563.799216	2564.724828
564.155587	2563.255332
564.511904	2565.246587
564.868164	2561.576627
565.224370	2564.931515
565.580520	2564.860939
565.936615	2565.554098
566.292654	2562.360527
566.648638	2562.872204
567.004567	2565.009653
567.360441	2564.344221
567.716260	2564.661813
568.072023	2564.397153
568.427732	2560.613767
568.783385	2560.492779
569.138982	2558.579661
569.494525	2558.884651
569.850013	2557.909188
570.205445	2564.404715
570.560823	2561.977399
570.916145	2562.395815
571.271412	2560.830537
571.626625	2563.162070
571.981782	2558.264589
572.336884	2561.170814
572.691931	2561.533778
573.046923	2559.456822
573.401860	2558.791390
573.756743	2560.240722
574.111570	2559.333314
574.466342	2562.239539
574.821059	2561.702656
575.175722	2559.764333
575.530330	2560.008828
575.884882	2558.846842
576.239380	2559.918088
576.593823	2560.402038
576.948211	2558.219219
577.302544	2558.153684
577.656823	2560.157543
578.011047	2560.228119
578.365216	2557.541184
578.719330	2557.982285
579.073389	2556.545556
579.427394	2556.318704
579.781344	2556.245607
580.135239	2556.069167
580.489080	2558.153684
580.842866	2558.130999
581.196597	2558.410783
581.550273	2556.190154
581.903895	2555.812068
582.257463	2557.750392
582.610975	2555.885165
582.964434	2554.148487
583.317837	2553.820812
583.671186	2556.220401
584.024481	2554.093034
584.377721	2556.348951
584.730906	2553.659495
585.084037	2555.985988
585.437113	2554.985319
585.790135	2555.670916
586.143103	2553.357026
586.496016	2555.393652
586.848874	2550.533980
587.201679	2551.869886
587.554428	2548.961140
587.907124	2554.072870
588.259765	2548.136911
588.612352	2555.693601
588.964884	2551.431305
589.317362	2552.726882
589.669786	2551.443908
590.022155	2553.561193
590.374470	2553.341902
590.726731	2551.343085
591.078937	2553.241079
591.431090	2554.108158
591.783188	2552.648744
592.135232	2552.061449
592.487222	2551.010369
592.839157	2550.418033
593.191038	2551.053219
593.542866	2552.376522
593.894639	2551.154042
594.246358	2550.672612
594.598022	2552.371480
594.949633	2549.215718
595.301190	2549.513146
595.652692	2546.165820
596.004141	2550.423074
596.355535	2549.067004
596.706876	2548.696479
597.058162	2549.984494
597.409395	2548.373845
597.760573	2549.939124
598.111698	2547.073228
598.462768	2548.293187
598.813785	2547.534493
599.164748	2547.405944
599.515657	2547.027857
599.866511	2547.693290
600.217312	2546.551468
600.568060	2546.798485
600.918753	2548.711603
601.269392	2545.540717
601.619978	2548.862837
601.970510	2547.907539
602.320988	2547.264792
602.671412	2549.152704
603.021783	2547.622713
603.372100	2546.135573
603.722363	2547.660522
604.072572	2545.306303
604.422728	2547.133722
604.772830	2545.888557
605.122878	2542.463093
605.472872	2543.304965
605.822813	2544.318237
606.172701	2545.303783
606.522534	2547.385779
606.872314	2546.795964
607.222041	2546.594318
607.571714	2547.821839
607.921333	2545.134904
608.270899	2547.030378
608.620411	2547.068187
608.969870	2547.700851
609.319276	2546.929555
609.668627	2547.065666
610.017926	2547.118598
610.367171	2546.309493
610.716362	2546.480892
611.065500	2547.552137
611.414585	2545.399565
611.763616	2547.095913
612.112594	2546.049873
612.461518	2549.727395
612.810389	2546.634647
613.159207	2547.363094
613.507971	2546.879143
613.856682	2549.787889
614.205340	2545.371838
614.553945	2548.154555
614.902496	2548.454504
615.250994	2551.637992
615.599439	2547.519370
615.947830	2546.274205
616.296169	2547.232024
616.644454	2545.102137
616.992686	2547.335368
617.340864	2544.333361
617.688990	2547.700851
618.037063	2547.894936
618.385082	2544.088865
618.733048	2547.778989
619.080961	2549.228321
619.428821	2547.940306
619.776628	2546.674977
620.124382	2549.636654
620.472083	2547.625234
620.819731	2545.180274
621.167326	2546.317055
621.514868	2545.946530
621.862357	2544.774462
622.209793	2545.999462
622.557176	2548.572971
622.904506	2544.466951
623.251783	2540.786909
623.599007	2543.123484
623.946179	2538.730118
624.293297	2544.963505
624.640363	2543.289842
624.987376	2542.546272
625.334336	2544.782023
625.681243	2544.880326
626.028097	2542.090047
626.374899	2541.510314
626.721647	2540.386137
627.068343	2541.477547
627.414987	2543.065510
627.761577	2541.981662
628.108115	2542.069883
628.454600	2542.453010
628.801032	2544.499719
629.147412	2543.569626
629.493739	2541.560726
629.840014	2538.099974
630.186236	2542.621889
630.532405	2541.265818
630.878521	2539.355221
631.224585	2542.541230
631.570597	2543.136087
631.916556	2540.749100
632.262462	2540.459234
632.608316	2539.829090
632.954117	2538.886394
633.299866	2543.108360
633.645562	2540.502084
633.991206	2540.434028
634.336797	2540.290355
634.682336	2540.592824
635.027823	2540.804553
635.373257	2539.503935
635.718639	2538.530992
636.063968	2538.949408
636.409245	2539.352701
636.754470	2536.494366
637.099642	2538.805735
637.444762	2536.922864
637.789829	2537.792463
638.134845	2536.368338
638.479808	2540.615510
638.824719	2537.081661
639.169577	2537.994110
639.514383	2538.863709
639.859137	2537.883204
640.203839	2538.745242
640.548489	2536.353214
640.893086	2533.469674
641.237632	2532.219468
641.582125	2534.974458
641.926566	2530.432379
642.270955	2537.525282
642.615292	2535.289531
642.959576	2537.419418
643.303809	2533.648635
643.647990	2536.789274
643.992118	2535.261804
644.336195	2536.501928
