Dividing Wavelength (nm)	Counts (n)	Blue Motor Position (mm): 19.400000	Red Motor Position (mm): 0.000000	
326.493990	2184.437826
326.888308	2184.437826
327.282561	2184.437826
327.676750	2144.123718
328.070874	2139.465692
328.464933	2141.419139
328.858929	2144.620272
329.252859	2148.602784
329.646726	2157.379433
330.040528	2169.016936
330.434265	2180.825839
330.827938	2201.280321
331.221547	2219.607436
331.615091	2237.319530
332.008571	2256.175966
332.401986	2270.830600
332.795338	2291.138888
333.188625	2308.677062
333.581847	2327.460402
333.975006	2346.679801
334.368100	2364.533047
334.761129	2386.676315
335.154095	2401.850188
335.546996	2423.348189
335.939833	2455.230966
336.332606	2472.554892
336.725315	2481.628968
337.117960	2495.388798
337.510540	2507.729543
337.903056	2518.744464
338.295508	2528.834333
338.687896	2534.009078
339.080220	2541.003678
339.472480	2549.379556
339.864676	2553.649413
340.256807	2559.703839
340.648875	2564.346741
341.040879	2565.246587
341.432818	2567.394119
341.824694	2573.768658
342.216506	2571.389233
342.608253	2576.158165
342.999937	2573.473750
343.391557	2573.254460
343.783113	2573.115828
344.174605	2570.726322
344.566033	2570.832186
344.957397	2571.671538
345.348697	2569.203893
345.739934	2566.718604
346.131106	2567.941084
346.522215	2564.503017
346.913260	2565.309602
347.304241	2562.000084
347.695159	2558.937583
348.086012	2557.576472
348.476802	2553.803168
348.867528	2550.150852
349.258191	2548.696479
349.648789	2549.203115
350.039324	2545.729760
350.429796	2550.707900
350.820203	2546.853937
351.210548	2545.306303
351.600828	2541.197763
351.991045	2540.323123
352.381198	2544.358566
352.771288	2540.373534
353.161314	2540.628112
353.551276	2539.791281
353.941175	2540.479398
354.331010	2538.790612
354.720782	2537.258101
355.110490	2537.618544
355.500135	2538.304141
355.889717	2539.947557
356.279235	2538.074768
356.668689	2540.847403
357.058080	2539.385468
357.447408	2541.467465
357.836672	2537.472350
358.225873	2539.892104
358.615010	2541.326312
359.004084	2542.556354
359.393095	2540.181970
359.782043	2542.395037
360.170927	2541.036446
360.559748	2545.941489
360.948505	2542.949564
361.337199	2544.787064
361.725830	2543.350336
362.114398	2544.839997
362.502903	2547.390820
362.891344	2548.537683
363.279722	2547.161448
363.668037	2548.381407
364.056289	2546.359904
364.444478	2545.996941
364.832603	2546.233876
365.220665	2550.241593
365.608665	2548.749411
365.996601	2549.286294
366.384474	2551.980791
366.772284	2550.927190
367.160031	2550.158414
367.547715	2554.198899
367.935336	2552.963816
368.322893	2551.025492
368.710388	2545.119781
369.097820	2550.977601
369.485189	2548.010882
369.872495	2551.766542
370.259738	2554.917263
370.646918	2553.737633
371.034035	2553.019269
371.421090	2554.695452
371.808081	2555.499516
372.195010	2550.312169
372.581875	2554.166131
372.968678	2553.651933
373.355418	2556.051523
373.742096	2554.534135
374.128710	2554.292160
374.515262	2555.817109
374.901751	2554.524053
375.288177	2555.754095
375.674540	2557.654610
376.060841	2557.024465
376.447079	2556.832902
376.833254	2558.093190
377.219367	2558.425906
377.605417	2562.655434
377.991404	2555.839794
378.377329	2558.917419
378.763191	2557.026986
379.148991	2559.928170
379.534727	2559.497151
379.920402	2559.398849
380.306013	2559.361040
380.691563	2562.766340
381.077049	2561.299364
381.462474	2561.543860
381.847835	2558.892213
382.233134	2560.911195
382.618371	2561.122923
383.003545	2563.651062
383.388657	2561.359858
383.773706	2560.175187
384.158693	2561.589230
384.543618	2562.942780
384.928480	2559.262738
385.313280	2561.773232
385.698017	2561.228788
386.082692	2564.379509
386.467305	2565.216340
386.851856	2563.031000
387.236344	2564.387071
387.620770	2560.966648
388.005133	2559.681153
388.389435	2560.893551
388.773674	2559.572769
389.157851	2565.153326
389.541965	2563.038562
389.926018	2566.839592
390.310008	2566.867318
390.693936	2564.989488
391.077802	2566.816907
391.461606	2568.120045
391.845348	2565.544015
392.229027	2567.041238
392.612645	2568.059551
392.996200	2566.194324
393.379694	2565.675085
393.763125	2567.764644
394.146494	2566.753892
394.529801	2568.104922
394.913047	2566.320353
395.296230	2566.559808
395.679351	2568.102401
396.062410	2570.650704
396.445408	2568.556105
396.828343	2569.087947
397.211217	2567.638615
397.594028	2570.133986
397.976778	2571.056517
398.359466	2570.436455
398.742092	2571.855540
399.124656	2571.109449
399.507158	2570.537278
399.889598	2572.074830
400.271977	2571.472412
400.654294	2571.459809
401.036549	2570.756568
401.418742	2571.053997
401.800874	2571.709347
402.182944	2573.108267
402.564952	2570.978379
402.946898	2572.868812
403.328783	2574.151786
403.710606	2574.227403
404.092367	2576.173288
404.474067	2571.306054
404.855705	2575.429718
405.237282	2571.570715
405.618797	2572.130283
406.000250	2575.167578
406.381642	2573.148596
406.762972	2571.623647
407.144240	2571.656414
407.525447	2574.076168
407.906593	2570.907803
408.287677	2572.674727
408.668700	2577.118505
409.049661	2574.749162
409.430560	2575.815366
409.811399	2575.691858
410.192176	2576.632033
410.572891	2575.396951
410.953545	2574.547516
411.334138	2576.301838
411.714669	2579.129925
412.095139	2575.664132
412.475547	2577.383165
412.855894	2575.936354
413.236180	2576.828638
413.616405	2578.267888
413.996568	2578.048598
414.376670	2580.370049
414.756711	2580.838876
415.136691	2575.860737
415.516609	2580.085224
415.896466	2578.272929
416.276262	2579.770152
416.655997	2579.850810
417.035670	2580.433063
417.415283	2581.710996
417.794834	2580.591860
418.174324	2579.331571
418.553753	2579.646643
418.933121	2577.340315
419.312428	2575.712023
419.691674	2579.087075
420.070859	2578.401478
420.449983	2579.288721
420.829045	2581.118660
421.208047	2580.226376
421.586988	2583.243507
421.965867	2580.619586
422.344686	2579.588670
422.723444	2581.884916
423.102141	2583.939186
423.480777	2580.359967
423.859352	2581.894998
424.237866	2580.163362
424.616319	2583.367015
424.994712	2583.482961
425.373044	2579.626479
425.751314	2581.211922
426.129524	2576.629513
426.507673	2580.987590
426.885762	2579.581108
427.263789	2584.150914
427.641756	2584.256778
428.019662	2584.261820
428.397508	2585.857345
428.775292	2583.684607
429.153016	2582.376428
429.530679	2584.100503
429.908282	2587.203333
430.285824	2586.817685
430.663305	2585.322983
431.040726	2585.338106
431.418086	2583.785431
431.795385	2585.446491
432.172624	2585.683425
432.549802	2589.338262
432.926920	2586.502612
433.303977	2586.389187
433.680974	2586.245514
434.057910	2586.825246
434.434786	2586.598394
434.811601	2584.776017
435.188355	2587.651996
435.565050	2590.628797
435.941683	2586.210226
436.318257	2589.144177
436.694770	2588.004876
437.071222	2585.237283
437.447614	2588.365319
437.823946	2590.888416
438.200218	2590.744743
438.576429	2587.820874
438.952580	2586.946234
439.328670	2588.239290
439.704700	2586.169896
440.080670	2587.984712
440.456580	2590.767429
440.832429	2588.735844
441.208218	2590.717017
441.583947	2590.331369
441.959616	2589.683581
442.335224	2589.408838
442.710773	2589.759198
443.086261	2588.977819
443.461689	2590.013776
443.837057	2590.096955
444.212365	2592.148705
444.587612	2586.101841
444.962800	2589.028231
445.337927	2586.515215
445.712995	2587.399938
446.088002	2590.250710
446.462949	2592.269693
446.837837	2591.359764
447.212664	2590.563262
447.587431	2594.192893
447.962139	2595.647266
448.336786	2593.961000
448.711374	2597.658686
449.085901	2595.216247
449.460369	2596.300095
449.834776	2593.847574
450.209124	2596.516865
450.583412	2595.546442
450.957640	2597.986361
451.331808	2597.872935
451.705917	2594.021493
452.079965	2597.157091
452.453954	2595.599375
452.827883	2597.333532
453.201752	2597.439396
453.575562	2596.726072
453.949311	2596.559714
454.323001	2595.027204
454.696632	2596.247163
455.070202	2599.392843
455.443713	2597.394025
455.817164	2597.003336
456.190556	2599.896958
456.563888	2599.692792
456.937160	2598.893769
457.310373	2598.253542
457.683526	2598.004005
458.056619	2597.686412
458.429653	2598.422421
458.802628	2597.870414
459.175542	2598.472832
459.548398	2599.541557
459.921194	2600.380909
460.293930	2601.116917
460.666607	2602.904007
461.039224	2600.630446
461.411782	2603.186311
461.784280	2606.773092
462.156719	2604.917947
462.529099	2602.735128
462.901419	2604.991044
463.273680	2601.366455
463.645882	2598.576176
464.018024	2600.862339
464.390106	2599.450816
464.762130	2605.933740
465.134094	2607.289810
465.505999	2607.667897
465.877845	2610.581684
466.249631	2615.151490
466.621358	2614.299535
466.993026	2613.492950
467.364634	2616.273147
467.736184	2613.041767
468.107674	2610.611931
468.479105	2611.325254
468.850477	2611.947837
469.221790	2611.058073
469.593043	2610.256529
469.964238	2612.499843
470.335373	2610.891715
470.706449	2612.343567
471.077467	2612.893053
471.448425	2613.679473
471.819324	2619.247427
472.190164	2621.803292
472.560945	2615.703496
472.931667	2612.827518
473.302330	2613.757611
473.672934	2614.554113
474.043479	2614.987652
474.413965	2617.021758
474.784393	2614.899432
475.154761	2618.130812
475.525070	2619.229783
475.895321	2616.794906
476.265513	2619.043261
476.635645	2619.512088
477.005719	2618.193826
477.375734	2619.759104
477.745691	2622.221708
478.115588	2625.052316
478.485427	2624.238170
478.855207	2628.170270
479.224928	2629.859056
479.594591	2631.683954
479.964194	2635.376599
480.333739	2635.074130
480.703226	2635.563122
481.072653	2639.127217
481.442022	2640.052269
481.811333	2640.092598
482.180584	2637.312402
482.549777	2641.541930
482.918912	2639.918679
483.287988	2645.348001
483.657005	2647.251037
484.025964	2646.968732
484.394864	2647.649288
484.763706	2650.043836
485.132489	2648.221459
485.501213	2653.219763
485.869879	2655.863848
486.238487	2657.023314
486.607036	2658.490289
486.975527	2660.186638
487.343959	2659.105310
487.712333	2659.753098
488.080648	2665.376506
488.448905	2671.798936
488.817104	2669.848009
489.185244	2677.684483
489.553326	2681.820749
489.921350	2686.317459
490.289315	2702.754141
490.657222	2715.283929
491.025070	2724.030331
491.392861	2731.256825
491.760593	2730.815724
492.128267	2732.605333
492.495883	2733.033831
492.863440	2737.154975
493.230939	2739.582290
493.598380	2749.515884
493.965763	2751.751636
494.333088	2759.487286
494.700354	2769.894748
495.067563	2777.148969
495.434713	2787.929476
495.801805	2804.104018
496.168839	2812.295893
496.535815	2825.763336
496.902733	2836.649707
497.269593	2853.169569
497.636395	2872.762013
498.003139	2893.587020
498.369825	2906.058834
498.736453	2927.201433
499.103023	2950.284877
499.469535	2972.425625
499.835989	2998.906806
500.202385	3025.629962
500.568723	3037.479194
500.935003	3076.719536
501.301226	3095.046651
501.667390	3150.280053
502.033497	3196.789738
502.399546	3215.789847
502.765537	3240.647777
503.131470	3286.791978
503.497345	3329.833350
503.863163	3348.626772
504.228923	3413.632450
504.594625	3468.182776
504.960269	3490.827639
505.325856	3564.110893
505.691385	3597.231273
506.056856	3671.353879
506.422270	3733.465936
506.787625	3765.293260
507.152924	3858.801623
507.518164	3911.723656
507.883347	3961.328610
508.248472	4000.488293
508.613540	4123.031181
508.978550	4192.780586
509.343503	4269.252369
509.708398	4359.700752
510.073236	4441.196045
510.438016	4540.791601
510.802738	4604.675623
511.167403	4703.419224
511.532010	4761.785703
511.896561	4925.678656
512.261053	5032.876272
512.625488	5096.132670
512.989866	5170.948434
513.354186	5237.123661
513.718449	5370.245410
514.082655	5494.714019
514.446803	5591.373103
514.810894	5747.595940
515.174927	5783.642711
515.538904	5900.552110
515.902822	6064.150155
516.266684	6168.249982
516.630488	6251.728969
516.994235	6369.520570
517.357925	6524.558736
517.721558	6686.614188
518.085133	6828.830179
518.448651	6936.564678
518.812112	7026.415683
519.175516	7158.884604
519.538863	7342.097778
519.902152	7422.869666
520.265385	7625.836602
520.628560	7714.293729
520.991678	7876.392031
521.354739	8024.538939
521.717743	8190.115637
522.080690	8274.018081
522.443580	8518.912294
522.806413	8635.562073
523.169189	8833.608843
523.531908	8963.206827
523.894569	9043.235144
524.257174	9204.186583
524.619722	9409.747193
524.982213	9456.602198
525.344647	9658.749946
525.707025	9827.920987
526.069345	10007.184418
526.431608	10156.586574
526.793815	10394.171113
527.155964	10332.323717
527.518057	10564.950282
527.880093	10717.470392
528.242072	10895.657536
528.603995	10971.801644
528.965860	11067.228166
529.327669	11295.378186
529.689421	11405.240052
530.051117	11500.444763
530.412755	11774.373501
530.774337	11812.532515
531.135862	11934.480547
531.497331	12167.790189
531.858743	12139.869758
532.220098	12547.631049
532.581396	12508.287363
532.942638	12736.371849
533.303824	12897.134245
533.664953	13085.055857
534.026025	13114.745733
534.387040	13344.047657
534.747999	13584.455243
535.108902	13778.668215
535.469748	13717.710583
535.830537	13981.519205
536.191270	14165.647349
536.551947	14323.052337
536.912567	14255.286626
537.273131	14572.223968
537.633638	14565.678030
537.994089	14875.109094
538.354483	14761.869655
538.714821	15194.927456
539.075103	15405.516617
539.435328	15418.369038
539.795497	15322.945037
540.155609	15716.220572
540.515665	16024.948396
540.875665	15726.718775
541.235609	16029.553490
541.595496	16192.206318
541.955328	16544.683795
542.315102	16640.571583
542.674821	16535.844132
543.034483	16593.615755
543.394090	16805.949155
543.753640	16816.379303
544.113134	17361.169237
544.472571	17265.125174
544.831953	17646.062485
545.191278	17470.534549
545.550548	17599.646061
545.909761	17829.837748
546.268918	18160.043408
546.628019	18253.849198
546.987064	18235.958143
547.346053	18188.372172
547.704986	18384.808293
548.063863	18645.708169
548.422684	18708.178148
548.781449	18563.547444
549.140158	18959.865315
549.498811	18807.352767
549.857408	18675.723199
550.215949	19150.209202
550.574434	19004.638323
550.932864	19291.802611
551.291237	19492.571604
551.649555	19529.122490
552.007817	19689.040492
552.366022	19696.798828
552.724173	19809.642537
553.082267	19875.764831
553.440305	20361.361537
553.798288	19866.688233
554.156215	20399.749923
554.514086	20557.490148
554.871902	20128.162801
555.229661	20453.360074
555.587365	20448.770103
555.945014	20384.303828
556.302606	20727.629090
556.660143	20718.728933
557.017625	21039.253056
557.375050	20747.851679
557.732421	21145.795322
558.089735	21080.547668
558.446994	21194.371881
558.804197	21285.253802
559.161345	21335.214157
559.518437	21163.663692
559.875474	21448.536775
560.232455	21651.397847
560.589381	21598.420362
560.946251	21611.839913
561.303065	21981.459834
561.659825	22126.254375
562.016528	21836.723266
562.373177	21679.046056
562.729770	22020.803519
563.086307	22001.805931
563.442789	22206.441489
563.799216	22101.789655
564.155587	22165.726610
564.511904	22202.642979
564.868164	22178.084998
565.224370	22245.172674
565.580520	22168.589985
565.936615	22365.540304
566.292654	22089.776586
566.648638	22447.653138
567.004567	22296.451291
567.360441	22301.522691
567.716260	22078.832241
568.072023	22440.235081
568.427732	22240.615471
568.783385	22070.141292
569.138982	22318.632367
569.494525	22394.892422
569.850013	22196.364222
570.205445	22307.020070
570.560823	22149.010143
570.916145	21953.554527
571.271412	22133.317032
571.626625	21940.724790
571.981782	22070.693298
572.336884	21901.809603
572.691931	22073.269328
573.046923	21820.112664
573.401860	21728.905588
573.756743	21744.437383
574.111570	21690.257582
574.466342	21646.099595
574.821059	21763.256010
575.175722	21471.779015
575.530330	21492.409937
575.884882	21531.680526
576.239380	21447.982248
576.593823	21362.070905
576.948211	21348.066579
577.302544	21204.497038
577.656823	21101.234043
578.011047	21205.555681
578.365216	21100.853436
578.719330	20993.055922
579.073389	20902.494114
579.427394	21061.754247
579.781344	20850.960919
580.135239	20747.768500
580.489080	20729.217054
580.842866	20506.632467
581.196597	20693.722289
581.550273	20674.762510
581.903895	20594.197310
582.257463	20905.332284
582.610975	20433.369378
582.964434	20742.255998
583.317837	20468.012188
583.671186	20573.780637
584.024481	20532.228926
584.377721	20315.955864
584.730906	20363.206599
585.084037	20418.187944
585.437113	20311.174330
585.790135	20511.499701
586.143103	19999.973821
586.496016	20011.787765
586.848874	20253.881616
587.201679	20209.884946
587.554428	19864.938953
587.907124	20202.003102
588.259765	19999.590693
588.612352	20072.546271
588.964884	19639.816146
589.317362	19820.319700
589.669786	19864.157574
590.022155	19936.425035
590.374470	20091.138047
590.726731	19920.875596
591.078937	19660.051337
591.431090	19770.291290
591.783188	19508.194139
592.135232	19488.581530
592.487222	19596.260577
592.839157	19620.982395
593.191038	19504.272122
593.542866	19396.033508
593.894639	19119.352299
594.246358	19346.282360
594.598022	19254.082177
594.949633	19011.302728
595.301190	18963.474781
595.652692	19124.499317
596.004141	19378.525580
596.355535	18707.941213
596.706876	18719.127534
597.058162	18596.027598
597.409395	18822.773657
597.760573	18932.625440
598.111698	18704.351912
598.462768	18637.241551
598.813785	18592.292103
599.164748	18430.793698
599.515657	18446.643086
599.866511	18238.027537
600.217312	18612.267675
600.568060	18147.153177
600.918753	18446.471687
601.269392	18354.349641
601.619978	18116.545812
601.970510	18339.586622
602.320988	18291.315054
602.671412	18504.797837
603.021783	18392.092760
603.372100	18142.028844
603.722363	18268.657588
604.072572	18206.663998
604.422728	18332.899532
604.772830	18109.271427
605.122878	18059.495073
605.472872	18045.268937
605.822813	18030.730250
606.172701	17985.569073
606.522534	18207.251293
606.872314	18220.030618
607.222041	18047.252631
607.571714	18272.592208
607.921333	18089.860464
608.270899	18161.860743
608.620411	18361.800467
608.969870	18120.561091
609.319276	18130.613151
609.668627	18152.794228
610.017926	18293.313871
610.367171	18407.438033
610.716362	18443.421789
611.065500	18280.209392
611.414585	18393.902534
611.763616	18380.772849
612.112594	18335.742743
612.461518	18307.237538
612.810389	18494.634871
613.159207	18344.141305
613.507971	18245.755626
613.856682	18535.362353
614.205340	18459.147668
614.553945	18614.042161
614.902496	18348.040637
615.250994	18604.365666
615.599439	18531.999903
615.947830	18520.001957
616.296169	18556.623419
616.644454	18537.865285
616.992686	18501.511004
617.340864	18703.169761
617.688990	18470.870871
618.037063	18654.159663
618.385082	18486.949632
618.733048	18771.621069
619.080961	18640.709865
619.428821	18687.615281
619.776628	18578.456656
620.124382	18499.010592
620.472083	18523.505559
620.819731	18559.391012
621.167326	18261.468902
621.514868	18291.060475
621.862357	18050.383188
622.209793	18074.129543
622.557176	17901.447339
622.904506	17738.678563
623.251783	17634.246020
623.599007	17410.020538
623.946179	17354.804780
624.293297	17297.638096
624.640363	17053.432000
624.987376	17068.535297
625.334336	16864.043412
625.681243	16705.796552
626.028097	16706.414093
626.374899	16653.426525
626.721647	16521.590270
627.068343	16339.697877
627.414987	16269.701456
627.761577	16257.199394
628.108115	16302.330324
628.454600	16020.706265
628.801032	16117.398116
629.147412	16046.983279
629.493739	16064.874334
629.840014	15889.142232
630.186236	15971.779346
630.532405	15740.312247
630.878521	15937.227277
631.224585	15830.483365
631.570597	15653.997610
631.916556	15689.053794
632.262462	15678.217834
632.608316	15589.669967
632.954117	15532.193251
633.299866	15527.678898
633.645562	15457.372446
633.991206	15203.366348
634.336797	15073.012191
634.682336	15045.169899
635.027823	14941.856492
635.373257	14822.426516
635.718639	14707.926789
636.063968	14664.098997
636.409245	14421.773252
636.754470	14448.438436
637.099642	14296.205672
637.444762	14064.458788
637.789829	14106.640643
638.134845	13948.325727
638.479808	13969.216269
638.824719	13931.347121
639.169577	13775.683852
639.514383	13823.884844
