Dividing Wavelength (nm)	Counts (n)	Blue Motor Position (mm): 0.000000	Red Motor Position (mm): 40.500000	
326.493990	2075.879098
326.888308	2075.879098
327.282561	2075.879098
327.676750	2053.672816
328.070874	2055.895964
328.464933	2062.338559
328.858929	2071.334498
329.252859	2083.375294
329.646726	2100.326174
330.040528	2114.121291
330.434265	2137.456793
330.827938	2153.147384
331.221547	2170.625064
331.615091	2192.939732
332.008571	2214.851107
332.401986	2236.601165
332.795338	2256.407859
333.188625	2274.626589
333.581847	2293.845988
333.975006	2313.080510
334.368100	2328.524085
334.761129	2345.568226
335.154095	2363.328211
335.546996	2393.335679
335.939833	2443.172526
336.332606	2455.540997
336.725315	2469.867957
337.117960	2474.803246
337.510540	2483.718527
337.903056	2489.977119
338.295508	2500.495487
338.687896	2507.427073
339.080220	2513.615090
339.472480	2516.453259
339.864676	2522.903416
340.256807	2524.120854
340.648875	2526.893489
341.040879	2527.672347
341.432818	2530.407173
341.824694	2530.112266
342.216506	2529.814838
342.608253	2527.816020
342.999937	2527.929446
343.391557	2527.654703
343.783113	2527.143026
344.174605	2527.682429
344.566033	2526.018849
344.957397	2523.470545
345.348697	2521.416275
345.739934	2521.234794
346.131106	2518.532735
346.522215	2519.669515
346.913260	2512.574091
347.304241	2514.522497
347.695159	2510.933196
348.086012	2510.976046
348.476802	2512.052332
348.867528	2507.449758
349.258191	2506.698627
349.648789	2503.658811
350.039324	2505.332474
350.429796	2506.857423
350.820203	2505.181239
351.210548	2507.525376
351.600828	2503.976403
351.991045	2501.171001
352.381198	2503.903307
352.771288	2500.639160
353.161314	2502.854747
353.551276	2504.523369
353.941175	2502.912720
354.331010	2503.058913
354.720782	2502.769047
355.110490	2503.474809
355.500135	2506.965808
355.889717	2502.244767
356.279235	2507.167454
356.668689	2506.532268
357.058080	2506.496980
357.447408	2504.288955
357.836672	2505.466064
358.225873	2507.197701
358.615010	2505.559326
359.004084	2511.157527
359.393095	2510.131652
359.782043	2512.642147
360.170927	2513.531911
360.559748	2515.069463
360.948505	2517.519463
361.337199	2516.055008
361.725830	2516.488547
362.114398	2517.456449
362.502903	2517.990811
362.891344	2519.102386
363.279722	2519.034330
363.668037	2520.150946
364.056289	2519.039371
364.444478	2521.403672
364.832603	2521.789321
365.220665	2521.897705
365.608665	2522.878210
365.996601	2524.806451
366.384474	2525.479445
366.772284	2525.280320
367.160031	2525.492048
367.547715	2529.156967
367.935336	2530.896165
368.322893	2531.450692
368.710388	2530.029087
369.097820	2532.269879
369.485189	2535.002185
369.872495	2532.799201
370.259738	2535.294572
370.646918	2537.734490
371.034035	2542.203473
371.421090	2543.557023
371.808081	2547.738660
372.195010	2549.853424
372.581875	2557.657130
372.968678	2561.349775
373.355418	2567.525189
373.742096	2573.725808
374.128710	2586.648806
374.515262	2595.445619
374.901751	2606.823504
375.288177	2626.599950
375.674540	2644.256592
376.060841	2659.992553
376.447079	2679.418640
376.833254	2703.293544
377.219367	2724.355485
377.605417	2756.379415
377.991404	2780.450924
378.377329	2818.320072
378.763191	2852.874661
379.148991	2895.598440
379.534727	2938.702826
379.920402	2988.249807
380.306013	3032.185983
380.691563	3092.841146
381.077049	3143.749238
381.462474	3194.044830
381.847835	3265.041920
382.233134	3330.587003
382.618371	3387.068090
383.003545	3468.286120
383.388657	3545.098181
383.773706	3631.647231
384.158693	3697.588044
384.543618	3792.102117
384.928480	3862.564844
385.313280	3961.207622
385.698017	4060.999783
386.082692	4175.459181
386.467305	4236.366402
386.851856	4354.888970
387.236344	4503.245087
387.620770	4564.343871
388.005133	4678.130275
388.389435	4814.780833
388.773674	4899.404162
389.157851	5024.376886
389.541965	5154.378162
389.926018	5176.622253
390.310008	5348.921330
390.693936	5465.994566
391.077802	5576.577317
391.461606	5702.971647
391.845348	5807.716741
392.229027	5929.745432
392.612645	6138.063553
392.996200	6261.675166
393.379694	6428.890239
393.763125	6640.129708
394.146494	6731.036836
394.529801	6865.325612
394.913047	7096.510407
395.296230	7090.377843
395.679351	7147.267265
396.062410	7396.416211
396.445408	7297.591952
396.828343	7446.200126
397.211217	7579.183244
397.594028	7471.761297
397.976778	7667.605082
398.359466	7831.634146
398.742092	7816.263668
399.124656	7951.984132
399.507158	8139.452041
399.889598	8161.360896
400.271977	8374.195891
400.654294	8401.501300
401.036549	8598.015560
401.418742	8632.403791
401.800874	8918.340557
402.182944	9003.745265
402.564952	9363.781952
402.946898	9200.193989
403.328783	9256.123071
403.710606	9453.612793
404.092367	9702.174445
404.474067	10054.513291
404.855705	9849.298000
405.237282	9810.430704
405.618797	10235.478111
406.000250	10468.306322
406.381642	10824.816722
406.762972	10773.550708
407.144240	10594.831722
407.525447	10842.924546
407.906593	10789.112750
408.287677	11054.443800
408.668700	11198.630882
409.049661	11187.570591
409.430560	11349.381547
409.811399	11328.833804
410.192176	11484.509676
410.572891	11561.717468
410.953545	12031.396730
411.334138	11525.380831
411.714669	12100.026999
412.095139	11454.729059
412.475547	11929.051225
412.855894	11795.500977
413.236180	12114.739606
413.616405	11813.281127
413.996568	12086.748599
414.376670	12062.805639
414.756711	11951.602827
415.136691	12222.983262
415.516609	12390.820917
415.896466	12484.377171
416.276262	12772.085903
416.655997	13220.829254
417.035670	13270.199794
417.415283	13894.256832
417.794834	13980.626920
418.174324	13721.501530
418.553753	13635.438952
418.933121	14118.242859
419.312428	13941.767186
419.691674	13867.652142
420.070859	14323.450588
420.449983	13982.154390
420.829045	14522.666905
421.208047	14290.526812
421.586988	14742.413322
421.965867	14984.416433
422.344686	14987.713348
422.723444	15553.794595
423.102141	14257.933232
423.480777	15447.156548
423.859352	14948.132728
424.237866	16042.887342
424.616319	15769.480363
424.994712	16411.156233
425.373044	16197.854931
425.751314	16879.839868
426.129524	16031.963161
426.507673	17097.232066
426.885762	16836.102817
427.263789	17003.280081
427.641756	17192.000717
428.019662	17249.328718
428.397508	17303.314435
428.775292	17579.216785
429.153016	17568.821926
429.530679	17646.508627
429.908282	17679.949121
430.285824	17411.328718
430.663305	18126.628119
431.040726	17744.732989
431.418086	17580.648473
431.795385	18209.809678
432.172624	18651.732348
432.549802	18213.368733
432.926920	18427.612730
433.303977	18310.161407
433.680974	18554.070074
434.057910	18870.924238
434.434786	18902.106295
434.811601	18833.534000
435.188355	19880.027127
435.565050	19538.481392
435.941683	19512.859727
436.318257	20395.986702
436.694770	20207.979390
437.071222	20803.556429
437.447614	19875.606035
437.823946	19901.015971
438.200218	20080.735626
438.576429	19856.679023
438.952580	20158.692029
439.328670	20127.865373
439.704700	20558.291691
440.080670	20126.960486
440.456580	20724.143132
440.832429	20900.326418
441.208218	19916.378887
441.583947	20350.359219
441.959616	20487.284519
442.335224	20723.646579
442.710773	20864.067919
443.086261	21419.855131
443.461689	20755.983060
443.837057	20928.425810
444.212365	21572.624777
444.587612	21571.437586
444.962800	21171.664003
445.337927	21609.324377
445.712995	20316.003755
446.088002	22221.494374
446.462949	22432.428854
446.837837	22605.030400
447.212664	22619.589252
447.587431	25573.627268
447.962139	28548.991885
448.336786	30867.506759
448.711374	29207.855570
449.085901	25481.522867
449.460369	25484.048485
449.834776	25470.991896
450.209124	28022.705506
450.583412	27508.157454
450.957640	28016.888015
451.331808	26661.072208
451.705917	25281.862927
452.079965	25317.221581
452.453954	25704.120056
452.827883	25621.218281
453.201752	25418.079946
453.575562	25581.088176
453.949311	26716.547586
454.323001	26788.197505
454.696632	26565.282723
455.070202	28173.425924
455.443713	28361.007258
455.817164	28942.464025
456.190556	29503.007566
456.563888	28906.591175
456.937160	29353.701192
457.310373	27625.172717
457.683526	28078.440503
458.056619	28082.264218
458.429653	28053.650629
458.802628	28670.362705
459.175542	28812.308995
459.548398	30188.080209
459.921194	31822.258448
460.293930	32552.482186
460.666607	34645.808717
461.039224	36441.729857
461.411782	36799.525752
461.784280	35515.349783
462.156719	34956.568126
462.529099	34396.989966
462.901419	33051.589184
463.273680	31998.119100
463.645882	32143.032108
464.018024	32115.668725
464.390106	33060.423806
464.762130	35981.316235
465.134094	40313.451958
465.505999	45825.767166
465.877845	50374.420446
466.249631	51377.809187
466.621358	49530.203617
466.993026	47271.691077
467.364634	45133.672195
467.736184	43171.786188
468.107674	41883.821792
468.479105	41091.090268
468.850477	40379.801104
469.221790	38926.096172
469.593043	37141.373956
469.964238	36253.793121
470.335373	36181.165218
470.706449	38044.073210
471.077467	40801.599488
471.448425	45499.319687
471.819324	48280.327659
472.190164	46275.301978
472.560945	42637.754076
472.931667	39476.423814
473.302330	38380.396310
473.672934	37524.642800
474.043479	38069.457940
474.413965	37271.294572
474.784393	36900.026195
475.154761	37835.508073
475.525070	37880.996924
475.895321	37384.521408
476.265513	38030.913278
476.635645	39040.217813
477.005719	38889.812467
477.375734	39379.956294
477.745691	40117.318306
478.115588	41505.034533
478.485427	43614.543169
478.855207	47104.052547
479.224928	49756.117885
479.594591	51310.411480
479.964194	50207.477595
480.333739	50344.216372
480.703226	50406.502349
481.072653	51058.189951
481.442022	51560.508164
481.811333	51753.397833
482.180584	50482.971612
482.549777	49947.038984
482.918912	49416.553324
483.287988	49103.061610
483.657005	48275.939334
484.025964	47594.677803
484.394864	47585.084488
484.763706	47145.911768
485.132489	46248.193173
485.501213	46112.477750
485.869879	46246.897596
486.238487	45841.790473
486.607036	46031.665533
486.975527	45469.652496
487.343959	45681.645618
487.712333	45752.652791
488.080648	45661.455797
488.448905	46118.121321
488.817104	45913.200938
489.185244	46928.033098
489.553326	48699.489519
489.921350	51461.998977
490.289315	54291.535616
490.657222	54814.676315
491.025070	55056.566000
491.392861	54118.308967
491.760593	52853.808621
492.128267	51152.520021
492.495883	49610.095823
492.863440	48171.947892
493.230939	46797.598284
493.598380	45695.967537
493.965763	45358.527822
494.333088	44522.407086
494.700354	44031.370975
495.067563	43734.777209
495.434713	43584.825567
495.801805	43650.922656
496.168839	43270.423925
496.535815	42918.082559
496.902733	42935.998820
497.269593	42495.588497
497.636395	42433.791512
498.003139	42821.562107
498.369825	42262.704833
498.736453	42588.877569
499.103023	42093.339708
499.469535	41963.020840
499.835989	42044.059908
500.202385	41708.873589
500.568723	41714.257542
500.935003	41907.686615
501.301226	41688.855167
501.667390	42301.289825
502.033497	42551.812486
502.399546	41982.913233
502.765537	41272.639862
503.131470	41638.453711
503.497345	42006.470545
503.863163	40648.383699
504.228923	41283.806018
504.594625	41691.123687
504.960269	40933.713006
505.325856	41634.173772
505.691385	40996.112409
506.056856	41140.435602
506.422270	41573.213619
506.787625	41129.619807
507.152924	41344.546880
507.518164	41423.869436
507.883347	40635.400207
508.248472	40857.994876
508.613540	41355.249250
508.978550	41644.891265
509.343503	41395.086968
509.708398	41594.671290
510.073236	42128.002682
510.438016	42107.913684
510.802738	41564.099213
511.167403	42204.290463
511.532010	42414.655292
511.896561	42720.098804
512.261053	43569.268566
512.625488	43090.414404
512.989866	42975.433246
513.354186	42809.783451
513.718449	42788.182107
514.082655	43473.766427
514.446803	43128.888490
514.810894	43673.060883
515.174927	43566.705140
515.538904	43455.703973
515.902822	44138.261080
516.266684	43577.770472
516.630488	44010.261143
516.994235	43833.528372
517.357925	44444.654849
517.721558	44597.119506
518.085133	44899.654272
518.448651	45019.064083
518.812112	44780.995593
519.175516	44884.649278
519.538863	45208.540892
519.902152	45164.309808
520.265385	45620.551875
520.628560	45647.509445
520.991678	45422.363953
521.354739	45666.890161
521.717743	45969.026676
522.080690	45849.369848
522.443580	46401.451812
522.806413	46451.031560
523.169189	46380.092443
523.531908	46561.949547
523.894569	46412.640653
524.257174	46573.375322
524.619722	46852.604834
524.982213	46834.678491
525.344647	46752.958866
525.707025	46809.838205
526.069345	47193.172585
526.431608	47106.900798
526.793815	47416.261287
527.155964	46936.103986
527.518057	47114.467570
527.880093	46904.316990
528.242072	47407.459432
528.603995	47111.765512
528.965860	47083.088908
529.327669	47179.770677
529.689421	47084.379444
530.051117	47038.618370
530.412755	47174.613577
530.774337	47263.262267
531.135862	47051.513641
531.497331	47246.664268
531.858743	47139.388514
532.220098	47465.261302
532.581396	47183.382664
532.942638	46827.502408
533.303824	47132.870303
533.664953	47107.150336
534.026025	46808.275447
534.387040	47289.604817
534.747999	47230.784634
535.108902	47392.053666
535.469748	46884.222951
535.830537	47006.289450
536.191270	47175.679781
536.551947	46838.136722
536.912567	47141.359606
537.273131	47271.928011
537.633638	46758.655370
537.994089	47079.585306
538.354483	46664.670618
538.714821	47239.767970
539.075103	47569.255265
539.435328	47325.079416
539.795497	47203.214563
540.155609	47203.222125
540.515665	47659.098708
540.875665	47098.371166
541.235609	47422.449303
541.595496	47385.938746
541.955328	48066.222293
542.315102	47414.688447
542.674821	47179.831171
543.034483	47222.270125
543.394090	47195.158799
543.753640	47128.030795
544.113134	48131.260739
544.472571	47120.431255
544.831953	48352.496817
545.191278	47554.295641
545.550548	47265.679501
545.909761	47730.052949
546.268918	47901.311027
546.628019	48204.687666
546.987064	47765.046118
547.346053	47018.688168
547.704986	47866.648053
548.063863	47441.835060
548.422684	47607.010986
548.781449	47419.147347
549.140158	47834.790482
549.498811	47637.285636
549.857408	47059.392965
550.215949	47889.769306
550.574434	47819.926640
550.932864	47564.720747
551.291237	48274.706772
551.649555	47866.953043
552.007817	48075.084642
552.366022	47707.420689
552.724173	47873.458652
553.082267	48260.402498
553.440305	48522.418990
553.798288	47807.608580
554.156215	48103.539434
554.514086	48300.784661
554.871902	48013.322945
555.229661	48040.046102
555.587365	47831.516252
555.945014	47915.680836
556.302606	47831.606993
556.660143	48039.481492
557.017625	48098.568857
557.375050	47866.116212
557.732421	48193.463537
558.089735	48135.255854
558.446994	48044.525167
558.804197	48483.082866
559.161345	48391.820338
559.518437	47622.341135
559.875474	47922.138554
560.232455	48079.732585
560.589381	48229.018795
560.946251	47907.148683
561.303065	48550.606602
561.659825	48318.968103
562.016528	47988.580962
562.373177	47669.554062
562.729770	48125.077764
563.086307	47634.492837
563.442789	48049.750323
563.799216	48068.803364
564.155587	47832.300152
564.511904	47837.185030
564.868164	47881.161535
565.224370	48083.556301
565.580520	47806.310483
565.936615	47970.780648
566.292654	47664.706992
566.648638	47899.723064
567.004567	47818.999067
567.360441	47840.194599
567.716260	47664.391920
568.072023	47908.736647
568.427732	47848.051237
568.783385	47351.600927
569.138982	47718.407883
569.494525	47630.994276
569.850013	47335.070983
570.205445	47289.677913
570.560823	47187.990279
570.916145	47031.049077
571.271412	47048.809062
571.626625	46735.423213
571.981782	46736.383552
572.336884	46387.689462
572.691931	46654.381623
573.046923	46211.007102
573.401860	46012.332708
573.756743	45942.815196
574.111570	45999.203023
574.466342	45813.154199
574.821059	45856.172885
575.175722	45341.639956
575.530330	45321.480382
575.884882	44971.911651
576.239380	44868.081526
576.593823	44807.738914
576.948211	44662.551163
577.302544	44147.657791
577.656823	44107.661277
578.011047	44255.740130
578.365216	43936.289772
578.719330	43663.535623
579.073389	43457.854025
579.427394	43469.574708
579.781344	43377.873599
580.135239	42957.675782
580.489080	42972.282525
580.842866	42403.511822
581.196597	42768.355249
581.550273	42647.675067
581.903895	42444.584623
582.257463	42753.836726
582.610975	42086.350148
582.964434	42287.744244
583.317837	41843.749660
583.671186	41627.249747
584.024481	41757.306475
584.377721	41234.024623
584.730906	41420.887593
585.084037	41387.492470
585.437113	41039.642772
585.790135	40986.259473
586.143103	40518.473164
586.496016	40561.431357
586.848874	40505.819868
587.201679	40408.114745
587.554428	39852.443480
587.907124	39942.619640
588.259765	39620.628541
588.612352	39744.262839
588.964884	39104.547977
589.317362	39271.362279
589.669786	39137.731373
590.022155	38838.047379
590.374470	39119.794947
590.726731	38603.069116
591.078937	38061.934018
591.431090	38073.377437
591.783188	37673.074534
592.135232	37287.955586
592.487222	37435.006044
592.839157	37422.531708
593.191038	37018.684874
593.542866	36699.489095
593.894639	36095.831086
594.246358	36257.483246
594.598022	36125.168081
594.949633	35685.604671
595.301190	35568.778452
595.652692	35345.210840
596.004141	35525.643819
596.355535	34575.537553
596.706876	34446.627688
597.058162	34196.727609
597.409395	34518.378430
597.760573	34488.857433
598.111698	34043.370668
598.462768	33948.554126
598.813785	33898.893719
599.164748	33337.805735
599.515657	33559.926535
599.866511	33024.845863
600.217312	33457.139928
600.568060	32485.898626
600.918753	33014.025026
601.269392	32876.996382
601.619978	32487.070694
601.970510	32565.427869
602.320988	32595.422734
602.671412	32739.735845
603.021783	32445.009827
603.372100	32055.265620
603.722363	32020.622811
604.072572	31993.120796
604.422728	31890.815620
604.772830	31649.974495
605.122878	31609.302466
605.472872	31441.822732
605.822813	31554.547973
606.172701	31318.251448
606.522534	31404.702196
606.872314	31486.613384
607.222041	31186.891582
607.571714	31375.962578
607.921333	30831.389413
608.270899	30943.217328
608.620411	31088.626891
608.969870	30813.384932
609.319276	30717.910519
609.668627	30633.786264
610.017926	30876.331299
610.367171	30879.262730
610.716362	30813.820992
611.065500	30647.727575
611.414585	30665.638795
611.763616	30758.544740
612.112594	30602.402561
612.461518	30629.009771
612.810389	30725.293289
613.159207	30493.962301
613.507971	30413.908777
613.856682	30630.887601
614.205340	30408.872665
614.553945	30795.783743
614.902496	30261.318092
615.250994	30466.772837
615.599439	30379.449970
615.947830	30374.101306
616.296169	30281.565886
616.644454	30218.927029
616.992686	30198.717043
617.340864	30406.538611
617.688990	30074.311449
618.037063	30338.677118
618.385082	30163.280252
618.733048	30220.358717
619.080961	30082.379815
619.428821	29957.041607
619.776628	29876.065553
620.124382	29644.837908
620.472083	29598.812174
620.819731	29556.829445
621.167326	29190.272025
621.514868	29070.968078
621.862357	28627.381828
622.209793	28531.965388
622.557176	28181.998406
622.904506	27899.507268
623.251783	27543.619450
623.599007	27278.764789
623.946179	27021.108895
624.293297	26859.895316
624.640363	26375.702571
624.987376	26232.493473
625.334336	25966.454140
625.681243	25630.040300
626.028097	25475.029861
626.374899	25262.411635
626.721647	25122.181859
627.068343	24933.461223
627.414987	24670.265102
627.761577	24412.946965
628.108115	24487.273738
628.454600	24022.953222
628.801032	24027.858264
629.147412	23861.827862
629.493739	23737.739860
629.840014	23414.740531
630.186236	23477.951559
630.532405	23121.884780
630.878521	23116.334470
631.224585	22916.924068
631.570597	22628.577629
631.916556	22600.936983
632.262462	22455.184622
632.608316	22336.795645
632.954117	22158.747132
633.299866	22048.358466
633.645562	21890.318293
633.991206	21526.452849
634.336797	21178.449396
634.682336	21072.963252
635.027823	20837.884166
