Dividing Wavelength (nm)	Counts (n)	Blue Motor Position (mm): 0.000000	Red Motor Position (mm): 13.400000	
326.493990	2125.274844
326.888308	2125.274844
327.282561	2125.274844
327.676750	2093.472725
328.070874	2093.087077
328.464933	2095.882397
328.858929	2102.675352
329.252859	2111.212546
329.646726	2123.187807
330.040528	2138.180198
330.434265	2156.086377
330.827938	2170.796463
331.221547	2188.183403
331.615091	2207.806094
332.008571	2229.155381
332.401986	2246.317989
332.795338	2267.412698
333.188625	2286.750564
333.581847	2301.760599
333.975006	2322.789773
334.368100	2341.550427
334.761129	2362.413242
335.154095	2375.426980
335.546996	2392.060267
335.939833	2406.150292
336.332606	2424.863056
336.725315	2435.078954
337.117960	2442.497012
337.510540	2453.763991
337.903056	2465.111628
338.295508	2471.544140
338.687896	2477.938844
339.080220	2487.716162
339.472480	2492.769918
339.864676	2499.454488
340.256807	2502.602689
340.648875	2503.792401
341.040879	2507.313647
341.432818	2510.187105
341.824694	2511.523011
342.216506	2512.702641
342.608253	2511.709533
342.999937	2513.214318
343.391557	2513.199194
343.783113	2508.500839
344.174605	2511.273474
344.566033	2511.649040
344.957397	2508.087464
345.348697	2503.994048
345.739934	2503.552947
346.131106	2499.777122
346.522215	2501.700323
346.913260	2494.564569
347.304241	2497.793428
347.695159	2496.046668
348.086012	2494.763695
348.476802	2489.926708
348.867528	2490.062819
349.258191	2487.343116
349.648789	2489.392345
350.039324	2484.394041
350.429796	2485.654330
350.820203	2483.363125
351.210548	2483.070738
351.600828	2485.114926
351.991045	2482.896819
352.381198	2481.298773
352.771288	2483.499237
353.161314	2479.836838
353.551276	2484.709113
353.941175	2479.088227
354.331010	2481.447487
354.720782	2477.144862
355.110490	2482.168372
355.500135	2479.884729
355.889717	2482.206181
356.279235	2481.797847
356.668689	2485.140132
357.058080	2479.332723
357.447408	2480.363639
357.836672	2479.607466
358.225873	2483.413537
358.615010	2478.314410
359.004084	2484.557879
359.393095	2483.282467
359.782043	2485.493013
360.170927	2485.077118
360.559748	2488.043837
360.948505	2486.309680
361.337199	2486.944865
361.725830	2487.683394
362.114398	2489.168014
362.502903	2490.803868
362.891344	2491.633138
363.279722	2488.618528
363.668037	2488.429485
364.056289	2491.993581
364.444478	2494.105824
364.832603	2492.061636
365.220665	2493.775629
365.608665	2494.120948
365.996601	2495.731596
366.384474	2496.119765
366.772284	2495.645897
367.160031	2497.430465
367.547715	2499.303254
367.935336	2502.529592
368.322893	2506.224758
368.710388	2508.538648
369.097820	2516.309586
369.485189	2516.115502
369.872495	2524.975330
370.259738	2532.532019
370.646918	2534.777853
371.034035	2543.864533
371.421090	2549.550955
371.808081	2561.621998
372.195010	2574.466858
372.581875	2587.440267
372.968678	2599.105497
373.355418	2609.071858
373.742096	2629.145733
374.128710	2640.979842
374.515262	2655.896616
374.901751	2669.543019
375.288177	2685.596574
375.674540	2711.520707
376.060841	2727.665002
376.447079	2746.297107
376.833254	2766.920467
377.219367	2778.900770
377.605417	2815.643219
377.991404	2824.639158
378.377329	2845.164216
378.763191	2862.084849
379.148991	2900.170767
379.534727	2925.633635
379.920402	2955.714200
380.306013	2966.139306
380.691563	3016.649147
381.077049	3035.092208
381.462474	3054.578788
381.847835	3092.064808
382.233134	3116.017851
382.618371	3116.963067
383.003545	3183.092923
383.388657	3188.628110
383.773706	3224.188409
384.158693	3239.364803
384.543618	3265.525871
384.928480	3299.934267
385.313280	3344.702233
385.698017	3343.774661
386.082692	3397.546128
386.467305	3401.934453
386.851856	3432.443516
387.236344	3457.155252
387.620770	3486.053667
388.005133	3509.341277
388.389435	3534.937735
388.773674	3541.884445
389.157851	3581.646546
389.541965	3587.900098
389.926018	3553.824418
390.310008	3613.977987
390.693936	3625.577682
391.077802	3657.533556
391.461606	3637.005977
391.845348	3686.643699
392.229027	3672.914116
392.612645	3667.492355
392.996200	3728.165162
393.379694	3748.675097
393.763125	3787.865027
394.146494	3735.615988
394.529801	3772.260135
394.913047	3792.641520
395.296230	3741.408273
395.679351	3762.024072
396.062410	3754.467383
396.445408	3717.412381
396.828343	3711.168912
397.211217	3703.392932
397.594028	3613.110908
397.976778	3627.815954
398.359466	3619.087196
398.742092	3602.143878
399.124656	3522.849048
399.507158	3541.367727
399.889598	3527.098741
400.271977	3523.627907
400.654294	3467.754278
401.036549	3438.336625
401.418742	3383.635064
401.800874	3402.025194
402.182944	3375.465875
402.564952	3366.326263
402.946898	3322.405210
403.328783	3285.972791
403.710606	3208.996892
404.092367	3245.275556
404.474067	3200.237887
404.855705	3163.036693
405.237282	3110.316306
405.618797	3108.458641
406.000250	3083.477203
406.381642	3070.342476
406.762972	3028.228677
407.144240	2995.067967
407.525447	2967.686940
407.906593	2948.338992
408.287677	2925.615991
408.668700	2882.433467
409.049661	2864.365971
409.430560	2845.315451
409.811399	2808.981335
410.192176	2803.972948
410.572891	2778.419339
410.953545	2765.423245
411.334138	2734.347052
411.714669	2721.096379
412.095139	2694.350537
412.475547	2686.864424
412.855894	2669.180056
413.236180	2654.414517
413.616405	2640.896662
413.996568	2633.276958
414.376670	2618.642489
414.756711	2606.611775
415.136691	2598.135075
415.516609	2592.874631
415.896466	2584.309711
416.276262	2577.574729
416.655997	2568.311609
417.035670	2565.365054
417.415283	2559.497151
417.794834	2555.300391
418.174324	2552.162273
418.553753	2549.235883
418.933121	2551.292673
419.312428	2543.476364
419.691674	2540.517207
420.070859	2543.670449
420.449983	2538.762886
420.829045	2535.140817
421.208047	2536.670807
421.586988	2534.389685
421.965867	2532.804242
422.344686	2532.423635
422.723444	2533.073943
423.102141	2530.719725
423.480777	2530.936494
423.859352	2527.747964
424.237866	2530.387008
424.616319	2530.636546
424.994712	2531.417924
425.373044	2529.620753
425.751314	2530.477749
426.129524	2532.030425
426.507673	2529.066226
426.885762	2531.473377
427.263789	2531.551515
427.641756	2529.746782
428.019662	2530.152595
428.397508	2528.743592
428.775292	2529.141843
429.153016	2529.149405
429.530679	2532.799201
429.908282	2529.154446
430.285824	2526.215454
430.663305	2526.800228
431.040726	2530.765095
431.418086	2526.986750
431.795385	2529.595547
432.172624	2529.189734
432.549802	2532.463964
432.926920	2530.717204
433.303977	2530.235774
433.680974	2528.294930
434.057910	2530.626463
434.434786	2529.774508
434.811601	2529.731658
435.188355	2527.415248
435.565050	2528.995650
435.941683	2531.183511
436.318257	2529.282996
436.694770	2527.337110
437.071222	2527.024559
437.447614	2525.739065
437.823946	2527.843746
438.200218	2529.658562
438.576429	2530.704601
438.952580	2528.990609
439.328670	2531.140661
439.704700	2530.946577
440.080670	2527.687471
440.456580	2530.631504
440.832429	2530.016484
441.208218	2529.517409
441.583947	2531.044879
441.959616	2531.284334
442.335224	2531.516227
442.710773	2530.908768
443.086261	2533.315919
443.461689	2533.240302
443.837057	2531.705270
444.212365	2532.831968
444.587612	2533.111752
444.962800	2532.837009
445.337927	2534.349355
445.712995	2533.925898
446.088002	2531.201155
446.462949	2534.699716
446.837837	2533.567977
447.212664	2534.462781
447.587431	2534.868594
447.962139	2534.334232
448.336786	2536.585107
448.711374	2537.404295
449.085901	2533.983872
449.460369	2534.465302
449.834776	2533.114273
450.209124	2536.806918
450.583412	2539.418236
450.957640	2536.310364
451.331808	2535.624767
451.705917	2535.493697
452.079965	2535.327339
452.453954	2535.720549
452.827883	2537.724408
453.201752	2535.960004
453.575562	2534.601413
453.949311	2534.452699
454.323001	2536.196938
454.696632	2534.760209
455.070202	2537.868081
455.443713	2537.001002
455.817164	2535.854140
456.190556	2533.225178
456.563888	2535.357586
456.937160	2533.522606
457.310373	2539.841692
457.683526	2537.371527
458.056619	2538.266332
458.429653	2537.737011
458.802628	2538.883873
459.175542	2538.417567
459.548398	2538.752803
459.921194	2538.561239
460.293930	2539.950077
460.666607	2541.059131
461.039224	2542.039636
461.411782	2544.015768
461.784280	2543.846889
462.156719	2542.919317
462.529099	2544.502239
462.901419	2543.108360
463.273680	2542.815973
463.645882	2541.560726
464.018024	2543.378062
464.390106	2541.033925
464.762130	2542.637012
465.134094	2546.490974
465.505999	2549.525749
465.877845	2552.515153
466.249631	2551.464073
466.621358	2550.216387
466.993026	2552.507592
467.364634	2553.319217
467.736184	2547.327806
468.107674	2546.735470
468.479105	2548.681356
468.850477	2546.889226
469.221790	2547.572302
469.593043	2544.444266
469.964238	2547.804195
470.335373	2548.517518
470.706449	2547.388300
471.077467	2547.842004
471.448425	2550.377704
471.819324	2551.022972
472.190164	2553.276368
472.560945	2551.441387
472.931667	2546.269164
473.302330	2547.887374
473.672934	2547.171530
474.043479	2547.625234
474.413965	2547.378218
474.784393	2545.555840
475.154761	2545.911242
475.525070	2545.379400
475.895321	2545.177754
476.265513	2542.994934
476.635645	2548.953578
477.005719	2548.409133
477.375734	2547.965512
477.745691	2547.973074
478.115588	2549.913918
478.485427	2551.668239
478.855207	2552.195040
479.224928	2551.416182
479.594591	2555.234856
479.964194	2555.522202
480.333739	2553.762839
480.703226	2555.239897
481.072653	2555.582695
481.442022	2555.098745
481.811333	2553.924156
482.180584	2552.774773
482.549777	2554.539177
482.918912	2553.357026
483.287988	2554.055226
483.657005	2551.637993
484.025964	2551.423743
484.394864	2550.801161
484.763706	2555.224773
485.132489	2552.895760
485.501213	2553.031872
485.869879	2552.137067
486.238487	2551.592622
486.607036	2551.597663
486.975527	2552.671429
487.343959	2550.329813
487.712333	2552.797458
488.080648	2554.584547
488.448905	2550.997766
488.817104	2551.857283
489.185244	2551.600184
489.553326	2554.776111
489.921350	2555.854918
490.289315	2554.221584
490.657222	2557.952038
491.025070	2556.522871
491.392861	2558.420865
491.760593	2555.922973
492.128267	2557.163097
492.495883	2552.817623
492.863440	2556.497665
493.230939	2552.210163
493.598380	2555.489434
493.965763	2548.759494
494.333088	2550.846531
494.700354	2551.859803
495.067563	2553.011707
495.434713	2549.061963
495.801805	2551.544731
496.168839	2552.147149
496.535815	2555.343241
496.902733	2549.767724
497.269593	2555.118909
497.636395	2551.673281
498.003139	2554.216543
498.369825	2554.549259
498.736453	2553.314176
499.103023	2553.261244
499.469535	2552.608415
499.835989	2551.612787
500.202385	2551.131357
500.568723	2552.686552
500.935003	2555.774259
501.301226	2553.336861
501.667390	2553.535987
502.033497	2553.495658
502.399546	2553.689742
502.765537	2553.021789
503.131470	2552.888199
503.497345	2552.678991
503.863163	2552.731923
504.228923	2553.200750
504.594625	2550.264278
504.960269	2553.654454
505.325856	2552.479865
505.691385	2551.499361
506.056856	2554.445915
506.422270	2551.610266
506.787625	2552.469783
507.152924	2553.175544
507.518164	2550.833928
507.883347	2550.322251
508.248472	2552.484906
508.613540	2553.246121
508.978550	2550.110523
509.343503	2555.620504
509.708398	2553.805689
510.073236	2553.173024
510.438016	2553.772921
510.802738	2551.927859
511.167403	2554.410627
511.532010	2553.049516
511.896561	2553.851059
512.261053	2552.583209
512.625488	2551.766542
512.989866	2548.968702
513.354186	2552.250493
513.718449	2546.397713
514.082655	2553.314176
514.446803	2555.146636
514.810894	2554.854249
515.174927	2554.498847
515.538904	2553.470452
515.902822	2553.651933
516.266684	2555.093703
516.630488	2554.859290
516.994235	2555.376008
517.357925	2551.030533
517.721558	2556.898437
518.085133	2554.093034
518.448651	2556.502706
518.812112	2555.801986
519.175516	2553.669578
519.538863	2553.931718
519.902152	2552.046326
520.265385	2556.260731
520.628560	2555.575134
520.991678	2554.012376
521.354739	2552.905843
521.717743	2551.484237
522.080690	2556.359033
522.443580	2553.891388
522.806413	2554.108158
523.169189	2554.156049
523.531908	2557.712583
523.894569	2555.716286
524.257174	2556.958930
524.619722	2555.040771
524.982213	2554.367777
525.344647	2552.371480
525.707025	2554.662685
526.069345	2552.515153
526.431608	2552.258054
526.793815	2554.062788
527.155964	2557.498334
527.518057	2555.345761
527.880093	2555.360885
528.242072	2556.545556
528.603995	2556.979095
528.965860	2554.287119
529.327669	2555.353323
529.689421	2554.667726
530.051117	2555.055895
530.412755	2553.679660
530.774337	2556.190154
531.135862	2556.414486
531.497331	2554.917263
531.858743	2549.825698
532.220098	2551.499361
532.581396	2551.181768
532.942638	2552.873075
533.303824	2554.226625
533.664953	2555.839794
534.026025	2556.679146
534.387040	2554.279557
534.747999	2554.574465
535.108902	2553.825853
535.469748	2554.516491
535.830537	2556.885834
536.191270	2556.429609
536.551947	2554.670247
536.912567	2552.603373
537.273131	2554.808878
537.633638	2555.827191
537.994089	2555.413817
538.354483	2552.673950
538.714821	2554.060267
539.075103	2556.462377
539.435328	2555.318035
539.795497	2554.350133
540.155609	2553.228477
540.515665	2555.128992
540.875665	2554.314845
541.235609	2553.450287
541.595496	2557.528581
541.955328	2552.900802
542.315102	2557.788200
542.674821	2553.909032
543.034483	2555.617983
543.394090	2554.655123
543.753640	2555.413817
544.113134	2555.474311
544.472571	2554.531615
544.831953	2553.709907
545.191278	2555.575134
545.550548	2552.671429
545.909761	2554.380380
546.268918	2555.968344
546.628019	2552.958775
546.987064	2554.897098
547.346053	2555.504557
547.704986	2555.928014
548.063863	2553.649413
548.422684	2555.670916
548.781449	2554.680329
549.140158	2554.307283
549.498811	2554.292160
549.857408	2555.076059
550.215949	2554.849208
550.574434	2550.057591
550.932864	2553.435164
551.291237	2550.105482
551.649555	2553.659495
552.007817	2555.575134
552.366022	2556.694270
552.724173	2554.433312
553.082267	2553.530946
553.440305	2555.698642
553.798288	2552.961295
554.156215	2554.564382
554.514086	2554.952551
554.871902	2553.745195
555.229661	2557.140412
555.587365	2556.928683
555.945014	2556.981616
556.302606	2554.438353
556.660143	2557.324414
557.017625	2553.992211
557.375050	2555.721327
557.732421	2555.660833
558.089735	2555.499516
558.446994	2552.789896
558.804197	2557.173179
559.161345	2553.515822
559.518437	2554.329969
559.875474	2556.502706
560.232455	2554.871893
560.589381	2555.670916
560.946251	2556.467418
561.303065	2555.736451
561.659825	2556.041440
562.016528	2556.868190
562.373177	2554.720658
562.729770	2553.886347
563.086307	2555.925494
563.442789	2553.762839
563.799216	2554.166131
564.155587	2555.880123
564.511904	2555.917932
564.868164	2556.550597
565.224370	2557.909188
565.580520	2553.485575
565.936615	2555.391132
566.292654	2556.447253
566.648638	2558.037737
567.004567	2554.980278
567.360441	2555.827191
567.716260	2554.614794
568.072023	2558.088149
568.427732	2551.479196
568.783385	2555.628066
569.138982	2550.685214
569.494525	2553.432643
569.850013	2550.932231
570.205445	2554.390462
570.560823	2553.503219
570.916145	2556.409445
571.271412	2555.144115
571.626625	2554.697973
571.981782	2553.762839
572.336884	2554.375339
572.691931	2554.584547
573.046923	2554.284598
573.401860	2554.763508
573.756743	2552.537838
574.111570	2555.365926
574.466342	2553.510781
574.821059	2554.395504
575.175722	2555.819630
575.530330	2549.135060
575.884882	2553.583878
576.239380	2553.508261
576.593823	2555.199568
576.948211	2551.784186
577.302544	2555.413817
577.656823	2555.534804
578.011047	2554.952551
578.365216	2551.569937
578.719330	2554.183775
579.073389	2552.177396
579.427394	2552.058929
579.781344	2553.329300
580.135239	2552.414330
580.489080	2553.074721
580.842866	2553.941800
581.196597	2555.819630
581.550273	2553.893909
581.903895	2553.281409
582.257463	2553.866183
582.610975	2551.955585
582.964434	2554.317366
583.317837	2552.769732
583.671186	2554.831563
584.024481	2553.417520
584.377721	2552.860472
584.730906	2552.532797
585.084037	2555.713765
585.437113	2553.432643
585.790135	2553.472972
586.143103	2553.634289
586.496016	2550.163455
586.848874	2548.270502
587.201679	2551.837118
587.554428	2550.024823
587.907124	2551.595143
588.259765	2546.092723
588.612352	2553.896429
588.964884	2550.801161
589.317362	2551.925338
589.669786	2552.104299
590.022155	2554.113199
590.374470	2553.997252
590.726731	2552.510112
591.078937	2550.821326
591.431090	2549.661860
591.783188	2550.402910
592.135232	2550.223949
592.487222	2552.926007
592.839157	2554.178734
593.191038	2551.511964
593.542866	2552.353836
593.894639	2551.058260
594.246358	2550.851572
594.598022	2550.395348
594.949633	2550.448280
595.301190	2550.866696
595.652692	2552.308466
596.004141	2555.186965
596.355535	2552.890719
596.706876	2552.051367
597.058162	2551.020451
597.409395	2552.469783
597.760573	2550.773435
598.111698	2549.785368
598.462768	2549.293856
598.813785	2551.640513
599.164748	2551.373332
599.515657	2551.806871
599.866511	2550.649926
600.217312	2549.767724
600.568060	2552.174875
600.918753	2553.377191
601.269392	2552.343754
601.619978	2551.620348
601.970510	2552.734443
602.320988	2551.012889
602.671412	2550.349978
603.021783	2550.788558
603.372100	2549.732436
603.722363	2549.200595
604.072572	2552.096738
604.422728	2552.225287
604.772830	2549.858465
605.122878	2547.655481
605.472872	2547.796633
605.822813	2545.792775
606.172701	2548.303269
606.522534	2551.635472
606.872314	2551.605225
607.222041	2549.823177
607.571714	2549.067004
607.921333	2552.464742
608.270899	2551.101110
608.620411	2553.505740
608.969870	2553.404917
609.319276	2553.057077
609.668627	2555.428940
610.017926	2556.399362
610.367171	2559.635783
610.716362	2558.824157
611.065500	2557.014383
611.414585	2555.174362
611.763616	2554.939948
612.112594	2552.827705
612.461518	2553.019269
612.810389	2550.944834
613.159207	2553.362067
613.507971	2548.779658
613.856682	2552.172355
614.205340	2552.878116
614.553945	2552.971378
614.902496	2548.603218
615.250994	2554.435833
615.599439	2549.545914
615.947830	2554.193857
616.296169	2550.513815
616.644454	2552.767211
616.992686	2551.549772
617.340864	2551.239741
617.688990	2549.094730
618.037063	2552.719320
618.385082	2551.214536
618.733048	2552.684032
619.080961	2549.971891
619.428821	2551.214536
619.776628	2551.627910
620.124382	2551.108671
620.472083	2551.360729
620.819731	2553.470452
621.167326	2549.175389
621.514868	2551.683363
621.862357	2550.430636
622.209793	2550.680173
622.557176	2554.100596
622.904506	2548.857796
623.251783	2546.274205
623.599007	2548.222611
623.946179	2542.571477
624.293297	2546.271684
624.640363	2550.009700
624.987376	2550.813764
625.334336	2548.855276
625.681243	2547.768907
626.028097	2550.309648
626.374899	2550.420554
626.721647	2548.988866
627.068343	2550.239072
627.414987	2549.782848
627.761577	2548.235214
628.108115	2545.873433
628.454600	2548.441901
628.801032	2547.428629
629.147412	2549.356870
629.493739	2549.608928
629.840014	2549.092210
630.186236	2550.730585
630.532405	2549.941644
630.878521	2551.000287
631.224585	2549.245965
631.570597	2548.394010
631.916556	2547.988197
632.262462	2549.187992
632.608316	2549.724875
632.954117	2547.509288
633.299866	2548.946016
633.645562	2545.707075
633.991206	2547.589946
634.336797	2545.500388
634.682336	2550.460883
635.027823	2549.540873
635.373257	2547.952909
635.718639	2546.372507
636.063968	2548.217570
636.409245	2548.988866
636.754470	2546.806047
637.099642	2545.528114
637.444762	2548.630944
637.789829	2547.221942
638.134845	2545.918803
638.479808	2543.562064
638.824719	2545.875954
639.169577	2544.240099
639.514383	2544.903011
639.859137	2548.462066
640.203839	2546.130532
640.548489	2545.560882
640.893086	2543.246992
641.237632	2541.356559
641.582125	2542.168185
641.926566	2543.441076
642.270955	2547.562220
642.615292	2544.930737
642.959576	2544.484595
643.303809	2545.344112
643.647990	2545.341591
643.992118	2543.662887
644.336195	2545.923845
