Dividing Wavelength (nm)	Counts (n)	Blue Motor Position (mm): 0.000000	Red Motor Position (mm): 27.000000	
326.493990	2079.901939
326.888308	2079.901939
327.282561	2079.901939
327.676750	2057.647765
328.070874	2061.143806
328.464933	2062.666234
328.858929	2074.550754
329.252859	2088.073649
329.646726	2101.825917
330.040528	2115.729419
330.434265	2137.756741
330.827938	2156.749288
331.221547	2176.946671
331.615091	2196.339990
332.008571	2218.858824
332.401986	2238.748697
332.795338	2257.892478
333.188625	2281.263268
333.581847	2296.129630
333.975006	2315.553196
334.368100	2332.864518
334.761129	2350.538804
335.154095	2366.002543
335.546996	2388.307128
335.939833	2414.843762
336.332606	2429.919333
336.725315	2437.380241
337.117960	2449.194185
337.510540	2458.026286
337.903056	2468.053141
338.295508	2472.297793
338.687896	2478.455562
339.080220	2486.178610
339.472480	2490.844198
339.864676	2493.629435
340.256807	2496.565907
340.648875	2497.480877
341.040879	2499.724190
341.432818	2498.980620
341.824694	2499.469612
342.216506	2501.160919
342.608253	2502.736280
342.999937	2503.316012
343.391557	2499.635970
343.783113	2495.877790
344.174605	2497.054899
344.566033	2494.050372
344.957397	2494.267141
345.348697	2488.865545
345.739934	2491.171873
346.131106	2490.266986
346.522215	2488.033754
346.913260	2485.858497
347.304241	2482.927066
347.695159	2482.836325
348.086012	2481.356746
348.476802	2478.397589
348.867528	2481.172744
349.258191	2480.023361
349.648789	2476.759214
350.039324	2474.813328
350.429796	2476.318113
350.820203	2476.441621
351.210548	2473.668987
351.600828	2473.769810
351.991045	2475.007413
352.381198	2472.169243
352.771288	2475.327526
353.161314	2472.020529
353.551276	2475.677886
353.941175	2472.421301
354.331010	2475.438432
354.720782	2472.990951
355.110490	2477.505305
355.500135	2474.314254
355.889717	2476.744090
356.279235	2474.072279
356.668689	2476.174440
357.058080	2476.907928
357.447408	2475.251909
357.836672	2473.570684
358.225873	2476.199646
358.615010	2476.232413
359.004084	2482.233907
359.393095	2483.650471
359.782043	2483.746253
360.170927	2483.506798
360.559748	2485.397231
360.948505	2483.526963
361.337199	2487.033085
361.725830	2486.707931
362.114398	2487.779176
362.502903	2487.756491
362.891344	2488.666419
363.279722	2487.809423
363.668037	2490.387973
364.056289	2490.894609
364.444478	2491.592809
364.832603	2491.257572
365.220665	2492.467449
365.608665	2494.627584
365.996601	2496.313850
366.384474	2494.753613
366.772284	2496.744868
367.160031	2496.608757
367.547715	2500.535816
367.935336	2498.728562
368.322893	2501.826351
368.710388	2498.388284
369.097820	2505.138389
369.485189	2502.643018
369.872495	2505.138389
370.259738	2504.672083
370.646918	2508.485716
371.034035	2507.971518
371.421090	2512.564009
371.808081	2513.342867
372.195010	2520.229083
372.581875	2519.966943
372.968678	2528.000022
373.355418	2532.738707
373.742096	2545.626417
374.128710	2552.532797
374.515262	2562.368088
374.901751	2574.918041
375.288177	2591.536205
375.674540	2608.724019
376.060841	2624.843108
376.447079	2647.112405
376.833254	2671.267094
377.219367	2696.437575
377.605417	2723.833726
377.991404	2746.314751
378.377329	2786.361677
378.763191	2816.414516
379.148991	2861.636187
379.534727	2910.389185
379.920402	2950.413426
380.306013	2997.941425
380.691563	3056.000394
381.077049	3109.547530
381.462474	3161.521826
381.847835	3229.461456
382.233134	3297.827064
382.618371	3356.624562
383.003545	3436.904937
383.388657	3510.515866
383.773706	3600.749999
384.158693	3666.342972
384.543618	3754.669029
384.928480	3826.641582
385.313280	3929.924742
385.698017	4027.105585
386.082692	4143.641939
386.467305	4204.493707
386.851856	4320.727591
387.236344	4466.043892
387.620770	4528.665105
388.005133	4641.844050
388.389435	4780.944608
388.773674	4862.018965
389.157851	4985.159230
389.541965	5114.583293
389.926018	5140.051202
390.310008	5314.893541
390.693936	5422.978400
391.077802	5536.482500
391.461606	5668.147356
391.845348	5773.394045
392.229027	5896.357870
392.612645	6111.723524
392.996200	6222.381892
393.379694	6390.128807
393.763125	6604.229131
394.146494	6692.466968
394.529801	6825.281207
394.913047	7053.282513
395.296230	7053.854684
395.679351	7112.604291
396.062410	7357.624532
396.445408	7260.148782
396.828343	7413.682163
397.211217	7535.922582
397.594028	7434.887777
397.976778	7626.741489
398.359466	7791.141078
398.742092	7777.141794
399.124656	7914.341837
399.507158	8104.269828
399.889598	8127.081050
400.271977	8338.023091
400.654294	8365.167184
401.036549	8571.393226
401.418742	8596.046989
401.800874	8887.881906
402.182944	8967.723700
402.564952	9318.167072
402.946898	9160.598247
403.328783	9214.556237
403.710606	9410.762986
404.092367	9655.440429
404.474067	10014.229430
404.855705	9820.031581
405.237282	9781.532289
405.618797	10200.328666
406.000250	10435.201064
406.381642	10791.204828
406.762972	10739.558207
407.144240	10559.165558
407.525447	10809.209309
407.906593	10756.201577
408.287677	11017.313181
408.668700	11165.623927
409.049661	11146.825465
409.430560	11310.846967
409.811399	11285.300920
410.192176	11446.108686
410.572891	11524.460820
410.953545	11997.613438
411.334138	11480.980868
411.714669	12061.497460
412.095139	11410.903788
412.475547	11891.383723
412.855894	11748.066240
413.236180	12066.916700
413.616405	11770.940476
413.996568	12054.845657
414.376670	12021.364834
414.756711	11912.513720
415.136691	12190.172912
415.516609	12357.771112
415.896466	12437.522166
416.276262	12730.972773
416.655997	13180.164786
417.035670	13235.312489
417.415283	13845.327392
417.794834	13928.040124
418.174324	13688.058516
418.553753	13593.204165
418.933121	14077.553185
419.312428	13901.069951
419.691674	13808.726095
420.070859	14277.376962
420.449983	13927.110031
420.829045	14492.377132
421.208047	14238.509666
421.586988	14694.492114
421.965867	14935.345842
422.344686	14944.722388
422.723444	15505.838099
423.102141	14217.689701
423.480777	15401.549229
423.859352	14903.954577
424.237866	15999.661968
424.616319	15714.259563
424.994712	16364.220570
425.373044	16153.911193
425.751314	16855.075199
426.129524	15979.565408
426.507673	17049.333542
426.885762	16785.625743
427.263789	16962.698793
427.641756	17141.891648
428.019662	17202.012448
428.397508	17250.599089
428.775292	17543.691774
429.153016	17519.819390
429.530679	17581.921364
429.908282	17628.378117
430.285824	17362.119494
430.663305	18072.992763
431.040726	17693.716512
431.418086	17529.662243
431.795385	18154.286410
432.172624	18596.776209
432.549802	18159.486360
432.926920	18369.876395
433.303977	18248.936594
433.680974	18498.690479
434.057910	18811.128591
434.434786	18852.655096
434.811601	18772.407489
435.188355	19815.437343
435.565050	19491.553291
435.941683	19451.380336
436.318257	20338.119297
436.694770	20132.478029
437.071222	20729.456508
437.447614	19807.835283
437.823946	19831.745476
438.200218	20012.362456
438.576429	19798.070568
438.952580	20101.734552
439.328670	20061.831299
439.704700	20476.461162
440.080670	20050.302180
440.456580	20658.696353
440.832429	20834.713280
441.208218	19847.572178
441.583947	20282.134763
441.959616	20407.654453
442.335224	20659.298770
442.710773	20797.189452
443.086261	21336.988644
443.461689	20678.495484
443.837057	20835.182107
444.212365	21489.430615
444.587612	21487.676294
444.962800	21084.210066
445.337927	21514.674193
445.712995	20220.637727
446.088002	22125.551134
446.462949	22323.494560
446.837837	22501.976612
447.212664	22514.241740
447.587431	25467.884025
447.962139	28426.776672
448.336786	30715.515971
448.711374	29053.497959
449.085901	25329.436296
449.460369	25344.204357
449.834776	25331.125083
450.209124	27873.681437
450.583412	27354.823198
450.957640	27841.355038
451.331808	26478.446328
451.705917	25109.231135
452.079965	25137.443952
452.453954	25517.546952
452.827883	25420.013228
453.201752	25215.599481
453.575562	25362.415525
453.949311	26474.899876
454.323001	26539.214917
454.696632	26301.562322
455.070202	27871.697743
455.443713	28045.635194
455.817164	28594.493340
456.190556	29118.649832
456.563888	28519.614561
456.937160	28924.756972
457.310373	27222.981901
457.683526	27627.113561
458.056619	27599.495600
458.429653	27542.666672
458.802628	28107.724566
459.175542	28210.682571
459.548398	29522.232006
459.921194	31067.839693
460.293930	31729.962483
460.666607	33702.397104
461.039224	35392.146503
461.411782	35670.708062
461.784280	34348.541957
462.156719	33767.407824
462.529099	33144.139727
462.901419	31787.897943
463.273680	30694.133917
463.645882	30774.452101
464.018024	30678.352585
464.390106	31488.985247
464.762130	34147.188190
465.134094	38115.571895
465.505999	43223.445412
465.877845	47442.545863
466.249631	48330.769444
466.621358	46390.976294
466.993026	44113.929951
467.364634	41926.225458
467.736184	39936.892889
468.107674	38587.164276
468.479105	37719.969868
468.850477	36885.643783
469.221790	35430.373573
469.593043	33668.187834
469.964238	32696.208002
470.335373	32498.493948
470.706449	33997.085314
471.077467	36288.141023
471.448425	40306.343931
471.819324	42635.107471
472.190164	40638.467749
472.560945	37191.286420
472.931667	34238.082715
473.302330	33094.912860
473.672934	32166.927178
474.043479	32443.822635
474.413965	31584.366398
474.784393	31088.062281
475.154761	31688.675433
475.525070	31529.513603
475.895321	30923.365265
476.265513	31232.476216
476.635645	31846.372807
477.005719	31508.371004
477.375734	31693.451926
477.745691	32056.238563
478.115588	32919.465583
478.485427	34371.600195
478.855207	36899.292707
479.224928	38783.250037
479.594591	39824.591105
479.964194	38587.612938
480.333739	38413.509129
480.703226	38141.599372
481.072653	38361.285295
481.442022	38430.638969
481.811333	38270.824310
482.180584	36898.919661
482.549777	36166.800450
482.918912	35421.932161
483.287988	34865.257706
483.657005	33912.467026
484.025964	33091.109309
484.394864	32759.136726
484.763706	32127.921250
485.132489	31173.577895
485.501213	30752.865880
485.869879	30519.798214
486.238487	29916.697253
486.607036	29712.772498
486.975527	29023.341777
487.343959	28848.275107
487.712333	28556.019254
488.080648	28148.242840
488.448905	28113.993241
488.817104	27644.712229
489.185244	27921.222038
489.553326	28651.181115
489.921350	30008.688228
490.289315	31522.987829
490.657222	31498.825579
491.025070	31269.274118
491.392861	30225.175539
491.760593	28998.763632
492.128267	27574.925016
492.495883	26312.592366
492.863440	25165.160216
493.230939	24083.817592
493.598380	23165.636954
493.965763	22666.721520
494.333088	21930.486207
494.700354	21370.154395
495.067563	20905.886811
495.434713	20524.251300
495.801805	20244.467262
496.168839	19755.455174
496.535815	19298.915679
496.902733	19009.760135
497.269593	18514.557511
497.636395	18185.743210
498.003139	18044.802631
498.369825	17516.726642
498.736453	17349.178852
499.103023	16874.914660
499.469535	16535.319852
499.835989	16287.164013
500.202385	15885.502518
500.568723	15610.298368
500.935003	15391.255192
501.301226	15070.345421
501.667390	14996.837836
502.033497	14798.798628
502.399546	14353.120299
502.765537	13884.214853
503.131470	13733.086102
503.497345	13577.304366
503.863163	12946.840022
504.228923	12860.280890
504.594625	12710.167931
504.960269	12274.259358
505.325856	12203.572299
505.691385	11809.069243
506.056856	11614.642021
506.422270	11471.705145
506.787625	11152.736218
507.152924	10971.574792
507.518164	10763.347412
507.883347	10384.187108
508.248472	10212.576149
508.613540	10106.096897
508.978550	9944.860633
509.343503	9699.918529
509.708398	9527.238845
510.073236	9421.135160
510.438016	9219.297442
510.802738	8939.367210
511.167403	8842.130914
511.532010	8686.661729
511.896561	8551.079897
512.261053	8490.906164
512.625488	8238.503152
512.989866	8047.133391
513.354186	7847.541507
513.718449	7679.035899
514.082655	7600.162006
514.446803	7395.627271
514.810894	7298.698485
515.174927	7134.193032
515.538904	6969.657332
515.902822	6890.682616
516.266684	6691.932605
516.630488	6596.521207
516.994235	6444.621159
517.357925	6368.930755
517.721558	6252.379278
518.085133	6153.005533
518.448651	6036.935486
518.812112	5902.608901
519.175516	5790.675121
519.538863	5702.172624
519.902152	5591.589873
520.265385	5517.444582
520.628560	5415.000774
520.991678	5300.241427
521.354739	5222.017843
521.717743	5145.803159
522.080690	5051.435279
522.443580	4991.533769
522.806413	4910.867746
523.169189	4827.373635
523.531908	4760.106999
523.894569	4676.396118
524.257174	4614.828507
524.619722	4553.840627
524.982213	4487.599866
525.344647	4419.680400
525.707025	4358.816029
526.069345	4317.849092
526.431608	4258.907922
526.793815	4213.134245
527.155964	4149.245181
527.518057	4099.385649
527.880093	4048.389337
528.242072	4017.537475
528.603995	3967.486379
528.965860	3923.388886
529.327669	3883.664594
529.689421	3850.261908
530.051117	3809.761278
530.412755	3781.044346
530.774337	3751.210797
531.135862	3711.698233
531.497331	3686.704192
531.858743	3654.526507
532.220098	3633.799803
532.581396	3599.003239
532.942638	3569.499886
533.303824	3557.436405
533.664953	3531.552601
534.026025	3503.919516
534.387040	3497.008094
534.747999	3477.889518
535.108902	3462.413176
535.469748	3434.129782
535.830537	3419.626382
536.191270	3405.654824
536.551947	3384.335785
536.912567	3372.945298
537.273131	3366.941283
537.633638	3343.734332
537.994089	3335.272755
538.354483	3312.171668
538.714821	3312.746359
539.075103	3302.840492
539.435328	3291.697021
539.795497	3279.361318
540.155609	3269.548712
540.515665	3264.192486
540.875665	3249.661360
541.235609	3243.392685
541.595496	3236.894638
541.955328	3235.785584
542.315102	3218.272615
542.674821	3204.913558
543.034483	3195.166487
543.394090	3190.989891
543.753640	3182.014116
544.113134	3190.062318
544.472571	3172.219154
544.831953	3178.346677
545.191278	3161.940242
545.550548	3149.677635
545.909761	3154.048315
546.268918	3149.347439
546.628019	3145.211173
546.987064	3132.041158
547.346053	3115.606997
547.704986	3120.718727
548.063863	3113.744290
548.422684	3108.440997
548.781449	3099.939091
549.140158	3101.698453
549.498811	3096.967330
549.857408	3082.925196
550.215949	3086.698500
550.574434	3079.862695
550.932864	3075.297931
551.291237	3073.788105
551.649555	3070.967579
552.007817	3067.146385
552.366022	3063.143709
552.724173	3057.139694
553.082267	3062.533729
553.440305	3063.541960
553.798288	3048.410937
554.156215	3049.363715
554.514086	3046.802808
554.871902	3041.270142
555.229661	3037.295192
555.587365	3033.199255
555.945014	3033.461395
556.302606	3029.020138
556.660143	3028.069881
557.017625	3025.093079
557.375050	3021.748274
557.732421	3021.108047
558.089735	3020.188037
558.446994	3013.500946
558.804197	3019.021010
559.161345	3011.918024
559.518437	3006.506345
559.875474	3004.860408
560.232455	3003.895028
560.589381	3004.633557
560.946251	3000.111642
561.303065	3002.319667
561.659825	3003.048114
562.016528	2993.374139
562.373177	2990.530929
562.729770	2991.725682
563.086307	2989.096720
563.442789	2988.267451
563.799216	2989.686535
564.155587	2982.989363
564.511904	2980.534321
564.868164	2981.081286
565.224370	2981.587922
565.580520	2978.711943
565.936615	2979.871409
566.292654	2971.392188
566.648638	2975.853609
567.004567	2973.436376
567.360441	2974.182467
567.716260	2971.059472
568.072023	2970.714153
568.427732	2969.635346
568.783385	2962.045889
569.138982	2965.738534
569.494525	2962.688636
569.850013	2960.858697
570.205445	2959.684108
570.560823	2961.118317
570.916145	2959.517750
571.271412	2956.591360
571.626625	2956.503140
571.981782	2953.014662
572.336884	2953.919549
572.691931	2952.109775
573.046923	2946.700617
573.401860	2944.701799
573.756743	2941.851027
574.111570	2946.244392
574.466342	2945.168106
574.821059	2944.994186
575.175722	2936.898093
575.530330	2934.843823
575.884882	2933.679316
576.239380	2930.548760
576.593823	2932.005653
576.948211	2932.746703
577.302544	2925.845363
577.656823	2927.158584
578.011047	2925.361412
578.365216	2922.797986
578.719330	2920.204312
579.073389	2917.237593
579.427394	2917.595515
579.781344	2916.231883
580.135239	2915.233734
580.489080	2913.764238
580.842866	2908.057652
581.196597	2909.806932
581.550273	2910.681572
581.903895	2908.586973
582.257463	2914.132242
582.610975	2905.980696
582.964434	2908.196283
583.317837	2906.804925
583.671186	2903.122362
584.024481	2903.545819
584.377721	2899.701939
584.730906	2897.075498
585.084037	2899.706980
585.437113	2895.580796
585.790135	2895.895868
586.143103	2893.892009
586.496016	2895.137174
586.848874	2887.998901
587.201679	2893.092987
587.554428	2886.252141
587.907124	2891.537791
588.259765	2883.242572
588.612352	2889.491082
588.964884	2882.125956
589.317362	2884.339023
589.669786	2884.659136
590.022155	2881.977242
590.374470	2882.423384
590.726731	2878.440873
591.078937	2874.523896
591.431090	2877.263763
591.783188	2873.187991
592.135232	2869.182794
592.487222	2871.317723
592.839157	2871.353011
593.191038	2870.092722
593.542866	2865.164994
593.894639	2860.685929
594.246358	2863.834130
594.598022	2863.050230
594.949633	2858.024200
595.301190	2856.829446
595.652692	2856.963037
596.004141	2858.324148
596.355535	2851.637058
596.706876	2849.098837
597.058162	2847.785616
597.409395	2853.169569
597.760573	2852.962881
598.111698	2847.899042
598.462768	2847.432736
598.813785	2846.484999
599.164748	2844.135821
599.515657	2844.163547
599.866511	2839.326560
600.217312	2846.046418
600.568060	2836.753051
600.918753	2844.433249
601.269392	2843.989627
601.619978	2835.896055
601.970510	2840.778412
602.320988	2839.346725
602.671412	2843.069617
603.021783	2839.124914
603.372100	2838.131807
603.722363	2834.673575
604.072572	2838.845130
604.422728	2834.771878
604.772830	2832.072340
605.122878	2831.469922
605.472872	2831.916064
605.822813	2832.596620
606.172701	2832.125272
606.522534	2833.642659
606.872314	2836.422856
607.222041	2834.416476
607.571714	2833.698112
607.921333	2834.580314
608.270899	2829.841629
608.620411	2831.026300
608.969870	2830.285251
609.319276	2831.878255
609.668627	2833.693071
610.017926	2833.093173
610.367171	2832.599140
610.716362	2832.316836
611.065500	2834.116528
611.414585	2836.145592
611.763616	2835.243226
612.112594	2833.882114
612.461518	2834.590396
612.810389	2834.963442
613.159207	2834.058554
613.507971	2833.284737
613.856682	2834.933195
614.205340	2833.241887
614.553945	2839.787826
614.902496	2830.983451
615.250994	2836.773216
615.599439	2839.054338
615.947830	2836.407732
616.296169	2834.545026
616.644454	2838.900583
616.992686	2836.405212
617.340864	2838.310768
617.688990	2834.398832
618.037063	2839.036694
618.385082	2840.473423
618.733048	2840.584328
619.080961	2838.938391
619.428821	2840.092816
619.776628	2839.104749
620.124382	2837.859584
620.472083	2836.679954
620.819731	2835.447392
621.167326	2832.301712
621.514868	2832.110148
621.862357	2829.130827
622.209793	2825.889365
622.557176	2827.121927
622.904506	2820.966678
623.251783	2816.147335
623.599007	2816.548107
623.946179	2809.097281
624.293297	2811.963177
624.640363	2808.651139
624.987376	2808.023515
625.334336	2805.543268
625.681243	2802.271559
626.028097	2803.516724
626.374899	2798.465488
626.721647	2798.200827
627.068343	2797.167391
627.414987	2795.377781
627.761577	2794.603964
628.108115	2796.529685
628.454600	2790.891154
628.801032	2790.336627
629.147412	2791.632204
629.493739	2787.158180
629.840014	2790.944086
630.186236	2787.458128
630.532405	2784.811522
630.878521	2784.125926
631.224585	2784.196502
631.570597	2779.709875
631.916556	2780.085441
632.262462	2782.502674
632.608316	2781.239865
632.954117	2779.402364
633.299866	2780.345060
633.645562	2779.389762
633.991206	2776.864143
634.336797	2769.491456
634.682336	2768.755447
635.027823	2767.293513
635.373257	2766.633122
635.718639	2763.094232
636.063968	2761.750764
636.409245	2759.051226
636.754470	2757.634662
637.099642	2759.439395
637.444762	2754.665422
637.789829	2752.696852
638.134845	2751.565113
638.479808	2751.025709
638.824719	2750.347674
639.169577	2745.805595
639.514383	2746.135790
639.859137	2743.582446
640.203839	2743.761407
