Dividing Wavelength (nm)	Counts (n)	Blue Motor Position (mm): 0.000000	Red Motor Position (mm): 39.600000	
326.493990	2127.321553
326.888308	2127.321553
327.282561	2127.321553
327.676750	2099.461616
328.070874	2095.196800
328.464933	2094.990113
328.858929	2103.461772
329.252859	2110.804212
329.646726	2124.800976
330.040528	2136.622482
330.434265	2154.327014
330.827938	2169.790753
331.221547	2190.507375
331.615091	2207.790971
332.008571	2228.646224
332.401986	2247.734553
332.795338	2265.479415
333.188625	2285.359205
333.581847	2303.419139
333.975006	2323.956800
334.368100	2338.061948
334.761129	2358.450895
335.154095	2377.130890
335.546996	2395.531102
335.939833	2415.814184
336.332606	2432.208017
336.725315	2444.442897
337.117960	2453.564865
337.510540	2460.816565
337.903056	2472.398616
338.295508	2479.302476
338.687896	2489.266317
339.080220	2497.632111
339.472480	2502.537154
339.864676	2505.781137
340.256807	2515.301356
340.648875	2518.101717
341.040879	2519.160359
341.432818	2516.082734
341.824694	2521.348220
342.216506	2524.579599
342.608253	2525.295443
342.999937	2521.083559
343.391557	2522.938704
343.783113	2521.998528
344.174605	2520.324865
344.566033	2517.269926
344.957397	2516.032323
345.348697	2512.352281
345.739934	2513.557116
346.131106	2512.077538
346.522215	2512.221211
346.913260	2506.781806
347.304241	2509.115860
347.695159	2505.214007
348.086012	2502.741321
348.476802	2503.164778
348.867528	2499.676299
349.258191	2499.401556
349.648789	2497.715290
350.039324	2494.433499
350.429796	2496.873418
350.820203	2494.801503
351.210548	2492.616163
351.600828	2490.690443
351.991045	2490.246821
352.381198	2489.190699
352.771288	2491.703714
353.161314	2490.181286
353.551276	2490.120792
353.941175	2490.962665
354.331010	2489.354537
354.720782	2490.892089
355.110490	2489.503251
355.500135	2490.677840
355.889717	2494.163797
356.279235	2491.277737
356.668689	2491.587768
357.058080	2491.285299
357.447408	2489.752788
357.836672	2488.729434
358.225873	2492.699342
358.615010	2490.088025
359.004084	2496.049189
359.393095	2493.586585
359.782043	2496.704539
360.170927	2493.805876
360.559748	2495.877790
360.948505	2496.129847
361.337199	2499.620847
361.725830	2497.201093
362.114398	2501.665034
362.502903	2496.545743
362.891344	2502.842144
363.279722	2499.852740
363.668037	2502.970693
364.056289	2499.739314
364.444478	2501.027328
364.832603	2504.782988
365.220665	2506.035715
365.608665	2503.840292
365.996601	2504.916579
366.384474	2507.273318
366.772284	2509.957733
367.160031	2508.647032
367.547715	2512.707682
367.935336	2513.650378
368.322893	2517.832015
368.710388	2518.797396
369.097820	2528.161339
369.485189	2527.493386
369.872495	2535.546629
370.259738	2541.051569
370.646918	2548.635985
371.034035	2556.222922
371.421090	2567.232802
371.808081	2575.134811
372.195010	2586.149732
372.581875	2600.678337
372.968678	2612.759462
373.355418	2622.037706
373.742096	2641.604945
374.128710	2656.652789
374.515262	2672.217351
374.901751	2685.929290
375.288177	2699.242977
375.674540	2720.514126
376.060841	2740.981210
376.447079	2760.931577
376.833254	2780.231634
377.219367	2791.236473
377.605417	2828.735096
377.991404	2838.822445
378.377329	2862.258769
378.763191	2876.376520
379.148991	2916.957809
379.534727	2942.156016
379.920402	2970.593165
380.306013	2984.194198
380.691563	3031.485263
381.077049	3050.404713
381.462474	3070.619740
381.847835	3108.219186
382.233134	3132.207516
382.618371	3130.304481
383.003545	3200.719318
383.388657	3206.589741
383.773706	3238.429669
384.158693	3254.374839
384.543618	3280.488016
384.928480	3315.138387
385.313280	3364.435830
385.698017	3363.997250
386.082692	3418.245106
386.467305	3420.213677
386.851856	3449.704427
387.236344	3477.461020
387.620770	3505.419259
388.005133	3533.586706
388.389435	3560.574523
388.773674	3572.436358
389.157851	3614.895477
389.541965	3631.768218
389.926018	3593.808330
390.310008	3664.684432
390.693936	3681.277390
391.077802	3725.269019
391.461606	3711.030280
391.845348	3776.051083
392.229027	3774.132924
392.612645	3789.009369
392.996200	3867.316132
393.379694	3906.705187
393.763125	3968.923108
394.146494	3938.630815
394.529801	4000.236235
394.913047	4047.086199
395.296230	4014.616127
395.679351	4071.313984
396.062410	4092.917849
396.445408	4075.306578
396.828343	4107.869911
397.211217	4132.989981
397.594028	4052.155079
397.976778	4118.458855
398.359466	4140.302174
398.742092	4175.534799
399.124656	4098.069908
399.507158	4180.328936
399.889598	4199.268551
400.271977	4264.559055
400.654294	4233.510588
401.036549	4242.385540
401.418742	4212.897310
401.800874	4311.109070
402.182944	4337.005477
402.564952	4400.254314
402.946898	4389.849372
403.328783	4383.454668
403.710606	4298.178510
404.092367	4488.565247
404.474067	4450.489412
404.855705	4463.881237
405.237282	4391.568406
405.618797	4501.296681
406.000250	4532.609808
406.381642	4614.881439
406.762972	4576.558587
407.144240	4584.327005
407.525447	4588.022171
407.906593	4645.146006
408.287677	4691.706103
408.668700	4615.554433
409.049661	4667.778266
409.430560	4710.807035
409.811399	4635.920694
410.192176	4795.563954
410.572891	4735.702773
410.953545	4837.392928
411.334138	4719.717274
411.714669	4787.392244
412.095139	4687.237120
412.475547	4827.403882
412.855894	4804.388494
413.236180	4818.334846
413.616405	4769.914563
413.996568	4858.238099
414.376670	4801.242814
414.756711	4750.869084
415.136691	4785.171616
415.516609	4856.022512
415.896466	4897.803595
416.276262	4933.159728
416.655997	4913.847068
417.035670	5094.229634
417.415283	5188.040466
417.794834	5130.311693
418.174324	5086.856947
418.553753	4993.880426
418.933121	5175.820709
419.312428	5240.261779
419.691674	5183.780691
420.070859	5309.638138
420.449983	5223.225200
420.829045	5337.435061
421.208047	5241.733796
421.586988	5314.770033
421.965867	5324.093647
422.344686	5459.120953
422.723444	5312.027645
423.102141	5135.156242
423.480777	5426.761786
423.859352	5196.055901
424.237866	5459.614986
424.616319	5450.697185
424.994712	5561.423608
425.373044	5440.178817
425.751314	5575.823664
426.129524	5386.551022
426.507673	5578.785342
426.885762	5658.473382
427.263789	5592.986272
427.641756	5473.692408
428.019662	5596.467189
428.397508	5605.904229
428.775292	5549.793666
429.153016	5646.087267
429.530679	5573.015742
429.908282	5660.179812
430.285824	5534.675246
430.663305	5801.019568
431.040726	5542.234456
431.418086	5537.203385
431.795385	5647.246732
432.172624	5656.114122
432.549802	5650.664634
432.926920	5661.770296
433.303977	5671.842522
433.680974	5713.011104
434.057910	5729.936778
434.434786	5735.527418
434.811601	5701.958375
435.188355	5935.469662
435.565050	5811.391742
435.941683	5800.613755
436.318257	6012.634604
436.694770	5990.072920
437.071222	6026.618765
437.447614	5957.842303
437.823946	5867.066245
438.200218	6027.264032
438.576429	5892.244288
438.952580	5988.298434
439.328670	6032.595053
439.704700	5942.882679
440.080670	5926.141007
440.456580	6198.733839
440.832429	6081.416107
441.208218	5929.284166
441.583947	6084.375264
441.959616	6088.708136
442.335224	6014.393967
442.710773	6152.829092
443.086261	6175.350447
443.461689	5969.930990
443.837057	6122.849350
444.212365	6278.384070
444.587612	6167.977760
444.962800	6328.218396
445.337927	6304.759387
445.712995	5911.070477
446.088002	6491.501369
446.462949	6320.886038
446.837837	6250.251911
447.212664	6424.832110
447.587431	6567.285035
447.962139	7108.021882
448.336786	8042.505612
448.711374	7771.989734
449.085901	6850.068560
449.460369	6775.157014
449.834776	6705.616817
450.209124	7101.526355
450.583412	7247.626555
450.957640	7392.322794
451.331808	7167.421798
451.705917	6708.560851
452.079965	6637.016796
452.453954	6849.715679
452.827883	6727.021557
453.201752	6814.684701
453.575562	6612.204237
453.949311	6821.412121
454.323001	6706.317538
454.696632	6777.901922
455.070202	6920.100269
455.443713	7074.780513
455.817164	7172.052097
456.190556	7259.894203
456.563888	7334.901531
456.937160	7379.195630
457.310373	7032.044132
457.683526	7058.293420
458.056619	6950.216122
458.429653	6937.056190
458.802628	6869.935747
459.175542	6979.003632
459.548398	7334.145358
459.921194	7499.538054
460.293930	7495.520255
460.666607	8025.413579
461.039224	8342.207249
461.411782	8468.253739
461.784280	8486.477510
462.156719	8378.372487
462.529099	8250.430523
462.901419	7836.196390
463.273680	7736.968839
463.645882	7746.549552
464.018024	7610.587112
464.390106	7782.124974
464.762130	8165.582862
465.134094	8636.194738
465.505999	9659.581737
465.877845	10877.811852
466.249631	11528.909638
466.621358	11143.916719
466.993026	10517.490339
467.364634	10259.567264
467.736184	9898.867666
468.107674	9566.569927
468.479105	9591.858876
468.850477	9355.650571
469.221790	9134.520358
469.593043	8805.143968
469.964238	8664.987288
470.335373	8682.389352
470.706449	8736.158298
471.077467	8712.487561
471.448425	10024.170586
471.819324	11096.897877
472.190164	11123.404264
472.560945	9873.898831
472.931667	9089.964119
473.302330	8951.481103
473.672934	8597.955066
474.043479	8954.054612
474.413965	8893.391887
474.784393	8771.569884
475.154761	8932.949821
475.525070	9023.327627
475.895321	8844.033950
476.265513	9022.478193
476.635645	9192.541518
477.005719	9193.433802
477.375734	9309.914703
477.745691	9537.699239
478.115588	9677.452627
478.485427	9918.288711
478.855207	10456.288211
479.224928	11269.622931
479.594591	11900.982080
479.964194	11715.155067
480.333739	11653.116107
480.703226	11577.579458
481.072653	11659.805718
481.442022	11898.330433
481.811333	12087.535019
482.180584	11890.347766
482.549777	11600.063004
482.918912	11424.063721
483.287988	11450.141609
483.657005	11457.932713
484.025964	11149.794704
484.394864	11267.530852
484.763706	11241.261400
485.132489	10995.414409
485.501213	10967.090686
485.869879	11033.044102
486.238487	10883.238654
486.607036	10988.467699
486.975527	10767.839080
487.343959	10961.996600
487.712333	11004.009576
488.080648	10941.426172
488.448905	10978.798766
488.817104	10923.961094
489.185244	11186.141424
489.553326	11342.608757
489.921350	11879.264789
490.289315	12937.062704
490.657222	13283.513481
491.025070	13194.605172
491.392861	13068.165471
491.760593	12690.061289
492.128267	12342.861900
492.495883	12009.903771
492.863440	11674.165445
493.230939	11343.569097
493.598380	11265.907601
493.965763	11137.519495
494.333088	11038.690194
494.700354	10965.595984
495.067563	11017.018274
495.434713	10842.276758
495.801805	10979.295320
496.168839	10900.108875
496.535815	10840.900523
496.902733	10837.749802
497.269593	10764.504357
497.636395	10870.996212
498.003139	10852.399395
498.369825	10725.793337
498.736453	10882.313602
499.103023	10801.385439
499.469535	10840.030924
499.835989	10826.692031
500.202385	10786.995465
500.568723	10636.645572
500.935003	10861.012206
501.301226	10668.185551
501.667390	10926.209449
502.033497	11015.798315
502.399546	10884.708150
502.765537	10792.455035
503.131470	10861.551610
503.497345	11040.983919
503.863163	10652.636112
504.228923	10965.270830
504.594625	11025.008503
504.960269	10767.390418
505.325856	10993.821404
505.691385	10784.933633
506.056856	10937.630183
506.422270	10960.975767
506.787625	10858.126146
507.152924	10968.287960
507.518164	10944.813827
507.883347	10875.046779
508.248472	10792.271033
508.613540	11027.861796
508.978550	10910.710422
509.343503	10888.357945
509.708398	11002.681232
510.073236	11116.250867
510.438016	11116.223140
510.802738	11068.879144
511.167403	11118.912596
511.532010	11013.368478
511.896561	11245.521175
512.261053	11320.649491
512.625488	11179.731597
512.989866	11169.707262
513.354186	11157.124542
513.718449	11058.708616
514.082655	11253.382854
514.446803	11147.143058
514.810894	11269.287695
515.174927	11133.804164
515.538904	11158.246199
515.902822	11315.013481
516.266684	11198.051150
516.630488	11143.248766
516.994235	11202.031141
517.357925	11256.697413
517.721558	11340.882162
518.085133	11369.583971
518.448651	11373.528674
518.812112	11257.231775
519.175516	11265.516912
519.538863	11390.950902
519.902152	11306.209105
520.265385	11465.076028
520.628560	11384.548636
520.991678	11354.372289
521.354739	11418.641960
521.717743	11356.615603
522.080690	11325.095788
522.443580	11466.356481
522.806413	11418.344532
523.169189	11443.784714
523.531908	11506.834426
523.894569	11317.004736
524.257174	11321.083030
524.619722	11441.871597
524.982213	11398.931048
525.344647	11441.450660
525.707025	11396.632282
526.069345	11490.271715
526.431608	11411.365054
526.793815	11515.747186
527.155964	11304.608539
527.518057	11361.777744
527.880093	11307.330762
528.242072	11378.615198
528.603995	11287.022474
528.965860	11199.734895
529.327669	11257.551888
529.689421	11206.454753
530.051117	11168.290698
530.412755	11282.162802
530.774337	11162.511015
531.135862	11149.081381
531.497331	11172.510144
531.858743	11022.278718
532.220098	11195.167610
532.581396	11061.488813
532.942638	11044.595906
533.303824	11006.588127
533.664953	11015.032059
534.026025	10935.749833
534.387040	11032.066118
534.747999	11034.528722
535.108902	11082.777605
535.469748	10849.220947
535.830537	10947.616709
536.191270	10931.492578
536.551947	10950.621237
536.912567	10948.773654
537.273131	10876.622139
537.633638	10850.927378
537.994089	10841.170225
538.354483	10792.938985
538.714821	10935.790162
539.075103	10946.358941
539.435328	10907.698332
539.795497	10737.629966
540.155609	10893.872968
540.515665	10975.650565
540.875665	10710.682478
541.235609	10778.798549
541.595496	10782.435741
541.955328	10931.542990
542.315102	10816.118211
542.674821	10771.703125
543.034483	10770.493248
543.394090	10772.524833
543.753640	10696.141270
544.113134	10922.738615
544.472571	10775.811665
544.831953	10914.937429
545.191278	10727.235107
545.550548	10751.656977
545.909761	10898.112578
546.268918	10870.280368
546.628019	10951.513521
546.987064	10811.409773
547.346053	10729.765766
547.704986	10830.382156
548.063863	10815.046966
548.422684	10807.354165
548.781449	10724.165044
549.140158	10823.069962
549.498811	10701.379029
549.857408	10555.029291
550.215949	10781.631677
550.574434	10634.697166
550.932864	10728.603780
551.291237	10793.541403
551.649555	10736.785573
552.007817	10746.966183
552.366022	10713.666841
552.724173	10708.368588
553.082267	10693.807216
553.440305	10827.019706
553.798288	10619.833324
554.156215	10774.773188
554.514086	10755.205949
554.871902	10601.929666
555.229661	10634.639193
555.587365	10612.074988
555.945014	10511.483804
556.302606	10629.499737
556.660143	10519.158961
557.017625	10670.365850
557.375050	10575.745913
557.732421	10699.138236
558.089735	10619.886256
558.446994	10617.952974
558.804197	10648.351131
559.161345	10652.005968
559.518437	10498.898564
559.875474	10587.176729
560.232455	10609.564494
560.589381	10561.434077
560.946251	10554.613396
561.303065	10664.155149
561.659825	10591.244941
562.016528	10514.531182
562.373177	10397.039530
562.729770	10512.834834
563.086307	10422.893087
563.442789	10512.537406
563.799216	10387.945288
564.155587	10434.364233
564.511904	10383.403209
564.868164	10371.559018
565.224370	10383.819104
565.580520	10302.666609
565.936615	10307.508637
566.292654	10167.873717
566.648638	10297.501947
567.004567	10253.134752
567.360441	10239.533719
567.716260	10143.734152
568.072023	10231.878727
568.427732	10183.024905
568.783385	10089.524104
569.138982	10150.292693
569.494525	10164.929683
569.850013	10033.055619
570.205445	10106.832906
570.560823	10005.626701
570.916145	9918.742415
571.271412	9978.243153
571.626625	9920.990769
571.981782	9891.462211
572.336884	9860.602787
572.691931	9865.550680
573.046923	9804.371237
573.401860	9751.640768
573.756743	9681.054531
574.111570	9722.911232
574.466342	9698.406183
574.821059	9721.749246
575.175722	9610.657338
575.530330	9610.584242
575.884882	9596.015307
576.239380	9519.979584
576.593823	9502.849743
576.948211	9504.551132
577.302544	9375.132110
577.656823	9381.035301
578.011047	9374.781750
578.365216	9342.102470
578.719330	9258.406713
579.073389	9260.745809
579.427394	9203.140544
579.781344	9173.954784
580.135239	9113.821380
580.489080	9110.098488
580.842866	9006.626285
581.196597	8997.564811
581.550273	9037.216006
581.903895	8989.456115
582.257463	9039.187097
582.610975	8910.216738
582.964434	8930.552752
583.317837	8839.360800
583.671186	8815.352305
584.024481	8794.975961
584.377721	8708.578146
584.730906	8675.475409
585.084037	8695.637504
585.437113	8624.859704
585.790135	8625.888099
586.143103	8525.276751
586.496016	8484.743353
586.848874	8519.560082
587.201679	8504.802104
587.554428	8376.721509
587.907124	8404.465499
588.259765	8372.113894
588.612352	8356.093107
588.964884	8234.258501
589.317362	8230.593582
589.669786	8212.674801
590.022155	8246.105213
590.374470	8240.675890
590.726731	8178.468051
591.078937	8027.598920
591.431090	8107.168492
591.783188	7982.485634
592.135232	7953.156201
592.487222	7950.701159
592.839157	7975.566650
593.191038	7900.894559
593.542866	7839.868871
593.894639	7727.418373
594.246358	7761.373064
594.598022	7756.697394
594.949633	7646.591033
595.301190	7613.805888
595.652692	7621.297043
596.004141	7698.860236
596.355535	7492.682085
596.706876	7458.823175
597.058162	7382.285857
597.409395	7430.895183
597.760573	7464.819628
598.111698	7373.191615
598.462768	7337.780030
598.813785	7296.346787
599.164748	7249.781649
599.515657	7229.874132
599.866511	7132.360573
600.217312	7223.514717
600.568060	7090.198882
600.918753	7161.039697
601.269392	7117.461442
601.619978	7024.870570
601.970510	7056.115641
602.320988	7038.229627
602.671412	7055.949283
603.021783	6993.786815
603.372100	6955.804242
603.722363	6928.972700
604.072572	6897.372227
604.422728	6887.594909
604.772830	6812.146480
605.122878	6797.685931
605.472872	6783.016173
605.822813	6777.362519
606.172701	6715.628549
606.522534	6750.536019
606.872314	6729.907617
607.222041	6687.413211
607.571714	6707.822322
607.921333	6656.584034
608.270899	6635.479244
608.620411	6687.322470
608.969870	6592.964673
609.319276	6571.189409
609.668627	6554.394805
610.017926	6560.648356
610.367171	6569.384676
610.716362	6537.045674
611.065500	6502.183574
611.414585	6500.870354
611.763616	6478.656509
612.112594	6436.739315
612.461518	6426.788077
612.810389	6444.850532
613.159207	6382.841819
613.507971	6328.508263
613.856682	6381.452981
614.205340	6332.581515
614.553945	6361.293407
614.902496	6266.144148
615.250994	6285.855060
615.599439	6249.226036
615.947830	6233.381690
616.296169	6195.474733
616.644454	6184.326222
616.992686	6154.850595
617.340864	6163.791081
617.688990	6082.295788
618.037063	6119.023115
618.385082	6060.765020
618.733048	6088.138486
619.080961	6035.249220
619.428821	6020.768506
619.776628	5989.404967
620.124382	5944.637000
620.472083	5907.158542
620.819731	5907.539149
621.167326	5815.588503
621.514868	5802.559641
621.862357	5717.913627
622.209793	5714.271393
622.557176	5648.938039
622.904506	5613.803717
623.251783	5552.042021
623.599007	5504.481255
623.946179	5486.396116
624.293297	5441.860042
624.640363	5381.366196
624.987376	5344.107028
625.334336	5303.155214
625.681243	5254.510600
626.028097	5228.231065
626.374899	5198.740315
626.721647	5166.386190
627.068343	5116.897183
627.414987	5084.525413
627.761577	5042.169639
628.108115	5038.106469
628.454600	4962.766424
628.801032	4967.845387
629.147412	4935.385397
629.493739	4909.733486
629.840014	4863.614490
630.186236	4867.811251
630.532405	4797.313235
630.878521	4798.976815
631.224585	4762.874592
631.570597	4708.712435
631.916556	4705.602043
632.262462	4689.674518
632.608316	4651.470133
632.954117	4621.318992
633.299866	4607.286940
633.645562	4577.266869
633.991206	4531.198285
634.336797	4485.618692
634.682336	4453.622489
635.027823	4419.234258
635.373257	4402.265734
635.718639	4351.970142
636.063968	4342.485211
636.409245	4286.712406
636.754470	4265.942852
637.099642	4233.450095
637.444762	4197.506668
637.789829	4183.519986
638.134845	4145.015653
638.479808	4127.232983
638.824719	4112.038945
639.169577	4073.280034
639.514383	4060.616656
639.859137	4022.112322
640.203839	4011.130169
640.548489	3988.999503
