Dividing Wavelength (nm)	Counts (n)	Blue Motor Position (mm): 0.000000	Red Motor Position (mm): 27.500000	
326.493990	2078.190467
326.888308	2078.190467
327.282561	2078.190467
327.676750	2056.783208
328.070874	2059.858311
328.464933	2065.824517
328.858929	2075.102761
329.252859	2087.761098
329.646726	2099.859867
330.040528	2117.887033
330.434265	2135.778088
330.827938	2156.729124
331.221547	2174.279901
331.615091	2196.675227
332.008571	2217.555686
332.401986	2235.761813
332.795338	2256.254103
333.188625	2275.763369
333.581847	2294.196348
333.975006	2314.055973
334.368100	2330.984168
334.761129	2346.425222
335.154095	2362.486338
335.546996	2388.657489
335.939833	2419.360636
336.332606	2427.262645
336.725315	2440.097422
337.117960	2443.283432
337.510540	2454.442026
337.903056	2465.063737
338.295508	2472.002885
338.687896	2478.896663
339.080220	2484.139463
339.472480	2491.988540
339.864676	2492.863180
340.256807	2497.458192
340.648875	2496.616319
341.040879	2500.704695
341.432818	2499.900631
341.824694	2503.016064
342.216506	2501.886845
342.608253	2503.946157
342.999937	2500.155209
343.391557	2500.424911
343.783113	2497.216216
344.174605	2500.747544
344.566033	2493.193375
344.957397	2493.952069
345.348697	2491.761688
345.739934	2488.704228
346.131106	2488.986533
346.522215	2488.885709
346.913260	2484.678867
347.304241	2485.949237
347.695159	2484.225163
348.086012	2487.605256
348.476802	2480.154431
348.867528	2480.580408
349.258191	2478.407671
349.648789	2478.284163
350.039324	2472.809470
350.429796	2480.104019
350.820203	2476.484471
351.210548	2474.856178
351.600828	2474.876343
351.991045	2475.362814
352.381198	2473.658904
352.771288	2472.597741
353.161314	2473.590849
353.551276	2474.967084
353.941175	2471.927268
354.331010	2473.742083
354.720782	2472.292752
355.110490	2474.644450
355.500135	2476.494553
355.889717	2476.635706
356.279235	2476.948257
356.668689	2477.921200
357.058080	2477.885912
357.447408	2478.402630
357.836672	2473.646301
358.225873	2478.624441
358.615010	2476.761734
359.004084	2480.194760
359.393095	2482.637199
359.782043	2484.275574
360.170927	2482.445635
360.559748	2483.789103
360.948505	2484.963692
361.337199	2486.135760
361.725830	2486.753301
362.114398	2485.689618
362.502903	2487.506954
362.891344	2486.665081
363.279722	2490.130874
363.668037	2492.180103
364.056289	2495.093890
364.444478	2490.256903
364.832603	2492.205309
365.220665	2494.887203
365.608665	2496.490290
365.996601	2494.990547
366.384474	2495.018273
366.772284	2496.759992
367.160031	2495.978613
367.547715	2499.081443
367.935336	2497.841319
368.322893	2503.474809
368.710388	2503.283245
369.097820	2502.562360
369.485189	2499.925836
369.872495	2503.063955
370.259738	2506.910355
370.646918	2508.175685
371.034035	2508.805829
371.421090	2513.355470
371.808081	2513.857065
372.195010	2518.862931
372.581875	2520.823940
372.968678	2528.491535
373.355418	2536.285158
373.742096	2544.088865
374.128710	2553.644372
374.515262	2564.397153
374.901751	2577.163875
375.288177	2592.007552
375.674540	2609.936416
376.060841	2626.723458
376.447079	2648.715492
376.833254	2672.905469
377.219367	2696.515713
377.605417	2724.302553
377.991404	2746.062693
378.377329	2787.443005
378.763191	2818.017603
379.148991	2865.258256
379.534727	2912.012437
379.920402	2951.814867
380.306013	2998.503513
380.691563	3058.009293
381.077049	3110.510390
381.462474	3164.191117
381.847835	3235.115110
382.233134	3299.409987
382.618371	3353.730940
383.003545	3439.062551
383.388657	3514.122811
383.773706	3601.546501
384.158693	3667.961182
384.543618	3759.697580
384.928480	3830.697190
385.313280	3932.941873
385.698017	4029.028786
386.082692	4147.644615
386.467305	4203.329200
386.851856	4322.759176
387.236344	4470.258297
387.620770	4531.208367
388.005133	4643.036283
388.389435	4787.669507
388.773674	4863.289336
389.157851	4990.495291
389.541965	5117.043376
389.926018	5147.416328
390.310008	5312.917409
390.693936	5430.041057
391.077802	5545.770826
391.461606	5672.863355
391.845348	5776.446464
392.229027	5898.500360
392.612645	6109.843173
392.996200	6225.512448
393.379694	6397.728346
393.763125	6607.064780
394.146494	6700.124480
394.529801	6825.596279
394.913047	7062.081847
395.296230	7060.662762
395.679351	7113.526822
396.062410	7359.845161
396.445408	7264.355624
396.828343	7411.766525
397.211217	7545.185702
397.594028	7440.488499
397.976778	7636.909497
398.359466	7800.179867
398.742092	7782.906353
399.124656	7920.865090
399.507158	8108.108667
399.889598	8128.495093
400.271977	8337.697937
400.654294	8373.643884
401.036549	8567.841733
401.418742	8597.909695
401.800874	8890.253769
402.182944	8973.291655
402.564952	9331.248866
402.946898	9163.824585
403.328783	9223.060663
403.710606	9417.883615
404.092367	9669.028859
404.474067	10021.861737
404.855705	9823.993928
405.237282	9774.661197
405.618797	10210.562208
406.000250	10448.476943
406.381642	10799.714296
406.762972	10752.450958
407.144240	10572.007897
407.525447	10817.189456
407.906593	10764.305232
408.287677	11024.839624
408.668700	11165.787765
409.049661	11154.977011
409.430560	11320.959522
409.811399	11296.305759
410.192176	11445.644900
410.572891	11527.974504
410.953545	11995.065134
411.334138	11495.007879
411.714669	12067.206567
412.095139	11424.058679
412.475547	11900.021740
412.855894	11770.252358
413.236180	12085.919330
413.616405	11780.208637
413.996568	12059.191132
414.376670	12035.507791
414.756711	11928.872264
415.136691	12197.686752
415.516609	12368.695293
415.896466	12447.034824
416.276262	12734.093247
416.655997	13195.583155
417.035670	13244.066453
417.415283	13855.830636
417.794834	13933.731587
418.174324	13694.231409
418.553753	13604.415691
418.933121	14087.499382
419.312428	13922.033589
419.691674	13832.089322
420.070859	14295.966217
420.449983	13943.786168
420.829045	14502.126724
421.208047	14252.435853
421.586988	14702.038721
421.965867	14957.542042
422.344686	14958.867865
422.723444	15524.263516
423.102141	14228.394591
423.480777	15414.149593
423.859352	14914.079734
424.237866	16019.105698
424.616319	15731.800258
424.994712	16378.721449
425.373044	16162.362688
425.751314	16858.828338
426.129524	15999.238511
426.507673	17063.010193
426.885762	16793.300900
427.263789	16966.131819
427.641756	17160.165830
428.019662	17220.369810
428.397508	17264.459742
428.775292	17552.596972
429.153016	17532.697017
429.530679	17608.644520
429.908282	17648.578021
430.285824	17371.859004
430.663305	18085.683868
431.040726	17700.789251
431.418086	17536.314045
431.795385	18167.708482
432.172624	18606.276264
432.549802	18179.068722
432.926920	18380.140184
433.303977	18264.332278
433.680974	18519.754940
434.057910	18827.320778
434.434786	18865.318475
434.811601	18795.261560
435.188355	19834.538275
435.565050	19502.575773
435.941683	19465.092274
436.318257	20362.089984
436.694770	20160.721093
437.071222	20755.234449
437.447614	19815.457508
437.823946	19854.705411
438.200218	20033.084119
438.576429	19807.928544
438.952580	20110.866602
439.328670	20092.305074
439.704700	20511.792088
440.080670	20068.057124
440.456580	20687.836742
440.832429	20859.556086
441.208218	19862.930053
441.583947	20303.471447
441.959616	20431.489028
442.335224	20673.782005
442.710773	20816.960857
443.086261	21370.517358
443.461689	20705.894155
443.837057	20860.017352
444.212365	21513.423987
444.587612	21513.597907
444.962800	21125.633228
445.337927	21549.647198
445.712995	20265.710684
446.088002	22144.909165
446.462949	22349.506914
446.837837	22537.569679
447.212664	22541.448847
447.587431	25509.778534
447.962139	28469.283681
448.336786	30759.114390
448.711374	29106.145250
449.085901	25376.487906
449.460369	25386.013166
449.834776	25377.165941
450.209124	27925.756556
450.583412	27403.114931
450.957640	27901.095231
451.331808	26549.899642
451.705917	25161.538147
452.079965	25206.651433
452.453954	25592.229126
452.827883	25498.337635
453.201752	25288.502127
453.575562	25454.976151
453.949311	26570.777581
454.323001	26643.289538
454.696632	26415.449549
455.070202	28001.303287
455.443713	28174.164453
455.817164	28745.841381
456.190556	29294.986873
456.563888	28695.392034
456.937160	29124.144689
457.310373	27404.929746
457.683526	27835.398914
458.056619	27818.526172
458.429653	27776.372044
458.802628	28367.076808
459.175542	28494.965840
459.548398	29844.633959
459.921194	31423.576276
460.293930	32119.270630
460.666607	34155.241434
461.039224	35892.491105
461.411782	36207.948868
461.784280	34914.661014
462.156719	34338.137016
462.529099	33724.893253
462.901419	32377.125649
463.273680	31300.617492
463.645882	31405.075241
464.018024	31355.314011
464.390106	32215.309652
464.762130	34998.359291
465.134094	39140.012495
465.505999	44379.129932
465.877845	48763.265156
466.249631	49691.399552
466.621358	47752.264273
466.993026	45490.280898
467.364634	43295.917040
467.736184	41307.277630
468.107674	40001.699442
468.479105	39113.861509
468.850477	38329.468053
469.221790	36844.122319
469.593043	35063.024692
469.964238	34107.635297
470.335373	33951.510763
470.706449	35570.658802
471.077467	38034.870584
471.448425	42273.717234
471.819324	44763.913643
472.190164	42733.765372
472.560945	39196.906957
472.931667	36135.136963
473.302330	34984.183566
473.672934	34074.736727
474.043479	34409.822223
474.413965	33561.446443
474.784393	33078.264449
475.154761	33755.682100
475.525070	33647.461130
475.895321	33069.215578
476.265513	33459.030361
476.635645	34196.233576
477.005719	33870.060840
477.375734	34126.267402
477.745691	34593.731078
478.115588	35587.276966
478.485427	37218.024700
478.855207	40022.269870
479.224928	42122.293575
479.594591	43308.983711
479.964194	42057.207238
480.333739	41957.044552
480.703226	41768.270984
481.072653	42066.034298
481.442022	42216.737072
481.811333	42118.074129
482.180584	40725.006717
482.549777	39997.837918
482.918912	39256.531204
483.287988	38694.908857
483.657005	37736.799760
484.025964	36897.702223
484.394864	36617.988760
484.763706	35989.621536
485.132489	34992.627499
485.501213	34581.705405
485.869879	34405.605298
486.238487	33787.650578
486.607036	33643.478619
486.975527	32927.286933
487.343959	32778.275466
487.712333	32538.067006
488.080648	32136.342497
488.448905	32164.673782
488.817104	31708.419112
489.185244	32103.121293
489.553326	33011.852289
489.921350	34650.368441
490.289315	36480.118244
490.657222	36540.123098
491.025070	36347.709817
491.392861	35212.071447
491.760593	33857.150445
492.128267	32274.991872
492.495883	30847.364829
492.863440	29557.867922
493.230939	28331.448453
493.598380	27310.763513
493.965763	26762.553156
494.333088	25949.621728
494.700354	25336.503994
495.067563	24835.471275
495.434713	24432.688124
495.801805	24150.582634
496.168839	23609.878555
496.535815	23092.318413
496.902733	22801.713538
497.269593	22246.727870
497.636395	21906.588617
498.003139	21792.845062
498.369825	21195.536387
498.736453	21031.126716
499.103023	20490.626804
499.469535	20126.801690
499.835989	19851.196768
500.202385	19389.341376
500.568723	19089.024718
500.935003	18871.624958
501.301226	18490.397781
501.667390	18435.938196
502.033497	18231.700889
502.399546	17696.529476
502.765537	17103.997294
503.131470	16955.563040
503.497345	16799.922456
503.863163	16023.877150
504.228923	15958.737881
504.594625	15822.727550
504.960269	15293.648372
505.325856	15239.118211
505.691385	14759.893523
506.056856	14537.313978
506.422270	14396.718718
506.787625	14004.642977
507.152924	13810.077124
507.518164	13565.472778
507.883347	13082.089138
508.248472	12887.896330
508.613540	12767.952157
508.978550	12594.289448
509.343503	12271.348092
509.708398	12071.778893
510.073236	11963.837707
510.438016	11726.452293
510.802738	11368.127078
511.167403	11274.419589
511.532010	11087.244067
511.896561	10933.055336
512.261053	10874.920750
512.625488	10559.026926
512.989866	10314.132714
513.354186	10064.446884
513.718449	9845.239871
514.082655	9758.589998
514.446803	9502.985854
514.810894	9395.183300
515.174927	9182.491978
515.538904	8968.268145
515.902822	8879.052325
516.266684	8611.422508
516.630488	8488.017583
516.994235	8290.437119
517.357925	8189.283847
517.721558	8040.741208
518.085133	7906.893532
518.448651	7757.168742
518.812112	7562.650780
519.175516	7413.173007
519.538863	7293.395191
519.902152	7134.200594
520.265385	7036.182919
520.628560	6890.430558
520.991678	6730.953657
521.354739	6619.849146
521.717743	6507.963257
522.080690	6371.683225
522.443580	6290.117356
522.806413	6169.250651
523.169189	6040.970930
523.531908	5942.131547
523.894569	5813.178831
524.257174	5713.958841
524.619722	5629.330471
524.982213	5518.616650
525.344647	5417.760806
525.707025	5320.947967
526.069345	5249.976083
526.431608	5158.569881
526.793815	5081.853602
527.155964	4975.860822
527.518057	4899.237804
527.880093	4811.506603
528.242072	4763.293008
528.603995	4675.155995
528.965860	4603.143112
529.327669	4540.042989
529.689421	4467.546156
530.051117	4406.767484
530.412755	4352.809494
530.774337	4299.280002
531.135862	4238.297164
531.497331	4191.825287
531.858743	4137.965600
532.220098	4100.280454
532.581396	4041.782905
532.942638	3985.705109
533.303824	3956.105975
533.664953	3914.103081
534.026025	3867.878221
534.387040	3847.111187
534.747999	3811.513079
535.108902	3784.290849
535.469748	3737.274527
535.830537	3707.466185
536.191270	3688.251827
536.551947	3650.896877
536.912567	3632.834423
537.273131	3608.914148
537.633638	3573.285793
537.994089	3561.224832
538.354483	3527.673433
538.714821	3518.869058
539.075103	3505.814990
539.435328	3484.294304
539.795497	3463.194554
540.155609	3446.455403
540.515665	3438.850823
540.875665	3411.290834
541.235609	3403.159453
541.595496	3386.523646
541.955328	3384.030795
542.315102	3357.700848
542.674821	3339.530009
543.034483	3329.152794
543.394090	3318.571412
543.753640	3306.550781
544.113134	3311.392809
544.472571	3284.667132
544.831953	3293.423616
545.191278	3271.618105
545.550548	3255.055394
545.909761	3255.849376
546.268918	3249.530290
546.628019	3244.746235
546.987064	3228.644789
547.346053	3210.761296
547.704986	3217.239179
548.063863	3202.720656
548.422684	3198.160932
548.781449	3187.854293
549.140158	3188.532328
549.498811	3181.935978
549.857408	3162.540139
550.215949	3164.657424
550.574434	3158.091321
550.932864	3147.358704
551.291237	3149.455824
551.649555	3145.054897
552.007817	3138.778660
552.366022	3129.510499
552.724173	3127.874645
553.082267	3128.635859
553.440305	3125.036475
553.798288	3112.244547
554.156215	3111.417798
554.514086	3107.715070
554.871902	3098.678802
555.229661	3096.264089
555.587365	3088.072214
555.945014	3084.286308
556.302606	3079.275401
556.660143	3077.453024
557.017625	3078.887232
557.375050	3069.465316
557.732421	3071.819534
558.089735	3068.671334
558.446994	3061.185220
558.804197	3065.064388
559.161345	3059.680436
559.518437	3047.826163
559.875474	3046.727191
560.232455	3046.321378
560.589381	3045.971018
560.946251	3044.730894
561.303065	3042.787529
561.659825	3037.625388
562.016528	3033.068185
562.373177	3024.979653
562.729770	3029.410828
563.086307	3022.474200
563.442789	3021.186185
563.799216	3020.815660
564.155587	3017.014630
564.511904	3014.567150
564.868164	3013.677387
565.224370	3014.378107
565.580520	3010.937519
565.936615	3007.166736
566.292654	3003.718587
566.648638	3004.729338
567.004567	3001.233298
567.360441	3001.442506
567.716260	2997.835561
568.072023	2999.491580
568.427732	2996.033348
568.783385	2987.927173
569.138982	2988.950527
569.494525	2988.630414
569.850013	2980.236893
570.205445	2987.415496
570.560823	2982.938951
570.916145	2979.521049
571.271412	2982.455000
571.626625	2978.071717
571.981782	2974.547950
572.336884	2973.287662
572.691931	2973.338073
573.046923	2968.170891
573.401860	2965.912454
573.756743	2964.442958
574.111570	2963.364151
574.466342	2960.329376
574.821059	2961.057823
575.175722	2954.113633
575.530330	2956.104889
575.884882	2952.137501
576.239380	2951.298149
576.593823	2949.455607
576.948211	2948.621296
577.302544	2940.719288
577.656823	2941.082251
578.011047	2942.579473
578.365216	2940.137034
578.719330	2935.660490
579.073389	2935.726025
579.427394	2934.569080
579.781344	2931.236877
580.135239	2928.882658
580.489080	2927.050199
580.842866	2922.155238
581.196597	2926.122627
581.550273	2925.893254
581.903895	2922.918973
582.257463	2927.647576
582.610975	2920.347985
582.964434	2919.523756
583.317837	2916.045360
583.671186	2918.286153
584.024481	2918.533169
584.377721	2912.602252
584.730906	2915.231214
585.084037	2914.338929
585.437113	2908.166037
585.790135	2911.132756
586.143103	2904.160840
586.496016	2905.274935
586.848874	2900.979872
587.201679	2904.241498
587.554428	2898.640776
587.907124	2899.084398
588.259765	2896.019376
588.612352	2901.166394
588.964884	2894.824623
589.317362	2894.930487
589.669786	2895.485014
590.022155	2895.182545
590.374470	2893.879407
590.726731	2892.107441
591.078937	2886.652913
591.431090	2890.678274
591.783188	2885.251472
592.135232	2881.886502
592.487222	2883.101420
592.839157	2881.604197
593.191038	2878.332488
593.542866	2877.803167
593.894639	2869.303782
594.246358	2874.438197
594.598022	2873.377034
594.949633	2867.902341
595.301190	2869.369317
595.652692	2866.773122
596.004141	2868.250180
596.355535	2859.065198
596.706876	2857.830115
597.058162	2858.692153
597.409395	2862.553677
597.760573	2861.106865
598.111698	2856.073273
598.462768	2859.468490
598.813785	2857.431864
599.164748	2853.288036
599.515657	2854.830629
599.866511	2851.919362
600.217312	2851.669825
600.568060	2844.236644
600.918753	2851.185875
601.269392	2848.478775
601.619978	2848.705627
601.970510	2849.277798
602.320988	2846.154803
602.671412	2851.836183
603.021783	2847.866275
603.372100	2845.464165
603.722363	2842.857888
604.072572	2846.452231
604.422728	2844.143383
604.772830	2841.854699
605.122878	2840.750686
605.472872	2842.525172
605.822813	2840.022239
606.172701	2838.562825
606.522534	2841.017867
606.872314	2846.353929
607.222041	2840.266735
607.571714	2842.552899
607.921333	2836.374965
608.270899	2842.321006
608.620411	2843.021726
608.969870	2843.785461
609.319276	2837.526868
609.668627	2838.197342
610.017926	2842.333608
610.367171	2842.368897
610.716362	2841.239678
611.065500	2841.431242
611.414585	2842.555419
611.763616	2844.665142
612.112594	2843.820749
612.461518	2844.970132
612.810389	2843.800584
613.159207	2843.719926
613.507971	2840.057527
613.856682	2847.662108
614.205340	2846.306038
614.553945	2847.838548
614.902496	2844.284535
615.250994	2844.816377
615.599439	2843.183043
615.947830	2846.616069
616.296169	2846.532890
616.644454	2843.956860
616.992686	2845.625482
617.340864	2848.882067
617.688990	2847.067252
618.037063	2849.575226
618.385082	2846.555575
618.733048	2850.530525
619.080961	2850.555730
619.428821	2847.226048
619.776628	2846.991635
620.124382	2846.416943
620.472083	2845.869978
620.819731	2848.720750
621.167326	2841.378310
621.514868	2841.648012
621.862357	2836.480829
622.209793	2836.624502
622.557176	2834.701302
622.904506	2828.432627
623.251783	2826.148984
623.599007	2823.512461
623.946179	2817.523570
624.293297	2818.864517
624.640363	2817.387459
624.987376	2816.185143
625.334336	2814.561892
625.681243	2812.588280
626.028097	2807.481591
626.374899	2807.499235
626.721647	2810.521407
627.068343	2805.059317
627.414987	2805.180305
627.761577	2803.335242
628.108115	2805.114770
628.454600	2797.699232
628.801032	2801.054120
629.147412	2798.548667
629.493739	2799.221661
629.840014	2794.861063
630.186236	2796.917853
630.532405	2793.835188
630.878521	2793.409210
631.224585	2793.331072
631.570597	2791.947276
631.916556	2791.029786
632.262462	2786.306225
632.608316	2788.980557
632.954117	2788.320166
633.299866	2786.865793
633.645562	2786.923766
633.991206	2786.059208
634.336797	2780.362704
634.682336	2780.546706
635.027823	2776.370110
635.373257	2778.671397
635.718639	2773.163937
636.063968	2770.597989
636.409245	2767.253184
636.754470	2766.592792
637.099642	2764.755292
637.444762	2760.049375
637.789829	2760.568614
638.134845	2758.466452
638.479808	2758.600043
638.824719	2757.725403
639.169577	2753.939496
639.514383	2754.718355
639.859137	2753.001842
640.203839	2753.263982
