Dividing Wavelength (nm)	Counts (n)	Blue Motor Position (mm): 0.000000	Red Motor Position (mm): 16.400000	
326.493990	2130.477315
326.888308	2130.477315
327.282561	2130.477315
327.676750	2096.363827
328.070874	2097.127562
328.464933	2098.493714
328.858929	2105.319437
329.252859	2115.033740
329.646726	2125.136213
330.040528	2137.446710
330.434265	2154.410193
330.827938	2174.040446
331.221547	2190.492252
331.615091	2209.540251
332.008571	2228.789897
332.401986	2248.601632
332.795338	2269.376227
333.188625	2287.388270
333.581847	2305.501135
333.975006	2322.877993
334.368100	2342.820797
334.761129	2360.739579
335.154095	2376.712475
335.546996	2392.060267
335.939833	2412.242527
336.332606	2422.586975
336.725315	2434.375713
337.117960	2445.115891
337.510540	2454.343723
337.903056	2467.730507
338.295508	2469.847792
338.687896	2483.927735
339.080220	2490.425782
339.472480	2497.523727
339.864676	2499.693943
340.256807	2506.310458
340.648875	2508.838596
341.040879	2509.294821
341.432818	2513.279853
341.824694	2514.522497
342.216506	2514.124246
342.608253	2513.635254
342.999937	2514.214987
343.391557	2515.689524
343.783113	2516.221366
344.174605	2510.824811
344.566033	2510.537465
344.957397	2511.160048
345.348697	2505.019922
345.739934	2507.238030
346.131106	2503.318533
346.522215	2503.303409
346.913260	2498.688233
347.304241	2499.683861
347.695159	2497.226298
348.086012	2496.213027
348.476802	2494.395691
348.867528	2493.919302
349.258191	2490.680360
349.648789	2492.046513
350.039324	2486.148363
350.429796	2488.260606
350.820203	2485.722385
351.210548	2486.375215
351.600828	2486.604587
351.991045	2484.721716
352.381198	2483.983187
352.771288	2481.656695
353.161314	2483.499237
353.551276	2485.792962
353.941175	2481.913794
354.331010	2479.443628
354.720782	2482.947230
355.110490	2482.997642
355.500135	2482.601911
355.889717	2481.679380
356.279235	2480.134266
356.668689	2481.986890
357.058080	2484.013434
357.447408	2482.284318
357.836672	2480.255254
358.225873	2483.791623
358.615010	2480.058649
359.004084	2489.614156
359.393095	2488.179948
359.782043	2487.088538
360.170927	2488.507623
360.559748	2488.316059
360.948505	2489.702376
361.337199	2489.107520
361.725830	2489.092397
362.114398	2493.042141
362.502903	2491.691112
362.891344	2492.112048
363.279722	2493.957110
363.668037	2493.616832
364.056289	2496.134889
364.444478	2492.308653
364.832603	2492.810248
365.220665	2498.975579
365.608665	2495.124137
365.996601	2499.537668
366.384474	2497.052379
366.772284	2501.138234
367.160031	2497.279231
367.547715	2502.713594
367.935336	2505.960098
368.322893	2509.090654
368.710388	2511.848165
369.097820	2518.263033
369.485189	2522.394259
369.872495	2526.449867
370.259738	2536.028060
370.646918	2541.046528
371.034035	2548.255378
371.421090	2558.229301
371.808081	2569.579459
372.195010	2574.935685
372.581875	2591.919332
372.968678	2604.996085
373.355418	2614.256685
373.742096	2629.876700
374.128710	2646.976294
374.515262	2663.828871
374.901751	2674.062414
375.288177	2689.369877
375.674540	2714.328630
376.060841	2729.356310
376.447079	2747.874988
376.833254	2770.673607
377.219367	2782.212808
377.605417	2820.512974
377.991404	2828.389777
378.377329	2851.894157
378.763191	2869.384440
379.148991	2907.087230
379.534727	2931.186466
379.920402	2959.374077
380.306013	2971.855974
380.691563	3019.678880
381.077049	3041.953218
381.462474	3058.949469
381.847835	3099.871035
382.233134	3122.760394
382.618371	3120.355764
383.003545	3188.975950
383.388657	3193.480221
383.773706	3228.110427
384.158693	3243.364959
384.543618	3268.732045
384.928480	3304.710760
385.313280	3352.634489
385.698017	3351.101978
386.082692	3402.254566
386.467305	3408.465268
386.851856	3440.887449
387.236344	3464.157415
387.620770	3494.190089
388.005133	3521.331661
388.389435	3546.769323
388.773674	3558.308525
389.157851	3602.872325
389.541965	3617.068214
389.926018	3582.942123
390.310008	3650.554078
390.693936	3670.048220
391.077802	3710.319478
391.461606	3700.239691
391.845348	3763.848970
392.229027	3759.183382
392.612645	3774.352214
392.996200	3852.336343
393.379694	3892.960482
393.763125	3953.229996
394.146494	3925.438115
394.529801	3985.165706
394.913047	4032.847460
395.296230	3998.121471
395.679351	4052.671797
396.062410	4073.907658
396.445408	4053.836304
396.828343	4084.380655
397.211217	4109.634315
397.594028	4026.253630
397.976778	4087.836366
398.359466	4111.335704
398.742092	4135.008963
399.124656	4052.384451
399.507158	4129.831698
399.889598	4141.479284
400.271977	4197.184034
400.654294	4158.649454
401.036549	4155.158455
401.418742	4113.384933
401.800874	4200.344837
402.182944	4203.336762
402.564952	4248.155140
402.946898	4221.273188
403.328783	4196.334599
403.710606	4103.504272
404.092367	4250.282507
404.474067	4198.005742
404.855705	4184.908824
405.237282	4099.098303
405.618797	4167.869724
406.000250	4169.389632
406.381642	4210.984193
406.762972	4143.014315
407.144240	4122.965646
407.525447	4096.282819
407.906593	4106.896968
408.287677	4105.351855
408.668700	4023.176006
409.049661	4020.579812
409.430560	4010.522710
409.811399	3927.875513
410.192176	3995.129547
410.572891	3917.213473
410.953545	3940.715332
411.334138	3830.009073
411.714669	3829.401614
412.095139	3729.566603
412.475547	3760.552055
412.855894	3712.242678
413.236180	3670.927902
413.616405	3607.258128
413.996568	3608.543623
414.376670	3540.576266
414.756711	3482.698779
415.136691	3452.517391
415.516609	3442.246040
415.896466	3419.979263
416.276262	3390.349881
416.655997	3338.231912
417.035670	3358.341075
417.415283	3348.215918
417.794834	3289.483955
418.174324	3241.701378
418.553753	3175.788291
418.933121	3185.658871
419.312428	3163.006446
419.691674	3111.014506
420.070859	3099.382043
420.449983	3048.562171
420.829045	3035.555994
421.208047	2990.490599
421.586988	2967.394553
421.965867	2940.744493
422.344686	2927.450971
422.723444	2882.146121
423.102141	2832.979747
423.480777	2842.401664
423.859352	2796.597740
424.237866	2799.506486
424.616319	2777.222065
424.994712	2765.950045
425.373044	2735.299830
425.751314	2728.292626
426.129524	2695.595702
426.507673	2690.310052
426.885762	2681.576253
427.263789	2664.096052
427.641756	2648.186171
428.019662	2642.018319
428.397508	2630.587503
428.775292	2616.499998
429.153016	2610.387599
429.530679	2600.365786
429.908282	2594.742378
430.285824	2585.171748
430.663305	2584.876840
431.040726	2575.391909
431.418086	2571.865622
431.795385	2567.363872
432.172624	2563.356155
432.549802	2562.141237
432.926920	2558.796431
433.303977	2555.832232
433.680974	2550.760832
434.057910	2553.662016
434.434786	2549.961809
434.811601	2549.520708
435.188355	2548.242775
435.565050	2546.647250
435.941683	2545.989380
436.318257	2543.599873
436.694770	2539.415715
437.071222	2541.732125
437.447614	2534.598893
437.823946	2540.045859
438.200218	2541.422094
438.576429	2543.519214
438.952580	2538.389840
439.328670	2541.152393
439.704700	2538.178112
440.080670	2541.956457
440.456580	2541.021322
440.832429	2541.195242
441.208218	2539.761034
441.583947	2543.607434
441.959616	2543.506611
442.335224	2537.991589
442.710773	2537.769778
443.086261	2540.368493
443.461689	2538.467978
443.837057	2540.643236
444.212365	2539.312371
444.587612	2539.516538
444.962800	2539.503935
445.337927	2540.643236
445.712995	2537.472350
446.088002	2538.180632
446.462949	2541.127187
446.837837	2538.021836
447.212664	2541.046528
447.587431	2542.463093
447.962139	2540.537372
448.336786	2548.633465
448.711374	2543.388144
449.085901	2542.619368
449.460369	2540.749100
449.834776	2541.568288
450.209124	2540.497043
450.583412	2546.009544
450.957640	2544.335881
451.331808	2543.683052
451.705917	2541.046528
452.079965	2539.854295
452.453954	2542.125335
452.827883	2543.327650
453.201752	2540.817156
453.575562	2540.292876
453.949311	2543.108360
454.323001	2543.738504
454.696632	2544.275387
455.070202	2547.012734
455.443713	2541.742208
455.817164	2539.506456
456.190556	2540.050900
456.563888	2541.573329
456.937160	2541.323792
457.310373	2541.507794
457.683526	2541.674152
458.056619	2542.521066
458.429653	2544.224976
458.802628	2545.533155
459.175542	2541.906045
459.548398	2545.071890
459.921194	2547.564740
460.293930	2547.083310
460.666607	2548.772097
461.039224	2550.100441
461.411782	2551.590102
461.784280	2551.980791
462.156719	2548.799823
462.529099	2551.622869
462.901419	2549.926521
463.273680	2547.917621
463.645882	2550.521377
464.018024	2546.528783
464.390106	2548.530121
464.762130	2551.143959
465.134094	2551.189330
465.505999	2555.703683
465.877845	2561.198541
466.249631	2562.340362
466.621358	2560.391956
466.993026	2563.913202
467.364634	2562.216854
467.736184	2557.004301
468.107674	2555.955741
468.479105	2555.496996
468.850477	2557.150494
469.221790	2554.211502
469.593043	2554.589588
469.964238	2557.541184
470.335373	2554.448436
470.706449	2557.510937
471.077467	2555.106306
471.448425	2562.640311
471.819324	2562.915054
472.190164	2566.093501
472.560945	2559.945814
472.931667	2558.932542
473.302330	2555.428940
473.672934	2556.444733
474.043479	2557.944476
474.413965	2559.827347
474.784393	2553.984650
475.154761	2557.954558
475.525070	2554.153528
475.895321	2556.928683
476.265513	2556.759805
476.635645	2558.703170
477.005719	2556.873231
477.375734	2560.719631
477.745691	2560.517985
478.115588	2559.542522
478.485427	2562.090825
478.855207	2567.724314
479.224928	2567.988975
479.594591	2572.026939
479.964194	2569.990313
480.333739	2569.927299
480.703226	2568.586352
481.072653	2571.104408
481.442022	2572.074830
481.811333	2572.699933
482.180584	2571.563153
482.549777	2569.831517
482.918912	2568.261197
483.287988	2569.677762
483.657005	2569.029973
484.025964	2566.153995
484.394864	2564.818089
484.763706	2567.618450
485.132489	2562.731052
485.501213	2564.926474
485.869879	2564.344221
486.238487	2562.486556
486.607036	2566.395970
486.975527	2563.525033
487.343959	2563.373799
487.712333	2565.120558
488.080648	2562.693243
488.448905	2559.885320
488.817104	2562.662996
489.185244	2565.211299
489.553326	2564.656772
489.921350	2566.587534
490.289315	2570.801939
490.657222	2575.026426
491.025070	2571.429562
491.392861	2572.384861
491.760593	2568.649366
492.128267	2565.685168
492.495883	2569.546692
492.863440	2566.990827
493.230939	2564.601320
493.598380	2561.735424
493.965763	2560.535629
494.333088	2561.760629
494.700354	2561.140567
495.067563	2563.973696
495.434713	2558.708211
495.801805	2568.422514
496.168839	2563.235167
496.535815	2565.125600
496.902733	2563.051165
497.269593	2564.003943
497.636395	2564.351783
498.003139	2565.894376
498.369825	2563.431772
498.736453	2563.169632
499.103023	2563.237687
499.469535	2565.241546
499.835989	2566.204407
500.202385	2566.201886
500.568723	2561.168294
500.935003	2567.434448
501.301226	2564.808007
501.667390	2564.724828
502.033497	2568.757751
502.399546	2564.800445
502.765537	2565.417987
503.131470	2563.749365
503.497345	2567.129458
503.863163	2566.524520
504.228923	2564.326577
504.594625	2567.278172
504.960269	2565.768347
505.325856	2567.623491
505.691385	2564.079560
506.056856	2563.885476
506.422270	2564.029149
506.787625	2566.998388
507.152924	2563.552760
507.518164	2563.900599
507.883347	2566.310271
508.248472	2564.707184
508.613540	2565.932184
508.978550	2564.944118
509.343503	2566.736248
509.708398	2567.714232
510.073236	2566.700960
510.438016	2567.996537
510.802738	2569.135837
511.167403	2563.837585
511.532010	2567.101732
511.896561	2568.833368
512.261053	2568.505693
512.625488	2565.284396
512.989866	2564.026628
513.354186	2565.150805
513.718449	2562.461350
514.082655	2566.892524
514.446803	2564.490414
514.810894	2568.528378
515.174927	2566.995868
515.538904	2568.026784
515.902822	2566.927812
516.266684	2568.160374
516.630488	2567.273131
516.994235	2564.631567
517.357925	2567.598286
517.721558	2567.250446
518.085133	2568.999726
518.448651	2567.126938
518.812112	2568.341856
519.175516	2568.689695
519.538863	2567.512586
519.902152	2567.333625
520.265385	2564.082081
520.628560	2566.811866
520.991678	2568.818245
521.354739	2567.875549
521.717743	2564.752554
522.080690	2569.105591
522.443580	2569.531568
522.806413	2569.478636
523.169189	2566.287586
523.531908	2567.386557
523.894569	2565.516289
524.257174	2570.998544
524.619722	2568.979562
524.982213	2569.135838
525.344647	2569.720611
525.707025	2567.754561
526.069345	2567.724314
526.431608	2567.210117
526.793815	2569.019891
527.155964	2567.603327
527.518057	2566.232133
527.880093	2569.208934
528.242072	2567.656259
528.603995	2570.524675
528.965860	2567.124417
529.327669	2567.936043
529.689421	2564.860939
530.051117	2567.812535
530.412755	2564.049313
530.774337	2567.346228
531.135862	2567.812535
531.497331	2567.401681
531.858743	2562.534447
532.220098	2565.768347
532.581396	2563.628377
532.942638	2564.460167
533.303824	2566.418656
533.664953	2566.940415
534.026025	2568.074675
534.387040	2567.147102
534.747999	2568.230950
535.108902	2566.748851
535.469748	2566.133830
535.830537	2568.062072
536.191270	2567.270611
536.551947	2565.879252
536.912567	2566.665672
537.273131	2569.055179
537.633638	2565.425548
537.994089	2567.129458
538.354483	2565.498645
538.714821	2568.175498
539.075103	2566.562328
539.435328	2567.434448
539.795497	2567.820096
540.155609	2564.240877
540.515665	2565.536454
540.875665	2567.076526
541.235609	2566.164077
541.595496	2567.056362
541.955328	2566.169118
542.315102	2567.341187
542.674821	2567.600806
543.034483	2566.708522
543.394090	2567.807493
543.753640	2565.798594
544.113134	2566.237174
544.472571	2567.784808
544.831953	2567.973852
545.191278	2567.258008
545.550548	2567.394119
545.909761	2564.061916
546.268918	2565.702812
546.628019	2568.006619
546.987064	2565.536454
547.346053	2567.862946
547.704986	2563.343552
548.063863	2567.517627
548.422684	2568.238512
548.781449	2564.815569
549.140158	2564.392112
549.498811	2567.653738
549.857408	2567.313460
550.215949	2563.963614
550.574434	2563.880435
550.932864	2564.329097
551.291237	2563.827502
551.649555	2566.206927
552.007817	2566.383367
552.366022	2566.302709
552.724173	2565.354972
553.082267	2563.726679
553.440305	2565.329766
553.798288	2567.348748
554.156215	2568.475446
554.514086	2564.755075
554.871902	2565.239026
555.229661	2562.965465
555.587365	2563.346072
555.945014	2567.893193
556.302606	2565.838923
556.660143	2565.967472
557.017625	2565.256670
557.375050	2566.274983
557.732421	2563.187276
558.089735	2564.762637
558.446994	2566.973183
558.804197	2565.987637
559.161345	2566.068295
559.518437	2564.024107
559.875474	2567.401681
560.232455	2565.362534
560.589381	2565.523851
560.946251	2566.562328
561.303065	2566.693398
561.659825	2568.687175
562.016528	2564.676937
562.373177	2564.712225
562.729770	2564.755075
563.086307	2566.290106
563.442789	2564.104766
563.799216	2563.767009
564.155587	2567.207596
564.511904	2564.490414
564.868164	2566.219530
565.224370	2567.104252
565.580520	2564.946639
565.936615	2565.826320
566.292654	2563.827502
566.648638	2567.361351
567.004567	2563.497307
567.360441	2566.254818
567.716260	2566.983265
568.072023	2566.264900
568.427732	2555.696121
568.783385	2565.929664
569.138982	2562.211813
569.494525	2564.008984
569.850013	2560.346586
570.205445	2564.147616
570.560823	2564.964283
570.916145	2562.710887
571.271412	2562.819272
571.626625	2563.003274
571.981782	2563.522513
572.336884	2564.341700
572.691931	2563.983778
573.046923	2562.597461
573.401860	2562.118551
573.756743	2564.177863
574.111570	2562.166442
574.466342	2562.867163
574.821059	2565.801114
575.175722	2563.726679
575.530330	2563.472101
575.884882	2567.449572
576.239380	2565.576783
576.593823	2565.750703
576.948211	2562.196689
577.302544	2562.347924
577.656823	2562.748696
578.011047	2562.584858
578.365216	2563.131823
578.719330	2562.146278
579.073389	2563.162070
579.427394	2561.173335
579.781344	2561.526216
580.135239	2565.977555
580.489080	2562.375650
580.842866	2562.925136
581.196597	2564.268603
581.550273	2562.491597
581.903895	2562.637790
582.257463	2564.402194
582.610975	2560.638973
582.964434	2562.400856
583.317837	2563.320867
583.671186	2561.218705
584.024481	2562.075702
584.377721	2564.172822
584.730906	2562.156360
585.084037	2562.557132
585.437113	2562.708366
585.790135	2563.835064
586.143103	2563.051165
586.496016	2562.622667
586.848874	2557.546225
587.201679	2561.155691
587.554428	2556.636297
587.907124	2559.955896
588.259765	2556.638817
588.612352	2557.954558
588.964884	2560.699467
589.317362	2560.039075
589.669786	2560.109652
590.022155	2563.903120
590.374470	2562.985630
590.726731	2563.260373
591.078937	2561.382543
591.431090	2561.995043
591.783188	2560.727193
592.135232	2561.052347
592.487222	2560.023952
592.839157	2561.674930
593.191038	2559.537481
593.542866	2560.064281
593.894639	2559.716442
594.246358	2561.324570
594.598022	2561.458160
594.949633	2560.679302
595.301190	2559.209806
595.652692	2560.946483
596.004141	2559.822306
596.355535	2559.633262
596.706876	2560.853222
597.058162	2557.606719
597.409395	2558.962789
597.760573	2558.841801
598.111698	2557.455484
598.462768	2557.639486
598.813785	2559.983623
599.164748	2557.692418
599.515657	2560.298695
599.866511	2559.169476
600.217312	2559.106462
600.568060	2558.027655
600.918753	2560.520506
601.269392	2556.701832
601.619978	2558.267110
601.970510	2560.036555
602.320988	2557.979764
602.671412	2556.903478
603.021783	2557.531101
603.372100	2560.560835
603.722363	2557.982285
604.072572	2558.562017
604.422728	2560.490259
604.772830	2555.171841
605.122878	2554.382901
605.472872	2555.980947
605.822813	2552.799978
606.172701	2555.222253
606.522534	2558.751061
606.872314	2555.915412
607.222041	2555.121430
607.571714	2559.739127
607.921333	2558.645196
608.270899	2557.788200
608.620411	2559.106462
608.969870	2561.465722
609.319276	2560.817934
609.668627	2562.685681
610.017926	2566.378326
610.367171	2568.515776
610.716362	2562.418500
611.065500	2565.428069
611.414585	2561.616957
611.763616	2560.676781
612.112594	2560.820454
612.461518	2559.154353
612.810389	2560.376833
613.159207	2560.086966
613.507971	2559.834909
613.856682	2561.009498
614.205340	2557.813406
614.553945	2560.649055
614.902496	2558.864487
615.250994	2559.620660
615.599439	2559.618139
615.947830	2559.449260
616.296169	2559.280382
616.644454	2559.890361
616.992686	2559.358520
617.340864	2560.936401
617.688990	2557.747871
618.037063	2558.143602
618.385082	2558.365412
618.733048	2559.214847
619.080961	2558.357851
619.428821	2559.905485
619.776628	2558.476318
620.124382	2560.928839
620.472083	2560.112172
620.819731	2561.896741
621.167326	2557.377346
621.514868	2558.544373
621.862357	2558.955227
622.209793	2557.813406
622.557176	2558.196534
622.904506	2557.415155
623.251783	2552.862993
623.599007	2555.552448
623.946179	2553.538508
624.293297	2555.093703
624.640363	2556.747202
624.987376	2556.905998
625.334336	2555.481872
625.681243	2556.560679
626.028097	2555.854918
626.374899	2557.175700
626.721647	2554.960113
627.068343	2554.012376
627.414987	2555.691080
627.761577	2556.817778
628.108115	2556.359033
628.454600	2555.186965
628.801032	2554.950031
629.147412	2555.255020
629.493739	2554.617314
629.840014	2557.213509
630.186236	2553.914073
630.532405	2556.265772
630.878521	2555.975905
631.224585	2555.786862
631.570597	2553.268806
631.916556	2552.747046
632.262462	2557.009342
632.608316	2554.907181
632.954117	2556.172510
633.299866	2555.940617
633.645562	2553.856100
633.991206	2553.223435
634.336797	2554.032541
634.682336	2552.424413
635.027823	2551.688404
635.373257	2551.637992
635.718639	2549.868547
636.063968	2552.729402
636.409245	2555.524722
636.754470	2552.124464
637.099642	2549.437529
637.444762	2552.573127
637.789829	2551.821995
638.134845	2553.566234
638.479808	2551.723692
638.824719	2548.668753
639.169577	2550.256716
639.514383	2550.468445
639.859137	2551.123795
640.203839	2552.079093
640.548489	2550.831408
640.893086	2550.012220
641.237632	2546.017106
641.582125	2548.903167
641.926566	2548.270502
642.270955	2550.602035
642.615292	2549.969371
642.959576	2550.783517
643.303809	2550.183620
643.647990	2553.074721
643.992118	2552.331151
644.336195	2550.594474
