Dividing Wavelength (nm)	Counts (n)	Blue Motor Position (mm): 0.000000	Red Motor Position (mm): 29.900000	
326.493990	2126.900616
326.888308	2126.900616
327.282561	2126.900616
327.676750	2096.391553
328.070874	2093.064392
328.464933	2096.497418
328.858929	2102.922368
329.252859	2111.290683
329.646726	2126.280554
330.040528	2135.372275
330.434265	2152.905408
330.827938	2171.587925
331.221547	2190.961079
331.615091	2207.289376
332.008571	2226.186141
332.401986	2247.575757
332.795338	2267.372368
333.188625	2285.044133
333.581847	2307.343677
333.975006	2323.034268
334.368100	2340.912721
334.761129	2358.972654
335.154095	2375.074100
335.546996	2391.964486
335.939833	2413.558268
336.332606	2425.657037
336.725315	2439.222782
337.117960	2447.160079
337.510540	2457.837243
337.903056	2467.370065
338.295508	2476.829790
338.687896	2484.799854
339.080220	2494.131030
339.472480	2499.946001
339.864676	2502.116218
340.256807	2507.938750
340.648875	2507.669049
341.040879	2513.668022
341.432818	2513.668022
341.824694	2515.780265
342.216506	2514.719102
342.608253	2514.056191
342.999937	2515.850841
343.391557	2514.862775
343.783113	2516.871675
344.174605	2512.758093
344.566033	2514.703979
344.957397	2512.611900
345.348697	2509.498988
345.739934	2508.692403
346.131106	2503.913389
346.522215	2503.061434
346.913260	2503.550426
347.304241	2501.786022
347.695159	2497.984992
348.086012	2499.094046
348.476802	2498.254694
348.867528	2492.366626
349.258191	2490.501399
349.648789	2492.974085
350.039324	2488.961327
350.429796	2488.288333
350.820203	2489.803199
351.210548	2487.940493
351.600828	2487.799341
351.991045	2486.899495
352.381198	2486.924701
352.771288	2486.768425
353.161314	2485.437560
353.551276	2483.610142
353.941175	2485.487972
354.331010	2485.014103
354.720782	2484.807416
355.110490	2486.140801
355.500135	2483.831953
355.889717	2486.367653
356.279235	2486.589464
356.668689	2487.007880
357.058080	2486.773466
357.447408	2480.719040
357.836672	2483.950420
358.225873	2485.997128
358.615010	2484.005873
359.004084	2487.355719
359.393095	2489.755308
359.782043	2491.739002
360.170927	2488.197592
360.559748	2493.546256
360.948505	2492.686739
361.337199	2492.475011
361.725830	2491.731441
362.114398	2496.008860
362.502903	2490.874445
362.891344	2495.023314
363.279722	2493.972234
363.668037	2495.590444
364.056289	2495.676144
364.444478	2495.272851
364.832603	2495.890393
365.220665	2498.093377
365.608665	2499.265445
365.996601	2500.107318
366.384474	2500.465240
366.772284	2501.899448
367.160031	2503.910868
367.547715	2505.592093
367.935336	2509.085613
368.322893	2511.901097
368.710388	2511.775068
369.097820	2521.075997
369.485189	2521.378467
369.872495	2529.356092
370.259738	2536.733821
370.646918	2541.835469
371.034035	2551.446429
371.421090	2561.440516
371.808081	2570.776733
372.195010	2580.140676
372.581875	2593.086359
372.968678	2608.308123
373.355418	2618.564351
373.742096	2633.914664
374.128710	2651.490647
374.515262	2663.879283
374.901751	2682.844104
375.288177	2694.806762
375.674540	2715.586398
376.060841	2736.050962
376.447079	2753.299270
376.833254	2773.899945
377.219367	2786.565844
377.605417	2823.532625
377.991404	2833.118379
378.377329	2853.436750
378.763191	2874.239071
379.148991	2910.021181
379.534727	2933.880962
379.920402	2961.904737
380.306013	2973.983341
380.691563	3024.435209
381.077049	3047.954712
381.462474	3063.483987
381.847835	3103.742641
382.233134	3126.589150
382.618371	3122.208388
383.003545	3192.955941
383.388657	3201.193186
383.773706	3232.889441
384.158693	3249.139600
384.543618	3276.046759
384.928480	3309.693940
385.313280	3357.758822
385.698017	3356.775797
386.082692	3412.805701
386.467305	3414.494488
386.851856	3448.124025
387.236344	3468.008856
387.620770	3502.755009
388.005133	3526.455994
388.389435	3555.596384
388.773674	3564.988053
389.157851	3611.028912
389.541965	3627.601705
389.926018	3589.563678
390.310008	3659.907939
390.693936	3676.102646
391.077802	3718.203842
391.461606	3706.644477
391.845348	3773.490177
392.229027	3768.869959
392.612645	3784.036270
392.996200	3859.842621
393.379694	3899.546749
393.763125	3962.183086
394.146494	3933.682922
394.529801	3995.673991
394.913047	4047.454203
395.296230	4007.820651
395.679351	4061.488775
396.062410	4090.709823
396.445408	4067.462542
396.828343	4102.337245
397.211217	4125.493785
397.594028	4044.656362
397.976778	4113.155561
398.359466	4138.878048
398.742092	4168.872914
399.124656	4090.558589
399.507158	4170.778470
399.889598	4194.572716
400.271977	4253.753342
400.654294	4227.176379
401.036549	4236.061412
401.418742	4205.297771
401.800874	4305.780570
402.182944	4327.051719
402.564952	4394.673756
402.946898	4381.980131
403.328783	4374.199110
403.710606	4293.054177
404.092367	4480.801870
404.474067	4442.705870
404.855705	4454.524855
405.237282	4383.666397
405.618797	4493.225793
406.000250	4525.242162
406.381642	4604.151343
406.762972	4570.773863
407.144240	4579.905913
407.525447	4577.798711
407.906593	4638.209378
408.287677	4681.371737
408.668700	4609.976396
409.049661	4660.357688
409.430560	4703.961148
409.811399	4629.634375
410.192176	4792.178819
410.572891	4730.147421
410.953545	4832.263554
411.334138	4716.198549
411.714669	4782.782109
412.095139	4675.801262
412.475547	4818.057583
412.855894	4799.705262
413.236180	4803.889420
413.616405	4760.510291
413.996568	4847.671841
414.376670	4792.453562
414.756711	4746.931943
415.136691	4778.676089
415.516609	4852.793653
415.896466	4888.858068
416.276262	4923.780661
416.655997	4905.483793
417.035670	5086.791412
417.415283	5176.496224
417.794834	5123.546465
418.174324	5078.319753
418.553753	4982.278210
418.933121	5167.376777
419.312428	5237.678188
419.691674	5173.348023
420.070859	5296.150531
420.449983	5213.974682
420.829045	5326.238658
421.208047	5236.211212
421.586988	5306.386594
421.965867	5316.504190
422.344686	5450.293892
422.723444	5306.850380
423.102141	5122.792812
423.480777	5424.520993
423.859352	5190.777813
424.237866	5449.021001
424.616319	5442.117141
424.994712	5553.521600
425.373044	5429.662970
425.751314	5570.553138
426.129524	5374.114496
426.507673	5568.289660
426.885762	5651.307381
427.263789	5582.919088
427.641756	5467.794258
428.019662	5586.389923
428.397508	5591.781437
428.775292	5539.608015
429.153016	5639.294312
429.530679	5562.615841
429.908282	5649.542977
430.285824	5521.011198
430.663305	5797.130318
431.040726	5526.793402
431.418086	5528.905645
431.795385	5632.317355
432.172624	5646.591382
432.549802	5639.201050
432.926920	5649.225385
433.303977	5661.712323
433.680974	5697.809505
434.057910	5716.973451
434.434786	5725.392178
434.811601	5694.361356
435.188355	5930.645278
435.565050	5802.388242
435.941683	5781.618688
436.318257	5994.655329
436.694770	5977.245704
437.071222	6016.276837
437.447614	5951.417352
437.823946	5864.129773
438.200218	6015.994533
438.576429	5876.641917
438.952580	5978.692515
439.328670	6019.891345
439.704700	5931.492192
440.080670	5910.170631
440.456580	6186.564494
440.832429	6069.987811
441.208218	5915.395787
441.583947	6071.835394
441.959616	6072.210960
442.335224	6003.056412
442.710773	6138.411392
443.086261	6165.648747
443.461689	5956.473629
443.837057	6106.009376
444.212365	6265.801350
444.587612	6156.289844
444.962800	6312.215253
445.337927	6289.845133
445.712995	5902.480351
446.088002	6475.677187
446.462949	6306.120498
446.837837	6240.535087
447.212664	6409.340644
447.587431	6552.602675
447.962139	7095.628205
448.336786	8022.126747
448.711374	7761.589834
449.085901	6838.632703
449.460369	6759.993223
449.834776	6693.747421
450.209124	7080.290495
450.583412	7227.451858
450.957640	7381.184365
451.331808	7146.737943
451.705917	6694.589293
452.079965	6622.566328
452.453954	6831.131466
452.827883	6709.145625
453.201752	6802.308669
453.575562	6599.009016
453.949311	6802.732126
454.323001	6693.752462
454.696632	6765.820797
455.070202	6902.615027
455.443713	7061.819707
455.817164	7153.861094
456.190556	7234.864874
456.563888	7314.764642
456.937160	7359.467074
457.310373	7006.737539
457.683526	7040.404885
458.056619	6929.076044
458.429653	6914.265134
458.802628	6847.028744
459.175542	6957.649304
459.548398	7312.082748
459.921194	7466.939433
460.293930	7469.613765
460.666607	7994.765885
461.039224	8303.599572
461.411782	8419.261285
461.784280	8438.904141
462.156719	8331.613264
462.529099	8205.607103
462.901419	7795.912530
463.273680	7683.819954
463.645882	7691.618619
464.018024	7556.253556
464.390106	7718.961837
464.762130	8097.272707
465.134094	8550.328765
465.505999	9545.248367
465.877845	10742.537529
466.249631	11382.338090
466.621358	10990.685807
466.993026	10366.348985
467.364634	10113.250295
467.736184	9740.819931
468.107674	9404.953056
468.479105	9423.227238
468.850477	9186.761835
469.221790	8950.951782
469.593043	8627.057647
469.964238	8471.928740
470.335373	8476.417888
470.706449	8518.113271
471.077467	8486.739650
471.448425	9723.564061
471.819324	10730.804244
472.190164	10744.717828
472.560945	9535.796204
472.931667	8760.590251
473.302330	8615.442828
473.672934	8261.107686
474.043479	8584.222963
474.413965	8506.493412
474.784393	8368.277576
475.154761	8493.257862
475.525070	8554.044095
475.895321	8369.905869
476.265513	8506.168257
476.635645	8638.001992
477.005719	8609.045604
477.375734	8682.777520
477.745691	8866.431796
478.115588	8955.052760
478.485427	9131.677147
478.855207	9563.275533
479.224928	10215.368948
479.594591	10734.264996
479.964194	10529.082472
480.333739	10442.543505
480.703226	10313.011057
481.072653	10337.163225
481.442022	10464.268358
481.811333	10565.076311
482.180584	10355.465134
482.549777	10047.559019
482.918912	9841.945477
483.287988	9798.684815
483.657005	9752.240665
484.025964	9433.934649
484.394864	9478.604313
484.763706	9384.397751
485.132489	9137.446748
485.501213	9044.205566
485.869879	9044.283704
486.238487	8841.778033
486.607036	8880.466368
486.975527	8627.526474
487.343959	8708.510090
487.712333	8662.688522
488.080648	8559.901916
488.448905	8503.549378
488.817104	8391.101400
489.185244	8506.808484
489.553326	8522.587295
489.921350	8799.568452
490.289315	9390.915963
490.657222	9530.737406
491.025070	9368.911326
491.392861	9209.966266
491.760593	8891.463646
492.128267	8589.349816
492.495883	8305.081671
492.863440	8010.151486
493.230939	7721.926036
493.598380	7598.800894
493.965763	7424.770181
494.333088	7304.420195
494.700354	7164.495408
495.067563	7134.997096
495.434713	6952.497245
495.801805	6946.427695
496.168839	6828.784809
496.535815	6708.840635
496.902733	6641.311859
497.269593	6516.760071
497.636395	6501.220714
498.003139	6400.261526
498.369825	6276.307115
498.736453	6261.970073
499.103023	6159.977448
499.469535	6087.901551
499.835989	6012.443040
500.202385	5911.168780
500.568723	5781.873266
500.935003	5803.696421
501.301226	5628.783506
501.667390	5677.755795
502.033497	5630.966326
502.399546	5513.023490
502.765537	5407.222274
503.131470	5354.998441
503.497345	5341.974620
503.863163	5157.233975
504.228923	5172.332231
504.594625	5135.441067
504.960269	4993.051156
505.325856	4986.565712
505.691385	4860.035271
506.056856	4841.486345
506.422270	4780.949649
506.787625	4702.274882
507.152924	4660.917256
507.518164	4601.769397
507.883347	4519.868292
508.248472	4447.328608
508.613540	4439.734110
508.978550	4353.537941
509.343503	4296.827481
509.708398	4266.295733
510.073236	4231.000094
510.438016	4176.585879
510.802738	4113.647073
511.167403	4077.733893
511.532010	4001.529291
511.896561	4001.539374
512.261053	3960.007828
512.625488	3888.325141
512.989866	3836.340762
513.354186	3792.959113
513.718449	3730.844536
514.082655	3719.753997
514.446803	3664.558404
514.810894	3638.541009
515.174927	3584.250302
515.538904	3551.606311
515.902822	3525.896426
516.266684	3477.266935
516.630488	3433.809669
516.994235	3412.767893
517.357925	3380.186915
517.721558	3357.975591
518.085133	3324.562824
518.448651	3297.050727
518.812112	3263.055706
519.175516	3228.485993
519.538863	3208.878425
519.902152	3181.076462
520.265385	3158.575272
520.628560	3134.534009
520.991678	3106.384206
521.354739	3088.815785
521.717743	3062.087587
522.080690	3039.795605
522.443580	3023.192564
522.806413	3000.222547
523.169189	2983.523725
523.531908	2967.812969
523.894569	2940.847837
524.257174	2925.038778
524.619722	2909.179308
524.982213	2899.273441
525.344647	2882.332644
525.707025	2865.648945
526.069345	2856.403469
526.431608	2840.546519
526.793815	2831.797597
527.155964	2811.338074
527.518057	2805.591159
527.880093	2793.242852
528.242072	2785.363529
528.603995	2774.613268
528.965860	2767.167484
529.327669	2757.122985
529.689421	2748.129567
530.051117	2741.576067
530.412755	2734.173132
530.774337	2728.020404
531.135862	2720.738457
531.497331	2713.111191
531.858743	2701.292206
532.220098	2702.706250
532.581396	2694.053109
532.942638	2689.385001
533.303824	2686.932479
533.664953	2682.584484
534.026025	2675.022753
534.387040	2677.195491
534.747999	2671.907320
535.108902	2672.635767
535.469748	2665.379026
535.830537	2665.126968
536.191270	2659.261586
536.551947	2658.286123
536.912567	2655.057264
537.273131	2653.854948
537.633638	2650.414361
537.994089	2653.207160
538.354483	2647.031747
538.714821	2648.385297
539.075103	2647.303969
539.435328	2644.790954
539.795497	2639.159985
540.155609	2639.885911
540.515665	2640.357259
540.875665	2637.153606
541.235609	2634.411218
541.595496	2634.370889
541.955328	2635.868112
542.315102	2633.763430
542.674821	2632.183028
543.034483	2630.884931
543.394090	2628.976854
543.753640	2629.274282
544.113134	2630.615229
544.472571	2627.887965
544.831953	2628.318984
545.191278	2623.217336
545.550548	2625.228756
545.909761	2622.715741
546.268918	2623.207254
546.628019	2625.057357
546.987064	2622.302367
547.346053	2621.291615
547.704986	2625.014507
548.063863	2622.405710
548.422684	2622.829167
548.781449	2617.442694
549.140158	2617.876233
549.498811	2618.972684
549.857408	2617.326748
550.215949	2618.730709
550.574434	2614.670060
550.932864	2615.398506
551.291237	2613.003958
551.649555	2613.833228
552.007817	2617.011676
552.366022	2616.913373
552.724173	2616.361367
553.082267	2614.864144
553.440305	2615.912704
553.798288	2612.575460
554.156215	2612.583022
554.514086	2614.796088
554.871902	2610.833742
555.229661	2616.772221
555.587365	2611.521859
555.945014	2613.583691
556.302606	2613.692076
556.660143	2612.330964
557.017625	2610.806015
557.375050	2610.490943
557.732421	2613.752570
558.089735	2613.261057
558.446994	2612.318361
558.804197	2614.339864
559.161345	2613.782817
559.518437	2614.468413
559.875474	2614.589401
560.232455	2612.908176
560.589381	2609.253340
560.946251	2610.798453
561.303065	2611.708382
561.659825	2612.451952
562.016528	2610.932044
562.373177	2611.168978
562.729770	2609.525562
563.086307	2611.347939
563.442789	2608.411467
563.799216	2610.286776
564.155587	2607.919955
564.511904	2609.903649
564.868164	2610.788371
565.224370	2610.662342
565.580520	2608.545058
565.936615	2608.111518
566.292654	2607.458689
566.648638	2606.894080
567.004567	2606.737804
567.360441	2607.468771
567.716260	2607.357866
568.072023	2610.584204
568.427732	2604.786877
568.783385	2602.904007
569.138982	2602.752772
569.494525	2606.158071
569.850013	2605.391816
570.205445	2608.101436
570.560823	2605.482557
570.916145	2604.670931
571.271412	2607.839296
571.626625	2607.486415
571.981782	2604.738987
572.336884	2604.174377
572.691931	2605.543051
573.046923	2603.992896
573.401860	2603.556836
573.756743	2604.834768
574.111570	2605.684203
574.466342	2605.563215
574.821059	2600.653131
575.175722	2602.777978
575.530330	2604.955756
575.884882	2604.113883
576.239380	2602.914089
576.593823	2602.982144
576.948211	2602.901486
577.302544	2601.794953
577.656823	2602.634305
578.011047	2602.762854
578.365216	2599.370158
578.719330	2598.689602
579.073389	2600.771598
579.427394	2599.337390
579.781344	2599.730600
580.135239	2600.776640
580.489080	2599.786053
580.842866	2597.399067
581.196597	2598.893769
581.550273	2600.184304
581.903895	2599.705394
582.257463	2599.712956
582.610975	2598.324118
582.964434	2599.176073
583.317837	2599.841506
583.671186	2599.841506
584.024481	2599.849067
584.377721	2598.898810
584.730906	2597.225147
585.084037	2600.287648
585.437113	2599.788573
585.790135	2598.611464
586.143103	2594.777667
586.496016	2597.683892
586.848874	2590.971595
587.201679	2593.706421
587.554428	2593.247676
587.907124	2594.238263
588.259765	2592.564600
588.612352	2594.749940
588.964884	2594.664241
589.317362	2594.359251
589.669786	2594.351689
590.022155	2596.221957
590.374470	2595.710280
590.726731	2595.947214
591.078937	2598.329159
591.431090	2596.174066
591.783188	2594.563418
592.135232	2597.101638
592.487222	2595.639704
592.839157	2596.315218
593.191038	2593.716504
593.542866	2595.861515
593.894639	2592.035279
594.246358	2591.140474
594.598022	2594.865887
594.949633	2591.039651
595.301190	2592.181472
595.652692	2591.566452
596.004141	2592.254569
596.355535	2591.863880
596.706876	2591.836153
597.058162	2590.699373
597.409395	2592.589806
597.760573	2593.961000
598.111698	2589.116451
598.462768	2590.974116
598.813785	2590.180134
599.164748	2588.919846
599.515657	2590.948910
599.866511	2589.497058
600.217312	2591.682398
600.568060	2590.570824
600.918753	2591.493355
601.269392	2589.726430
601.619978	2591.359764
601.970510	2589.151739
602.320988	2588.750967
602.671412	2591.740371
603.021783	2590.152408
603.372100	2590.722058
603.722363	2590.190217
604.072572	2589.610484
604.422728	2590.550659
604.772830	2587.218456
605.122878	2584.201326
605.472872	2586.346337
605.822813	2585.512026
606.172701	2585.443970
606.522534	2588.884558
606.872314	2589.242480
607.222041	2589.197109
607.571714	2589.915474
607.921333	2590.170052
608.270899	2587.478076
608.620411	2591.788262
608.969870	2590.976637
609.319276	2592.189034
609.668627	2592.859507
610.017926	2596.468974
610.367171	2599.745724
610.716362	2597.729262
611.065500	2595.065012
611.414585	2596.363109
611.763616	2594.008891
612.112594	2591.637028
612.461518	2591.962182
612.810389	2591.032089
613.159207	2590.351533
613.507971	2590.621235
613.856682	2592.027717
614.205340	2591.921853
614.553945	2594.913778
614.902496	2592.259610
615.250994	2592.773808
615.599439	2590.129723
615.947830	2592.609970
616.296169	2592.340269
616.644454	2591.556369
616.992686	2593.358582
617.340864	2589.199630
617.688990	2586.426995
618.037063	2593.567790
618.385082	2590.487645
618.733048	2590.782552
619.080961	2590.946390
619.428821	2591.798345
619.776628	2589.721389
620.124382	2590.099476
620.472083	2589.239959
620.819731	2589.091245
621.167326	2590.538056
621.514868	2589.431523
621.862357	2591.861359
622.209793	2592.022676
622.557176	2588.385483
622.904506	2585.254927
623.251783	2581.716037
623.599007	2583.140163
623.946179	2586.298446
624.293297	2583.218301
624.640363	2583.810636
624.987376	2584.629824
625.334336	2586.406831
625.681243	2582.363825
626.028097	2583.956830
626.374899	2586.197623
626.721647	2583.324165
627.068343	2583.263671
627.414987	2584.536562
627.761577	2585.149063
628.108115	2580.987590
628.454600	2583.677046
628.801032	2584.453383
629.147412	2582.976325
629.493739	2582.540266
629.840014	2581.088413
630.186236	2585.529670
630.532405	2585.166707
630.878521	2580.942220
631.224585	2581.824422
631.570597	2580.289390
631.916556	2583.208218
632.262462	2583.414906
632.608316	2579.059349
632.954117	2579.208063
633.299866	2582.900708
633.645562	2581.879874
633.991206	2582.167220
634.336797	2575.079358
634.682336	2580.564133
635.027823	2577.645305
635.373257	2577.027764
635.718639	2578.482137
636.063968	2577.836869
636.409245	2579.729822
636.754470	2575.936354
637.099642	2577.640264
637.444762	2577.398289
637.789829	2575.679255
638.134845	2578.293093
638.479808	2574.744121
638.824719	2575.868298
639.169577	2574.242526
639.514383	2576.390058
639.859137	2573.834193
640.203839	2575.097002
640.548489	2573.072979
640.893086	2575.248237
641.237632	2570.461661
641.582125	2571.583318
641.926566	2567.663821
642.270955	2574.048442
642.615292	2575.817887
642.959576	2573.224213
643.303809	2572.102557
643.647990	2575.228072
643.992118	2572.057186
644.336195	2576.256467
