Dividing Wavelength (nm)	Counts (n)	Blue Motor Position (mm): 0.000000	Red Motor Position (mm): 12.100000	
326.493990	2129.506893
326.888308	2129.506893
327.282561	2129.506893
327.676750	2097.107397
328.070874	2097.775350
328.464933	2098.166039
328.858929	2106.115939
329.252859	2115.530294
329.646726	2125.017745
330.040528	2136.181381
330.434265	2154.977323
330.827938	2172.689417
331.221547	2189.922601
331.615091	2209.802391
332.008571	2231.189487
332.401986	2248.523494
332.795338	2266.427152
333.188625	2285.008845
333.581847	2305.964922
333.975006	2326.061481
334.368100	2341.376507
334.761129	2361.803262
335.154095	2376.049563
335.546996	2393.068498
335.939833	2410.644481
336.332606	2425.611667
336.725315	2433.833789
337.117960	2444.528597
337.510540	2454.568055
337.903056	2464.957873
338.295508	2470.742597
338.687896	2480.943372
339.080220	2487.562407
339.472480	2495.751761
339.864676	2500.399705
340.256807	2504.210817
340.648875	2508.173164
341.040879	2509.715757
341.432818	2510.411436
341.824694	2512.868999
342.216506	2513.516787
342.608253	2515.805471
342.999937	2512.790861
343.391557	2512.044770
343.783113	2510.539986
344.174605	2509.441014
344.566033	2510.582836
344.957397	2507.921106
345.348697	2505.783657
345.739934	2507.482526
346.131106	2503.255518
346.522215	2498.960455
346.913260	2500.946670
347.304241	2498.461381
347.695159	2495.653458
348.086012	2495.698829
348.476802	2492.817809
348.867528	2491.199599
349.258191	2490.546770
349.648789	2490.062819
350.039324	2487.416213
350.429796	2488.129536
350.820203	2485.515698
351.210548	2481.936479
351.600828	2486.077787
351.991045	2483.741212
352.381198	2482.367498
352.771288	2481.656695
353.161314	2481.724750
353.551276	2484.010914
353.941175	2481.908753
354.331010	2480.741725
354.720782	2482.145687
355.110490	2483.758856
355.500135	2479.609986
355.889717	2482.985039
356.279235	2481.659215
356.668689	2486.171048
357.058080	2484.293218
357.447408	2480.824904
357.836672	2480.650985
358.225873	2482.216263
358.615010	2479.640233
359.004084	2485.251038
359.393095	2484.724237
359.782043	2485.848414
360.170927	2486.952427
360.559748	2487.239773
360.948505	2487.459063
361.337199	2488.656337
361.725830	2488.121975
362.114398	2489.115082
362.502903	2489.735144
362.891344	2492.517861
363.279722	2491.116420
363.668037	2491.378560
364.056289	2493.906699
364.444478	2491.658344
364.832603	2492.510299
365.220665	2493.301760
365.608665	2495.666061
365.996601	2495.993736
366.384474	2494.781339
366.772284	2496.661689
367.160031	2500.462719
367.547715	2500.066989
367.935336	2501.554129
368.322893	2505.274501
368.710388	2509.125942
369.097820	2517.305214
369.485189	2518.936028
369.872495	2525.739065
370.259738	2530.220650
370.646918	2536.761547
371.034035	2544.754297
371.421090	2552.038764
371.808081	2564.787842
372.195010	2572.258832
372.581875	2587.026892
372.968678	2599.745724
373.355418	2611.904987
373.742096	2629.294447
374.128710	2643.253402
374.515262	2657.640855
374.901751	2674.581652
375.288177	2684.018692
375.674540	2708.317054
376.060841	2725.930846
376.447079	2746.947416
376.833254	2766.532299
377.219367	2778.442025
377.605417	2817.805874
377.991404	2827.719303
378.377329	2849.933148
378.763191	2864.323122
379.148991	2901.224368
379.534727	2923.506268
379.920402	2953.944755
380.306013	2964.926908
380.691563	3017.690145
381.077049	3037.161602
381.462474	3055.133315
381.847835	3092.573965
382.233134	3114.281173
382.618371	3115.904425
383.003545	3181.751976
383.388657	3188.330682
383.773706	3221.768656
384.158693	3235.399936
384.543618	3259.806682
384.928480	3292.453194
385.313280	3336.033969
385.698017	3329.775377
386.082692	3377.280690
386.467305	3379.400495
386.851856	3402.307498
387.236344	3416.694951
387.620770	3437.220009
388.005133	3450.879016
388.389435	3462.914770
388.773674	3463.295378
389.157851	3490.046260
389.541965	3490.860407
389.926018	3441.898200
390.310008	3494.691684
390.693936	3487.162720
391.077802	3503.370030
391.461606	3475.144610
391.845348	3499.937004
392.229027	3481.995538
392.612645	3470.289978
392.996200	3503.584279
393.379694	3504.395905
393.763125	3524.570602
394.146494	3470.312664
394.529801	3482.580312
394.913047	3483.238182
395.296230	3430.293464
395.679351	3432.554421
396.062410	3411.986514
396.445408	3366.865666
396.828343	3349.546782
397.211217	3327.975685
397.594028	3254.102616
397.976778	3250.614138
398.359466	3226.708986
398.742092	3202.753423
399.124656	3139.678506
399.507158	3138.098105
399.889598	3114.094651
400.271977	3103.964452
400.654294	3060.217319
401.036549	3029.310005
401.418742	2987.803664
401.800874	2985.177223
402.182944	2959.568162
402.564952	2942.506377
402.946898	2911.152920
403.328783	2880.333826
403.710606	2838.096519
404.092367	2843.828311
404.474067	2816.316213
404.855705	2792.295115
405.237282	2762.416197
405.618797	2755.091400
406.000250	2740.388875
406.381642	2724.738613
406.762972	2704.866384
407.144240	2687.197140
407.525447	2674.226251
407.906593	2659.301915
408.287677	2647.608959
408.668700	2632.034314
409.049661	2622.937552
409.430560	2610.674945
409.811399	2598.288830
410.192176	2596.489138
410.572891	2586.694176
410.953545	2579.762590
411.334138	2567.187432
411.714669	2565.702812
412.095139	2557.778118
412.475547	2552.058929
412.855894	2551.121274
413.236180	2544.489636
413.616405	2542.291693
413.996568	2542.798329
414.376670	2538.132741
414.756711	2535.402957
415.136691	2532.746268
415.516609	2531.826258
415.896466	2531.596885
416.276262	2534.064530
416.655997	2525.693694
417.035670	2525.418951
417.415283	2529.068747
417.794834	2524.829136
418.174324	2526.646472
418.553753	2528.640249
418.933121	2530.215609
419.312428	2529.444313
419.691674	2528.060516
420.070859	2527.095135
420.449983	2526.212933
420.829045	2527.095135
421.208047	2529.129241
421.586988	2527.382481
421.965867	2526.946421
422.344686	2526.706966
422.723444	2525.975999
423.102141	2523.715041
423.480777	2527.044723
423.859352	2527.135464
424.237866	2529.741741
424.616319	2528.000022
424.994712	2529.754344
425.373044	2526.512882
425.751314	2528.738551
426.129524	2526.220495
426.507673	2525.761750
426.885762	2526.490197
427.263789	2527.127903
427.641756	2528.385670
428.019662	2528.819210
428.397508	2527.710156
428.775292	2527.316946
429.153016	2526.593540
429.530679	2527.984899
429.908282	2528.163860
430.285824	2526.417100
430.663305	2530.359282
431.040726	2526.812830
431.418086	2529.575383
431.795385	2529.424148
432.172624	2530.008922
432.549802	2526.901051
432.926920	2529.431710
433.303977	2531.755682
433.680974	2527.823582
434.057910	2529.663603
434.434786	2529.691329
434.811601	2528.526823
435.188355	2532.625281
435.565050	2529.706453
435.941683	2529.835002
436.318257	2528.395753
436.694770	2527.223684
437.071222	2530.316432
437.447614	2527.753006
437.823946	2528.741072
438.200218	2530.558408
438.576429	2533.003367
438.952580	2531.980013
439.328670	2528.834333
439.704700	2530.238294
440.080670	2529.517409
440.456580	2530.613860
440.832429	2534.200641
441.208218	2531.402801
441.583947	2531.428007
441.959616	2532.927750
442.335224	2532.786598
442.710773	2531.695188
443.086261	2531.407842
443.461689	2530.812986
443.837057	2535.039993
444.212365	2532.658048
444.587612	2532.998326
444.962800	2533.136958
445.337927	2533.484797
445.712995	2531.120496
446.088002	2532.726104
446.462949	2531.601927
446.837837	2534.871115
447.212664	2532.925229
447.587431	2534.697195
447.962139	2533.817514
448.336786	2541.500232
448.711374	2536.900179
449.085901	2536.804397
449.460369	2535.599562
449.834776	2531.841381
450.209124	2534.049407
450.583412	2535.839016
450.957640	2537.369007
451.331808	2535.788605
451.705917	2533.686444
452.079965	2535.405477
452.453954	2534.677030
452.827883	2536.368338
453.201752	2534.629139
453.575562	2535.407998
453.949311	2537.240457
454.323001	2533.257946
454.696632	2536.585107
455.070202	2535.438245
455.443713	2534.266176
455.817164	2536.436393
456.190556	2533.220137
456.563888	2534.556043
456.937160	2530.538243
457.310373	2534.951773
457.683526	2537.623585
458.056619	2535.425642
458.429653	2537.457227
458.802628	2536.519572
459.175542	2536.227185
459.548398	2537.520241
459.921194	2540.373534
460.293930	2541.303627
460.666607	2538.772968
461.039224	2541.870757
461.411782	2541.517876
461.784280	2542.208514
462.156719	2542.521066
462.529099	2541.981662
462.901419	2539.110725
463.273680	2541.449821
463.645882	2539.314892
464.018024	2540.804553
464.390106	2538.810777
464.762130	2543.481406
465.134094	2541.548123
465.505999	2545.986859
465.877845	2550.070194
466.249631	2551.138918
466.621358	2549.402241
466.993026	2547.531973
467.364634	2552.472303
467.736184	2546.990049
468.107674	2544.469472
468.479105	2542.001827
468.850477	2542.997455
469.221790	2548.867878
469.593043	2543.678011
469.964238	2546.707744
470.335373	2546.256561
470.706449	2549.331665
471.077467	2541.485109
471.448425	2550.251675
471.819324	2548.837632
472.190164	2551.101110
472.560945	2547.100954
472.931667	2546.102806
473.302330	2543.214224
473.672934	2545.724719
474.043479	2544.814791
474.413965	2545.276056
474.784393	2541.575849
475.154761	2543.138607
475.525070	2540.118956
475.895321	2543.975439
476.265513	2542.700027
476.635645	2546.921993
477.005719	2547.284956
477.375734	2545.754966
477.745691	2546.228834
478.115588	2545.858310
478.485427	2545.404606
478.855207	2546.642209
479.224928	2552.058929
479.594591	2552.580688
479.964194	2548.676315
480.333739	2553.150339
480.703226	2551.257385
481.072653	2551.925338
481.442022	2549.893753
481.811333	2552.482386
482.180584	2547.600028
482.549777	2549.346788
482.918912	2549.734957
483.287988	2551.380894
483.657005	2548.913249
484.025964	2549.225800
484.394864	2548.172199
484.763706	2551.295194
485.132489	2550.831408
485.501213	2549.220759
485.869879	2548.497354
486.238487	2546.755635
486.607036	2547.796633
486.975527	2552.613456
487.343959	2549.976932
487.712333	2550.901984
488.080648	2547.746222
488.448905	2549.929041
488.817104	2549.762683
489.185244	2549.646737
489.553326	2549.422405
489.921350	2552.139587
490.289315	2552.522715
490.657222	2553.765359
491.025070	2553.445246
491.392861	2555.597819
491.760593	2556.742161
492.128267	2553.117571
492.495883	2551.567416
492.863440	2551.678322
493.230939	2552.767211
493.598380	2550.355019
493.965763	2543.201622
494.333088	2546.707744
494.700354	2546.490974
495.067563	2548.799823
495.434713	2548.378887
495.801805	2555.350802
496.168839	2550.160934
496.535815	2551.572458
496.902733	2549.422405
497.269593	2549.024154
497.636395	2549.676984
498.003139	2549.918959
498.369825	2548.986346
498.736453	2546.228834
499.103023	2548.701520
499.469535	2550.924669
499.835989	2549.929041
500.202385	2550.677653
500.568723	2548.865358
500.935003	2549.732436
501.301226	2550.967519
501.667390	2549.787889
502.033497	2550.029864
502.399546	2552.043805
502.765537	2548.825029
503.131470	2550.851572
503.497345	2547.458876
503.863163	2550.377704
504.228923	2551.322920
504.594625	2547.801674
504.960269	2549.608928
505.325856	2551.990873
505.691385	2548.963660
506.056856	2550.206305
506.422270	2549.843342
506.787625	2548.046170
507.152924	2552.817622
507.518164	2549.354350
507.883347	2548.172199
508.248472	2551.932900
508.613540	2548.346119
508.978550	2552.235369
509.343503	2550.004659
509.708398	2552.885678
510.073236	2551.912735
510.438016	2552.928528
510.802738	2551.317879
511.167403	2551.690925
511.532010	2552.021120
511.896561	2553.132695
512.261053	2555.302911
512.625488	2547.743701
512.989866	2546.808567
513.354186	2551.007848
513.718449	2545.891077
514.082655	2552.192519
514.446803	2550.909546
514.810894	2552.976419
515.174927	2554.544218
515.538904	2549.195553
515.902822	2551.398538
516.266684	2553.271326
516.630488	2551.736295
516.994235	2550.319731
517.357925	2551.673281
517.721558	2552.989022
518.085133	2550.415513
518.448651	2552.265616
518.812112	2550.486089
519.175516	2554.907181
519.538863	2553.052036
519.902152	2554.271995
520.265385	2552.081614
520.628560	2552.696635
520.991678	2550.614638
521.354739	2554.161090
521.717743	2550.574309
522.080690	2550.405430
522.443580	2553.553631
522.806413	2554.395504
523.169189	2552.812581
523.531908	2553.762839
523.894569	2550.249155
524.257174	2552.227807
524.619722	2552.956254
524.982213	2553.470452
525.344647	2552.699155
525.707025	2554.667726
526.069345	2551.716130
526.431608	2555.464228
526.793815	2553.447767
527.155964	2551.968188
527.518057	2551.706048
527.880093	2553.344423
528.242072	2552.308466
528.603995	2554.662685
528.965860	2552.676470
529.327669	2552.595812
529.689421	2554.266954
530.051117	2553.891388
530.412755	2550.085317
530.774337	2552.310987
531.135862	2552.137067
531.497331	2554.082952
531.858743	2549.394679
532.220098	2550.985163
532.581396	2549.462735
532.942638	2547.189174
533.303824	2553.316697
533.664953	2553.901471
534.026025	2551.040616
534.387040	2551.547252
534.747999	2551.932900
535.108902	2551.791748
535.469748	2552.631100
535.830537	2553.074721
536.191270	2554.249310
536.551947	2552.348795
536.912567	2553.044474
537.273131	2553.364588
537.633638	2551.532128
537.994089	2551.484237
538.354483	2554.433312
538.714821	2551.837118
539.075103	2551.670760
539.435328	2552.875596
539.795497	2552.389124
540.155609	2556.744681
540.515665	2554.944989
540.875665	2550.675132
541.235609	2554.894578
541.595496	2554.128322
541.955328	2552.835267
542.315102	2553.873744
542.674821	2554.052705
543.034483	2556.046482
543.394090	2551.393497
543.753640	2551.895091
544.113134	2552.585729
544.472571	2551.887530
544.831953	2552.840308
545.191278	2556.593447
545.550548	2554.226625
545.909761	2552.626059
546.268918	2554.090514
546.628019	2555.796944
546.987064	2553.646892
547.346053	2553.238559
547.704986	2551.809392
548.063863	2555.544887
548.422684	2554.733261
548.781449	2555.713765
549.140158	2551.867365
549.498811	2554.781152
549.857408	2551.794268
550.215949	2546.541386
550.574434	2549.230842
550.932864	2550.168496
551.291237	2548.630944
551.649555	2551.801830
552.007817	2551.562375
552.366022	2552.179917
552.724173	2553.170503
553.082267	2553.561193
553.440305	2554.055226
553.798288	2553.407438
554.156215	2551.980791
554.514086	2557.601677
554.871902	2554.244269
555.229661	2552.613456
555.587365	2554.236707
555.945014	2552.172355
556.302606	2554.541697
556.660143	2552.056408
557.017625	2551.995914
557.375050	2553.714948
557.732421	2553.402396
558.089735	2553.926676
558.446994	2553.964485
558.804197	2551.723692
559.161345	2554.496327
559.518437	2552.996583
559.875474	2550.619679
560.232455	2555.370967
560.589381	2551.935421
560.946251	2557.596636
561.303065	2553.278888
561.659825	2553.863662
562.016528	2552.545400
562.373177	2552.721841
562.729770	2552.799978
563.086307	2549.984494
563.442789	2553.730071
563.799216	2554.282078
564.155587	2552.137067
564.511904	2555.761656
564.868164	2554.110678
565.224370	2556.127140
565.580520	2552.603373
565.936615	2552.316028
566.292654	2554.355174
566.648638	2555.224773
567.004567	2551.690925
567.360441	2553.132695
567.716260	2550.652447
568.072023	2553.780483
568.427732	2549.500543
568.783385	2551.373332
569.138982	2550.203784
569.494525	2550.967519
569.850013	2547.385779
570.205445	2554.319886
570.560823	2554.650082
570.916145	2555.083621
571.271412	2554.614794
571.626625	2554.004814
571.981782	2554.766028
572.336884	2553.662016
572.691931	2554.156049
573.046923	2551.637992
573.401860	2553.961964
573.756743	2551.620348
574.111570	2553.120092
574.466342	2550.460883
574.821059	2553.596481
575.175722	2553.528425
575.530330	2551.146480
575.884882	2552.656306
576.239380	2552.091696
576.593823	2556.227963
576.948211	2554.002294
577.302544	2553.858621
577.656823	2550.339895
578.011047	2553.074721
578.365216	2554.229146
578.719330	2553.667057
579.073389	2552.852911
579.427394	2551.842159
579.781344	2549.729916
580.135239	2552.845349
580.489080	2550.642365
580.842866	2554.526574
581.196597	2554.239228
581.550273	2550.450801
581.903895	2552.825184
582.257463	2554.894578
582.610975	2553.228477
582.964434	2551.393497
583.317837	2552.936090
583.671186	2553.281409
584.024481	2553.535987
584.377721	2554.236707
584.730906	2553.727551
585.084037	2549.929041
585.437113	2550.511295
585.790135	2550.818805
586.143103	2551.945503
586.496016	2551.600184
586.848874	2548.928372
587.201679	2549.989535
587.554428	2547.385779
587.907124	2550.992725
588.259765	2548.701520
588.612352	2552.121943
588.964884	2550.448280
589.317362	2550.536500
589.669786	2550.327293
590.022155	2554.125802
590.374470	2552.593291
590.726731	2550.914587
591.078937	2551.113713
591.431090	2551.290153
591.783188	2550.365101
592.135232	2548.782179
592.487222	2549.878630
592.839157	2549.329144
593.191038	2550.410472
593.542866	2554.700493
593.894639	2549.150183
594.246358	2553.329300
594.598022	2548.832590
594.949633	2549.866027
595.301190	2549.482899
595.652692	2552.605894
596.004141	2552.575647
596.355535	2550.155893
596.706876	2548.625903
597.058162	2551.625390
597.409395	2548.958619
597.760573	2550.009700
598.111698	2549.387117
598.462768	2550.997766
598.813785	2550.297046
599.164748	2551.481717
599.515657	2550.758311
599.866511	2548.915769
600.217312	2549.215718
600.568060	2549.636654
600.918753	2550.823846
601.269392	2552.293342
601.619978	2550.786037
601.970510	2551.892571
602.320988	2550.002138
602.671412	2548.353681
603.021783	2551.655637
603.372100	2551.723692
603.722363	2547.267312
604.072572	2549.702189
604.422728	2554.718138
604.772830	2546.990049
605.122878	2545.563402
605.472872	2549.263609
605.822813	2543.216745
606.172701	2548.210008
606.522534	2547.552137
606.872314	2551.002807
607.222041	2550.554144
607.571714	2550.153373
607.921333	2550.861655
608.270899	2550.150852
608.620411	2548.547765
608.969870	2550.004659
609.319276	2553.717468
609.668627	2555.668395
610.017926	2555.126471
610.367171	2558.564538
610.716362	2557.296688
611.065500	2553.251162
611.414585	2553.936759
611.763616	2553.956923
612.112594	2549.538352
612.461518	2551.675801
612.810389	2553.339382
613.159207	2552.502550
613.507971	2550.710420
613.856682	2550.743188
614.205340	2548.295707
614.553945	2549.314021
614.902496	2551.958106
615.250994	2549.971891
615.599439	2551.993394
615.947830	2551.075904
616.296169	2551.592622
616.644454	2553.611604
616.992686	2548.361242
617.340864	2551.224618
617.688990	2550.516336
618.037063	2550.977601
618.385082	2549.911397
618.733048	2550.052550
619.080961	2549.734957
619.428821	2551.895091
619.776628	2550.932231
620.124382	2549.687066
620.472083	2550.780996
620.819731	2550.707900
621.167326	2549.016593
621.514868	2550.667570
621.862357	2552.071532
622.209793	2548.651109
622.557176	2550.793599
622.904506	2548.371325
623.251783	2545.119781
623.599007	2545.989380
623.946179	2546.032229
624.293297	2545.369318
624.640363	2546.985007
624.987376	2548.444422
625.334336	2549.306459
625.681243	2549.603887
626.028097	2549.505584
626.374899	2550.536500
626.721647	2546.601880
627.068343	2551.537169
627.414987	2546.838814
627.761577	2548.492312
628.108115	2547.446273
628.454600	2546.727909
628.801032	2549.311500
629.147412	2548.588094
629.493739	2549.908877
629.840014	2549.031716
630.186236	2549.291335
630.532405	2551.085986
630.878521	2548.497354
631.224585	2549.009031
631.570597	2547.703372
631.916556	2547.877292
632.262462	2548.164638
632.608316	2547.226983
632.954117	2547.990718
633.299866	2547.126160
633.645562	2549.384597
633.991206	2547.395862
634.336797	2546.062476
634.682336	2546.659853
635.027823	2548.557847
635.373257	2545.933927
635.718639	2546.894267
636.063968	2547.990718
636.409245	2546.828732
636.754470	2547.710934
637.099642	2547.501726
637.444762	2546.682538
637.789829	2547.065666
638.134845	2544.887888
638.479808	2547.375697
638.824719	2546.649771
639.169577	2545.137425
639.514383	2546.075079
639.859137	2546.213711
640.203839	2544.645912
640.548489	2544.449307
640.893086	2545.384441
641.237632	2541.769934
641.582125	2542.183308
641.926566	2539.571991
642.270955	2543.935109
642.615292	2545.603731
642.959576	2545.770089
643.303809	2545.754966
643.647990	2545.870912
643.992118	2546.611962
644.336195	2546.407795
