Dividing Wavelength (nm)	Counts (n)	Blue Motor Position (mm): 0.000000	Red Motor Position (mm): 15.400000	
326.493990	2127.034207
326.888308	2127.034207
327.282561	2127.034207
327.676750	2095.484146
328.070874	2093.548343
328.464933	2097.709815
328.858929	2103.799529
329.252859	2113.914604
329.646726	2125.249638
330.040528	2138.565846
330.434265	2156.731644
330.827938	2173.753100
331.221547	2190.512416
331.615091	2205.051104
332.008571	2229.402398
332.401986	2249.559451
332.795338	2266.646442
333.188625	2287.050512
333.581847	2306.463996
333.975006	2323.961841
334.368100	2343.208966
334.761129	2360.311081
335.154095	2376.490664
335.546996	2393.917933
335.939833	2410.692372
336.332606	2424.943714
336.725315	2438.116249
337.117960	2445.859461
337.510540	2455.790534
337.903056	2466.666824
338.295508	2469.983903
338.687896	2481.666777
339.080220	2490.503920
339.472480	2495.474498
339.864676	2499.310816
340.256807	2504.999758
340.648875	2507.485047
341.040879	2508.856240
341.432818	2511.696931
341.824694	2515.326561
342.216506	2513.020233
342.608253	2514.247754
342.999937	2514.678773
343.391557	2516.128105
343.783113	2511.770027
344.174605	2511.941427
344.566033	2510.983607
344.957397	2507.679131
345.348697	2507.795077
345.739934	2504.581342
346.131106	2501.501197
346.522215	2501.997751
346.913260	2499.209992
347.304241	2497.669920
347.695159	2497.490959
348.086012	2495.857625
348.476802	2493.087511
348.867528	2492.843015
349.258191	2490.145998
349.648789	2487.978302
350.039324	2488.487458
350.429796	2488.578199
350.820203	2485.566110
351.210548	2484.971253
351.600828	2484.741881
351.991045	2484.535194
352.381198	2482.816160
352.771288	2484.023517
353.161314	2482.407827
353.551276	2482.705255
353.941175	2482.559061
354.331010	2482.551500
354.720782	2482.599391
355.110490	2482.223825
355.500135	2481.308855
355.889717	2483.816829
356.279235	2482.062508
356.668689	2484.366315
357.058080	2485.556027
357.447408	2479.667960
357.836672	2479.980511
358.225873	2485.936634
358.615010	2476.975983
359.004084	2484.613332
359.393095	2487.806903
359.782043	2486.571820
360.170927	2488.807572
360.559748	2488.174907
360.948505	2487.459063
361.337199	2488.356388
361.725830	2492.996770
362.114398	2490.148518
362.502903	2491.129023
362.891344	2492.646410
363.279722	2491.499548
363.668037	2493.266472
364.056289	2494.970382
364.444478	2494.526761
364.832603	2495.547594
365.220665	2497.077584
365.608665	2495.769405
365.996601	2496.641525
366.384474	2495.930722
366.772284	2500.974396
367.160031	2497.019611
367.547715	2503.018584
367.935336	2506.350787
368.322893	2506.847341
368.710388	2510.827332
369.097820	2518.671367
369.485189	2520.002232
369.872495	2527.556401
370.259738	2529.910619
370.646918	2538.909079
371.034035	2546.080120
371.421090	2555.433981
371.808081	2568.619119
372.195010	2577.985583
372.581875	2592.085690
372.968678	2603.839141
373.355418	2612.333485
373.742096	2631.668830
374.128710	2645.746252
374.515262	2660.821823
374.901751	2677.465192
375.288177	2687.295442
375.674540	2714.011037
376.060841	2728.403532
376.447079	2750.062849
376.833254	2769.476332
377.219367	2782.767335
377.605417	2818.191523
377.991404	2830.464212
378.377329	2851.964733
378.763191	2867.683051
379.148991	2905.975655
379.534727	2932.935746
379.920402	2958.905250
380.306013	2971.349338
380.691563	3019.152080
381.077049	3042.903476
381.462474	3061.560786
381.847835	3097.529419
382.233134	3119.864251
382.618371	3119.415588
383.003545	3190.866382
383.388657	3193.240766
383.773706	3226.777042
384.158693	3247.511308
384.543618	3269.634411
384.928480	3310.046821
385.313280	3353.791434
385.698017	3348.601566
386.082692	3403.885379
386.467305	3409.433169
386.851856	3440.685803
387.236344	3461.440233
387.620770	3495.732682
388.005133	3517.863347
388.389435	3546.267729
388.773674	3559.604101
389.157851	3601.806121
389.541965	3614.469499
389.926018	3579.380548
390.310008	3650.806136
390.693936	3668.349351
391.077802	3706.445351
391.461606	3697.721634
391.845348	3762.271089
392.229027	3758.391921
392.612645	3768.844753
392.996200	3849.898945
393.379694	3887.248854
393.763125	3950.532979
394.146494	3914.322371
394.529801	3972.280517
394.913047	4021.159544
395.296230	3980.905931
395.679351	4031.259496
396.062410	4046.004871
396.445408	4021.290614
396.828343	4047.799522
397.211217	4060.840987
397.594028	3967.083087
397.976778	4021.388917
398.359466	4036.366185
398.742092	4050.103329
399.124656	3963.576965
399.507158	4020.539482
399.889598	4030.384856
400.271977	4065.287285
400.654294	4019.097712
401.036549	4004.251514
401.418742	3953.774441
401.800874	4017.885315
402.182944	4012.234182
402.564952	4038.506155
402.946898	4001.917460
403.328783	3970.644662
403.710606	3871.858212
404.092367	3987.101509
404.474067	3929.944907
404.855705	3904.040938
405.237282	3818.880726
405.618797	3856.921273
406.000250	3843.698326
406.381642	3862.335472
406.762972	3802.154177
407.144240	3766.419958
407.525447	3726.511664
407.906593	3722.521591
408.287677	3708.310578
408.668700	3624.725727
409.049661	3613.650312
409.430560	3590.188782
409.811399	3510.979652
410.192176	3544.079868
410.572891	3480.682317
410.953545	3474.751400
411.334138	3389.235786
411.714669	3377.457130
412.095139	3301.817138
412.475547	3305.872746
412.855894	3259.224429
413.236180	3222.608008
413.616405	3173.993641
413.996568	3164.022238
414.376670	3109.514762
414.756711	3064.729152
415.136691	3039.639329
415.516609	3025.365302
415.896466	3003.272445
416.276262	2979.818477
416.655997	2939.516972
417.035670	2939.476643
417.415283	2931.196548
417.794834	2892.409910
418.174324	2861.432020
418.553753	2824.823161
418.933121	2822.650423
419.312428	2805.485294
419.691674	2774.968670
420.070859	2764.102462
420.449983	2737.580952
420.829045	2728.390929
421.208047	2705.534337
421.586988	2692.099662
421.965867	2675.877229
422.344686	2667.728204
422.723444	2647.770276
423.102141	2630.768984
423.480777	2630.385857
423.859352	2614.702827
424.237866	2611.514297
424.616319	2601.852926
424.994712	2598.314036
425.373044	2586.747108
425.751314	2581.781572
426.129524	2572.367217
426.507673	2569.362689
426.885762	2568.024263
427.263789	2562.499158
427.641756	2557.261400
428.019662	2553.740154
428.397508	2551.746377
428.775292	2550.642365
429.153016	2550.584391
429.530679	2547.557178
429.908282	2547.486602
430.285824	2542.939482
430.663305	2547.312682
431.040726	2538.117618
431.418086	2539.682896
431.795385	2540.996117
432.172624	2537.724408
432.549802	2540.003009
432.926920	2540.383617
433.303977	2540.060983
433.680974	2535.791125
434.057910	2537.316074
434.434786	2537.671476
434.811601	2536.469161
435.188355	2535.599562
435.565050	2535.602082
435.941683	2535.390354
436.318257	2535.259284
436.694770	2532.973120
437.071222	2531.354910
437.447614	2533.089067
437.823946	2533.920857
438.200218	2534.808100
438.576429	2537.129552
438.952580	2535.965045
439.328670	2536.937988
439.704700	2535.266845
440.080670	2535.342463
440.456580	2534.026722
440.832429	2538.410005
441.208218	2535.420601
441.583947	2538.571322
441.959616	2536.645601
442.335224	2534.654345
442.710773	2537.394212
443.086261	2534.437576
443.461689	2534.664427
443.837057	2535.410518
444.212365	2535.942360
444.587612	2536.706095
444.962800	2536.922864
445.337927	2537.553009
445.712995	2536.549819
446.088002	2541.346477
446.462949	2536.673327
446.837837	2538.364634
447.212664	2537.089222
447.587431	2537.815149
447.962139	2542.120294
448.336786	2545.376879
448.711374	2540.532331
449.085901	2538.591486
449.460369	2538.168029
449.834776	2538.838503
450.209124	2538.820859
450.583412	2543.378062
450.957640	2538.904038
451.331808	2543.186498
451.705917	2540.766744
452.079965	2540.663401
452.453954	2540.970911
452.827883	2539.929913
453.201752	2542.662218
453.575562	2541.469985
453.949311	2537.691640
454.323001	2540.391178
454.696632	2541.096940
455.070202	2542.203473
455.443713	2540.587783
455.817164	2540.123997
456.190556	2539.571991
456.563888	2539.859337
456.937160	2536.612833
457.310373	2541.815304
457.683526	2539.390509
458.056619	2540.292876
458.429653	2541.233051
458.802628	2541.636343
459.175542	2540.933102
459.548398	2544.643392
459.921194	2543.640202
460.293930	2544.144317
460.666607	2545.054246
461.039224	2546.453166
461.411782	2547.448794
461.784280	2548.540203
462.156719	2551.650595
462.529099	2550.266799
462.901419	2549.644216
463.273680	2546.019627
463.645882	2546.014585
464.018024	2546.785882
464.390106	2549.437529
464.762130	2547.998279
465.134094	2550.770914
465.505999	2553.651933
465.877845	2557.790721
466.249631	2561.642162
466.621358	2558.322563
466.993026	2560.404559
467.364634	2562.710887
467.736184	2555.534804
468.107674	2555.439022
468.479105	2555.048333
468.850477	2555.020607
469.221790	2553.979608
469.593043	2552.898281
469.964238	2555.963302
470.335373	2550.551624
470.706449	2555.587737
471.077467	2554.105637
471.448425	2561.833726
471.819324	2562.536967
472.190164	2564.989488
472.560945	2555.703683
472.931667	2555.832233
473.302330	2554.214022
473.672934	2553.601522
474.043479	2553.725030
474.413965	2553.709907
474.784393	2552.575647
475.154761	2554.370298
475.525070	2551.963147
475.895321	2553.046995
476.265513	2553.178065
476.635645	2557.503375
477.005719	2554.685370
477.375734	2555.938097
477.745691	2555.862479
478.115588	2558.783828
478.485427	2559.913047
478.855207	2560.318859
479.224928	2563.837585
479.594591	2563.693912
479.964194	2565.959911
480.333739	2567.389078
480.703226	2565.785991
481.072653	2564.928995
481.442022	2566.302709
481.811333	2563.134344
482.180584	2565.866649
482.549777	2564.071998
482.918912	2564.553429
483.287988	2561.632080
483.657005	2564.714746
484.025964	2561.382543
484.394864	2563.051165
484.763706	2560.497820
485.132489	2559.030845
485.501213	2561.251473
485.869879	2562.189127
486.238487	2560.180228
486.607036	2560.364230
486.975527	2559.676112
487.343959	2562.093346
487.712333	2563.462019
488.080648	2558.869528
488.448905	2561.634601
488.817104	2558.239383
489.185244	2560.984292
489.553326	2563.106618
489.921350	2561.843808
490.289315	2566.784139
490.657222	2569.498801
491.025070	2566.630384
491.392861	2568.160374
491.760593	2565.733059
492.128267	2564.687019
492.495883	2564.694581
492.863440	2561.715259
493.230939	2561.498489
493.598380	2562.151319
493.965763	2556.664023
494.333088	2556.666543
494.700354	2559.000598
495.067563	2558.685526
495.434713	2557.223591
495.801805	2559.754250
496.168839	2558.264589
496.535815	2560.875907
496.902733	2562.877245
497.269593	2562.375650
497.636395	2562.201730
498.003139	2560.941442
498.369825	2560.283571
498.736453	2560.205433
499.103023	2563.494786
499.469535	2559.963458
499.835989	2560.734755
500.202385	2560.475135
500.568723	2562.481514
500.935003	2559.761812
501.301226	2561.014539
501.667390	2562.088304
502.033497	2561.551422
502.399546	2559.219888
502.765537	2560.502862
503.131470	2560.502862
503.497345	2561.906823
503.863163	2561.967317
504.228923	2561.790876
504.594625	2559.461863
504.960269	2565.289437
505.325856	2559.628221
505.691385	2560.533108
506.056856	2562.030331
506.422270	2562.529405
506.787625	2562.473953
507.152924	2562.078222
507.518164	2561.649724
507.883347	2560.704508
508.248472	2560.845660
508.613540	2562.632749
508.978550	2560.543191
509.343503	2560.633932
509.708398	2562.116031
510.073236	2562.262224
510.438016	2561.127965
510.802738	2562.859601
511.167403	2561.546380
511.532010	2560.417162
511.896561	2560.777604
512.261053	2562.925136
512.625488	2559.847512
512.989866	2557.967161
513.354186	2561.783315
513.718449	2559.325752
514.082655	2565.601989
514.446803	2562.103428
514.810894	2561.647203
515.174927	2566.232133
515.538904	2559.209806
515.902822	2564.747513
516.266684	2563.509910
516.630488	2561.480845
516.994235	2564.404715
517.357925	2563.739282
517.721558	2563.509910
518.085133	2562.746175
518.448651	2561.667368
518.812112	2560.696946
519.175516	2564.581155
519.538863	2562.131154
519.902152	2561.874055
520.265385	2563.751885
520.628560	2562.307595
520.991678	2564.155177
521.354739	2565.264231
521.717743	2562.047975
522.080690	2566.000240
522.443580	2565.828841
522.806413	2564.770198
523.169189	2566.123748
523.531908	2562.776422
523.894569	2565.256670
524.257174	2562.988150
524.619722	2561.594271
524.982213	2564.858418
525.344647	2563.852708
525.707025	2561.876576
526.069345	2563.678788
526.431608	2564.324056
526.793815	2563.013356
527.155964	2564.394632
527.518057	2566.416135
527.880093	2566.065775
528.242072	2562.073181
528.603995	2565.901937
528.965860	2566.090981
529.327669	2564.586196
529.689421	2563.716597
530.051117	2563.971175
530.412755	2563.441854
530.774337	2563.033521
531.135862	2563.923284
531.497331	2560.701987
531.858743	2557.813406
532.220098	2557.800803
532.581396	2561.206102
532.942638	2560.240722
533.303824	2560.545711
533.664953	2561.758109
534.026025	2559.298026
534.387040	2565.092832
534.747999	2562.819272
535.108902	2564.283727
535.469748	2562.766340
535.830537	2564.150136
536.191270	2562.935218
536.551947	2565.816238
536.912567	2562.801628
537.273131	2562.910012
537.633638	2562.925136
537.994089	2564.109807
538.354483	2562.166442
538.714821	2564.195507
539.075103	2563.898079
539.435328	2560.263407
539.795497	2561.599312
540.155609	2561.503531
540.515665	2564.283727
540.875665	2560.303736
541.235609	2561.407749
541.595496	2562.501679
541.955328	2559.711400
542.315102	2561.163253
542.674821	2562.904971
543.034483	2564.520661
543.394090	2562.980589
543.753640	2563.149467
544.113134	2562.284909
544.472571	2560.049158
544.831953	2563.580486
545.191278	2563.769529
545.550548	2560.570917
545.909761	2563.368757
546.268918	2564.840774
546.628019	2563.880435
546.987064	2562.534447
547.346053	2563.192317
547.704986	2563.956052
548.063863	2562.907492
548.422684	2563.368757
548.781449	2563.532595
549.140158	2562.973027
549.498811	2562.204251
549.857408	2562.269786
550.215949	2561.105279
550.574434	2559.746688
550.932864	2558.884651
551.291237	2558.322562
551.649555	2562.189127
552.007817	2562.718449
552.366022	2565.949828
552.724173	2563.222564
553.082267	2564.624005
553.440305	2562.330280
553.798288	2562.484035
554.156215	2561.841288
554.514086	2563.081412
554.871902	2562.002605
555.229661	2561.042265
555.587365	2563.129303
555.945014	2561.894220
556.302606	2560.901113
556.660143	2562.337842
557.017625	2562.015208
557.375050	2562.715928
557.732421	2562.123593
558.089735	2563.424210
558.446994	2560.938921
558.804197	2562.174004
559.161345	2562.463870
559.518437	2560.994374
559.875474	2560.081925
560.232455	2562.277348
560.589381	2561.838767
560.946251	2563.356155
561.303065	2562.756257
561.659825	2558.357851
562.016528	2562.312636
562.373177	2560.245763
562.729770	2563.993861
563.086307	2560.233160
563.442789	2561.715259
563.799216	2561.831206
564.155587	2560.674261
564.511904	2559.872717
564.868164	2560.361709
565.224370	2564.651731
565.580520	2561.942111
565.936615	2563.257852
566.292654	2561.448078
566.648638	2562.715928
567.004567	2560.142419
567.360441	2561.107800
567.716260	2562.549570
568.072023	2561.990002
568.427732	2557.949517
568.783385	2559.013201
569.138982	2557.044630
569.494525	2560.223078
569.850013	2558.758622
570.205445	2561.158212
570.560823	2561.208623
570.916145	2559.814744
571.271412	2559.779456
571.626625	2563.603171
571.981782	2560.959086
572.336884	2564.402194
572.691931	2558.957748
573.046923	2561.848850
573.401860	2557.894064
573.756743	2562.179045
574.111570	2558.045299
574.466342	2560.908674
574.821059	2559.197203
575.175722	2562.158881
575.530330	2560.291133
575.884882	2561.291802
576.239380	2559.209806
576.593823	2561.992523
576.948211	2557.397511
577.302544	2560.412121
577.656823	2559.623180
578.011047	2561.319528
578.365216	2563.388922
578.719330	2561.740465
579.073389	2556.709393
579.427394	2560.306257
579.781344	2556.737120
580.135239	2559.121585
580.489080	2557.752912
580.842866	2559.698798
581.196597	2561.677450
581.550273	2561.495969
581.903895	2557.001780
582.257463	2561.188458
582.610975	2557.783159
582.964434	2558.647717
583.317837	2559.628221
583.671186	2559.537481
584.024481	2557.639486
584.377721	2558.408262
584.730906	2559.764332
585.084037	2559.991184
585.437113	2560.825495
585.790135	2560.149981
586.143103	2561.548901
586.496016	2560.109652
586.848874	2557.173179
587.201679	2555.615463
587.554428	2553.881306
587.907124	2556.306101
588.259765	2551.673281
588.612352	2557.092521
588.964884	2557.130330
589.317362	2556.648899
589.669786	2557.049671
590.022155	2557.810885
590.374470	2558.372974
590.726731	2559.708880
591.078937	2558.942624
591.431090	2557.044630
591.783188	2558.042778
592.135232	2557.805844
592.487222	2556.333827
592.839157	2556.996739
593.191038	2558.987995
593.542866	2555.867521
593.894639	2556.343910
594.246358	2557.291647
594.598022	2555.938097
594.949633	2555.078580
595.301190	2556.260731
595.652692	2556.853066
596.004141	2558.904816
596.355535	2555.118909
596.706876	2557.642007
597.058162	2555.093703
597.409395	2556.442212
597.760573	2554.574465
598.111698	2556.585885
598.462768	2558.604867
598.813785	2555.837274
599.164748	2558.751061
599.515657	2556.321224
599.866511	2554.718138
600.217312	2555.532284
600.568060	2556.916081
600.918753	2556.885834
601.269392	2555.514640
601.619978	2556.603529
601.970510	2557.636966
602.320988	2553.793086
602.671412	2557.558828
603.021783	2556.905998
603.372100	2556.991698
603.722363	2556.086811
604.072572	2555.549928
604.422728	2556.966492
604.772830	2554.045143
605.122878	2551.562375
605.472872	2553.185627
605.822813	2550.082797
606.172701	2553.137736
606.522534	2555.025648
606.872314	2556.759805
607.222041	2555.980947
607.571714	2555.597819
607.921333	2556.290978
608.270899	2554.670247
608.620411	2554.977757
608.969870	2558.090669
609.319276	2557.311811
609.668627	2559.267779
610.017926	2562.294992
610.367171	2562.310115
610.716362	2565.841443
611.065500	2565.304561
611.414585	2560.291133
611.763616	2559.706359
612.112594	2558.118396
612.461518	2559.998746
612.810389	2555.552448
613.159207	2558.904816
613.507971	2556.530432
613.856682	2559.895403
614.205340	2556.298539
614.553945	2558.710731
614.902496	2555.865000
615.250994	2556.296019
615.599439	2553.964485
615.947830	2556.837943
616.296169	2553.843497
616.644454	2557.760474
616.992686	2555.078580
617.340864	2555.612942
617.688990	2557.301729
618.037063	2556.774928
618.385082	2554.261913
618.733048	2556.883313
619.080961	2556.890875
619.428821	2557.911708
619.776628	2557.233673
620.124382	2558.350289
620.472083	2555.446584
620.819731	2558.052861
621.167326	2555.769218
621.514868	2555.958261
621.862357	2555.194527
622.209793	2555.943138
622.557176	2557.954558
622.904506	2556.618652
623.251783	2551.159083
623.599007	2552.558003
623.946179	2548.678835
624.293297	2548.938455
624.640363	2552.875596
624.987376	2553.964485
625.334336	2554.584547
625.681243	2554.032541
626.028097	2551.559855
626.374899	2553.919115
626.721647	2553.238559
627.068343	2556.500185
627.414987	2552.701676
627.761577	2555.877603
628.108115	2553.016748
628.454600	2555.544887
628.801032	2555.028168
629.147412	2553.251162
629.493739	2553.072201
629.840014	2552.857952
630.186236	2554.347613
630.532405	2554.672767
630.878521	2553.793086
631.224585	2555.212171
631.570597	2553.041954
631.916556	2553.165462
632.262462	2552.668908
632.608316	2554.309804
632.954117	2553.092365
633.299866	2550.907025
633.645562	2553.525905
633.991206	2552.694114
634.336797	2551.370811
634.682336	2552.689073
635.027823	2550.115564
635.373257	2552.691594
635.718639	2549.724875
636.063968	2551.771583
636.409245	2551.340564
636.754470	2551.340564
637.099642	2551.451470
637.444762	2551.370811
637.789829	2549.263609
638.134845	2552.731923
638.479808	2551.184289
638.824719	2550.176058
639.169577	2548.114226
639.514383	2553.362067
639.859137	2547.675646
640.203839	2549.682025
640.548489	2550.322251
640.893086	2546.732950
641.237632	2545.487785
641.582125	2547.859648
641.926566	2544.966025
642.270955	2548.015923
642.615292	2548.446942
642.959576	2550.168496
643.303809	2551.212015
643.647990	2552.439536
643.992118	2549.301418
644.336195	2546.148176
