Dividing Wavelength (nm)	Counts (n)	Blue Motor Position (mm): 0.000000	Red Motor Position (mm): 24.300000	
326.493990	2126.706532
326.888308	2126.706532
327.282561	2126.706532
327.676750	2094.034814
328.070874	2094.145719
328.464933	2095.481625
328.858929	2101.654518
329.252859	2111.734305
329.646726	2123.651593
330.040528	2136.625002
330.434265	2154.082518
330.827938	2172.457524
331.221547	2188.798424
331.615091	2210.230889
332.008571	2225.931563
332.401986	2247.238000
332.795338	2265.287851
333.188625	2286.596808
333.581847	2304.901238
333.975006	2322.830102
334.368100	2342.034377
334.761129	2359.610360
335.154095	2375.053935
335.546996	2391.402397
335.939833	2408.471744
336.332606	2423.701070
336.725315	2436.760179
337.117960	2445.846858
337.510540	2452.327262
337.903056	2466.137503
338.295508	2473.668987
338.687896	2479.027733
339.080220	2492.172542
339.472480	2495.726555
339.864676	2502.496825
340.256807	2508.291631
340.648875	2509.004954
341.040879	2510.744153
341.432818	2514.333454
341.824694	2513.524349
342.216506	2512.710202
342.608253	2513.289935
342.999937	2513.312620
343.391557	2513.728516
343.783113	2511.021416
344.174605	2513.544513
344.566033	2509.030160
344.957397	2510.615603
345.348697	2507.048987
345.739934	2505.408091
346.131106	2504.256187
346.522215	2502.340549
346.913260	2499.187307
347.304241	2498.600013
347.695159	2499.734273
348.086012	2496.669251
348.476802	2496.341576
348.867528	2491.950731
349.258191	2491.761688
349.648789	2490.768580
350.039324	2490.332521
350.429796	2489.420072
350.820203	2488.263127
351.210548	2486.665081
351.600828	2484.295739
351.991045	2485.803044
352.381198	2482.526294
352.771288	2485.293887
353.161314	2482.082672
353.551276	2481.666777
353.941175	2481.823053
354.331010	2481.248361
354.720782	2484.570482
355.110490	2482.430512
355.500135	2481.810450
355.889717	2484.946048
356.279235	2482.370018
356.668689	2485.835811
357.058080	2480.968577
357.447408	2481.553351
357.836672	2481.313896
358.225873	2483.355564
358.615010	2482.496047
359.004084	2488.517705
359.393095	2486.871768
359.782043	2487.091059
360.170927	2485.946717
360.559748	2490.209012
360.948505	2490.224136
361.337199	2490.708087
361.725830	2490.128354
362.114398	2493.256390
362.502903	2491.623056
362.891344	2495.071205
363.279722	2492.396873
363.668037	2493.105155
364.056289	2492.439723
364.444478	2495.403921
364.832603	2495.618170
365.220665	2495.358551
365.608665	2497.629591
365.996601	2498.536998
366.384474	2497.775784
366.772284	2500.324087
367.160031	2500.538337
367.547715	2504.772906
367.935336	2506.171826
368.322893	2509.080572
368.710388	2509.405726
369.097820	2519.639268
369.485189	2521.285205
369.872495	2525.983561
370.259738	2533.522606
370.646918	2542.639533
371.034035	2547.539534
371.421090	2558.977912
371.808081	2568.117524
372.195010	2575.727146
372.581875	2593.189703
372.968678	2605.417022
373.355418	2615.257354
373.742096	2635.298461
374.128710	2648.997797
374.515262	2662.112358
374.901751	2679.708506
375.288177	2690.395752
375.674540	2713.552292
376.060841	2731.503841
376.447079	2750.115781
376.833254	2771.427259
377.219367	2782.449742
377.605417	2821.672439
377.991404	2828.238542
378.377329	2853.305680
378.763191	2871.602548
379.148991	2909.204514
379.534727	2933.432300
379.920402	2963.096969
380.306013	2975.929227
380.691563	3024.740199
381.077049	3045.827345
381.462474	3062.732855
381.847835	3103.150306
382.233134	3125.157463
382.618371	3126.705097
383.003545	3193.220601
383.388657	3199.264945
383.773706	3230.583113
384.158693	3247.128180
384.543618	3274.650359
384.928480	3307.730411
385.313280	3359.397197
385.698017	3355.074407
386.082692	3408.407294
386.467305	3413.791247
386.851856	3443.695371
387.236344	3468.180256
387.620770	3498.928773
388.005133	3524.847866
388.389435	3552.851476
388.773674	3562.255748
389.157851	3603.520113
389.541965	3621.993421
389.926018	3589.326744
390.310008	3655.290242
390.693936	3676.763037
391.077802	3714.715364
391.461606	3705.847974
391.845348	3767.397942
392.229027	3767.828961
392.612645	3780.716671
392.996200	3859.214998
393.379694	3898.714959
393.763125	3964.204588
394.146494	3928.361984
394.529801	3992.997138
394.913047	4045.546126
395.296230	4006.948532
395.679351	4061.980288
396.062410	4083.085078
396.445408	4064.400042
396.828343	4101.760033
397.211217	4125.105616
397.594028	4040.762071
397.976778	4109.425107
398.359466	4134.714055
398.742092	4164.383766
399.124656	4084.723453
399.507158	4166.246473
399.889598	4194.194630
400.271977	4253.629833
400.654294	4222.278898
401.036549	4233.054364
401.418742	4202.721741
401.800874	4302.450888
402.182944	4326.540042
402.564952	4391.260895
402.946898	4377.412846
403.328783	4373.258935
403.710606	4287.198877
404.092367	4475.243998
404.474067	4443.799801
404.855705	4451.855564
405.237282	4381.660018
405.618797	4490.027181
406.000250	4524.990104
406.381642	4603.811065
406.762972	4568.288574
407.144240	4572.681940
407.525447	4574.413576
407.906593	4634.635200
408.287677	4679.337632
408.668700	4606.845839
409.049661	4657.017923
409.430560	4697.440415
409.811399	4625.629179
410.192176	4788.221514
410.572891	4727.657091
410.953545	4833.609542
411.334138	4709.264442
411.714669	4778.421511
412.095139	4670.142567
412.475547	4812.504752
412.855894	4793.562616
413.236180	4805.527795
413.616405	4755.708592
413.996568	4844.795863
414.376670	4783.951656
414.756711	4734.200509
415.136691	4773.965131
415.516609	4848.221327
415.896466	4889.508377
416.276262	4918.079116
416.655997	4894.289911
417.035670	5081.566256
417.415283	5174.825082
417.794834	5118.943891
418.174324	5069.182662
418.553753	4976.105318
418.933121	5161.602135
419.312428	5228.273915
419.691674	5171.082025
420.070859	5294.597856
420.449983	5203.269792
420.829045	5320.350590
421.208047	5230.406323
421.586988	5304.770904
421.965867	5310.384229
422.344686	5446.008912
422.723444	5297.355367
423.102141	5119.541268
423.480777	5412.613788
423.859352	5183.470660
424.237866	5438.477428
424.616319	5426.900418
424.994712	5536.565679
425.373044	5416.871042
425.751314	5560.155758
426.129524	5365.320203
426.507673	5556.861364
426.885762	5637.817254
427.263789	5572.546914
427.641756	5452.096105
428.019662	5572.536832
428.397508	5574.830557
428.775292	5520.638153
429.153016	5618.789418
429.530679	5545.695208
429.908282	5625.592456
430.285824	5490.567670
430.663305	5760.957519
431.040726	5493.703268
431.418086	5484.901413
431.795385	5588.605510
432.172624	5594.354946
432.549802	5580.065795
432.926920	5587.075520
433.303977	5586.957052
433.680974	5615.537874
434.057910	5625.088340
434.434786	5627.130007
434.811601	5583.085446
435.188355	5798.982942
435.565050	5665.808260
435.941683	5636.761132
436.318257	5830.313713
436.694770	5795.885153
437.071222	5812.830992
437.447614	5733.586574
437.823946	5637.605525
438.200218	5764.657726
438.576429	5625.857116
438.952580	5692.375141
439.328670	5714.442792
439.704700	5607.199806
440.080670	5574.588582
440.456580	5792.966325
440.832429	5663.849772
441.208218	5500.360112
441.583947	5612.147698
441.959616	5594.604483
442.335224	5497.779041
442.710773	5588.159368
443.086261	5574.213016
443.461689	5373.325555
443.837057	5462.460717
444.212365	5554.371034
444.587612	5438.114465
444.962800	5521.495149
445.337927	5464.467096
445.712995	5122.223162
446.088002	5526.836252
446.462949	5358.131518
446.837837	5263.710706
447.212664	5351.126834
447.587431	5399.746243
447.962139	5719.925047
448.336786	6303.746115
448.711374	6080.576755
449.085901	5403.791769
449.460369	5295.059121
449.834776	5196.726374
450.209124	5386.261156
450.583412	5409.495834
450.957640	5455.650118
451.331808	5250.956587
451.705917	4924.357873
452.079965	4832.003935
452.453954	4886.405547
452.827883	4767.913225
453.201752	4764.281074
453.575562	4604.050520
453.949311	4639.270541
454.323001	4541.991395
454.696632	4524.276781
455.070202	4523.167727
455.443713	4544.872415
455.817164	4527.535887
456.190556	4498.892050
456.563888	4466.515240
456.937160	4426.256585
457.310373	4237.263728
457.683526	4183.872867
458.056619	4088.416098
458.429653	4031.262017
458.802628	3961.678970
459.175542	3947.097433
459.548398	4002.943335
459.921194	4000.480731
460.293930	3960.864824
460.666607	4048.596024
461.039224	4084.052980
461.411782	4060.351995
461.784280	3996.319259
462.156719	3905.707039
462.529099	3812.271773
462.901419	3658.771159
463.273680	3588.575612
463.645882	3543.807646
464.018024	3465.190851
464.390106	3453.253399
464.762130	3477.889518
465.134094	3525.846014
465.505999	3676.062317
465.877845	3828.514371
466.249631	3860.986963
466.621358	3716.177298
466.993026	3551.175292
467.364634	3459.416210
467.736184	3362.694111
468.107674	3284.336937
468.479105	3239.218610
468.850477	3180.952953
469.221790	3124.769294
469.593043	3058.034499
469.964238	3012.124711
470.335373	2985.688900
470.706449	2964.944552
471.077467	2938.349945
471.448425	3002.604492
471.819324	3039.460368
472.190164	3013.148065
472.560945	2914.742222
472.931667	2851.493385
473.302330	2824.079590
473.672934	2789.986267
474.043479	2789.414096
474.413965	2771.046652
474.784393	2749.402458
475.154761	2744.580594
475.525070	2730.089797
475.895321	2715.662015
476.265513	2709.418546
476.635645	2706.897969
477.005719	2693.874148
477.375734	2692.792821
477.745691	2686.849300
478.115588	2679.726150
478.485427	2675.909997
478.855207	2680.764628
479.224928	2687.915504
479.594591	2694.312729
479.964194	2682.597087
480.333739	2675.579801
480.703226	2669.805159
481.072653	2663.077739
481.442022	2661.598161
481.811333	2659.680002
482.180584	2653.121461
482.549777	2646.888074
482.918912	2644.717857
483.287988	2639.172588
483.657005	2638.708802
484.025964	2632.223357
484.394864	2628.558438
484.763706	2626.201699
485.132489	2621.319342
485.501213	2619.716255
485.869879	2621.687346
486.238487	2615.353136
486.607036	2615.572426
486.975527	2612.043618
487.343959	2614.561675
487.712333	2612.076386
488.080648	2612.767024
488.448905	2610.566560
488.817104	2611.471447
489.185244	2604.910386
489.553326	2609.283587
489.921350	2612.146962
490.289315	2619.600308
490.657222	2622.942593
491.025070	2620.608539
491.392861	2621.158025
491.760593	2613.941613
492.128267	2614.213835
492.495883	2608.839965
492.863440	2605.742176
493.230939	2600.711105
493.598380	2604.991044
493.965763	2595.309508
494.333088	2597.013418
494.700354	2595.251535
495.067563	2596.572317
495.434713	2592.983016
495.801805	2595.158274
496.168839	2596.479056
496.535815	2595.738006
496.902733	2595.876638
497.269593	2596.005187
497.636395	2595.208685
498.003139	2591.637028
498.369825	2592.730958
498.736453	2591.221132
499.103023	2592.955289
499.469535	2592.085690
499.835989	2593.575351
500.202385	2593.570310
500.568723	2590.570824
500.935003	2593.580392
501.301226	2590.041502
501.667390	2593.393870
502.033497	2597.552822
502.399546	2591.417737
502.765537	2588.405648
503.131470	2590.101996
503.497345	2590.459918
503.863163	2588.635021
504.228923	2590.505289
504.594625	2592.753643
504.960269	2587.314238
505.325856	2591.198447
505.691385	2589.887747
506.056856	2590.522933
506.422270	2588.629979
506.787625	2588.511512
507.152924	2590.429671
507.518164	2588.309866
507.883347	2587.099989
508.248472	2586.116964
508.613540	2588.277099
508.978550	2586.968919
509.343503	2588.209043
509.708398	2590.759867
510.073236	2590.245669
510.438016	2589.398755
510.802738	2590.096955
511.167403	2590.563262
511.532010	2585.154104
511.896561	2592.587285
512.261053	2591.384970
512.625488	2587.467993
512.989866	2583.898857
513.354186	2586.547983
513.718449	2582.399113
514.082655	2587.455391
514.446803	2590.328848
514.810894	2589.197109
515.174927	2588.776173
515.538904	2590.918663
515.902822	2591.359764
516.266684	2589.900350
516.630488	2588.120823
516.994235	2591.879003
517.357925	2587.594022
517.721558	2593.645927
518.085133	2589.660895
518.448651	2590.704414
518.812112	2589.118971
519.175516	2592.005032
519.538863	2590.885896
519.902152	2590.195258
520.265385	2590.064188
520.628560	2590.457398
520.991678	2589.849939
521.354739	2590.565782
521.717743	2592.037799
522.080690	2590.772470
522.443580	2594.293716
522.806413	2594.114755
523.169189	2590.427151
523.531908	2593.567790
523.894569	2589.524784
524.257174	2590.956472
524.619722	2590.638879
524.982213	2592.730958
525.344647	2590.696853
525.707025	2590.376739
526.069345	2591.248859
526.431608	2591.798345
526.793815	2593.840012
527.155964	2593.250197
527.518057	2593.386308
527.880093	2593.701380
528.242072	2590.578385
528.603995	2591.899168
528.965860	2592.572162
529.327669	2591.029569
529.689421	2594.008891
530.051117	2592.534353
530.412755	2591.836153
530.774337	2591.702563
531.135862	2590.379260
531.497331	2591.223653
531.858743	2584.854155
532.220098	2589.756677
532.581396	2588.506471
532.942638	2589.171903
533.303824	2590.485124
533.664953	2590.175093
534.026025	2590.936307
534.387040	2592.224322
534.747999	2587.740216
535.108902	2593.744230
535.469748	2592.226843
535.830537	2589.229877
536.191270	2587.256265
536.551947	2591.178283
536.912567	2589.257603
537.273131	2592.365474
537.633638	2589.507140
537.994089	2590.752305
538.354483	2590.250710
538.714821	2590.308684
539.075103	2592.088211
539.435328	2591.458067
539.795497	2590.369178
540.155609	2591.871441
540.515665	2592.267172
540.875665	2591.639548
541.235609	2589.824733
541.595496	2592.463777
541.955328	2592.115937
542.315102	2590.502768
542.674821	2590.079311
543.034483	2591.072418
543.394090	2591.190886
543.753640	2590.681729
544.113134	2591.057295
544.472571	2593.366143
544.831953	2591.856318
545.191278	2592.219281
545.550548	2591.568972
545.909761	2591.992429
546.268918	2592.567121
546.628019	2594.192893
546.987064	2589.635690
547.346053	2590.147367
547.704986	2594.424786
548.063863	2592.201637
548.422684	2594.064343
548.781449	2590.689291
549.140158	2590.780032
549.498811	2591.959662
549.857408	2592.158787
550.215949	2588.438416
550.574434	2588.420772
550.932864	2588.340113
551.291237	2588.503951
551.649555	2590.384301
552.007817	2591.274065
552.366022	2591.629466
552.724173	2591.163159
553.082267	2589.471852
553.440305	2591.503437
553.798288	2591.783221
554.156215	2593.194744
554.514086	2592.985536
554.871902	2591.115268
555.229661	2590.654003
555.587365	2590.769949
555.945014	2591.137953
556.302606	2592.332707
556.660143	2593.376226
557.017625	2591.879003
557.375050	2589.108889
557.732421	2592.925042
558.089735	2591.942017
558.446994	2591.253900
558.804197	2595.001998
559.161345	2589.711307
559.518437	2591.054774
559.875474	2591.072418
560.232455	2591.631987
560.589381	2594.341607
560.946251	2593.686257
561.303065	2592.640217
561.659825	2593.880341
562.016528	2591.982347
562.373177	2589.766760
562.729770	2590.389342
563.086307	2593.250197
563.442789	2592.783890
563.799216	2593.061154
564.155587	2592.438571
564.511904	2589.318097
564.868164	2589.509661
565.224370	2593.857656
565.580520	2590.071749
565.936615	2591.231215
566.292654	2592.889754
566.648638	2592.161308
567.004567	2590.979157
567.360441	2588.629979
567.716260	2588.705597
568.072023	2590.159970
568.427732	2584.750812
568.783385	2586.880699
569.138982	2586.641244
569.494525	2589.754157
569.850013	2586.147211
570.205445	2590.038982
570.560823	2588.130905
570.916145	2591.049733
571.271412	2591.079980
571.626625	2589.600402
571.981782	2591.173242
572.336884	2588.967737
572.691931	2588.413210
573.046923	2588.735844
573.401860	2589.315576
573.756743	2586.492530
574.111570	2589.983529
574.466342	2588.624938
574.821059	2591.047213
575.175722	2589.676019
575.530330	2588.947572
575.884882	2588.453539
576.239380	2586.941193
576.593823	2589.363467
576.948211	2588.960175
577.302544	2589.688622
577.656823	2587.047057
578.011047	2589.237438
578.365216	2586.797520
578.719330	2587.697366
579.073389	2586.058991
579.427394	2587.122674
579.781344	2583.563620
580.135239	2586.903384
580.489080	2585.801892
580.842866	2586.638724
581.196597	2590.442274
581.550273	2587.382294
581.903895	2584.465986
582.257463	2584.655030
582.610975	2586.699217
582.964434	2584.765935
583.317837	2585.542273
583.671186	2583.291397
584.024481	2585.746439
584.377721	2584.274422
584.730906	2586.517736
585.084037	2585.713672
585.437113	2584.360122
585.790135	2587.417582
586.143103	2584.183682
586.496016	2583.273753
586.848874	2579.888619
587.201679	2586.870617
587.554428	2580.823753
587.907124	2582.323496
588.259765	2579.230748
588.612352	2581.569843
588.964884	2584.700400
589.317362	2583.059504
589.669786	2582.310893
590.022155	2584.155955
590.374470	2584.682756
590.726731	2584.113106
591.078937	2582.230235
591.431090	2583.364494
591.783188	2580.634709
592.135232	2582.540266
592.487222	2582.946078
592.839157	2582.807447
593.191038	2582.114288
593.542866	2582.817529
593.894639	2582.328537
594.246358	2583.225862
594.598022	2578.739236
594.949633	2581.131263
595.301190	2577.975501
595.652692	2578.610686
596.004141	2580.685121
596.355535	2578.595563
596.706876	2581.451376
597.058162	2580.135635
597.409395	2578.807291
597.760573	2578.933320
598.111698	2579.679411
598.462768	2581.965574
598.813785	2578.111612
599.164748	2578.966088
599.515657	2580.062538
599.866511	2578.144379
600.217312	2579.326530
600.568060	2579.654205
600.918753	2578.885429
601.269392	2576.601786
601.619978	2580.173444
601.970510	2579.455079
602.320988	2580.738053
602.671412	2577.589852
603.021783	2579.510532
603.372100	2581.103537
603.722363	2579.732343
604.072572	2577.995665
604.422728	2578.577919
604.772830	2572.510890
605.122878	2572.838565
605.472872	2574.640777
605.822813	2572.780592
606.172701	2576.526169
606.522534	2576.725295
606.872314	2579.767631
607.222041	2575.391909
607.571714	2576.788309
607.921333	2576.894173
608.270899	2578.373752
608.620411	2577.451221
608.969870	2579.676890
609.319276	2581.151428
609.668627	2581.746284
610.017926	2585.257447
610.367171	2588.166193
610.716362	2587.331882
611.065500	2583.916501
611.414585	2579.417271
611.763616	2582.247879
612.112594	2579.296283
612.461518	2578.724112
612.810389	2580.440625
613.159207	2578.847620
613.507971	2580.538927
613.856682	2580.669997
614.205340	2579.545820
614.553945	2580.354925
614.902496	2579.734863
615.250994	2580.145717
615.599439	2579.200501
615.947830	2576.737897
616.296169	2574.832341
616.644454	2577.506673
616.992686	2576.180850
617.340864	2579.180337
617.688990	2578.353587
618.037063	2580.564133
618.385082	2578.540110
618.733048	2578.872826
619.080961	2577.327712
619.428821	2580.468351
619.776628	2579.308886
620.124382	2579.097157
620.472083	2578.003227
620.819731	2577.420974
621.167326	2577.345357
621.514868	2576.299317
621.862357	2576.017013
622.209793	2578.532548
622.557176	2580.720409
622.904506	2573.861919
623.251783	2572.349573
623.599007	2573.274625
623.946179	2570.312947
624.293297	2571.371589
624.640363	2574.655901
624.987376	2575.291086
625.334336	2573.640108
625.681243	2574.938206
626.028097	2573.766137
626.374899	2577.536920
626.721647	2574.844944
627.068343	2572.019378
627.414987	2575.270922
627.761577	2573.564491
628.108115	2569.990313
628.454600	2572.679769
628.801032	2569.367731
629.147412	2575.011302
629.493739	2573.768658
629.840014	2571.132134
630.186236	2573.383010
630.532405	2567.920919
630.878521	2571.711867
631.224585	2571.180025
631.570597	2570.454099
631.916556	2572.173133
632.262462	2570.181877
632.608316	2571.585838
632.954117	2566.088460
633.299866	2570.675910
633.645562	2568.798080
633.991206	2569.708008
634.336797	2568.702298
634.682336	2570.547361
635.027823	2566.322874
635.373257	2566.466547
635.718639	2566.423697
636.063968	2569.849161
636.409245	2567.618450
636.754470	2566.118707
637.099642	2568.573749
637.444762	2567.489901
637.789829	2566.496793
638.134845	2566.506876
638.479808	2566.274983
638.824719	2566.048131
639.169577	2563.504869
639.514383	2562.824313
639.859137	2563.764488
640.203839	2567.053841
640.548489	2563.951011
640.893086	2562.877245
641.237632	2558.773746
641.582125	2564.777760
641.926566	2560.197872
642.270955	2564.868501
642.615292	2564.482853
642.959576	2563.787173
643.303809	2564.959242
643.647990	2562.657955
643.992118	2563.610733
644.336195	2563.318346
