Dividing Wavelength (nm)	Counts (n)	Blue Motor Position (mm): 0.000000	Red Motor Position (mm): 9.000000	
326.493990	2145.252937
326.888308	2145.252937
327.282561	2145.252937
327.676750	2121.904833
328.070874	2123.545728
328.464933	2129.834568
328.858929	2138.462503
329.252859	2147.448359
329.646726	2161.863539
330.040528	2175.545230
330.434265	2195.175483
330.827938	2213.802547
331.221547	2235.388768
331.615091	2253.448701
332.008571	2273.908224
332.401986	2295.713735
332.795338	2316.836170
333.188625	2335.934581
333.581847	2351.383197
333.975006	2372.467823
334.368100	2390.517674
334.761129	2408.701116
335.154095	2427.088725
335.546996	2441.624892
335.939833	2454.195009
336.332606	2471.801239
336.725315	2480.837507
337.117960	2489.258755
337.510540	2497.501041
337.903056	2504.684686
338.295508	2510.446724
338.687896	2518.434433
339.080220	2530.828109
339.472480	2534.838347
339.864676	2537.878163
340.256807	2540.310520
340.648875	2542.269008
341.040879	2544.706406
341.432818	2545.681869
341.824694	2545.066848
342.216506	2545.218083
342.608253	2545.754966
342.999937	2544.076262
343.391557	2545.591128
343.783113	2545.989380
344.174605	2539.456044
344.566033	2537.941177
344.957397	2539.982845
345.348697	2535.960004
345.739934	2534.029242
346.131106	2531.581762
346.522215	2531.165867
346.913260	2531.803573
347.304241	2530.298788
347.695159	2526.510361
348.086012	2523.901564
348.476802	2521.272602
348.867528	2521.176820
349.258191	2521.353261
349.648789	2519.767818
350.039324	2518.966274
350.429796	2519.024248
350.820203	2517.343023
351.210548	2514.686335
351.600828	2513.284894
351.991045	2513.846983
352.381198	2514.620800
352.771288	2514.484689
353.161314	2513.466376
353.551276	2514.025944
353.941175	2512.533762
354.331010	2512.778258
354.720782	2513.577281
355.110490	2513.489061
355.500135	2514.908146
355.889717	2512.906807
356.279235	2516.375121
356.668689	2515.981911
357.058080	2517.257323
357.447408	2515.102230
357.836672	2513.163906
358.225873	2516.304545
358.615010	2511.172651
359.004084	2519.926614
359.393095	2520.909639
359.782043	2518.318486
360.170927	2516.904443
360.559748	2519.651871
360.948505	2517.905112
361.337199	2520.092972
361.725830	2522.787469
362.114398	2521.423837
362.502903	2519.755215
362.891344	2523.962058
363.279722	2526.293592
363.668037	2522.449712
364.056289	2523.261337
364.444478	2527.296781
364.832603	2526.442306
365.220665	2525.628159
365.608665	2525.038344
365.996601	2527.087573
366.384474	2524.317459
366.772284	2528.577234
367.160031	2528.131092
367.547715	2527.173273
367.935336	2526.023890
368.322893	2526.840557
368.710388	2527.541277
369.097820	2530.071936
369.485189	2532.327853
369.872495	2529.411545
370.259738	2527.856349
370.646918	2528.320135
371.034035	2530.447502
371.421090	2530.291227
371.808081	2528.632687
372.195010	2528.262162
372.581875	2531.788449
372.968678	2533.472195
373.355418	2535.599562
373.742096	2533.222658
374.128710	2533.290713
374.515262	2534.939170
374.901751	2537.681558
375.288177	2536.275076
375.674540	2540.610468
376.060841	2539.191384
376.447079	2543.012578
376.833254	2547.012734
377.219367	2544.144317
377.605417	2545.061807
377.991404	2546.657332
378.377329	2551.287632
378.763191	2552.742005
379.148991	2561.425393
379.534727	2561.816082
379.920402	2568.906465
380.306013	2565.196176
380.691563	2575.286045
381.077049	2576.357290
381.462474	2584.241655
381.847835	2588.171234
382.233134	2591.533684
382.618371	2598.593820
383.003545	2602.324274
383.388657	2606.379882
383.773706	2616.978908
384.158693	2620.628703
384.543618	2626.403345
384.928480	2633.839047
385.313280	2641.483957
385.698017	2647.611479
386.082692	2656.418375
386.467305	2662.533295
386.851856	2670.158040
387.236344	2681.387210
387.620770	2684.033816
388.005133	2690.869621
388.389435	2700.846064
388.773674	2704.074923
389.157851	2710.361242
389.541965	2721.850032
389.926018	2722.727192
390.310008	2730.787997
390.693936	2737.601117
391.077802	2742.675038
391.461606	2748.726943
391.845348	2753.301790
392.229027	2754.516708
392.612645	2765.919798
392.996200	2770.235026
393.379694	2776.044956
393.763125	2782.389248
394.146494	2783.321862
394.529801	2789.577933
394.913047	2795.720579
395.296230	2794.374591
395.679351	2790.530712
396.062410	2796.227215
396.445408	2791.077677
396.828343	2789.809827
397.211217	2786.787655
397.594028	2776.418001
397.976778	2777.527055
398.359466	2778.532765
398.742092	2768.742845
399.124656	2774.794750
399.507158	2773.012702
399.889598	2768.604213
400.271977	2767.359048
400.654294	2762.733789
401.036549	2762.126330
401.418742	2754.582243
401.800874	2756.873448
402.182944	2747.660739
402.564952	2751.567633
402.946898	2737.928792
403.328783	2733.951321
403.710606	2726.480331
404.092367	2730.117524
404.474067	2728.713562
404.855705	2712.740667
405.237282	2706.711447
405.618797	2706.809749
406.000250	2702.285313
406.381642	2699.903368
406.762972	2695.063861
407.144240	2681.659432
407.525447	2678.919565
407.906593	2668.575118
408.287677	2664.665703
408.668700	2658.790238
409.049661	2653.436533
409.430560	2649.358239
409.811399	2637.690489
410.192176	2634.489356
410.572891	2631.590692
410.953545	2628.780249
411.334138	2617.966974
411.714669	2616.961264
412.095139	2607.262084
412.475547	2603.803852
412.855894	2600.539705
413.236180	2598.545929
413.616405	2590.795155
413.996568	2587.452870
414.376670	2585.401120
414.756711	2580.523804
415.136691	2578.474575
415.516609	2578.411561
415.896466	2577.610017
416.276262	2575.694379
416.655997	2568.946794
417.035670	2564.762637
417.415283	2567.293296
417.794834	2564.472770
418.174324	2563.252811
418.553753	2566.751372
418.933121	2563.363716
419.312428	2561.821123
419.691674	2562.047975
420.070859	2560.018911
420.449983	2556.563200
420.829045	2560.117213
421.208047	2559.855073
421.586988	2557.236194
421.965867	2559.199723
422.344686	2559.792059
422.723444	2560.278530
423.102141	2558.125958
423.480777	2559.489590
423.859352	2556.522871
424.237866	2559.681153
424.616319	2557.379867
424.994712	2559.648386
425.373044	2556.956410
425.751314	2560.454971
426.129524	2560.157542
426.507673	2561.886658
426.885762	2560.565876
427.263789	2560.588561
427.641756	2559.998746
428.019662	2559.136709
428.397508	2557.082439
428.775292	2563.215002
429.153016	2561.662327
429.530679	2562.108469
429.908282	2563.293140
430.285824	2560.492779
430.663305	2560.192831
431.040726	2561.372461
431.418086	2559.025803
431.795385	2561.788356
432.172624	2558.864487
432.549802	2561.448078
432.926920	2562.360527
433.303977	2564.364385
433.680974	2560.903633
434.057910	2564.258521
434.434786	2559.948335
434.811601	2559.756771
435.188355	2562.650393
435.565050	2563.126782
435.941683	2562.965465
436.318257	2559.093859
436.694770	2558.367933
437.071222	2558.854404
437.447614	2559.640824
437.823946	2559.424055
438.200218	2558.806513
438.576429	2565.191135
438.952580	2560.719631
439.328670	2564.782801
439.704700	2561.843808
440.080670	2562.562173
440.456580	2562.496638
440.832429	2563.767009
441.208218	2563.252811
441.583947	2563.724159
441.959616	2565.826320
442.335224	2567.578121
442.710773	2564.818089
443.086261	2564.855898
443.461689	2562.806669
443.837057	2564.034190
444.212365	2562.335321
444.587612	2564.074519
444.962800	2564.868501
445.337927	2564.462688
445.712995	2563.464539
446.088002	2564.039231
446.462949	2563.101576
446.837837	2566.471588
447.212664	2562.998233
447.587431	2566.761454
447.962139	2564.177863
448.336786	2569.599624
448.711374	2567.205076
449.085901	2568.152812
449.460369	2566.587534
449.834776	2566.277503
450.209124	2568.430076
450.583412	2568.815724
450.957640	2568.523337
451.331808	2565.002091
451.705917	2565.213820
452.079965	2569.191290
452.453954	2568.936712
452.827883	2568.288924
453.201752	2566.726166
453.575562	2568.336815
453.949311	2567.056362
454.323001	2567.537792
454.696632	2569.254305
455.070202	2568.954356
455.443713	2568.435117
455.817164	2560.265927
456.190556	2565.120558
456.563888	2567.063923
456.937160	2564.349262
457.310373	2570.007957
457.683526	2567.986454
458.056619	2567.494942
458.429653	2569.269428
458.802628	2572.238668
459.175542	2570.945612
459.548398	2566.769016
459.921194	2568.848492
460.293930	2571.051476
460.666607	2568.026784
461.039224	2570.171795
461.411782	2571.669017
461.784280	2572.183215
462.156719	2573.743452
462.529099	2573.443503
462.901419	2571.729511
463.273680	2570.925447
463.645882	2568.866136
464.018024	2570.126424
464.390106	2568.213306
464.762130	2572.999882
465.134094	2570.600293
465.505999	2572.820921
465.877845	2573.872002
466.249631	2575.041549
466.621358	2574.867629
466.993026	2576.647157
467.364634	2578.083886
467.736184	2573.130952
468.107674	2574.040880
468.479105	2573.045252
468.850477	2574.751683
469.221790	2578.320820
469.593043	2574.665983
469.964238	2574.575242
470.335373	2571.379151
470.706449	2572.389902
471.077467	2573.604820
471.448425	2576.029615
471.819324	2576.105233
472.190164	2577.960377
472.560945	2575.591035
472.931667	2573.806467
473.302330	2573.524162
473.672934	2576.004410
474.043479	2574.875191
474.413965	2573.372927
474.784393	2567.636094
475.154761	2568.863615
475.525070	2570.431414
475.895321	2570.854871
476.265513	2568.437638
476.635645	2572.957032
477.005719	2572.589028
477.375734	2574.018195
477.745691	2573.703123
478.115588	2577.456262
478.485427	2573.393092
478.855207	2574.645819
479.224928	2575.447362
479.594591	2576.642116
479.964194	2576.034657
480.333739	2581.156469
480.703226	2574.088771
481.072653	2576.780747
481.442022	2575.107084
481.811333	2575.984245
482.180584	2576.745459
482.549777	2579.785275
482.918912	2575.081878
483.287988	2579.066911
483.657005	2575.104564
484.025964	2575.885942
484.394864	2576.662280
484.763706	2578.797209
485.132489	2575.212948
485.501213	2577.355439
485.869879	2576.584142
486.238487	2574.187074
486.607036	2576.372414
486.975527	2574.900397
487.343959	2576.879050
487.712333	2576.183371
488.080648	2574.106415
488.448905	2575.719584
488.817104	2574.091292
489.185244	2578.731674
489.553326	2576.286714
489.921350	2574.774368
490.289315	2579.744946
490.657222	2577.652867
491.025070	2576.896694
491.392861	2580.680080
491.760593	2577.670511
492.128267	2577.967939
492.495883	2578.454410
492.863440	2578.129256
493.230939	2576.828638
493.598380	2577.408371
493.965763	2573.690520
494.333088	2573.067937
494.700354	2575.041549
495.067563	2573.861919
495.434713	2572.057186
495.801805	2578.351067
496.168839	2575.563309
496.535815	2576.382496
496.902733	2575.344018
497.269593	2576.813515
497.636395	2575.739749
498.003139	2577.751169
498.369825	2576.175809
498.736453	2574.033318
499.103023	2576.246385
499.469535	2576.753021
499.835989	2576.112794
500.202385	2576.632033
500.568723	2576.289235
500.935003	2578.877867
501.301226	2576.185891
501.667390	2577.262177
502.033497	2576.611869
502.399546	2579.734863
502.765537	2573.405695
503.131470	2577.063052
503.497345	2575.573391
503.863163	2576.032136
504.228923	2575.517938
504.594625	2573.806467
504.960269	2573.773699
505.325856	2576.770665
505.691385	2575.633885
506.056856	2576.894173
506.422270	2574.050963
506.787625	2577.458782
507.152924	2577.015161
507.518164	2577.821746
507.883347	2576.042218
508.248472	2576.042218
508.613540	2575.449883
508.978550	2575.008782
509.343503	2575.739749
509.708398	2577.063052
510.073236	2577.715881
510.438016	2578.262847
510.802738	2576.080027
511.167403	2575.921231
511.532010	2577.287383
511.896561	2577.446180
512.261053	2575.790161
512.625488	2573.531724
512.989866	2571.734552
513.354186	2576.284194
513.718449	2572.634398
514.082655	2574.592887
514.446803	2575.170099
514.810894	2576.604307
515.174927	2581.176633
515.538904	2578.136818
515.902822	2578.509863
516.266684	2576.700089
516.630488	2576.193453
516.994235	2576.962229
517.357925	2574.234965
517.721558	2577.824266
518.085133	2578.111612
518.448651	2577.816704
518.812112	2577.632702
519.175516	2575.883422
519.538863	2577.443659
519.902152	2578.192270
520.265385	2576.836200
520.628560	2576.306879
520.991678	2577.098340
521.354739	2578.131777
521.717743	2578.903073
522.080690	2576.236303
522.443580	2577.269739
522.806413	2577.720922
523.169189	2577.627661
523.531908	2579.586149
523.894569	2576.639595
524.257174	2577.854513
524.619722	2576.561457
524.982213	2580.173444
525.344647	2578.162023
525.707025	2578.527507
526.069345	2578.051118
526.431608	2579.576067
526.793815	2575.374265
527.155964	2579.079513
527.518057	2575.833010
527.880093	2578.151941
528.242072	2578.847620
528.603995	2577.050449
528.965860	2577.007599
529.327669	2581.383321
529.689421	2577.158834
530.051117	2578.212435
530.412755	2577.310068
530.774337	2576.475758
531.135862	2578.625810
531.497331	2575.381827
531.858743	2574.731518
532.220098	2574.965932
532.581396	2571.951322
532.942638	2573.221693
533.303824	2577.486509
533.664953	2577.436097
534.026025	2580.259143
534.387040	2580.604462
534.747999	2577.579770
535.108902	2575.969122
535.469748	2578.290573
535.830537	2578.227558
536.191270	2576.543813
536.551947	2578.260326
536.912567	2576.432908
537.273131	2578.535069
537.633638	2577.514235
537.994089	2576.624472
538.354483	2578.968608
538.714821	2577.655387
539.075103	2578.025912
539.435328	2579.036664
539.795497	2576.004410
540.155609	2578.892991
540.515665	2577.146231
540.875665	2578.441807
541.235609	2574.602969
541.595496	2578.792168
541.955328	2577.017682
542.315102	2576.863926
542.674821	2577.378124
543.034483	2579.341653
543.394090	2578.333423
543.753640	2579.021540
544.113134	2575.777558
544.472571	2579.250913
544.831953	2577.783937
545.191278	2578.676221
545.550548	2574.920562
545.909761	2577.506673
546.268918	2577.108422
546.628019	2577.355439
546.987064	2578.041036
547.346053	2578.920717
547.704986	2578.855182
548.063863	2578.388875
548.422684	2575.621282
548.781449	2577.494071
549.140158	2577.667990
549.498811	2578.371231
549.857408	2578.033474
550.215949	2576.284194
550.574434	2574.393761
550.932864	2573.539285
551.291237	2572.856209
551.649555	2577.405850
552.007817	2576.841241
552.366022	2575.893504
552.724173	2575.835531
553.082267	2575.081878
553.440305	2578.192270
553.798288	2576.594225
554.156215	2577.577250
554.514086	2576.311920
554.871902	2581.867272
555.229661	2581.915162
555.587365	2578.799729
555.945014	2576.397620
556.302606	2576.994996
556.660143	2579.568505
557.017625	2578.187229
557.375050	2575.124728
557.732421	2579.230748
558.089735	2582.459607
558.446994	2580.324678
558.804197	2579.455079
559.161345	2579.003896
559.518437	2577.786458
559.875474	2577.869637
560.232455	2577.252095
560.589381	2577.821746
560.946251	2580.299473
561.303065	2577.441138
561.659825	2581.436253
562.016528	2578.141859
562.373177	2578.575398
562.729770	2580.672518
563.086307	2576.132959
563.442789	2577.010120
563.799216	2577.940213
564.155587	2577.471385
564.511904	2577.967939
564.868164	2579.966757
565.224370	2581.655543
565.580520	2578.474575
565.936615	2580.987590
566.292654	2577.065573
566.648638	2579.026581
567.004567	2578.557754
567.360441	2578.209914
567.716260	2580.120512
568.072023	2577.902404
568.427732	2574.688668
568.783385	2573.196487
569.138982	2576.198494
569.494525	2576.921900
569.850013	2576.412743
570.205445	2578.570357
570.560823	2576.067424
570.916145	2577.509194
571.271412	2577.710840
571.626625	2578.484657
571.981782	2578.159503
572.336884	2578.489698
572.691931	2576.014492
573.046923	2577.940213
573.401860	2578.305696
573.756743	2577.458782
574.111570	2575.906107
574.466342	2577.751169
574.821059	2578.827456
575.175722	2579.326530
575.530330	2577.915007
575.884882	2579.543300
576.239380	2578.088927
576.593823	2578.794688
576.948211	2576.634554
577.302544	2579.513053
577.656823	2577.264698
578.011047	2580.856520
578.365216	2578.033474
578.719330	2580.019689
579.073389	2578.295614
579.427394	2578.623289
579.781344	2578.267888
580.135239	2579.273598
580.489080	2578.172106
580.842866	2577.705799
581.196597	2580.508681
581.550273	2578.956005
581.903895	2575.245716
582.257463	2578.419122
582.610975	2576.425346
582.964434	2579.273598
583.317837	2580.317117
583.671186	2579.180337
584.024481	2577.710840
584.377721	2578.376273
584.730906	2579.326530
585.084037	2579.303845
585.437113	2580.538928
585.790135	2577.796540
586.143103	2577.720922
586.496016	2577.554564
586.848874	2576.392578
587.201679	2576.916858
587.554428	2573.844275
587.907124	2574.260170
588.259765	2574.429049
588.612352	2577.751169
588.964884	2574.234965
589.317362	2577.736046
589.669786	2578.156982
590.022155	2581.496747
590.374470	2580.349884
590.726731	2576.700089
591.078937	2577.080696
591.431090	2576.430387
591.783188	2578.701427
592.135232	2576.039698
592.487222	2578.434246
592.839157	2578.484657
593.191038	2579.518094
593.542866	2576.798391
593.894639	2576.821077
594.246358	2579.240830
594.598022	2577.242013
594.949633	2577.499112
595.301190	2578.207394
595.652692	2574.945767
596.004141	2579.681931
596.355535	2578.257805
596.706876	2577.536920
597.058162	2576.185891
597.409395	2576.793350
597.760573	2578.179668
598.111698	2578.275449
598.462768	2577.985583
598.813785	2576.629513
599.164748	2577.675552
599.515657	2577.037846
599.866511	2579.137487
600.217312	2580.312076
600.568060	2576.705130
600.918753	2575.888463
601.269392	2578.068762
601.619978	2579.578588
601.970510	2580.793506
602.320988	2577.431056
602.671412	2576.450552
603.021783	2577.400809
603.372100	2576.238823
603.722363	2579.008937
604.072572	2579.286201
604.422728	2577.718402
604.772830	2574.040880
605.122878	2573.814028
605.472872	2575.906107
605.822813	2571.974007
606.172701	2572.679769
606.522534	2577.206725
606.872314	2577.597414
607.222041	2578.056159
607.571714	2578.083886
607.921333	2577.219328
608.270899	2576.241344
608.620411	2579.162693
608.969870	2578.676221
609.319276	2576.715212
609.668627	2576.649677
610.017926	2577.030284
610.367171	2579.777713
610.716362	2576.246385
611.065500	2577.458783
611.414585	2577.685634
611.763616	2577.068093
612.112594	2579.334092
612.461518	2578.023392
612.810389	2573.945098
613.159207	2578.542631
613.507971	2576.947105
613.856682	2579.155131
614.205340	2577.204204
614.553945	2579.490367
614.902496	2578.199832
615.250994	2578.867785
615.599439	2577.874678
615.947830	2580.380131
616.296169	2578.207394
616.644454	2581.595049
616.992686	2576.140521
617.340864	2576.662280
617.688990	2576.445511
618.037063	2578.164544
618.385082	2579.397106
618.733048	2578.328382
619.080961	2576.957188
619.428821	2577.360480
619.776628	2579.235789
620.124382	2579.069431
620.472083	2578.073803
620.819731	2578.071283
621.167326	2578.749318
621.514868	2577.836869
621.862357	2576.717733
622.209793	2578.416602
622.557176	2579.303845
622.904506	2575.202866
623.251783	2574.494584
623.599007	2573.572053
623.946179	2575.258319
624.293297	2574.144224
624.640363	2577.259657
624.987376	2577.151272
625.334336	2579.263516
625.681243	2577.141190
626.028097	2577.322671
626.374899	2578.557754
626.721647	2577.690676
627.068343	2576.659760
627.414987	2578.167065
627.761577	2575.893504
628.108115	2578.935841
628.454600	2579.442477
628.801032	2578.093968
629.147412	2576.775706
629.493739	2576.425346
629.840014	2576.392578
630.186236	2577.864595
630.532405	2576.415264
630.878521	2578.600604
631.224585	2576.160685
631.570597	2574.229923
631.916556	2574.897876
632.262462	2576.596745
632.608316	2577.670511
632.954117	2576.823597
633.299866	2578.860223
633.645562	2577.879719
633.991206	2578.308217
634.336797	2575.016343
634.682336	2577.902404
635.027823	2575.396951
635.373257	2577.191601
635.718639	2575.649008
636.063968	2577.809143
636.409245	2576.813515
636.754470	2576.949626
637.099642	2576.253947
637.444762	2576.203535
637.789829	2577.748649
638.134845	2573.982907
638.479808	2575.601117
638.824719	2577.491550
639.169577	2575.109605
639.514383	2575.039029
639.859137	2578.235120
640.203839	2576.662280
640.548489	2574.880232
640.893086	2573.882084
641.237632	2576.158165
641.582125	2571.449727
641.926566	2570.718760
642.270955	2575.769996
642.615292	2574.252609
642.959576	2575.427197
643.303809	2576.382496
643.647990	2575.250757
643.992118	2574.804615
644.336195	2574.734039
