Dividing Wavelength (nm)	Counts (n)	Blue Motor Position (mm): 0.000000	Red Motor Position (mm): 38.700000	
326.493990	2128.191152
326.888308	2128.191152
327.282561	2128.191152
327.676750	2095.446337
328.070874	2094.405339
328.464933	2096.323498
328.858929	2104.681731
329.252859	2111.764552
329.646726	2125.063116
330.040528	2137.449231
330.434265	2154.299288
330.827938	2171.189673
331.221547	2190.429237
331.615091	2207.911959
332.008571	2228.124465
332.401986	2248.440315
332.795338	2266.517893
333.188625	2285.265944
333.581847	2306.400981
333.975006	2324.806234
334.368100	2342.359532
334.761129	2359.761595
335.154095	2374.481764
335.546996	2397.509755
335.939833	2413.853176
336.332606	2430.468819
336.725315	2441.801332
337.117960	2450.575461
337.510540	2461.061061
337.903056	2473.691672
338.295508	2482.294401
338.687896	2490.350165
339.080220	2500.324088
339.472480	2503.875580
339.864676	2509.050325
340.256807	2513.625172
340.648875	2517.002745
341.040879	2518.840246
341.432818	2518.915863
341.824694	2521.837212
342.216506	2521.708662
342.608253	2521.214629
342.999937	2523.432737
343.391557	2520.566841
343.783113	2520.324865
344.174605	2519.835873
344.566033	2518.273116
344.957397	2517.844618
345.348697	2515.656757
345.739934	2515.266067
346.131106	2510.976046
346.522215	2511.724657
346.913260	2508.750376
347.304241	2506.955725
347.695159	2505.947495
348.086012	2503.618482
348.476802	2502.244767
348.867528	2497.727893
349.258191	2499.560353
349.648789	2497.644714
350.039324	2498.070692
350.429796	2493.894096
350.820203	2494.872080
351.210548	2495.214878
351.600828	2490.045175
351.991045	2491.854949
352.381198	2492.969044
352.771288	2487.645586
353.161314	2492.628766
353.551276	2491.055926
353.941175	2489.357057
354.331010	2489.959475
354.720782	2491.002994
355.110490	2489.457880
355.500135	2490.090545
355.889717	2490.448467
356.279235	2490.335041
356.668689	2493.001812
357.058080	2488.492499
357.447408	2488.573158
357.836672	2488.384115
358.225873	2491.915443
358.615010	2487.527118
359.004084	2493.158087
359.393095	2491.151708
359.782043	2496.139930
360.170927	2496.961638
360.559748	2495.494662
360.948505	2497.853922
361.337199	2495.754282
361.725830	2499.547750
362.114398	2499.149499
362.502903	2501.302071
362.891344	2500.046824
363.279722	2502.658142
363.668037	2502.559839
364.056289	2499.424242
364.444478	2505.892042
364.832603	2502.801815
365.220665	2503.278204
365.608665	2505.483708
365.996601	2506.630571
366.384474	2505.806342
366.772284	2507.217865
367.160031	2508.626868
367.547715	2510.862620
367.935336	2513.360511
368.322893	2517.075842
368.710388	2520.428209
369.097820	2526.901051
369.485189	2527.574045
369.872495	2537.064017
370.259738	2540.827238
370.646918	2546.191026
371.034035	2556.648899
371.421090	2567.867987
371.808081	2574.870150
372.195010	2585.806933
372.581875	2600.270004
372.968678	2614.087806
373.355418	2620.225411
373.742096	2640.337094
374.128710	2654.001142
374.515262	2671.693071
374.901751	2685.273940
375.288177	2696.427493
375.674540	2721.965978
376.060841	2738.884090
376.447079	2756.394538
376.833254	2777.116201
377.219367	2789.656071
377.605417	2829.135868
377.991404	2837.874708
378.377329	2863.677854
378.763191	2875.985831
379.148991	2915.586615
379.534727	2941.896397
379.920402	2969.874801
380.306013	2979.669763
380.691563	3030.787063
381.077049	3051.523849
381.462474	3072.237950
381.847835	3107.762961
382.233134	3130.133082
382.618371	3132.363792
383.003545	3201.447764
383.388657	3208.044114
383.773706	3241.875298
384.158693	3255.902308
384.543618	3281.627316
384.928480	3319.017554
385.313280	3363.089842
385.698017	3363.173021
386.082692	3416.604211
386.467305	3421.030344
386.851856	3451.620065
387.236344	3475.263077
387.620770	3510.077285
388.005133	3530.950183
388.389435	3560.816499
388.773674	3569.998960
389.157851	3613.670476
389.541965	3630.233187
389.926018	3596.381839
390.310008	3665.944721
390.693936	3686.668904
391.077802	3724.651478
391.461606	3713.868450
391.845348	3777.432359
392.229027	3779.073254
392.612645	3791.411478
392.996200	3870.126575
393.379694	3908.424221
393.763125	3971.887307
394.146494	3938.935805
394.529801	4000.276565
394.913047	4052.213052
395.296230	4015.752907
395.679351	4070.772060
396.062410	4094.964557
396.445408	4076.269438
396.828343	4108.852936
397.211217	4135.301350
397.594028	4056.308990
397.976778	4120.104792
398.359466	4142.681599
398.742092	4175.686033
399.124656	4098.180813
399.507158	4176.845499
399.889598	4205.338100
400.271977	4262.630814
400.654294	4235.872369
401.036549	4242.332608
401.418742	4212.027711
401.800874	4315.893125
402.182944	4336.902133
402.564952	4404.035179
402.946898	4387.464906
403.328783	4383.787385
403.710606	4298.239004
404.092367	4488.845031
404.474067	4458.701451
404.855705	4465.930466
405.237282	4392.256523
405.618797	4502.700642
406.000250	4537.499727
406.381642	4616.083754
406.762972	4578.421293
407.144240	4588.738015
407.525447	4591.210701
407.906593	4648.694978
408.287677	4691.131411
408.668700	4618.354794
409.049661	4666.984284
409.430560	4713.012539
409.811399	4637.629645
410.192176	4801.535201
410.572891	4734.785283
410.953545	4844.700081
411.334138	4720.866657
411.714669	4788.060197
412.095139	4683.355431
412.475547	4828.228111
412.855894	4807.871931
413.236180	4817.767716
413.616405	4769.964975
413.996568	4859.934448
414.376670	4798.770128
414.756711	4756.711782
415.136691	4783.765134
415.516609	4868.353175
415.896466	4900.137650
416.276262	4934.094862
416.655997	4918.449641
417.035670	5101.262044
417.415283	5191.138255
417.794834	5133.187671
418.174324	5089.823666
418.553753	4992.746166
418.933121	5181.227347
419.312428	5251.168315
419.691674	5183.390002
420.070859	5313.950845
420.449983	5224.679573
420.829045	5339.877500
421.208047	5247.221092
421.586988	5320.176670
421.965867	5328.965922
422.344686	5458.841169
422.723444	5315.445547
423.102141	5135.181448
423.480777	5432.455769
423.859352	5202.939597
424.237866	5462.357373
424.616319	5455.216579
424.994712	5560.269184
425.373044	5438.842911
425.751314	5587.650211
426.129524	5385.222678
426.507673	5579.372637
426.885762	5663.219628
427.263789	5597.397282
427.641756	5475.910516
428.019662	5601.163024
428.397508	5606.408345
428.775292	5556.674841
429.153016	5651.955170
429.530679	5574.780145
429.908282	5665.200801
430.285824	5532.678949
430.663305	5804.497964
431.040726	5541.964754
431.418086	5544.278644
431.795385	5648.048275
432.172624	5659.267363
432.549802	5653.033977
432.926920	5666.040153
433.303977	5675.071381
433.680974	5713.303491
434.057910	5731.905349
434.434786	5740.929014
434.811601	5704.829312
435.188355	5943.684222
435.565050	5814.408873
435.941683	5797.939423
436.318257	6012.246435
436.694770	5994.181460
437.071222	6027.500967
437.447614	5958.323733
437.823946	5875.807606
438.200218	6027.460637
438.576429	5888.705398
438.952580	5989.150389
439.328670	6033.343664
439.704700	5942.900323
440.080670	5935.411689
440.456580	6200.347008
440.832429	6083.833340
441.208218	5928.845586
441.583947	6082.812507
441.959616	6088.249391
442.335224	6019.603999
442.710773	6151.523433
443.086261	6181.049472
443.461689	5973.323686
443.837057	6118.468588
444.212365	6281.081087
444.587612	6169.517832
444.962800	6329.521535
445.337927	6304.464479
445.712995	5914.773205
446.088002	6491.884497
446.462949	6322.952911
446.837837	6254.075626
447.212664	6423.405463
447.587431	6573.094965
447.962139	7109.970288
448.336786	8036.103346
448.711374	7785.799975
449.085901	6854.514858
449.460369	6768.669049
449.834776	6705.944492
450.209124	7098.075685
450.583412	7252.423213
450.957640	7401.170019
451.331808	7162.473905
451.705917	6719.316153
452.079965	6633.931610
452.453954	6852.006884
452.827883	6725.829324
453.201752	6817.893396
453.575562	6620.267562
453.949311	6818.563869
454.323001	6711.875410
454.696632	6786.323170
455.070202	6921.673109
455.443713	7077.270843
455.817164	7178.598036
456.190556	7257.832371
456.563888	7340.678694
456.937160	7381.675877
457.310373	7035.363732
457.683526	7059.125210
458.056619	6955.829447
458.429653	6944.943076
458.802628	6873.935903
459.175542	6982.164435
459.548398	7336.897828
459.921194	7498.484453
460.293930	7500.253898
460.666607	8033.832306
461.039224	8344.495933
461.411782	8466.869942
461.784280	8488.272161
462.156719	8379.559678
462.529099	8253.969413
462.901419	7844.509253
463.273680	7737.931699
463.645882	7751.366374
464.018024	7616.732278
464.390106	7780.184130
464.762130	8168.824324
465.134094	8644.016088
465.505999	9664.030555
465.877845	10882.837882
466.249631	11541.308356
466.621358	11153.736887
466.993026	10524.621051
467.364634	10265.825857
467.736184	9903.402183
468.107674	9566.053209
468.479105	9601.048899
468.850477	9361.291622
469.221790	9139.753075
469.593043	8809.305441
469.964238	8672.307044
470.335373	8681.423971
470.706449	8736.685099
471.077467	8720.704641
471.448425	10030.756853
471.819324	11110.072933
472.190164	11131.959102
472.560945	9885.841324
472.931667	9092.310777
473.302330	8959.604922
473.672934	8595.074046
474.043479	8955.909756
474.413965	8896.240139
474.784393	8782.370556
475.154761	8939.168084
475.525070	9024.456846
475.895321	8853.050053
476.265513	9026.228811
476.635645	9197.222229
477.005719	9193.491775
477.375734	9310.915372
477.745691	9545.586125
478.115588	9685.931848
478.485427	9922.021685
478.855207	10460.608480
479.224928	11278.989395
479.594591	11907.812844
479.964194	11725.176881
480.333739	11661.081130
480.703226	11575.671381
481.072653	11667.493478
481.442022	11899.094168
481.811333	12104.506064
482.180584	11905.998028
482.549777	11608.665733
482.918912	11431.131418
483.287988	11457.418515
483.657005	11468.680453
484.025964	11152.814356
484.394864	11276.546956
484.763706	11251.144582
485.132489	11005.784063
485.501213	10964.633124
485.869879	11048.535568
486.238487	10881.406194
486.607036	10992.067083
486.975527	10779.007757
487.343959	10964.794441
487.712333	11007.964362
488.080648	10942.590678
488.448905	10978.990330
488.817104	10922.904973
489.185244	11185.430621
489.553326	11348.781650
489.921350	11882.097918
490.289315	12942.635699
490.657222	13294.301551
491.025070	13192.515613
491.392861	13075.787696
491.760593	12690.149509
492.128267	12343.975995
492.495883	12014.808813
492.863440	11674.530929
493.230939	11339.808396
493.598380	11270.439598
493.965763	11138.046295
494.333088	11044.212778
494.700354	10959.528955
495.067563	11024.527072
495.434713	10855.098933
495.801805	10985.493418
496.168839	10908.575493
496.535815	10841.041675
496.902733	10836.837353
497.269593	10774.238825
497.636395	10879.241019
498.003139	10855.285456
498.369825	10725.276618
498.736453	10887.064889
499.103023	10805.012549
499.469535	10839.836840
499.835989	10829.724285
500.202385	10787.925558
500.568723	10635.229008
500.935003	10859.565395
501.301226	10665.251600
501.667390	10932.495768
502.033497	11027.085458
502.399546	10886.470033
502.765537	10790.431011
503.131470	10865.428257
503.497345	11040.681450
503.863163	10654.360187
504.228923	10963.818977
504.594625	11025.550427
504.960269	10775.715883
505.325856	10995.427012
505.691385	10791.146855
506.056856	10940.733013
506.422270	10964.507095
506.787625	10857.032215
507.152924	10976.847839
507.518164	10955.460744
507.883347	10873.983095
508.248472	10793.370004
508.613540	11028.862465
508.978550	10912.437017
509.343503	10880.506348
509.708398	11000.367343
510.073236	11116.608789
510.438016	11121.544078
510.802738	11067.172713
511.167403	11121.695313
511.532010	11016.597338
511.896561	11251.134500
512.261053	11320.800725
512.625488	11190.799450
512.989866	11171.464104
513.354186	11157.268215
513.718449	11061.773638
514.082655	11252.692216
514.446803	11149.093984
514.810894	11273.323138
515.174927	11141.070988
515.538904	11163.980511
515.902822	11309.453088
516.266684	11196.644668
516.630488	11143.886472
516.994235	11203.994670
517.357925	11263.757549
517.721558	11349.252997
518.085133	11365.513239
518.448651	11374.436082
518.812112	11253.478636
519.175516	11277.383788
519.538863	11397.141438
519.902152	11317.143368
520.265385	11467.147942
520.628560	11385.077957
520.991678	11354.185767
521.354739	11419.022567
521.717743	11349.535302
522.080690	11330.058804
522.443580	11468.451080
522.806413	11417.182546
523.169189	11453.839296
523.531908	11501.815957
523.894569	11324.246354
524.257174	11333.648106
524.619722	11450.310488
524.982213	11395.077086
525.344647	11445.682709
525.707025	11401.038250
526.069345	11495.070893
526.431608	11406.578478
526.793815	11520.934533
527.155964	11305.115175
527.518057	11361.354287
527.880093	11310.075670
528.242072	11377.042358
528.603995	11283.755806
528.965860	11204.841584
529.327669	11258.996179
529.689421	11203.800586
530.051117	11174.720690
530.412755	11277.318253
530.774337	11171.005359
531.135862	11147.866463
531.497331	11168.608291
531.858743	11024.774089
532.220098	11189.536641
532.581396	11065.680532
532.942638	11037.981912
533.303824	11005.574855
533.664953	11014.245639
534.026025	10934.088773
534.387040	11026.702330
534.747999	11028.751559
535.108902	11081.096380
535.469748	10844.293220
535.830537	10950.754827
536.191270	10923.338512
536.551947	10950.989241
536.912567	10943.447675
537.273131	10871.593588
537.633638	10845.349341
537.994089	10840.416572
538.354483	10787.219796
538.714821	10925.070148
539.075103	10932.941910
539.435328	10901.225491
539.795497	10729.659902
540.155609	10884.839220
540.515665	10970.506068
540.875665	10712.225071
541.235609	10778.027252
541.595496	10773.878383
541.955328	10928.112485
542.315102	10808.601850
542.674821	10756.529252
543.034483	10756.342729
543.394090	10761.351115
543.753640	10686.837820
544.113134	10906.737992
544.472571	10763.906980
544.831953	10906.266644
545.191278	10706.737775
545.550548	10729.014634
545.909761	10870.345903
546.268918	10835.723258
546.628019	10920.026474
546.987064	10786.042687
547.346053	10710.581655
547.704986	10800.999790
548.063863	10783.713674
548.422684	10770.586509
548.781449	10690.343943
549.140158	10785.089909
549.498811	10662.012658
549.857408	10512.232416
550.215949	10733.256765
550.574434	10590.297204
550.932864	10685.418736
551.291237	10740.057282
551.649555	10687.117604
552.007817	10697.719151
552.366022	10656.691720
552.724173	10644.519854
553.082267	10627.999993
553.440305	10755.158058
553.798288	10556.823942
554.156215	10702.649399
554.514086	10677.478918
554.871902	10529.342092
555.229661	10557.068438
555.587365	10530.642710
555.945014	10420.014588
556.302606	10538.401045
556.660143	10430.669067
557.017625	10576.749103
557.375050	10467.721548
557.732421	10592.626217
558.089735	10504.156487
558.446994	10495.107616
558.804197	10524.368994
559.161345	10523.060814
559.518437	10369.250169
559.875474	10450.206059
560.232455	10472.094749
560.589381	10416.793291
560.946251	10396.850487
561.303065	10496.561989
561.659825	10432.844325
562.016528	10347.064051
562.373177	10231.278830
562.729770	10332.442184
563.086307	10238.354089
563.442789	10318.231172
563.799216	10194.725423
564.155587	10228.682635
564.511904	10172.904789
564.868164	10152.490636
565.224370	10166.971351
565.580520	10072.739582
565.936615	10075.829810
566.292654	9928.121481
566.648638	10049.096571
567.004567	9992.363425
567.360441	9972.929777
567.716260	9866.982367
568.072023	9946.619995
568.427732	9882.894770
568.783385	9789.295666
569.138982	9838.711577
569.494525	9837.473973
569.850013	9711.611485
570.205445	9771.059292
570.560823	9667.347634
570.916145	9572.684847
571.271412	9622.597311
571.626625	9556.170027
571.981782	9520.881950
572.336884	9481.593718
572.691931	9472.131472
573.046923	9401.073888
573.401860	9348.106484
573.756743	9272.718549
574.111570	9285.639027
574.466342	9262.767312
574.821059	9266.175132
575.175722	9155.645313
575.530330	9140.526893
575.884882	9123.016445
576.239380	9031.605202
576.593823	9000.851643
576.948211	8988.974684
577.302544	8871.503197
577.656823	8857.140950
578.011047	8842.531686
578.365216	8796.563924
578.719330	8707.844658
579.073389	8696.151702
579.427394	8634.306826
579.781344	8595.454653
580.135239	8526.595013
580.489080	8521.589147
580.842866	8404.667145
581.196597	8388.553097
581.550273	8399.252946
581.903895	8346.645985
582.257463	8384.706696
582.610975	8255.640555
582.964434	8264.681864
583.317837	8169.272987
583.671186	8137.571691
584.024481	8099.992409
584.377721	8017.204060
584.730906	7978.188050
585.084037	7976.189233
585.437113	7904.798932
585.790135	7895.009012
586.143103	7785.147146
586.496016	7744.333964
586.848874	7758.653362
587.201679	7729.195379
587.554428	7610.577029
587.907124	7620.558514
588.259765	7580.325065
588.612352	7546.254427
588.964884	7437.431039
589.317362	7413.109992
589.669786	7392.083339
590.022155	7409.029178
590.374470	7390.099645
590.726731	7325.441806
591.078937	7181.254724
591.431090	7234.186839
591.783188	7125.882690
592.135232	7090.314829
592.487222	7074.122643
592.839157	7084.744354
593.191038	7014.904209
593.542866	6947.672860
593.894639	6850.839857
594.246358	6863.278904
594.598022	6849.932449
594.949633	6751.592140
595.301190	6705.979780
595.652692	6707.913063
596.004141	6759.289982
596.355535	6586.113745
596.706876	6544.499020
597.058162	6469.574871
597.409395	6502.390262
597.760573	6517.833837
598.111698	6432.645898
598.462768	6398.537451
598.813785	6355.917016
599.164748	6304.703934
599.515657	6282.235512
599.866511	6186.128434
600.217312	6256.634012
600.568060	6134.940558
600.918753	6176.532598
601.269392	6137.123378
601.619978	6053.609102
601.970510	6072.944448
602.320988	6043.952772
602.671412	6049.311519
603.021783	5992.041490
603.372100	5950.567918
603.722363	5919.368217
604.072572	5883.316405
604.422728	5868.099682
604.772830	5797.699968
605.122878	5770.145022
605.472872	5750.789511
605.822813	5739.547738
606.172701	5685.327608
606.522534	5706.893664
606.872314	5683.177556
607.222041	5638.502851
607.571714	5646.457791
607.921333	5604.359116
608.270899	5575.932049
608.620411	5598.798723
608.969870	5526.773237
609.319276	5500.153424
609.668627	5482.287575
610.017926	5480.344210
610.367171	5475.855063
610.716362	5442.522954
611.065500	5414.131175
611.414585	5398.145676
611.763616	5379.216144
612.112594	5335.738712
612.461518	5318.931505
612.810389	5327.070448
613.159207	5268.497282
613.507971	5223.923399
613.856682	5252.131176
614.205340	5215.575249
614.553945	5224.510694
614.902496	5151.870188
615.250994	5156.382020
615.599439	5121.645950
615.947830	5104.143063
616.296169	5068.280295
616.644454	5048.667686
616.992686	5028.586250
617.340864	5030.743863
617.688990	4958.539417
618.037063	4985.272656
618.385082	4940.633238
618.733048	4949.079692
619.080961	4901.478597
619.428821	4894.027771
619.776628	4866.112382
620.124382	4825.596628
620.472083	4791.314262
620.819731	4785.867295
621.167326	4716.627047
621.514868	4699.860169
621.862357	4639.439420
622.209793	4620.275473
622.557176	4577.052620
622.904506	4538.298750
623.251783	4499.859952
623.599007	4458.197336
623.946179	4436.177576
624.293297	4399.044437
624.640363	4351.478630
624.987376	4328.904343
625.334336	4298.725475
625.681243	4252.258640
626.028097	4229.170155
626.374899	4207.984706
626.721647	4180.245757
627.068343	4146.641425
627.414987	4115.986169
627.761577	4084.219338
628.108115	4083.747990
628.454600	4030.659599
628.801032	4021.091489
629.147412	4003.056761
629.493739	3975.597596
629.840014	3947.939305
630.186236	3945.388482
630.532405	3892.481572
630.878521	3895.332344
631.224585	3866.817058
631.570597	3835.826564
631.916556	3824.236952
632.262462	3811.623985
632.608316	3783.897639
632.954117	3761.774535
633.299866	3751.062083
633.645562	3729.218763
633.991206	3696.022765
634.336797	3664.747447
634.682336	3641.880773
635.027823	3618.578039
635.373257	3599.870317
635.718639	3570.291347
636.063968	3559.115109
636.409245	3520.215046
636.754470	3502.394567
637.099642	3484.634582
637.444762	3458.009728
637.789829	3445.424487
638.134845	3421.655447
638.479808	3407.681368
638.824719	3395.388515
639.169577	3372.549567
639.514383	3357.660519
639.859137	3335.481963
640.203839	3332.172445
640.548489	3311.445741
640.893086	3299.735141
