Dividing Wavelength (nm)	Counts (n)	Blue Motor Position (mm): 0.000000	Red Motor Position (mm): 37.600000	
326.493990	2126.643518
326.888308	2126.643518
327.282561	2126.643518
327.676750	2095.461460
328.070874	2093.404670
328.464933	2096.383992
328.858929	2103.197111
329.252859	2113.344954
329.646726	2124.327107
330.040528	2139.800929
330.434265	2153.434730
330.827938	2171.910558
331.221547	2189.799093
331.615091	2209.794830
332.008571	2227.103631
332.401986	2248.745305
332.795338	2271.049890
333.188625	2284.630758
333.581847	2306.597586
333.975006	2324.176090
334.368100	2342.273832
334.761129	2360.560618
335.154095	2377.357742
335.546996	2397.572769
335.939833	2415.413413
336.332606	2430.650300
336.725315	2444.417691
337.117960	2451.661829
337.510540	2458.663992
337.903056	2476.116467
338.295508	2481.941520
338.687896	2490.884527
339.080220	2498.277379
339.472480	2504.485560
339.864676	2507.948833
340.256807	2511.326406
340.648875	2514.202384
341.040879	2517.426202
341.432818	2519.553569
341.824694	2523.190761
342.216506	2520.687828
342.608253	2522.656399
342.999937	2521.597757
343.391557	2523.447860
343.783113	2520.493744
344.174605	2518.381501
344.566033	2518.419309
344.957397	2516.445698
345.348697	2514.646006
345.739934	2513.274812
346.131106	2512.611900
346.522215	2509.597290
346.913260	2508.964625
347.304241	2505.763493
347.695159	2502.832062
348.086012	2503.250477
348.476802	2500.094715
348.867528	2500.127483
349.258191	2498.695795
349.648789	2498.869715
350.039324	2493.999960
350.429796	2499.842657
350.820203	2494.816627
351.210548	2495.116576
351.600828	2491.434013
351.991045	2489.914105
352.381198	2491.544918
352.771288	2490.471152
353.161314	2491.471821
353.551276	2491.928046
353.941175	2489.483086
354.331010	2490.942500
354.720782	2487.610297
355.110490	2490.266986
355.500135	2488.464773
355.889717	2491.174393
356.279235	2491.227325
356.668689	2491.481904
357.058080	2494.118427
357.447408	2489.530977
357.836672	2490.902171
358.225873	2492.719507
358.615010	2489.485607
359.004084	2492.969044
359.393095	2493.929384
359.782043	2494.950217
360.170927	2494.448623
360.559748	2496.810403
360.948505	2497.768222
361.337199	2494.665392
361.725830	2495.955928
362.114398	2498.597492
362.502903	2500.140085
362.891344	2501.904489
363.279722	2501.135713
363.668037	2502.209479
364.056289	2499.658655
364.444478	2502.423728
364.832603	2502.779129
365.220665	2501.695281
365.608665	2506.804491
365.996601	2502.481701
366.384474	2506.411281
366.772284	2506.907834
367.160031	2508.846158
367.547715	2511.971673
367.935336	2511.517970
368.322893	2518.449556
368.710388	2519.298991
369.097820	2528.589837
369.485189	2527.463139
369.872495	2540.318082
370.259738	2544.136756
370.646918	2550.130687
371.034035	2554.266954
371.421090	2564.127451
371.808081	2574.897876
372.195010	2587.601584
372.581875	2597.532657
372.968678	2614.773403
373.355418	2625.866462
373.742096	2642.124183
374.128710	2656.032727
374.515262	2670.470592
374.901751	2687.174455
375.288177	2700.049562
375.674540	2721.101420
376.060841	2738.889132
376.447079	2761.339910
376.833254	2783.946965
377.219367	2790.250927
377.605417	2830.232319
377.991404	2839.601303
378.377329	2859.728110
378.763191	2877.152858
379.148991	2914.752304
379.534727	2941.941767
379.920402	2971.344297
380.306013	2982.432315
380.691563	3029.746064
381.077049	3052.123746
381.462474	3067.905078
381.847835	3106.215327
382.233134	3129.621404
382.618371	3130.564100
383.003545	3198.365099
383.388657	3208.102087
383.773706	3238.807756
384.158693	3258.513626
384.543618	3284.425157
384.928480	3319.342709
385.313280	3362.658823
385.698017	3359.387114
386.082692	3412.528438
386.467305	3419.137390
386.851856	3453.200467
387.236344	3475.358859
387.620770	3503.443127
388.005133	3533.432951
388.389435	3558.336251
388.773674	3572.728745
389.157851	3615.145014
389.541965	3631.223774
389.926018	3594.216663
390.310008	3664.530677
390.693936	3680.632123
391.077802	3725.793299
391.461606	3712.156978
391.845348	3776.640898
392.229027	3777.699540
392.612645	3788.107002
392.996200	3865.929815
393.379694	3906.473294
393.763125	3973.911330
394.146494	3938.880352
394.529801	4001.723376
394.913047	4052.268505
395.296230	4016.602341
395.679351	4069.635280
396.062410	4094.402469
396.445408	4073.617791
396.828343	4107.602730
397.211217	4132.344713
397.594028	4050.592321
397.976778	4119.174699
398.359466	4146.759893
398.742092	4172.767205
399.124656	4097.918673
399.507158	4178.478833
399.889598	4201.189231
400.271977	4264.332203
400.654294	4231.894899
401.036549	4243.073657
401.418742	4210.054100
401.800874	4315.179801
402.182944	4337.068491
402.564952	4401.885127
402.946898	4387.580853
403.328783	4380.543402
403.710606	4295.998211
404.092367	4488.650946
404.474067	4453.456131
404.855705	4460.806133
405.237282	4387.762334
405.618797	4499.504551
406.000250	4533.285322
406.381642	4617.593579
406.762972	4578.953135
407.144240	4583.742231
407.525447	4585.773816
407.906593	4646.280265
408.287677	4686.604455
408.668700	4617.258343
409.049661	4669.141898
409.430560	4712.135379
409.811399	4635.714007
410.192176	4799.828770
410.572891	4737.235284
410.953545	4836.805634
411.334138	4716.649732
411.714669	4788.047594
412.095139	4683.012633
412.475547	4826.990507
412.855894	4807.579544
413.236180	4816.552798
413.616405	4766.436167
413.996568	4852.808777
414.376670	4794.326351
414.756711	4750.269187
415.136691	4784.765803
415.516609	4862.671794
415.896466	4901.024893
416.276262	4934.581333
416.655997	4915.455196
417.035670	5100.652064
417.415283	5187.624571
417.794834	5133.631293
418.174324	5083.222275
418.553753	4992.829345
418.933121	5177.900185
419.312428	5242.220267
419.691674	5181.791956
420.070859	5308.892048
420.449983	5219.512390
420.829045	5335.884906
421.208047	5243.709928
421.586988	5314.601154
421.965867	5327.234286
422.344686	5462.070028
422.723444	5313.144261
423.102141	5134.334534
423.480777	5431.281181
423.859352	5201.601170
424.237866	5459.020130
424.616319	5446.223161
424.994712	5560.264143
425.373044	5439.634372
425.751314	5581.361372
426.129524	5383.377616
426.507673	5578.215692
426.885762	5655.141179
427.263789	5586.311785
427.641756	5472.636286
428.019662	5591.078196
428.397508	5600.144711
428.775292	5555.328853
429.153016	5649.479963
429.530679	5574.291153
429.908282	5656.605634
430.285824	5528.819946
430.663305	5807.250434
431.040726	5538.514085
431.418086	5542.153798
431.795385	5644.063243
432.172624	5657.936499
432.549802	5650.064737
432.926920	5663.575029
433.303977	5671.172048
433.680974	5714.503286
434.057910	5726.337395
434.434786	5735.373663
434.811601	5705.270413
435.188355	5936.757677
435.565050	5815.512886
435.941683	5794.854237
436.318257	6011.923801
436.694770	5989.510831
437.071222	6024.912334
437.447614	5959.163085
437.823946	5873.667636
438.200218	6022.923599
438.576429	5892.342591
438.952580	5985.959338
439.328670	6032.806781
439.704700	5938.207008
440.080670	5927.988590
440.456580	6198.630496
440.832429	6080.856539
441.208218	5927.350884
441.583947	6080.753195
441.959616	6080.097845
442.335224	6014.625860
442.710773	6151.979658
443.086261	6175.547052
443.461689	5970.477955
443.837057	6124.074351
444.212365	6281.270131
444.587612	6167.647564
444.962800	6321.811090
445.337927	6305.379449
445.712995	5912.250107
446.088002	6491.224106
446.462949	6320.762530
446.837837	6252.890955
447.212664	6425.283293
447.587431	6566.483492
447.962139	7110.219825
448.336786	8039.473357
448.711374	7771.926720
449.085901	6849.451019
449.460369	6767.015551
449.834776	6706.357867
450.209124	7096.076868
450.583412	7246.328458
450.957640	7395.826396
451.331808	7159.078688
451.705917	6714.446398
452.079965	6628.882894
452.453954	6847.096800
452.827883	6721.793880
453.201752	6815.057747
453.575562	6616.169104
453.949311	6817.911040
454.323001	6707.260233
454.696632	6779.285719
455.070202	6919.512975
455.443713	7075.599701
455.817164	7178.109044
456.190556	7257.940756
456.563888	7334.009247
456.937160	7376.531380
457.310373	7033.150665
457.683526	7055.069602
458.056619	6941.845287
458.429653	6932.768689
458.802628	6867.705037
459.175542	6982.492110
459.548398	7335.143507
459.921194	7494.063361
460.293930	7497.277097
460.666607	8026.136985
461.039224	8336.049479
461.411782	8466.890107
461.784280	8477.211869
462.156719	8378.092703
462.529099	8250.435564
462.901419	7838.585897
463.273680	7732.532623
463.645882	7749.002073
464.018024	7613.853779
464.390106	7777.794623
464.762130	8168.196700
465.134094	8632.413873
465.505999	9656.652826
465.877845	10878.893179
466.249631	11532.927438
466.621358	11139.772891
466.993026	10513.487663
467.364634	10260.673798
467.736184	9899.873376
468.107674	9570.186955
468.479105	9595.072611
468.850477	9359.171817
469.221790	9131.362075
469.593043	8800.848905
469.964238	8663.255652
470.335373	8677.524638
470.706449	8729.289726
471.077467	8716.878406
471.448425	10029.657882
471.819324	11101.886099
472.190164	11124.649429
472.560945	9874.423111
472.931667	9087.075538
473.302330	8948.945402
473.672934	8596.321732
474.043479	8955.703069
474.413965	8892.373574
474.784393	8777.689844
475.154761	8934.353782
475.525070	9017.290846
475.895321	8846.592335
476.265513	9025.661682
476.635645	9194.890696
477.005719	9191.366929
477.375734	9309.682810
477.745691	9544.209890
478.115588	9670.410135
478.485427	9921.250389
478.855207	10455.837028
479.224928	11272.851790
479.594591	11902.491906
479.964194	11713.481404
480.333739	11660.597180
480.703226	11569.117881
481.072653	11655.200624
481.442022	11899.283211
481.811333	12084.127199
482.180584	11893.241388
482.549777	11603.102820
482.918912	11430.143352
483.287988	11442.274889
483.657005	11462.492436
484.025964	11139.815740
484.394864	11273.252562
484.763706	11242.887172
485.132489	10994.509522
485.501213	10968.716458
485.869879	11039.655575
486.238487	10883.687316
486.607036	10992.170427
486.975527	10770.677250
487.343959	10956.534510
487.712333	11007.004022
488.080648	10933.070459
488.448905	10983.182049
488.817104	10918.315002
489.185244	11180.785198
489.553326	11339.074908
489.921350	11876.610622
490.289315	12939.636213
490.657222	13283.634469
491.025070	13196.939226
491.392861	13074.817274
491.760593	12685.506606
492.128267	12335.131291
492.495883	12008.691373
492.863440	11671.105465
493.230939	11339.793272
493.598380	11270.099320
493.965763	11137.206943
494.333088	11039.872345
494.700354	10957.877977
495.067563	11018.447441
495.434713	10850.687923
495.801805	10982.539302
496.168839	10902.435368
496.535815	10834.659575
496.902733	10839.730975
497.269593	10764.670715
497.636395	10865.413134
498.003139	10857.548934
498.369825	10722.642616
498.736453	10880.881914
499.103023	10803.711931
499.469535	10831.566827
499.835989	10829.023565
500.202385	10788.938830
500.568723	10636.413679
500.935003	10860.112360
501.301226	10660.439818
501.667390	10918.425908
502.033497	11021.731753
502.399546	10878.933508
502.765537	10784.356421
503.131470	10860.954233
503.497345	11039.547190
503.863163	10648.323405
504.228923	10957.376383
504.594625	11018.518017
504.960269	10770.165573
505.325856	10989.009623
505.691385	10784.452203
506.056856	10937.345358
506.422270	10963.919800
506.787625	10846.176091
507.152924	10971.776439
507.518164	10950.414549
507.883347	10875.694567
508.248472	10791.172061
508.613540	11023.874243
508.978550	10901.701880
509.343503	10878.724300
509.708398	10997.796354
510.073236	11102.768301
510.438016	11113.203489
510.802738	11065.231869
511.167403	11114.544436
511.532010	11007.195586
511.896561	11241.508416
512.261053	11312.974334
512.625488	11178.287306
512.989866	11161.470017
513.354186	11156.552371
513.718449	11054.499253
514.082655	11250.574932
514.446803	11140.829012
514.810894	11265.264854
515.174927	11128.619338
515.538904	11160.812146
515.902822	11313.218830
516.266684	11190.312978
516.630488	11139.311625
516.994235	11197.572240
517.357925	11251.555436
517.721558	11344.466422
518.085133	11353.459840
518.448651	11366.486182
518.812112	11248.311453
519.175516	11256.165571
519.538863	11381.864222
519.902152	11305.364712
520.265385	11458.109153
520.628560	11374.042872
520.991678	11341.083808
521.354739	11406.064281
521.717743	11337.688591
522.080690	11318.567494
522.443580	11452.508431
522.806413	11409.094014
523.169189	11438.710793
523.531908	11493.840852
523.894569	11312.623974
524.257174	11318.983389
524.619722	11433.664598
524.982213	11377.997657
525.344647	11435.295411
525.707025	11383.222813
526.069345	11475.995167
526.431608	11392.324616
526.793815	11496.694145
527.155964	11282.424942
527.518057	11344.841988
527.880093	11287.216558
528.242072	11355.163750
528.603995	11256.561302
528.965860	11179.981134
529.327669	11233.470297
529.689421	11177.379898
530.051117	11145.338324
530.412755	11253.786147
530.774337	11137.489248
531.135862	11122.189346
531.497331	11141.181893
531.858743	10987.898049
532.220098	11155.710498
532.581396	11018.717143
532.942638	11004.188537
533.303824	10965.474996
533.664953	10979.612912
534.026025	10890.845755
534.387040	10985.410239
534.747999	10981.538633
535.108902	11032.010665
535.469748	10793.881681
535.830537	10892.963039
536.191270	10875.069464
536.551947	10889.850127
536.912567	10878.774712
537.273131	10803.590943
537.633638	10779.297623
537.994089	10764.920252
538.354483	10713.122397
538.714821	10851.683551
539.075103	10849.525937
539.435328	10810.577983
539.795497	10635.050047
540.155609	10783.711153
540.515665	10863.298370
540.875665	10605.324883
541.235609	10666.746302
541.595496	10654.957563
541.955328	10802.267641
542.315102	10684.723056
542.674821	10627.901691
543.034483	10614.882911
543.394090	10615.021543
543.753640	10534.809223
544.113134	10746.399053
544.472571	10597.437998
544.831953	10726.312576
545.191278	10536.939111
545.550548	10553.705988
545.909761	10676.669813
546.268918	10643.226798
546.628019	10712.194824
546.987064	10575.357744
547.346053	10487.651750
547.704986	10574.213402
548.063863	10546.524865
548.422684	10525.783037
548.781449	10438.724831
549.140158	10526.514005
549.498811	10399.512216
549.857408	10247.183670
550.215949	10443.919740
550.574434	10299.853645
550.932864	10377.850378
551.291237	10415.540564
551.649555	10362.190033
552.007817	10357.491678
552.366022	10310.833278
552.724173	10285.763620
553.082267	10265.362071
553.440305	10363.825888
553.798288	10164.677626
554.156215	10292.428026
554.514086	10252.492005
554.871902	10099.603891
555.229661	10115.720460
555.587365	10078.864584
555.945014	9967.412234
556.302606	10059.400689
556.660143	9945.548750
557.017625	10058.153004
557.375050	9951.061252
557.732421	10052.673269
558.089735	9955.048805
558.446994	9939.053223
558.804197	9942.642525
559.161345	9923.019834
559.518437	9779.145303
559.875474	9823.996449
560.232455	9834.829888
560.589381	9771.578531
560.946251	9729.016069
561.303065	9814.002361
561.659825	9723.506088
562.016528	9636.765474
562.373177	9511.502883
562.729770	9581.461496
563.086307	9484.270570
563.442789	9547.174088
563.799216	9401.653621
564.155587	9427.038351
564.511904	9358.360191
564.868164	9324.481117
565.224370	9316.253954
565.580520	9208.151451
565.936615	9197.093680
566.292654	9049.279487
566.648638	9138.036563
567.004567	9069.194566
567.360441	9031.290130
567.716260	8916.583715
568.072023	8975.476995
568.427732	8894.818533
568.783385	8802.323443
569.138982	8822.016710
569.494525	8808.972725
569.850013	8684.221811
570.205445	8709.848517
570.560823	8603.460006
570.916145	8504.739090
571.271412	8524.389508
571.626625	8450.813867
571.981782	8400.588852
572.336884	8345.990635
572.691931	8326.456164
573.046923	8241.243020
573.401860	8176.698606
573.756743	8093.348169
574.111570	8096.007377
574.466342	8057.934063
574.821059	8037.474540
575.175722	7927.136285
575.530330	7895.994557
575.884882	7864.615895
576.239380	7767.608972
576.593823	7724.744041
576.948211	7700.057510
577.302544	7594.543640
577.656823	7558.753968
578.011047	7530.276490
578.365216	7475.557285
578.719330	7393.207517
579.073389	7356.812907
579.427394	7304.435318
579.781344	7254.124603
580.135239	7180.097779
580.489080	7158.501476
580.842866	7052.639766
581.196597	7024.595827
581.550273	7016.146853
581.903895	6954.478418
582.257463	6971.643547
582.610975	6849.922367
582.964434	6845.123188
583.317837	6756.071206
583.671186	6722.890331
584.024481	6681.792324
584.377721	6598.625889
584.730906	6550.888682
585.084037	6533.292535
585.437113	6474.646272
585.790135	6442.236693
586.143103	6355.296954
586.496016	6312.643752
586.848874	6309.692156
587.201679	6277.380880
587.554428	6169.437174
587.907124	6168.983470
588.259765	6119.963290
588.612352	6085.771664
588.964884	6001.324775
589.317362	5973.588347
589.669786	5936.588798
590.022155	5944.604233
590.374470	5911.088121
590.726731	5860.656418
591.078937	5744.059571
591.431090	5764.191419
591.783188	5679.300909
592.135232	5635.440350
592.487222	5617.637515
592.839157	5606.063026
593.191038	5544.535743
593.542866	5491.772506
593.894639	5410.612450
594.246358	5408.790073
594.598022	5385.094129
594.949633	5307.699815
595.301190	5265.402013
595.652692	5251.465743
596.004141	5265.185244
596.355535	5146.471112
596.706876	5104.783290
597.058162	5046.754568
597.409395	5054.704468
597.760573	5055.407709
598.111698	4995.652392
598.462768	4954.045228
598.813785	4919.130197
599.164748	4873.699318
599.515657	4850.804918
599.866511	4781.516779
600.217312	4816.124300
600.568060	4734.318976
600.918753	4746.455554
601.269392	4708.233526
601.619978	4646.497035
601.970510	4648.359741
602.320988	4628.507677
602.671412	4616.504690
603.021783	4573.226384
603.372100	4536.491496
603.722363	4503.839943
604.072572	4485.573322
604.422728	4456.879074
604.772830	4410.785284
605.122878	4391.754928
605.472872	4363.816854
605.822813	4347.254143
606.172701	4311.625788
606.522534	4308.467505
606.872314	4293.875885
607.222041	4250.950460
607.571714	4246.985593
607.921333	4216.370665
608.270899	4193.453580
608.620411	4197.073128
608.969870	4149.091426
609.319276	4128.447901
609.668627	4108.994088
610.017926	4101.608798
610.367171	4095.440946
610.716362	4072.536464
611.065500	4048.243143
611.414585	4027.397972
611.763616	4011.510776
612.112594	3981.026919
612.461518	3966.218529
612.810389	3964.043271
613.159207	3927.489865
613.507971	3900.691091
613.856682	3903.667892
614.205340	3878.958677
614.553945	3881.786764
614.902496	3836.066019
615.250994	3832.885051
615.599439	3811.230775
615.947830	3793.818629
616.296169	3776.061165
616.644454	3753.270108
616.992686	3739.981627
617.340864	3732.006522
617.688990	3694.349102
618.037063	3704.474260
618.385082	3675.545598
618.733048	3677.476360
619.080961	3651.461486
619.428821	3639.292141
619.776628	3621.149028
620.124382	3601.828806
620.472083	3577.021288
620.819731	3566.187848
621.167326	3528.290974
621.514868	3517.719674
621.862357	3476.914055
622.209793	3463.812096
622.557176	3438.666820
622.904506	3415.273346
623.251783	3388.855179
623.599007	3362.719317
623.946179	3352.367308
624.293297	3331.328052
624.640363	3309.267963
624.987376	3288.047226
625.334336	3271.950822
625.681243	3249.343767
626.028097	3240.317581
626.374899	3225.955334
626.721647	3209.586707
627.068343	3193.936445
627.414987	3177.411543
627.761577	3160.906805
628.108115	3158.451763
628.454600	3136.361427
628.801032	3127.352885
629.147412	3116.196812
629.493739	3108.138527
629.840014	3093.148656
630.186236	3090.844849
630.532405	3066.974986
630.878521	3065.142526
631.224585	3051.700289
631.570597	3040.156047
631.916556	3033.123638
632.262462	3028.120292
632.608316	3013.863909
632.954117	3004.041221
633.299866	2996.406393
633.645562	2987.115547
633.991206	2970.630974
634.336797	2956.266206
634.682336	2944.288424
635.027823	2934.170829
635.373257	2924.910229
635.718639	2909.522107
636.063968	2904.813669
636.409245	2886.695762
636.754470	2876.658825
637.099642	2871.731097
637.444762	2859.231556
637.789829	2850.802747
638.134845	2844.922241
638.479808	2838.867815
638.824719	2829.806341
639.169577	2820.762511
639.514383	2818.471307
639.859137	2805.576035
640.203839	2804.043524
640.548489	2799.811476
640.893086	2790.969292
641.237632	2782.525359
