Dividing Wavelength (nm)	Counts (n)	Blue Motor Position (mm): 0.000000	Red Motor Position (mm): 4.000000	
326.493990	2126.514968
326.888308	2126.514968
327.282561	2126.514968
327.676750	2093.311408
328.070874	2094.702767
328.464933	2094.644793
328.858929	2103.940681
329.252859	2112.422423
329.646726	2125.010184
330.040528	2134.996709
330.434265	2153.994298
330.827938	2172.656649
331.221547	2188.349761
331.615091	2208.085878
332.008571	2229.248642
332.401986	2246.325551
332.795338	2267.049734
333.188625	2284.446756
333.581847	2304.588687
333.975006	2320.924546
334.368100	2339.723008
334.761129	2358.244208
335.154095	2373.115611
335.546996	2393.973385
335.939833	2406.757752
336.332606	2422.750812
336.725315	2434.640373
337.117960	2442.922989
337.510540	2452.644854
337.903056	2462.175156
338.295508	2467.052472
338.687896	2481.147538
339.080220	2484.268012
339.472480	2493.543736
339.864676	2495.555156
340.256807	2503.310971
340.648875	2506.224758
341.040879	2507.779954
341.432818	2508.904131
341.824694	2511.591066
342.216506	2511.293638
342.608253	2511.563340
342.999937	2509.103257
343.391557	2510.426560
343.783113	2510.247599
344.174605	2511.520490
344.566033	2506.454131
344.957397	2507.636281
345.348697	2506.244923
345.739934	2505.176198
346.131106	2500.331649
346.522215	2497.231340
346.913260	2497.238901
347.304241	2496.424755
347.695159	2494.773777
348.086012	2492.205309
348.476802	2487.491830
348.867528	2489.072232
349.258191	2489.031903
349.648789	2486.276912
350.039324	2482.110399
350.429796	2488.406800
350.820203	2483.060656
351.210548	2481.601242
351.600828	2479.670480
351.991045	2482.773310
352.381198	2477.656539
352.771288	2478.717702
353.161314	2477.621251
353.551276	2476.229893
353.941175	2478.102681
354.331010	2477.482619
354.720782	2477.016313
355.110490	2478.962198
355.500135	2479.267188
355.889717	2479.834318
356.279235	2480.391365
356.668689	2480.466983
357.058080	2476.935654
357.447408	2478.397589
357.836672	2477.144862
358.225873	2476.749132
358.615010	2475.942547
359.004084	2480.363639
359.393095	2479.884729
359.782043	2484.159628
360.170927	2481.790285
360.559748	2482.763228
360.948505	2484.177272
361.337199	2485.288846
361.725830	2483.458907
362.114398	2485.349340
362.502903	2484.789772
362.891344	2485.377066
363.279722	2485.833291
363.668037	2489.929228
364.056289	2487.416213
364.444478	2489.473004
364.832603	2488.764722
365.220665	2488.515185
365.608665	2488.308497
365.996601	2489.777994
366.384474	2488.379073
366.772284	2492.351503
367.160031	2491.035762
367.547715	2494.410814
367.935336	2495.507265
368.322893	2496.848212
368.710388	2498.854591
369.097820	2504.414984
369.485189	2504.059583
369.872495	2504.162926
370.259738	2509.153668
370.646918	2507.442197
371.034035	2511.205418
371.421090	2512.987466
371.808081	2515.137518
372.195010	2517.973167
372.581875	2518.673887
372.968678	2521.277643
373.355418	2521.479290
373.742096	2524.766122
374.128710	2525.880217
374.515262	2530.306350
374.901751	2530.387008
375.288177	2531.743079
375.674540	2531.120496
376.060841	2534.220806
376.447079	2530.129910
376.833254	2532.015301
377.219367	2529.461957
377.605417	2534.258615
377.991404	2528.509179
378.377329	2532.731145
378.763191	2527.805938
379.148991	2533.850281
379.534727	2532.191742
379.920402	2531.821217
380.306013	2530.238294
380.691563	2528.030269
381.077049	2527.034641
381.462474	2528.037831
381.847835	2526.659075
382.233134	2524.698066
382.618371	2521.060874
383.003545	2523.163035
383.388657	2516.574247
383.773706	2519.740092
384.158693	2516.027282
384.543618	2516.486027
384.928480	2513.025275
385.313280	2512.034688
385.698017	2513.852024
386.082692	2511.180212
386.467305	2510.199708
386.851856	2510.119049
387.236344	2508.871364
387.620770	2508.410098
388.005133	2507.661487
388.389435	2505.753410
388.773674	2505.541682
389.157851	2506.933040
389.541965	2505.713081
389.926018	2506.116373
390.310008	2506.985972
390.693936	2506.807011
391.077802	2504.979593
391.461606	2506.882629
391.845348	2503.999089
392.229027	2504.631753
392.612645	2504.442710
392.996200	2504.291476
393.379694	2503.956239
393.763125	2504.984634
394.146494	2507.452279
394.529801	2505.710560
394.913047	2505.871877
395.296230	2510.345901
395.679351	2507.147289
396.062410	2507.106960
396.445408	2507.895901
396.828343	2507.779954
397.211217	2504.268790
397.594028	2504.740138
397.976778	2502.882473
398.359466	2507.600993
398.742092	2501.841475
399.124656	2507.606034
399.507158	2510.139214
399.889598	2509.771210
400.271977	2507.898421
400.654294	2510.887825
401.036549	2511.835562
401.418742	2509.496467
401.800874	2510.635768
402.182944	2510.955881
402.564952	2510.222393
402.946898	2510.580315
403.328783	2511.296159
403.710606	2508.105108
404.092367	2509.461179
404.474067	2511.356653
404.855705	2512.052332
405.237282	2510.512259
405.618797	2510.761797
406.000250	2511.810357
406.381642	2514.288084
406.762972	2513.262209
407.144240	2509.970335
407.525447	2516.135667
407.906593	2512.473268
408.287677	2511.845645
408.668700	2510.928155
409.049661	2513.421005
409.430560	2513.214318
409.811399	2513.615090
410.192176	2514.431757
410.572891	2513.950326
410.953545	2513.000069
411.334138	2511.911180
411.714669	2513.955368
412.095139	2515.167765
412.475547	2513.524349
412.855894	2514.764473
413.236180	2511.754904
413.616405	2514.696417
413.996568	2512.879081
414.376670	2512.319513
414.756711	2516.811181
415.136691	2516.735564
415.516609	2512.894205
415.896466	2516.692714
416.276262	2517.146418
416.655997	2514.245234
417.035670	2511.497805
417.415283	2513.816736
417.794834	2513.138701
418.174324	2514.950995
418.553753	2516.551562
418.933121	2518.283198
419.312428	2517.128774
419.691674	2514.976201
420.070859	2517.133815
420.449983	2515.535769
420.829045	2520.808816
421.208047	2517.741274
421.586988	2518.565503
421.965867	2519.374608
422.344686	2518.888137
422.723444	2516.160872
423.102141	2519.460307
423.480777	2516.826305
423.859352	2518.731861
424.237866	2519.490554
424.616319	2518.094155
424.994712	2518.898219
425.373044	2520.312262
425.751314	2520.065246
426.129524	2517.771521
426.507673	2515.576098
426.885762	2518.804957
427.263789	2522.817716
427.641756	2518.409227
428.019662	2524.501461
428.397508	2520.375277
428.775292	2523.289064
429.153016	2518.817560
429.530679	2521.214629
429.908282	2518.091634
430.285824	2518.668846
430.663305	2518.527694
431.040726	2520.798734
431.418086	2517.940400
431.795385	2520.839063
432.172624	2521.479290
432.549802	2521.756553
432.926920	2518.608352
433.303977	2521.519619
433.680974	2524.045237
434.057910	2521.328055
434.434786	2519.999711
434.811601	2521.915349
435.188355	2520.455935
435.565050	2522.119516
435.941683	2521.963240
436.318257	2520.405524
436.694770	2518.215142
437.071222	2517.718589
437.447614	2517.262364
437.823946	2521.149094
438.200218	2520.607170
438.576429	2519.818229
438.952580	2520.924763
439.328670	2524.514064
439.704700	2522.142201
440.080670	2524.718231
440.456580	2524.181348
440.832429	2526.384332
441.208218	2519.551048
441.583947	2523.868797
441.959616	2521.222191
442.335224	2525.434075
442.710773	2523.715041
443.086261	2524.405679
443.461689	2526.091945
443.837057	2527.420289
444.212365	2528.483973
444.587612	2523.163035
444.962800	2528.327697
445.337927	2522.714372
445.712995	2519.576254
446.088002	2525.431554
446.462949	2525.663447
446.837837	2527.125382
447.212664	2525.222346
447.587431	2524.635052
447.962139	2523.168076
448.336786	2524.884589
448.711374	2525.900382
449.085901	2524.693025
449.460369	2524.680422
449.834776	2524.146060
450.209124	2524.221677
450.583412	2524.957686
450.957640	2525.812161
451.331808	2524.425844
451.705917	2528.095804
452.079965	2525.698735
452.453954	2526.217974
452.827883	2526.086904
453.201752	2526.565814
453.575562	2526.114631
453.949311	2525.282840
454.323001	2525.247552
454.696632	2526.389373
455.070202	2528.589837
455.443713	2525.696215
455.817164	2524.458612
456.190556	2523.626821
456.563888	2523.057171
456.937160	2519.911491
457.310373	2525.751668
457.683526	2526.462470
458.056619	2528.189065
458.429653	2527.904240
458.802628	2524.478776
459.175542	2524.168745
459.548398	2528.937677
459.921194	2527.097656
460.293930	2529.023376
460.666607	2529.053623
461.039224	2524.647655
461.411782	2527.261493
461.784280	2527.531195
462.156719	2526.553211
462.529099	2530.334076
462.901419	2526.366688
463.273680	2530.266021
463.645882	2527.644621
464.018024	2528.017666
464.390106	2526.407018
464.762130	2526.321318
465.134094	2527.100176
465.505999	2528.766278
465.877845	2527.616894
466.249631	2529.086391
466.621358	2526.938859
466.993026	2531.019673
467.364634	2531.387678
467.736184	2529.000691
468.107674	2527.349713
468.479105	2528.501617
468.850477	2528.451205
469.221790	2529.146885
469.593043	2530.087060
469.964238	2527.432892
470.335373	2529.035979
470.706449	2529.915661
471.077467	2530.684437
471.448425	2530.026566
471.819324	2529.532533
472.190164	2530.571011
472.560945	2528.519261
472.931667	2531.049920
473.302330	2532.529499
473.672934	2529.570342
474.043479	2530.634025
474.413965	2528.017666
474.784393	2525.484486
475.154761	2529.172090
475.525070	2526.185207
475.895321	2525.446678
476.265513	2526.656555
476.635645	2530.364323
477.005719	2530.366844
477.375734	2529.068747
477.745691	2529.678726
478.115588	2531.259128
478.485427	2531.753161
478.855207	2529.933305
479.224928	2530.936494
479.594591	2531.831299
479.964194	2531.637215
480.333739	2531.145702
480.703226	2531.682585
481.072653	2529.207378
481.442022	2529.562780
481.811333	2532.632842
482.180584	2528.978006
482.549777	2533.497400
482.918912	2530.727286
483.287988	2532.504293
483.657005	2532.673172
484.025964	2529.129241
484.394864	2532.569828
484.763706	2532.176618
485.132489	2530.427338
485.501213	2531.392719
485.869879	2531.440610
486.238487	2530.447502
486.607036	2532.461443
486.975527	2531.317101
487.343959	2530.381967
487.712333	2530.147554
488.080648	2531.924560
488.448905	2530.969262
488.817104	2527.606812
489.185244	2532.479087
489.553326	2531.415404
489.921350	2532.113604
490.289315	2532.642925
490.657222	2534.301464
491.025070	2534.041845
491.392861	2533.928419
491.760593	2531.095291
492.128267	2531.768285
492.495883	2531.097811
492.863440	2534.881197
493.230939	2532.794159
493.598380	2534.644263
493.965763	2527.160670
494.333088	2531.606968
494.700354	2528.496576
495.067563	2529.961031
495.434713	2528.914992
495.801805	2532.317770
496.168839	2533.772143
496.535815	2532.113604
496.902733	2530.331556
497.269593	2535.246681
497.636395	2530.510517
498.003139	2532.524458
498.369825	2532.602596
498.736453	2533.530168
499.103023	2533.449509
499.469535	2534.117462
499.835989	2533.719211
500.202385	2532.887421
500.568723	2533.630991
500.935003	2532.826927
501.301226	2534.004036
501.667390	2533.550332
502.033497	2532.884900
502.399546	2534.034283
502.765537	2531.463295
503.131470	2532.758871
503.497345	2533.971269
503.863163	2533.129396
504.228923	2533.265507
504.594625	2535.108049
504.960269	2533.457071
505.325856	2534.069571
505.691385	2534.188038
506.056856	2532.549663
506.422270	2530.833151
506.787625	2535.584438
507.152924	2534.810621
507.518164	2533.772143
507.883347	2532.219468
508.248472	2536.131403
508.613540	2532.617719
508.978550	2533.265507
509.343503	2534.684592
509.708398	2536.829603
510.073236	2533.136958
510.438016	2533.381454
510.802738	2533.719211
511.167403	2534.228368
511.532010	2533.923378
511.896561	2534.861032
512.261053	2536.534696
512.625488	2532.048069
512.989866	2531.148223
513.354186	2532.874818
513.718449	2530.984385
514.082655	2532.988244
514.446803	2534.208203
514.810894	2533.699047
515.174927	2537.386651
515.538904	2534.041845
515.902822	2537.568132
516.266684	2534.566125
516.630488	2535.251722
516.994235	2535.602082
517.357925	2534.566125
517.721558	2536.353214
518.085133	2536.322967
518.448651	2534.855991
518.812112	2536.128883
519.175516	2535.400436
519.538863	2534.341794
519.902152	2535.718029
520.265385	2532.784077
520.628560	2535.115611
520.991678	2534.462781
521.354739	2536.743903
521.717743	2535.211393
522.080690	2537.121990
522.443580	2534.432534
522.806413	2539.599717
523.169189	2534.992103
523.531908	2535.382792
523.894569	2534.341794
524.257174	2536.600231
524.619722	2533.895652
524.982213	2534.601413
525.344647	2533.446989
525.707025	2535.455889
526.069345	2533.991433
526.431608	2534.256094
526.793815	2534.351876
527.155964	2537.348842
527.518057	2536.133924
527.880093	2536.242309
528.242072	2537.379089
528.603995	2533.348686
528.965860	2534.510672
529.327669	2537.830272
529.689421	2536.229706
530.051117	2536.605272
530.412755	2536.116280
530.774337	2536.267514
531.135862	2535.914634
531.497331	2531.720394
531.858743	2531.228881
532.220098	2533.446989
532.581396	2530.835671
532.942638	2530.066895
533.303824	2534.558563
533.664953	2536.232226
534.026025	2539.012423
534.387040	2539.357742
534.747999	2534.379602
535.108902	2537.258101
535.469748	2535.899510
535.830537	2536.713657
536.191270	2536.759027
536.551947	2535.430683
536.912567	2535.521424
537.273131	2534.140148
537.633638	2535.420601
537.994089	2537.482432
538.354483	2536.385982
538.714821	2533.958666
539.075103	2534.475384
539.435328	2536.224665
539.795497	2533.489839
540.155609	2535.375230
540.515665	2536.963194
540.875665	2538.404964
541.235609	2535.400436
541.595496	2536.670807
541.955328	2537.260622
542.315102	2535.181146
542.674821	2536.489325
543.034483	2537.006043
543.394090	2539.884542
543.753640	2536.259953
544.113134	2538.094933
544.472571	2534.379602
544.831953	2537.699202
545.191278	2537.210210
545.550548	2538.059645
545.909761	2534.757689
546.268918	2533.782226
546.628019	2537.963863
546.987064	2536.161650
547.346053	2535.554191
547.704986	2536.683410
548.063863	2535.919675
548.422684	2534.649304
548.781449	2535.539068
549.140158	2536.774150
549.498811	2534.999664
549.857408	2535.226516
550.215949	2532.864736
550.574434	2532.882380
550.932864	2536.660724
551.291237	2531.536392
551.649555	2535.415559
552.007817	2537.182484
552.366022	2538.009233
552.724173	2535.309695
553.082267	2537.205169
553.440305	2538.639377
553.798288	2537.658873
554.156215	2538.825900
554.514086	2535.967566
554.871902	2534.982020
555.229661	2536.222144
555.587365	2537.479912
555.945014	2537.923533
556.302606	2534.493028
556.660143	2538.760365
557.017625	2537.991589
557.375050	2539.715664
557.732421	2537.963863
558.089735	2535.783564
558.446994	2538.362114
558.804197	2537.880684
559.161345	2534.694674
559.518437	2535.062679
559.875474	2535.889428
560.232455	2537.187525
560.589381	2535.972607
560.946251	2540.839841
561.303065	2536.128883
561.659825	2538.402443
562.016528	2536.721218
562.373177	2536.738862
562.729770	2536.456558
563.086307	2538.107536
563.442789	2535.297092
563.799216	2536.837165
564.155587	2537.545447
564.511904	2535.952442
564.868164	2536.509490
565.224370	2537.621064
565.580520	2534.989582
565.936615	2537.918492
566.292654	2536.196938
566.648638	2536.922864
567.004567	2536.829603
567.360441	2538.203317
567.716260	2536.748945
568.072023	2538.188194
568.427732	2532.905065
568.783385	2535.181146
569.138982	2535.972607
569.494525	2533.835158
569.850013	2531.848943
570.205445	2537.520241
570.560823	2536.794315
570.916145	2534.671989
571.271412	2535.896990
571.626625	2538.989737
571.981782	2538.742721
572.336884	2535.952442
572.691931	2537.711805
573.046923	2536.542257
573.401860	2533.946063
573.756743	2538.425128
574.111570	2535.949922
574.466342	2537.845396
574.821059	2537.454706
575.175722	2538.841023
575.530330	2536.590148
575.884882	2537.331198
576.239380	2535.287010
576.593823	2538.155427
576.948211	2539.871939
577.302544	2536.514531
577.656823	2537.434542
578.011047	2536.562422
578.365216	2538.583925
578.719330	2538.543595
579.073389	2537.016126
579.427394	2539.151054
579.781344	2535.914634
580.135239	2535.160981
580.489080	2538.299099
580.842866	2537.573173
581.196597	2537.857998
581.550273	2536.615354
581.903895	2538.677186
582.257463	2536.701054
582.610975	2537.079140
582.964434	2535.728111
583.317837	2534.792977
583.671186	2537.255581
584.024481	2536.673327
584.377721	2536.827083
584.730906	2540.519728
585.084037	2539.060314
585.437113	2537.827752
585.790135	2536.086033
586.143103	2539.025026
586.496016	2538.533513
586.848874	2533.270548
587.201679	2534.871115
587.554428	2534.740045
587.907124	2538.236085
588.259765	2531.002029
588.612352	2540.207176
588.964884	2536.874973
589.317362	2537.626105
589.669786	2537.061496
590.022155	2537.527803
590.374470	2537.474871
590.726731	2535.972607
591.078937	2538.440252
591.431090	2539.173740
591.783188	2539.584594
592.135232	2538.359593
592.487222	2536.620395
592.839157	2537.870601
593.191038	2536.101156
593.542866	2536.413708
593.894639	2537.696682
594.246358	2534.959335
594.598022	2535.778523
594.949633	2536.199459
595.301190	2538.904038
595.652692	2536.204500
596.004141	2538.147865
596.355535	2539.100643
596.706876	2539.269522
597.058162	2536.305323
597.409395	2536.436393
597.760573	2534.956814
598.111698	2536.385982
598.462768	2536.668286
598.813785	2537.958822
599.164748	2539.415715
599.515657	2537.946219
599.866511	2537.636188
600.217312	2536.786753
600.568060	2537.394212
600.918753	2537.691640
601.269392	2536.068389
601.619978	2537.593338
601.970510	2540.733977
602.320988	2538.049562
602.671412	2539.113246
603.021783	2535.712988
603.372100	2538.974614
603.722363	2535.269366
604.072572	2539.753472
604.422728	2538.009233
604.772830	2532.471526
605.122878	2535.234078
605.472872	2532.572349
605.822813	2532.136289
606.172701	2534.556043
606.522534	2536.857329
606.872314	2537.081661
607.222041	2536.121321
607.571714	2537.777340
607.921333	2537.401774
608.270899	2537.875643
608.620411	2539.163657
608.969870	2539.050231
609.319276	2540.597866
609.668627	2543.199101
610.017926	2543.741025
610.367171	2547.206818
610.716362	2542.319420
611.065500	2545.991900
611.414585	2539.967721
611.763616	2540.411343
612.112594	2539.952598
612.461518	2538.851106
612.810389	2539.735828
613.159207	2539.534182
613.507971	2538.828421
613.856682	2537.174922
614.205340	2537.142155
614.553945	2539.062834
614.902496	2539.317413
615.250994	2538.379758
615.599439	2537.149716
615.947830	2539.692978
616.296169	2538.296579
616.644454	2537.116949
616.992686	2538.906558
617.340864	2541.555685
617.688990	2537.109387
618.037063	2537.222813
618.385082	2537.754655
618.733048	2538.152906
619.080961	2538.205838
619.428821	2539.640046
619.776628	2534.515713
620.124382	2539.876981
620.472083	2536.713657
620.819731	2538.563760
621.167326	2537.406815
621.514868	2538.992258
621.862357	2537.275745
622.209793	2537.764737
622.557176	2537.978986
622.904506	2535.818852
623.251783	2531.947246
623.599007	2536.514531
623.946179	2530.369364
624.293297	2533.736855
624.640363	2538.074768
624.987376	2537.547967
625.334336	2535.002185
625.681243	2539.476209
626.028097	2537.056455
626.374899	2535.140817
626.721647	2536.234747
627.068343	2537.142155
627.414987	2537.542926
627.761577	2537.724408
628.108115	2537.663914
628.454600	2534.480425
628.801032	2537.555529
629.147412	2538.306661
629.493739	2538.067206
629.840014	2538.725077
630.186236	2539.027546
630.532405	2536.769109
630.878521	2536.970755
631.224585	2535.879346
631.570597	2535.050076
631.916556	2537.268183
632.262462	2535.622247
632.608316	2535.458409
632.954117	2535.670138
633.299866	2537.933616
633.645562	2536.902700
633.991206	2538.324305
634.336797	2535.352545
634.682336	2538.195756
635.027823	2534.735004
635.373257	2537.018646
635.718639	2534.049407
636.063968	2535.723070
636.409245	2535.874304
636.754470	2537.784902
637.099642	2533.383974
637.444762	2539.203987
637.789829	2536.970755
638.134845	2536.811959
638.479808	2540.580222
638.824719	2536.882535
639.169577	2537.484953
639.514383	2533.709129
639.859137	2534.782895
640.203839	2537.273225
640.548489	2536.496887
640.893086	2537.144675
641.237632	2531.100332
641.582125	2533.383974
641.926566	2531.617050
642.270955	2535.849099
642.615292	2535.891948
642.959576	2539.629964
643.303809	2538.072247
643.647990	2538.271373
643.992118	2537.016126
644.336195	2535.045035
