Dividing Wavelength (nm)	Counts (n)	Blue Motor Position (mm): 0.000000	Red Motor Position (mm): 15.800000	
326.493990	2127.160236
326.888308	2127.160236
327.282561	2127.160236
327.676750	2097.266193
328.070874	2096.855339
328.464933	2096.583117
328.858929	2105.488315
329.252859	2115.731940
329.646726	2122.499689
330.040528	2136.519138
330.434265	2154.964720
330.827938	2172.754952
331.221547	2190.462005
331.615091	2208.602597
332.008571	2227.975751
332.401986	2251.417116
332.795338	2269.197266
333.188625	2287.335338
333.581847	2306.892494
333.975006	2323.830771
334.368100	2342.677124
334.761129	2361.906606
335.154095	2374.960674
335.546996	2393.895248
335.939833	2410.014337
336.332606	2425.304157
336.725315	2437.128183
337.117960	2445.753597
337.510540	2455.914043
337.903056	2467.596917
338.295508	2471.985241
338.687896	2479.282311
339.080220	2490.045175
339.472480	2496.959117
339.864676	2498.322749
340.256807	2504.838441
340.648875	2506.733915
341.040879	2510.552589
341.432818	2512.198525
341.824694	2510.272805
342.216506	2514.938393
342.608253	2511.555778
342.999937	2513.211797
343.391557	2512.465707
343.783113	2512.332116
344.174605	2513.559637
344.566033	2509.425891
344.957397	2509.680469
345.348697	2507.893380
345.739934	2506.544871
346.131106	2504.762823
346.522215	2503.008502
346.913260	2499.920795
347.304241	2498.973058
347.695159	2496.923829
348.086012	2497.468274
348.476802	2496.999447
348.867528	2492.258241
349.258191	2492.885865
349.648789	2489.609115
350.039324	2490.582058
350.429796	2486.725575
350.820203	2483.358084
351.210548	2485.966881
351.600828	2485.697180
351.991045	2483.179123
352.381198	2481.477734
352.771288	2481.765080
353.161314	2481.134935
353.551276	2483.095944
353.941175	2479.294914
354.331010	2483.532004
354.720782	2482.806078
355.110490	2482.793475
355.500135	2481.255923
355.889717	2482.402786
356.279235	2484.406644
356.668689	2482.730461
357.058080	2483.859679
357.447408	2482.382621
357.836672	2482.349853
358.225873	2482.002014
358.615010	2480.703917
359.004084	2489.437716
359.393095	2485.571151
359.782043	2486.319762
360.170927	2486.962509
360.559748	2488.275730
360.948505	2489.475524
361.337199	2491.610453
361.725830	2490.574496
362.114398	2490.677840
362.502903	2490.088025
362.891344	2492.444764
363.279722	2490.014928
363.668037	2494.347800
364.056289	2492.192706
364.444478	2494.388129
364.832603	2495.527430
365.220665	2494.738489
365.608665	2497.311998
365.996601	2495.000629
366.384474	2497.143119
366.772284	2502.078409
367.160031	2498.834427
367.547715	2500.946670
367.935336	2504.646877
368.322893	2506.673421
368.710388	2509.909842
369.097820	2519.727489
369.485189	2517.814371
369.872495	2527.493386
370.259738	2534.440096
370.646918	2542.150541
371.034035	2547.224462
371.421090	2558.012532
371.808081	2568.374623
372.195010	2577.355439
372.581875	2592.504106
372.968678	2605.170005
373.355418	2615.920266
373.742096	2633.327370
374.128710	2647.114926
374.515262	2658.369302
374.901751	2675.960408
375.288177	2688.706966
375.674540	2712.889381
376.060841	2729.671382
376.447079	2749.185688
376.833254	2766.912906
377.219367	2780.483692
377.605417	2820.023982
377.991404	2827.805003
378.377329	2849.310565
378.763191	2866.548791
379.148991	2905.078330
379.534727	2928.411310
379.920402	2957.377780
380.306013	2968.286837
380.691563	3020.518232
381.077049	3042.437169
381.462474	3059.703121
381.847835	3099.750047
382.233134	3119.637399
382.618371	3115.375104
383.003545	3187.408151
383.388657	3193.752443
383.773706	3227.560941
384.158693	3241.986203
384.543618	3269.286572
384.928480	3307.949701
385.313280	3349.461083
385.698017	3345.564271
386.082692	3403.051068
386.467305	3406.811769
386.851856	3440.254784
387.236344	3462.546766
387.620770	3493.915346
388.005133	3519.673122
388.389435	3545.052811
388.773674	3557.232238
389.157851	3597.417796
389.541965	3615.349180
389.926018	3579.748552
390.310008	3653.051970
390.693936	3668.135102
391.077802	3709.535578
391.461606	3697.214998
391.845348	3758.775048
392.229027	3756.602311
392.612645	3773.855660
392.996200	3848.091692
393.379694	3885.436559
393.763125	3950.578349
394.146494	3919.819749
394.529801	3978.655056
394.913047	4023.433105
395.296230	3987.318279
395.679351	4039.985733
396.062410	4061.473652
396.445408	4042.148388
396.828343	4062.512129
397.211217	4084.297476
397.594028	4000.523581
397.976778	4054.446283
398.359466	4074.636104
398.742092	4091.960030
399.124656	4008.372658
399.507158	4073.895055
399.889598	4082.898556
400.271977	4128.105103
400.654294	4087.138166
401.036549	4072.299530
401.418742	4029.023744
401.800874	4103.693315
402.182944	4096.360957
402.564952	4136.622132
402.946898	4103.002677
403.328783	4073.620312
403.710606	3973.092142
404.092367	4105.692133
404.474067	4047.809604
404.855705	4028.701111
405.237282	3942.078964
405.618797	3993.473527
406.000250	3989.377590
406.381642	4014.674100
406.762972	3949.877629
407.144240	3924.472734
407.525447	3886.293556
407.906593	3889.033423
408.287677	3879.351887
408.668700	3795.777118
409.049661	3785.422588
409.430560	3767.100514
409.811399	3688.060263
410.192176	3732.021645
410.572891	3659.711334
410.953545	3672.838499
411.334138	3569.933425
411.714669	3557.506981
412.095139	3474.297696
412.475547	3492.130778
412.855894	3443.440793
413.236180	3398.892117
413.616405	3343.971266
413.996568	3336.243177
414.376670	3280.094806
414.756711	3226.875344
415.136691	3200.336190
415.516609	3183.655012
415.896466	3159.782628
416.276262	3131.113586
416.655997	3090.839808
417.035670	3097.882300
417.415283	3084.797985
417.794834	3037.910213
418.174324	2999.655417
418.553753	2951.671194
418.933121	2953.070114
419.312428	2929.986671
419.691674	2892.714900
420.070859	2883.454300
420.449983	2845.484330
420.829045	2831.023780
421.208047	2799.725776
421.586988	2782.268260
421.965867	2761.357554
422.344686	2752.568302
422.723444	2726.717266
423.102141	2694.345496
423.480777	2696.838347
423.859352	2669.268276
424.237866	2668.524706
424.616319	2655.435350
424.994712	2647.344298
425.373044	2633.796197
425.751314	2623.539970
426.129524	2609.293669
426.507673	2604.612958
426.885762	2601.633636
427.263789	2589.744074
427.641756	2581.126222
428.019662	2577.794019
428.397508	2571.474933
428.775292	2571.096846
429.153016	2564.639128
429.530679	2561.138047
429.908282	2560.729713
430.285824	2552.152190
430.663305	2553.946841
431.040726	2550.297046
431.418086	2546.246478
431.795385	2547.874771
432.172624	2543.589790
432.549802	2542.979811
432.926920	2543.897301
433.303977	2543.625078
433.680974	2539.945036
434.057910	2541.396888
434.434786	2540.302958
434.811601	2541.638864
435.188355	2541.258257
435.565050	2538.977135
435.941683	2540.136600
436.318257	2535.130734
436.694770	2534.525796
437.071222	2538.641898
437.447614	2533.983872
437.823946	2536.852288
438.200218	2538.399923
438.576429	2538.256250
438.952580	2536.640560
439.328670	2536.580066
439.704700	2536.640560
440.080670	2538.435211
440.456580	2540.794471
440.832429	2540.202135
441.208218	2533.991433
441.583947	2537.258101
441.959616	2536.602751
442.335224	2537.495035
442.710773	2535.907072
443.086261	2537.116949
443.461689	2536.055786
443.837057	2536.693492
444.212365	2537.616023
444.587612	2539.897145
444.962800	2539.410674
445.337927	2536.993441
445.712995	2537.517721
446.088002	2539.186342
446.462949	2539.531662
446.837837	2539.282124
447.212664	2537.086702
447.587431	2540.081147
447.962139	2541.832948
448.336786	2544.230017
448.711374	2543.786395
449.085901	2543.647764
449.460369	2540.244985
449.834776	2539.922351
450.209124	2539.471168
450.583412	2540.151723
450.957640	2542.148020
451.331808	2541.417053
451.705917	2541.177598
452.079965	2538.034439
452.453954	2540.943185
452.827883	2543.151210
453.201752	2541.689275
453.575562	2540.396219
453.949311	2542.062321
454.323001	2542.231199
454.696632	2540.915458
455.070202	2542.395037
455.443713	2543.481406
455.817164	2539.571991
456.190556	2542.097609
456.563888	2540.257588
456.937160	2536.728780
457.310373	2542.198432
457.683526	2540.123997
458.056619	2540.829759
458.429653	2548.199926
458.802628	2542.261446
459.175542	2541.545603
459.548398	2542.697506
459.921194	2547.030378
460.293930	2545.364277
460.666607	2547.894936
461.039224	2549.944165
461.411782	2549.341747
461.784280	2551.597663
462.156719	2549.034237
462.529099	2551.592622
462.901419	2544.986190
463.273680	2550.244113
463.645882	2548.278063
464.018024	2544.988711
464.390106	2549.649257
464.762130	2552.051367
465.134094	2552.069011
465.505999	2556.873231
465.877845	2558.937583
466.249631	2562.426062
466.621358	2562.325239
466.993026	2562.368088
467.364634	2562.746175
467.736184	2556.532953
468.107674	2556.868190
468.479105	2553.452808
468.850477	2554.130843
469.221790	2556.343910
469.593043	2553.924156
469.964238	2552.283260
470.335373	2553.357026
470.706449	2553.825853
471.077467	2555.126471
471.448425	2558.536812
471.819324	2564.210630
472.190164	2562.935218
472.560945	2559.222408
472.931667	2556.699311
473.302330	2557.969682
473.672934	2553.969526
474.043479	2555.572613
474.413965	2556.069167
474.784393	2551.693445
475.154761	2553.805689
475.525070	2554.284598
475.895321	2553.833415
476.265513	2551.585060
476.635645	2555.202088
477.005719	2556.074208
477.375734	2556.832902
477.745691	2560.374312
478.115588	2560.011349
478.485427	2560.318859
478.855207	2562.904971
479.224928	2562.973027
479.594591	2568.969479
479.964194	2566.068295
480.333739	2567.691547
480.703226	2567.530230
481.072653	2565.221382
481.442022	2568.679613
481.811333	2567.192473
482.180584	2568.142730
482.549777	2567.721794
482.918912	2564.608881
483.287988	2567.079047
483.657005	2563.714077
484.025964	2564.044272
484.394864	2565.274314
484.763706	2563.043603
485.132489	2560.238201
485.501213	2564.182904
485.869879	2563.784653
486.238487	2562.862122
486.607036	2564.523182
486.975527	2561.894220
487.343959	2562.264745
487.712333	2563.512430
488.080648	2560.223077
488.448905	2561.057388
488.817104	2560.747358
489.185244	2561.576627
489.553326	2564.621484
489.921350	2565.085270
490.289315	2567.840261
490.657222	2571.094326
491.025070	2568.621640
491.392861	2570.796898
491.760593	2566.920250
492.128267	2569.062741
492.495883	2565.594427
492.863440	2563.482183
493.230939	2562.615105
493.598380	2565.420507
493.965763	2559.066133
494.333088	2558.690567
494.700354	2557.934394
495.067563	2561.511092
495.434713	2555.827191
495.801805	2563.071329
496.168839	2561.564024
496.535815	2562.037893
496.902733	2560.434806
497.269593	2566.307750
497.636395	2562.423541
498.003139	2563.479663
498.369825	2562.521844
498.736453	2560.281051
499.103023	2561.100238
499.469535	2562.617626
499.835989	2563.320867
500.202385	2563.898079
500.568723	2564.192986
500.935003	2563.502348
501.301226	2561.269117
501.667390	2562.415979
502.033497	2563.023438
502.399546	2563.555280
502.765537	2563.109138
503.131470	2564.843295
503.497345	2562.726010
503.863163	2564.969324
504.228923	2562.688202
504.594625	2562.040413
504.960269	2566.108625
505.325856	2565.533933
505.691385	2562.925136
506.056856	2564.586196
506.422270	2562.121072
506.787625	2565.039900
507.152924	2559.872717
507.518164	2564.349262
507.883347	2563.613253
508.248472	2563.114179
508.613540	2562.557132
508.978550	2565.624674
509.343503	2563.706515
509.708398	2561.221226
510.073236	2564.198027
510.438016	2565.702812
510.802738	2564.195507
511.167403	2566.547205
511.532010	2564.235836
511.896561	2566.164077
512.261053	2568.127607
512.625488	2563.129303
512.989866	2560.311298
513.354186	2564.326577
513.718449	2559.119065
514.082655	2565.206258
514.446803	2562.216854
514.810894	2564.336659
515.174927	2564.969324
515.538904	2564.122410
515.902822	2565.221382
516.266684	2562.892368
516.630488	2564.487894
516.994235	2561.732903
517.357925	2565.092832
517.721558	2566.365723
518.085133	2564.102245
518.448651	2564.833213
518.812112	2565.932184
519.175516	2566.395970
519.538863	2564.233315
519.902152	2563.913202
520.265385	2565.319684
520.628560	2563.187276
520.991678	2563.583007
521.354739	2567.847823
521.717743	2561.392625
522.080690	2565.962431
522.443580	2564.608881
522.806413	2566.920250
523.169189	2567.333625
523.531908	2563.945970
523.894569	2566.579972
524.257174	2566.602658
524.619722	2567.643656
524.982213	2566.073337
525.344647	2564.225754
525.707025	2564.256001
526.069345	2565.947308
526.431608	2565.954869
526.793815	2563.557801
527.155964	2565.659962
527.518057	2564.399673
527.880093	2565.123079
528.242072	2564.795404
528.603995	2566.826989
528.965860	2564.694581
529.327669	2566.337997
529.689421	2564.223233
530.051117	2565.367575
530.412755	2566.000240
530.774337	2566.917730
531.135862	2562.186607
531.497331	2565.274314
531.858743	2560.681822
532.220098	2564.495455
532.581396	2560.344065
532.942638	2560.828016
533.303824	2562.360527
533.664953	2564.722307
534.026025	2563.633418
534.387040	2564.480332
534.747999	2568.077195
535.108902	2565.952349
535.469748	2563.353634
535.830537	2564.361865
536.191270	2561.024621
536.551947	2568.903944
536.912567	2564.167780
537.273131	2562.342883
537.633638	2562.153839
537.994089	2563.751885
538.354483	2564.278686
538.714821	2565.415466
539.075103	2562.221895
539.435328	2565.433110
539.795497	2563.981258
540.155609	2562.862122
540.515665	2565.105435
540.875665	2565.009653
541.235609	2563.550239
541.595496	2563.882955
541.955328	2564.351782
542.315102	2562.284909
542.674821	2562.310115
543.034483	2564.616443
543.394090	2565.944787
543.753640	2565.791032
544.113134	2562.315156
544.472571	2565.564180
544.831953	2564.513099
545.191278	2563.393963
545.550548	2563.068809
545.909761	2561.090156
546.268918	2562.237018
546.628019	2564.576114
546.987064	2562.486556
547.346053	2565.387740
547.704986	2564.966803
548.063863	2565.206258
548.422684	2564.712225
548.781449	2562.322718
549.140158	2566.101063
549.498811	2565.203737
549.857408	2563.661144
550.215949	2557.609239
550.574434	2560.200392
550.932864	2561.795918
551.291237	2562.337842
551.649555	2562.728531
552.007817	2563.202399
552.366022	2564.069478
552.724173	2564.361865
553.082267	2564.606361
553.440305	2562.892368
553.798288	2562.171483
554.156215	2563.404046
554.514086	2564.051834
554.871902	2567.711712
555.229661	2560.336503
555.587365	2563.736762
555.945014	2563.404046
556.302606	2565.760785
556.660143	2563.943449
557.017625	2564.961762
557.375050	2563.020918
557.732421	2561.715259
558.089735	2564.916392
558.446994	2564.876062
558.804197	2564.777760
559.161345	2564.722307
559.518437	2562.819272
559.875474	2564.601320
560.232455	2561.216185
560.589381	2566.048131
560.946251	2566.287586
561.303065	2564.069478
561.659825	2567.512586
562.016528	2563.893038
562.373177	2563.688871
562.729770	2562.826833
563.086307	2564.492935
563.442789	2564.760116
563.799216	2563.071329
564.155587	2563.502348
564.511904	2564.308933
564.868164	2563.996381
565.224370	2564.568552
565.580520	2559.333314
565.936615	2561.369940
566.292654	2561.087635
566.648638	2564.548387
567.004567	2563.404046
567.360441	2561.606874
567.716260	2563.729200
568.072023	2562.244580
568.427732	2558.635114
568.783385	2562.501679
569.138982	2559.444219
569.494525	2561.518654
569.850013	2559.570248
570.205445	2563.519992
570.560823	2564.981927
570.916145	2560.543191
571.271412	2561.317008
571.626625	2562.562173
571.981782	2562.975547
572.336884	2563.338511
572.691931	2564.235836
573.046923	2560.268448
573.401860	2559.837429
573.756743	2561.828685
574.111570	2559.310629
574.466342	2562.572255
574.821059	2561.392625
575.175722	2559.706359
575.530330	2559.729044
575.884882	2562.645352
576.239380	2564.230795
576.593823	2564.069478
576.948211	2563.056206
577.302544	2561.218705
577.656823	2561.826164
578.011047	2564.750034
578.365216	2562.201730
578.719330	2560.099569
579.073389	2560.734755
579.427394	2559.171997
579.781344	2559.814744
580.135239	2561.218705
580.489080	2560.679302
580.842866	2558.798952
581.196597	2561.437996
581.550273	2559.441699
581.903895	2559.454302
582.257463	2558.614949
582.610975	2560.349106
582.964434	2561.120403
583.317837	2561.344734
583.671186	2562.662996
584.024481	2560.822975
584.377721	2560.674261
584.730906	2561.211144
585.084037	2562.456309
585.437113	2560.744837
585.790135	2563.018397
586.143103	2558.188972
586.496016	2559.134188
586.848874	2555.111348
587.201679	2556.323745
587.554428	2555.000442
587.907124	2557.170659
588.259765	2554.352654
588.612352	2560.490259
588.964884	2558.972871
589.317362	2560.051678
589.669786	2557.896585
590.022155	2560.780125
590.374470	2558.128478
590.726731	2556.084290
591.078937	2558.937583
591.431090	2562.226936
591.783188	2558.047820
592.135232	2557.342058
592.487222	2558.637635
592.839157	2560.906154
593.191038	2560.079405
593.542866	2559.129147
593.894639	2559.194682
594.246358	2559.250135
594.598022	2558.635114
594.949633	2558.869528
595.301190	2556.474980
595.652692	2560.293654
596.004141	2559.902964
596.355535	2560.512944
596.706876	2557.097562
597.058162	2555.519681
597.409395	2556.013714
597.760573	2556.064126
598.111698	2557.485731
598.462768	2556.658982
598.813785	2559.638304
599.164748	2558.340207
599.515657	2560.449929
599.866511	2557.440361
600.217312	2555.875082
600.568060	2557.745350
600.918753	2560.659137
601.269392	2558.423386
601.619978	2558.251986
601.970510	2559.250135
602.320988	2557.382387
602.671412	2554.501368
603.021783	2555.590257
603.372100	2555.930535
603.722363	2555.945658
604.072572	2557.412634
604.422728	2555.008004
604.772830	2553.886347
605.122878	2549.460214
605.472872	2552.638662
605.822813	2550.138249
606.172701	2555.345761
606.522534	2556.268292
606.872314	2557.818447
607.222041	2554.745864
607.571714	2559.529919
607.921333	2556.530432
608.270899	2556.785011
608.620411	2558.292316
608.969870	2556.885834
609.319276	2559.597974
609.668627	2559.265258
610.017926	2565.859087
610.367171	2562.443706
610.716362	2564.999571
611.065500	2563.764488
611.414585	2560.959086
611.763616	2562.642831
612.112594	2561.450598
612.461518	2560.182748
612.810389	2557.712583
613.159207	2554.564382
613.507971	2559.043448
613.856682	2561.619477
614.205340	2558.935063
614.553945	2560.102090
614.902496	2558.415824
615.250994	2559.746688
615.599439	2556.341389
615.947830	2556.689229
616.296169	2558.781308
616.644454	2556.870710
616.992686	2558.486400
617.340864	2557.584033
617.688990	2558.380536
618.037063	2560.031514
618.385082	2556.643858
618.733048	2560.626370
619.080961	2559.386246
619.428821	2556.033879
619.776628	2558.194013
620.124382	2559.575289
620.472083	2556.520350
620.819731	2559.126627
621.167326	2556.051523
621.514868	2559.666030
621.862357	2558.582182
622.209793	2557.321893
622.557176	2557.546225
622.904506	2553.611604
623.251783	2552.815102
623.599007	2551.789227
623.946179	2552.202602
624.293297	2551.786707
624.640363	2555.368446
624.987376	2553.503219
625.334336	2554.496327
625.681243	2554.234187
626.028097	2553.911553
626.374899	2554.229146
626.721647	2552.774773
627.068343	2557.331976
627.414987	2555.726368
627.761577	2554.420709
628.108115	2553.029351
628.454600	2555.900288
628.801032	2552.477345
629.147412	2555.038251
629.493739	2556.162428
629.840014	2555.300391
630.186236	2551.481717
630.532405	2554.231666
630.878521	2553.808209
631.224585	2554.977757
631.570597	2552.852911
631.916556	2553.893909
632.262462	2552.023641
632.608316	2556.011193
632.954117	2553.341903
633.299866	2551.166645
633.645562	2556.696790
633.991206	2554.544218
634.336797	2552.484906
634.682336	2552.994063
635.027823	2550.687735
635.373257	2553.165462
635.718639	2552.989022
636.063968	2552.081614
636.409245	2552.157231
636.754470	2553.079763
637.099642	2550.339895
637.444762	2552.542880
637.789829	2549.787889
638.134845	2552.169834
638.479808	2550.476007
638.824719	2552.283260
639.169577	2551.637993
639.514383	2551.136398
639.859137	2551.907694
640.203839	2550.402910
640.548489	2549.661860
640.893086	2548.086500
641.237632	2545.691952
641.582125	2547.030378
641.926566	2544.474513
642.270955	2549.747560
642.615292	2548.530121
642.959576	2550.541542
643.303809	2550.758311
643.647990	2552.308466
643.992118	2549.477858
644.336195	2550.087838
