Dividing Wavelength (nm)	Counts (n)	Blue Motor Position (mm): 0.000000	Red Motor Position (mm): 9.500000	
326.493990	2083.632393
326.888308	2083.632393
327.282561	2083.632393
327.676750	2062.031049
328.070874	2064.448282
328.464933	2070.308623
328.858929	2079.183575
329.252859	2092.640935
329.646726	2106.557040
330.040528	2121.524226
330.434265	2142.707154
330.827938	2161.833292
331.221547	2182.323062
331.615091	2200.783767
332.008571	2221.397045
332.401986	2245.554254
332.795338	2262.679054
333.188625	2282.362239
333.581847	2300.565846
333.975006	2316.747950
334.368100	2337.202431
334.761129	2354.576768
335.154095	2371.888090
335.546996	2387.124978
335.939833	2400.340363
336.332606	2414.178330
336.725315	2426.990422
337.117960	2434.809252
337.510540	2441.221600
337.903056	2453.325410
338.295508	2456.279526
338.687896	2464.110959
339.080220	2471.801239
339.472480	2477.893473
339.864676	2479.267188
340.256807	2483.718527
340.648875	2483.572333
341.040879	2486.231542
341.432818	2486.019813
341.824694	2487.242293
342.216506	2485.009062
342.608253	2485.750112
342.999937	2487.338075
343.391557	2483.247179
343.783113	2482.344812
344.174605	2479.178968
344.566033	2483.544607
344.957397	2480.005717
345.348697	2476.265181
345.739934	2474.135293
346.131106	2474.765438
346.522215	2474.268884
346.913260	2468.905096
347.304241	2468.201855
347.695159	2466.722277
348.086012	2467.606999
348.476802	2464.244549
348.867528	2461.534929
349.258191	2461.214816
349.648789	2464.284879
350.039324	2460.418314
350.429796	2460.138530
350.820203	2458.336317
351.210548	2459.228601
351.600828	2458.611060
351.991045	2457.736420
352.381198	2458.079218
352.771288	2458.734568
353.161314	2457.179372
353.551276	2459.251287
353.941175	2456.483693
354.331010	2459.052161
354.720782	2456.521502
355.110490	2459.941925
355.500135	2461.330762
355.889717	2458.323714
356.279235	2459.110134
356.668689	2461.416462
357.058080	2462.235650
357.447408	2459.301698
357.836672	2456.826492
358.225873	2459.251287
358.615010	2455.175514
359.004084	2461.713890
359.393095	2463.324539
359.782043	2464.247070
360.170927	2464.922585
360.559748	2466.515589
360.948505	2467.412915
361.337199	2469.547843
361.725830	2470.243522
362.114398	2467.385188
362.502903	2470.041876
362.891344	2471.181177
363.279722	2467.042390
363.668037	2470.861064
364.056289	2469.510035
364.444478	2472.018009
364.832603	2471.612196
365.220665	2473.558081
365.608665	2471.405508
365.996601	2473.865592
366.384474	2474.604121
366.772284	2472.685962
367.160031	2475.385499
367.547715	2479.660398
367.935336	2476.088740
368.322893	2476.328195
368.710388	2475.062866
369.097820	2484.220122
369.485189	2475.922382
369.872495	2480.950933
370.259738	2483.582416
370.646918	2482.317086
371.034035	2483.695842
371.421090	2488.701707
371.808081	2488.242962
372.195010	2494.299909
372.581875	2493.190855
372.968678	2498.884838
373.355418	2505.967659
373.742096	2516.428053
374.128710	2522.530370
374.515262	2534.727442
374.901751	2544.187167
375.288177	2561.299364
375.674540	2577.463824
376.060841	2595.352358
376.447079	2618.960082
376.833254	2642.698875
377.219367	2662.359375
377.605417	2694.461443
377.991404	2719.841132
378.377329	2755.923190
378.763191	2786.969136
379.148991	2829.541681
379.534727	2878.582025
379.920402	2919.541400
380.306013	2963.202834
380.691563	3024.069725
381.077049	3073.800708
381.462474	3128.000673
381.847835	3195.060622
382.233134	3262.349944
382.618371	3319.259530
383.003545	3396.179976
383.388657	3473.554126
383.773706	3556.556724
384.158693	3625.439050
384.543618	3709.248233
384.928480	3779.615178
385.313280	3877.774006
385.698017	3975.005260
386.082692	4083.415274
386.467305	4137.196824
386.851856	4248.447527
387.236344	4386.159247
387.620770	4440.328966
388.005133	4541.457033
388.389435	4662.785003
388.773674	4728.970312
389.157851	4831.840097
389.541965	4942.311943
389.926018	4944.588024
390.310008	5080.237912
390.693936	5166.900388
391.077802	5236.243979
391.461606	5327.322506
391.845348	5391.261981
392.229027	5465.608918
392.612645	5610.655517
392.996200	5662.954967
393.379694	5761.547334
393.763125	5891.288990
394.146494	5912.938225
394.529801	5961.839938
394.913047	6087.218475
395.296230	6021.577611
395.679351	6002.484241
396.062410	6121.929340
396.445408	5976.920549
396.828343	6012.561507
397.211217	6030.137490
397.594028	5875.744592
397.976778	5929.833652
398.359466	5949.809224
398.742092	5854.891859
399.124656	5854.856571
399.507158	5877.778697
399.889598	5799.875226
400.271977	5826.303475
400.654294	5748.132823
401.036549	5757.632878
401.418742	5670.541904
401.800874	5719.262135
402.182944	5654.851312
402.564952	5720.104008
402.946898	5537.377304
403.328783	5453.590807
403.710606	5430.353608
404.092367	5423.719450
404.474067	5452.958142
404.855705	5272.404176
405.237282	5139.133712
405.618797	5175.331718
406.000250	5146.937418
406.381642	5143.728724
406.762972	5017.462944
407.144240	4852.072768
407.525447	4811.367972
407.906593	4693.548644
408.287677	4650.628261
408.668700	4579.726952
409.049661	4472.131085
409.430560	4403.420158
409.811399	4301.177997
410.192176	4240.734562
410.572891	4150.389523
410.953545	4138.401659
411.334138	3965.951348
411.714669	3963.529074
412.095139	3780.436887
412.475547	3761.804782
412.855894	3667.331038
413.236180	3627.452991
413.616405	3518.818646
413.996568	3479.737101
414.376670	3409.102974
414.756711	3336.041531
415.136691	3298.104328
415.516609	3248.164137
415.896466	3198.554142
416.276262	3165.637928
416.655997	3135.280100
417.035670	3087.293356
417.415283	3074.650142
417.794834	3028.649613
418.174324	2980.052890
418.553753	2936.756941
418.933121	2916.393200
419.312428	2874.428114
419.691674	2837.594924
420.070859	2821.780824
420.449983	2786.228087
420.829045	2773.088319
421.208047	2745.477920
421.586988	2736.015674
421.965867	2719.357181
422.344686	2699.626105
422.723444	2696.051927
423.102141	2662.470280
423.480777	2664.708553
423.859352	2646.242806
424.237866	2649.267498
424.616319	2633.186218
424.994712	2634.413739
425.373044	2618.524022
425.751314	2621.314300
426.129524	2609.200408
426.507673	2612.698968
426.885762	2604.701178
427.263789	2601.164808
427.641756	2594.618870
428.019662	2592.516709
428.397508	2588.970257
428.775292	2588.738364
429.153016	2584.241655
429.530679	2586.036306
429.908282	2580.811150
430.285824	2576.632033
430.663305	2578.981211
431.040726	2574.187074
431.418086	2572.200859
431.795385	2574.338308
432.172624	2575.709502
432.549802	2569.410580
432.926920	2569.219017
433.303977	2570.582649
433.680974	2570.476784
434.057910	2569.526527
434.434786	2570.144068
434.811601	2567.099211
435.188355	2568.399829
435.565050	2567.232802
435.941683	2567.613409
436.318257	2569.007288
436.694770	2562.448747
437.071222	2568.712381
437.447614	2560.344065
437.823946	2561.924467
438.200218	2564.886145
438.576429	2563.817420
438.952580	2564.860939
439.328670	2568.417473
439.704700	2566.058213
440.080670	2564.394632
440.456580	2566.259859
440.832429	2567.164746
441.208218	2563.046124
441.583947	2564.692060
441.959616	2561.417831
442.335224	2567.031156
442.710773	2566.491752
443.086261	2567.026115
443.461689	2564.734910
443.837057	2566.600137
444.212365	2565.493604
444.587612	2569.014850
444.962800	2570.292782
445.337927	2567.822617
445.712995	2562.073181
446.088002	2569.975190
446.462949	2574.290417
446.837837	2573.942578
447.212664	2573.163719
447.587431	2582.227714
447.962139	2591.095104
448.336786	2599.095415
448.711374	2592.287337
449.085901	2585.857345
449.460369	2578.582960
449.834776	2583.137642
450.209124	2590.926225
450.583412	2588.549321
450.957640	2590.497727
451.331808	2585.297777
451.705917	2580.851479
452.079965	2578.885429
452.453954	2582.492375
452.827883	2581.857189
453.201752	2581.194277
453.575562	2581.645461
453.949311	2583.949268
454.323001	2583.561099
454.696632	2583.949268
455.070202	2589.532346
455.443713	2588.503951
455.817164	2591.079980
456.190556	2587.677201
456.563888	2587.931780
456.937160	2587.173086
457.310373	2589.968406
457.683526	2588.022520
458.056619	2588.279619
458.429653	2586.507654
458.802628	2592.070567
459.175542	2591.006883
459.548398	2592.708273
459.921194	2596.879828
460.293930	2599.901999
460.666607	2605.487598
461.039224	2612.010851
461.411782	2613.263578
461.784280	2608.419029
462.156719	2608.721498
462.529099	2608.235027
462.901419	2603.030035
463.273680	2602.538523
463.645882	2601.283276
464.018024	2597.915785
464.390106	2602.702360
464.762130	2612.096551
465.134094	2625.357306
465.505999	2642.963536
465.877845	2654.464928
466.249631	2659.221257
466.621358	2652.965185
466.993026	2648.239103
467.364634	2644.498567
467.736184	2636.588997
468.107674	2632.263687
468.479105	2630.960548
468.850477	2628.719755
469.221790	2626.604991
469.593043	2618.836573
469.964238	2618.347581
470.335373	2616.663836
470.706449	2623.630711
471.077467	2631.704118
471.448425	2648.327323
471.819324	2654.217912
472.190164	2648.407982
472.560945	2637.841723
472.931667	2629.440640
473.302330	2623.862604
473.672934	2620.313631
474.043479	2622.083076
474.413965	2617.924124
474.784393	2613.939092
475.154761	2618.319855
475.525070	2614.511263
475.895321	2612.998917
476.265513	2609.971704
476.635645	2618.322376
477.005719	2617.493106
477.375734	2617.828343
477.745691	2617.709875
478.115588	2623.635752
478.485427	2627.162039
478.855207	2632.016670
479.224928	2640.649646
479.594591	2642.824904
479.964194	2641.128556
480.333739	2639.948926
480.703226	2638.192083
481.072653	2639.744759
481.442022	2637.456075
481.811333	2637.400622
482.180584	2633.954994
482.549777	2631.482308
482.918912	2627.204889
483.287988	2626.841926
483.657005	2622.231790
484.025964	2622.360340
484.394864	2619.610390
484.763706	2617.109978
485.132489	2612.706530
485.501213	2614.571757
485.869879	2609.923813
486.238487	2610.397682
486.607036	2609.903649
486.975527	2609.326437
487.343959	2607.960284
487.712333	2608.565222
488.080648	2607.015067
488.448905	2610.057404
488.817104	2608.514811
489.185244	2607.393154
489.553326	2613.170316
489.921350	2615.128805
490.289315	2624.427213
490.657222	2625.821092
491.025070	2625.334621
491.392861	2623.880248
491.760593	2618.430760
492.128267	2617.770369
492.495883	2611.284925
492.863440	2607.173864
493.230939	2605.399378
493.598380	2603.864346
493.965763	2598.172884
494.333088	2594.691967
494.700354	2595.407811
495.067563	2594.941504
495.434713	2591.165680
495.801805	2593.182141
496.168839	2593.161977
496.535815	2594.586103
496.902733	2592.322625
497.269593	2596.068202
497.636395	2593.968561
498.003139	2593.653489
498.369825	2593.845053
498.736453	2588.821543
499.103023	2589.502099
499.469535	2591.967223
499.835989	2592.131061
500.202385	2590.953951
500.568723	2587.475555
500.935003	2591.248859
501.301226	2591.737851
501.667390	2588.405648
502.033497	2589.819692
502.399546	2590.074270
502.765537	2588.503951
503.131470	2589.605443
503.497345	2587.727613
503.863163	2585.696028
504.228923	2584.080338
504.594625	2585.756522
504.960269	2581.118660
505.325856	2583.598908
505.691385	2582.666294
506.056856	2582.946078
506.422270	2582.159658
506.787625	2584.715523
507.152924	2583.372056
507.518164	2584.899526
507.883347	2582.147056
508.248472	2581.605132
508.613540	2578.101530
508.978550	2583.717375
509.343503	2581.839545
509.708398	2580.191088
510.073236	2583.654361
510.438016	2581.877354
510.802738	2577.206725
511.167403	2582.504978
511.532010	2581.340471
511.896561	2578.852662
512.261053	2584.251737
512.625488	2578.383834
512.989866	2576.639595
513.354186	2576.465675
513.718449	2574.471899
514.082655	2575.371745
514.446803	2579.192939
514.810894	2581.894998
515.174927	2579.626479
515.538904	2577.105902
515.902822	2579.329051
516.266684	2576.450552
516.630488	2577.494071
516.994235	2577.489029
517.357925	2576.329564
517.721558	2575.649008
518.085133	2577.771334
518.448651	2576.969791
518.812112	2577.955336
519.175516	2575.767475
519.538863	2574.585325
519.902152	2576.410222
520.265385	2577.428536
520.628560	2577.615058
520.991678	2575.167578
521.354739	2573.425859
521.717743	2574.829821
522.080690	2575.941395
522.443580	2577.017682
522.806413	2573.869481
523.169189	2578.303176
523.531908	2573.700602
523.894569	2575.167578
524.257174	2572.621795
524.619722	2575.086920
524.982213	2574.693710
525.344647	2571.220355
525.707025	2573.685479
526.069345	2572.263873
526.431608	2573.458627
526.793815	2573.662794
527.155964	2573.158678
527.518057	2571.507700
527.880093	2570.532237
528.242072	2572.664645
528.603995	2573.322516
528.965860	2569.700447
529.327669	2571.356466
529.689421	2570.940571
530.051117	2572.417629
530.412755	2569.105591
530.774337	2569.327401
531.135862	2568.737586
531.497331	2566.753892
531.858743	2567.094170
532.220098	2565.493604
532.581396	2564.253480
532.942638	2564.127451
533.303824	2565.564180
533.664953	2567.757082
534.026025	2564.762637
534.387040	2567.711712
534.747999	2565.586865
535.108902	2564.417318
535.469748	2564.928995
535.830537	2565.906978
536.191270	2566.295147
536.551947	2565.458316
536.912567	2567.938563
537.273131	2565.274314
537.633638	2564.482853
537.994089	2565.075188
538.354483	2563.600651
538.714821	2565.629715
539.075103	2562.726010
539.435328	2562.688202
539.795497	2563.159550
540.155609	2564.896227
540.515665	2564.616443
540.875665	2563.499827
541.235609	2562.201730
541.595496	2563.083932
541.955328	2563.719118
542.315102	2563.154508
542.674821	2559.355999
543.034483	2563.797256
543.394090	2562.317677
543.753640	2560.868345
544.113134	2560.076884
544.472571	2560.870866
544.831953	2560.346586
545.191278	2563.000753
545.550548	2560.570917
545.909761	2562.640311
546.268918	2561.869014
546.628019	2562.274827
546.987064	2557.493293
547.346053	2560.230639
547.704986	2560.583520
548.063863	2559.844991
548.422684	2559.819785
548.781449	2557.576472
549.140158	2560.354148
549.498811	2561.359858
549.857408	2556.422048
550.215949	2557.730227
550.574434	2556.003632
550.932864	2554.738302
551.291237	2554.166131
551.649555	2558.254507
552.007817	2556.227963
552.366022	2557.296688
552.724173	2556.321224
553.082267	2556.182593
553.440305	2556.774928
553.798288	2559.928170
554.156215	2557.576472
554.514086	2558.733417
554.871902	2556.601008
555.229661	2556.535473
555.587365	2559.189641
555.945014	2557.546225
556.302606	2557.934394
556.660143	2556.275854
557.017625	2556.626214
557.375050	2557.833571
557.732421	2558.859445
558.089735	2557.188303
558.446994	2556.573282
558.804197	2555.209650
559.161345	2556.903478
559.518437	2553.261244
559.875474	2554.970195
560.232455	2557.397511
560.589381	2555.902809
560.946251	2559.398849
561.303065	2557.979764
561.659825	2557.581513
562.016528	2554.768549
562.373177	2555.237376
562.729770	2554.095555
563.086307	2554.098076
563.442789	2558.902295
563.799216	2557.707542
564.155587	2552.545400
564.511904	2555.814588
564.868164	2556.507747
565.224370	2554.740823
565.580520	2554.783672
565.936615	2553.629248
566.292654	2555.270144
566.648638	2554.690411
567.004567	2555.862479
567.360441	2554.256872
567.716260	2555.277706
568.072023	2556.036399
568.427732	2548.000800
568.783385	2554.370298
569.138982	2550.145811
569.494525	2552.074052
569.850013	2549.944165
570.205445	2554.317366
570.560823	2553.120092
570.916145	2552.033723
571.271412	2553.505740
571.626625	2554.894578
571.981782	2553.929197
572.336884	2552.449618
572.691931	2553.606563
573.046923	2553.518343
573.401860	2552.802499
573.756743	2553.299053
574.111570	2551.257385
574.466342	2551.602704
574.821059	2551.464073
575.175722	2550.808723
575.530330	2551.280071
575.884882	2551.834597
576.239380	2550.521377
576.593823	2552.653785
576.948211	2547.665563
577.302544	2550.707900
577.656823	2550.783517
578.011047	2548.946016
578.365216	2550.130687
578.719330	2550.297046
579.073389	2549.220759
579.427394	2547.048022
579.781344	2548.827549
580.135239	2548.915769
580.489080	2548.946016
580.842866	2550.050029
581.196597	2553.263765
581.550273	2549.538352
581.903895	2549.873589
582.257463	2549.054401
582.610975	2546.443083
582.964434	2546.281767
583.317837	2549.251006
583.671186	2551.461552
584.024481	2548.439380
584.377721	2546.969884
584.730906	2547.647919
585.084037	2547.713454
585.437113	2547.375697
585.790135	2545.656663
586.143103	2546.969884
586.496016	2543.869574
586.848874	2542.851261
587.201679	2543.798998
587.554428	2543.027702
587.907124	2544.197249
588.259765	2542.679862
588.612352	2544.605583
588.964884	2543.945192
589.317362	2547.282436
589.669786	2545.147507
590.022155	2545.182795
590.374470	2545.918803
590.726731	2543.612476
591.078937	2545.520552
591.431090	2546.496016
591.783188	2546.251520
592.135232	2544.071221
592.487222	2544.882846
592.839157	2546.841335
593.191038	2546.188505
593.542866	2542.117773
593.894639	2542.301776
594.246358	2544.771941
594.598022	2543.395706
594.949633	2543.509132
595.301190	2541.996786
595.652692	2544.744215
596.004141	2543.060469
596.355535	2545.021478
596.706876	2542.989893
597.058162	2541.774975
597.409395	2539.075437
597.760573	2544.207332
598.111698	2543.173895
598.462768	2543.264636
598.813785	2542.667259
599.164748	2544.151879
599.515657	2541.706919
599.866511	2543.330171
600.217312	2543.433515
600.568060	2544.537527
600.918753	2543.670449
601.269392	2540.376055
601.619978	2539.241795
601.970510	2540.091230
602.320988	2541.535520
602.671412	2539.534182
603.021783	2541.777496
603.372100	2543.325130
603.722363	2540.519728
604.072572	2539.264480
604.422728	2541.291024
604.772830	2537.792463
605.122878	2535.193749
605.472872	2538.667104
605.822813	2534.377082
606.172701	2538.941847
606.522534	2540.542413
606.872314	2538.301620
607.222041	2543.075593
607.571714	2541.979142
607.921333	2540.416384
608.270899	2538.641898
608.620411	2538.687268
608.969870	2540.965870
609.319276	2539.730787
609.668627	2539.617361
610.017926	2542.752959
610.367171	2542.904193
610.716362	2542.009389
611.065500	2541.895963
611.414585	2542.301776
611.763616	2542.488298
612.112594	2542.034594
612.461518	2539.577032
612.810389	2541.192722
613.159207	2539.579553
613.507971	2539.846734
613.856682	2540.214738
614.205340	2539.834131
614.553945	2543.279759
614.902496	2539.672814
615.250994	2539.400592
615.599439	2539.393030
615.947830	2542.594162
616.296169	2539.939995
616.644454	2542.304296
616.992686	2542.001827
617.340864	2539.841693
617.688990	2542.447969
618.037063	2539.846734
618.385082	2542.372352
618.733048	2539.874460
619.080961	2541.177598
619.428821	2541.588452
619.776628	2542.705068
620.124382	2542.538710
620.472083	2541.457382
620.819731	2541.356559
621.167326	2539.655170
621.514868	2543.569626
621.862357	2539.740869
622.209793	2539.395550
622.557176	2541.318751
622.904506	2538.054603
623.251783	2533.774664
623.599007	2535.198790
623.946179	2536.189377
624.293297	2536.701054
624.640363	2540.204656
624.987376	2537.245498
625.334336	2538.767927
625.681243	2538.384799
626.028097	2536.199459
626.374899	2538.591486
626.721647	2537.248019
627.068343	2537.164840
627.414987	2537.346321
627.761577	2537.374048
628.108115	2537.253060
628.454600	2540.381096
628.801032	2534.959335
629.147412	2536.627957
629.493739	2538.036959
629.840014	2540.008051
630.186236	2535.874304
630.532405	2538.682227
630.878521	2537.343801
631.224585	2536.174253
631.570597	2534.762730
631.916556	2534.861032
632.262462	2534.712318
632.608316	2535.047555
632.954117	2535.755837
633.299866	2535.372710
633.645562	2536.151568
633.991206	2534.188038
634.336797	2535.450848
634.682336	2535.793646
635.027823	2533.648635
635.373257	2536.254912
635.718639	2535.092926
636.063968	2535.730632
636.409245	2532.569828
636.754470	2536.527134
637.099642	2535.307175
637.444762	2533.313398
637.789829	2532.612678
638.134845	2532.181659
638.479808	2532.728624
638.824719	2528.458767
639.169577	2533.126876
639.514383	2532.481608
639.859137	2534.092257
640.203839	2534.004036
640.548489	2531.796011
640.893086	2530.452543
641.237632	2527.906761
641.582125	2530.830630
641.926566	2528.655372
642.270955	2531.536392
642.615292	2532.373223
642.959576	2532.224509
643.303809	2528.622605
643.647990	2531.128058
643.992118	2535.977648
644.336195	2532.164015
