Dividing Wavelength (nm)	Counts (n)	Blue Motor Position (mm): 0.000000	Red Motor Position (mm): 31.800000	
326.493990	2126.020935
326.888308	2126.020935
327.282561	2126.020935
327.676750	2093.480287
328.070874	2093.878538
328.464933	2098.100504
328.858929	2103.623088
329.252859	2110.244644
329.646726	2123.631428
330.040528	2137.446710
330.434265	2152.955820
330.827938	2171.555157
331.221547	2188.627025
331.615091	2208.932792
332.008571	2228.983982
332.401986	2249.229256
332.795338	2267.654673
333.188625	2285.296191
333.581847	2302.393264
333.975006	2324.155925
334.368100	2338.883656
334.761129	2357.745133
335.154095	2377.019985
335.546996	2396.158726
335.939833	2410.468041
336.332606	2426.372881
336.725315	2442.176898
337.117960	2448.241407
337.510540	2456.171142
337.903056	2470.808132
338.295508	2476.136631
338.687896	2483.204329
339.080220	2493.468118
339.472480	2500.006495
339.864676	2502.234685
340.256807	2504.052021
340.648875	2513.408402
341.040879	2514.101561
341.432818	2514.514936
341.824694	2518.875534
342.216506	2517.169103
342.608253	2520.355112
342.999937	2516.710358
343.391557	2515.611387
343.783113	2517.877385
344.174605	2514.736746
344.566033	2512.871519
344.957397	2510.459327
345.348697	2513.748680
345.739934	2507.974038
346.131106	2507.767351
346.522215	2506.529748
346.913260	2505.980262
347.304241	2502.995899
347.695159	2499.898110
348.086012	2499.192348
348.476802	2496.994405
348.867528	2496.649086
349.258191	2495.908037
349.648789	2493.354692
350.039324	2490.745895
350.429796	2492.459888
350.820203	2489.228508
351.210548	2490.912253
351.600828	2488.552993
351.991045	2486.407982
352.381198	2487.726244
352.771288	2484.565441
353.161314	2486.889412
353.551276	2487.151552
353.941175	2483.786582
354.331010	2486.042499
354.720782	2485.394710
355.110490	2485.777838
355.500135	2482.876654
355.889717	2484.333548
356.279235	2486.163486
356.668689	2486.556696
357.058080	2487.756491
357.447408	2486.420585
357.836672	2484.015955
358.225873	2486.004690
358.615010	2484.764566
359.004084	2489.447798
359.393095	2489.026862
359.782043	2492.321256
360.170927	2490.269506
360.559748	2490.483755
360.948505	2489.407469
361.337199	2490.859321
361.725830	2495.459374
362.114398	2495.582882
362.502903	2493.463077
362.891344	2497.024652
363.279722	2494.189003
363.668037	2494.892244
364.056289	2494.100783
364.444478	2498.428614
364.832603	2498.554643
365.220665	2498.123624
365.608665	2500.276197
365.996601	2501.072699
366.384474	2500.523213
366.772284	2501.584376
367.160031	2506.907834
367.547715	2507.215345
367.935336	2509.297341
368.322893	2513.841942
368.710388	2513.700789
369.097820	2524.251924
369.485189	2522.795031
369.872495	2534.001516
370.259738	2535.513862
370.646918	2545.565923
371.034035	2549.409803
371.421090	2562.804148
371.808081	2573.209090
372.195010	2580.105388
372.581875	2592.630135
372.968678	2606.427773
373.355418	2618.413116
373.742096	2633.922226
374.128710	2649.103661
374.515262	2666.425066
374.901751	2681.057015
375.288177	2693.768284
375.674540	2718.227962
376.060841	2732.867473
376.447079	2752.792634
376.833254	2775.460182
377.219367	2788.436112
377.605417	2827.031186
377.991404	2832.906651
378.377329	2853.298118
378.763191	2872.313350
379.148991	2912.551840
379.534727	2936.121755
379.920402	2964.916826
380.306013	2976.203969
380.691563	3026.461753
381.077049	3049.280536
381.462474	3066.758216
381.847835	3102.537805
382.233134	3132.875469
382.618371	3125.759881
383.003545	3196.494831
383.388657	3201.924153
383.773706	3234.711818
384.158693	3250.152872
384.543618	3276.152623
384.928480	3312.605207
385.313280	3361.466590
385.698017	3358.734285
386.082692	3411.724374
386.467305	3418.408944
386.851856	3447.188891
387.236344	3470.584886
387.620770	3501.656038
388.005133	3528.159904
388.389435	3556.143349
388.773674	3563.296746
389.157851	3608.944394
389.541965	3623.924183
389.926018	3588.111826
390.310008	3660.608660
390.693936	3679.475178
391.077802	3719.937999
391.461606	3706.548695
391.845348	3775.914972
392.229027	3770.619239
392.612645	3784.842855
392.996200	3864.364536
393.379694	3903.433479
393.763125	3966.495793
394.146494	3934.728962
394.529801	3995.492510
394.913047	4041.122514
395.296230	4010.613451
395.679351	4067.107141
396.062410	4088.030450
396.445408	4069.773912
396.828343	4101.679374
397.211217	4126.176861
397.594028	4048.570818
397.976778	4113.921816
398.359466	4140.095487
398.742092	4166.864014
399.124656	4090.808126
399.507158	4172.714273
399.889598	4195.001214
400.271977	4260.412706
400.654294	4230.085124
401.036549	4237.367071
401.418742	4209.038307
401.800874	4309.274090
402.182944	4332.463397
402.564952	4396.002100
402.946898	4383.063979
403.328783	4376.828072
403.710606	4292.774393
404.092367	4485.432170
404.474067	4445.284420
404.855705	4455.787664
405.237282	4387.023805
405.618797	4491.557172
406.000250	4528.060167
406.381642	4608.529585
406.762972	4569.175817
407.144240	4579.870625
407.525447	4583.079320
407.906593	4641.523937
408.287677	4681.364176
408.668700	4612.247436
409.049661	4662.999252
409.430560	4702.852094
409.811399	4632.860714
410.192176	4790.353922
410.572891	4731.561465
410.953545	4833.581816
411.334138	4715.049166
411.714669	4783.417294
412.095139	4678.150440
412.475547	4822.324919
412.855894	4802.387156
413.236180	4809.878311
413.616405	4762.287298
413.996568	4850.462120
414.376670	4791.246206
414.756711	4748.255246
415.136691	4780.299340
415.516609	4858.248182
415.896466	4896.147576
416.276262	4927.664870
416.655997	4907.613681
417.035670	5089.538841
417.415283	5185.083830
417.794834	5123.584273
418.174324	5078.891924
418.553753	4986.991689
418.933121	5170.116644
419.312428	5240.947376
419.691674	5177.552346
420.070859	5303.276202
420.449983	5215.408891
420.829045	5330.929452
421.208047	5239.039299
421.586988	5306.794927
421.965867	5316.937729
422.344686	5451.002174
422.723444	5305.592612
423.102141	5129.174913
423.480777	5424.226086
423.859352	5190.613975
424.237866	5448.993275
424.616319	5443.475732
424.994712	5553.665272
425.373044	5433.670687
425.751314	5569.928035
426.129524	5378.268407
426.507673	5572.925001
426.885762	5652.388709
427.263789	5586.226085
427.641756	5464.678825
428.019662	5588.582825
428.397508	5598.224031
428.775292	5541.977357
429.153016	5645.845291
429.530679	5569.106327
429.908282	5654.072454
430.285824	5524.345922
430.663305	5797.304238
431.040726	5533.586357
431.418086	5532.812540
431.795385	5639.168283
432.172624	5657.082023
432.549802	5647.224047
432.926920	5658.349873
433.303977	5662.629813
433.680974	5702.414599
434.057910	5721.785233
434.434786	5729.906532
434.811601	5696.919741
435.188355	5933.370021
435.565050	5808.866124
435.941683	5783.330159
436.318257	6000.112378
436.694770	5989.127703
437.071222	6020.481160
437.447614	5950.779646
437.823946	5865.992480
438.200218	6013.678123
438.576429	5879.565786
438.952580	5981.903730
439.328670	6025.809659
439.704700	5935.714158
440.080670	5920.376447
440.456580	6189.611871
440.832429	6076.790848
441.208218	5917.029121
441.583947	6076.311939
441.959616	6075.034006
442.335224	6003.184961
442.710773	6141.715869
443.086261	6168.436505
443.461689	5966.384538
443.837057	6115.630418
444.212365	6269.748573
444.587612	6160.620196
444.962800	6313.727600
445.337927	6295.912162
445.712995	5903.821298
446.088002	6485.116748
446.462949	6311.587630
446.837837	6243.416106
447.212664	6411.248721
447.587431	6556.794394
447.962139	7098.741118
448.336786	8031.263838
448.711374	7770.207687
449.085901	6844.384659
449.460369	6764.068996
449.834776	6694.022163
450.209124	7084.457008
450.583412	7235.248002
450.957640	7385.754171
451.331808	7151.980743
451.705917	6698.322268
452.079965	6630.450693
452.453954	6838.365522
452.827883	6714.706018
453.201752	6804.070552
453.575562	6605.207115
453.949311	6809.144473
454.323001	6693.578542
454.696632	6770.085613
455.070202	6910.305308
455.443713	7064.360448
455.817164	7165.072620
456.190556	7250.104282
456.563888	7320.940056
456.937160	7370.028291
457.310373	7024.747062
457.683526	7049.751185
458.056619	6938.170285
458.429653	6922.242760
458.802628	6857.922678
459.175542	6970.983156
459.548398	7327.516241
459.921194	7481.301680
460.293930	7489.740572
460.666607	8015.792537
461.039224	8328.737286
461.411782	8456.129764
461.784280	8472.773133
462.156719	8362.011422
462.529099	8242.210921
462.901419	7830.547778
463.273680	7722.210861
463.645882	7735.595124
464.018024	7595.539268
464.390106	7766.845237
464.762130	8153.970564
465.134094	8619.937017
465.505999	9644.087750
465.877845	10862.627896
466.249631	11512.011691
466.621358	11126.000458
466.993026	10493.754066
467.364634	10242.666796
467.736184	9878.629953
468.107674	9547.789109
468.479105	9574.383716
468.850477	9342.742697
469.221790	9114.196946
469.593043	8785.995145
469.964238	8648.210328
470.335373	8654.242069
470.706449	8720.437460
471.077467	8697.953914
471.448425	10008.548050
471.819324	11081.691237
472.190164	11106.080339
472.560945	9848.872022
472.931667	9060.954800
473.302330	8927.580992
473.672934	8573.124862
474.043479	8920.150332
474.413965	8859.606074
474.784393	8746.951409
475.154761	8899.196776
475.525070	8983.923448
475.895321	8813.340884
476.265513	8978.751224
476.635645	9149.671546
477.005719	9141.439341
477.375734	9252.737936
477.745691	9487.650664
478.115588	9610.528789
478.485427	9857.008445
478.855207	10380.686027
479.224928	11176.825371
479.594591	11794.848148
479.964194	11607.828902
480.333739	11543.982688
480.703226	11437.659712
481.072653	11528.478620
481.442022	11746.387536
481.811333	11925.840010
482.180584	11716.427958
482.549777	11428.915831
482.918912	11243.630742
483.287988	11250.864798
483.657005	11253.617268
484.025964	10935.137333
484.394864	11042.939887
484.763706	10999.011272
485.132489	10753.038253
485.501213	10700.963133
485.869879	10767.229101
486.238487	10589.825856
486.607036	10680.483446
486.975527	10446.389905
487.343959	10621.529672
487.712333	10640.338217
488.080648	10563.112782
488.448905	10582.904352
488.817104	10499.158183
489.185244	10726.836856
489.553326	10845.031749
489.921350	11322.466827
490.289315	12250.659196
490.657222	12552.629353
491.025070	12425.118407
491.392861	12282.027776
491.760593	11913.171590
492.128267	11575.613408
492.495883	11242.562017
492.863440	10902.884030
493.230939	10555.281349
493.598380	10464.669129
493.965763	10299.157966
494.333088	10184.673362
494.700354	10070.589530
495.067563	10093.257078
495.434713	9896.737778
495.801805	9981.109049
496.168839	9868.386329
496.535815	9761.297098
496.902733	9730.044464
497.269593	9614.990210
497.636395	9672.736628
498.003139	9606.082491
498.369825	9453.955592
498.736453	9531.932159
499.103023	9426.080532
499.469535	9397.802179
499.835989	9345.601031
500.202385	9257.953010
500.568723	9088.197195
500.935003	9217.906083
501.301226	8985.677770
501.667390	9156.245210
502.033497	9164.900871
502.399546	9014.029219
502.765537	8878.477633
503.131470	8875.520997
503.497345	8948.864744
503.863163	8602.114018
504.228923	8768.633412
504.594625	8762.765508
504.960269	8512.003393
505.325856	8612.687838
505.691385	8394.662975
506.056856	8443.564688
506.422270	8394.388232
506.787625	8266.216896
507.152924	8272.283924
507.518164	8201.216258
507.883347	8071.588028
508.248472	7962.406718
508.613540	8043.138276
508.978550	7892.120431
509.343503	7816.074625
509.708398	7822.970923
510.073236	7812.601270
510.438016	7755.623628
510.802738	7644.360322
511.167403	7612.709438
511.532010	7464.701161
511.896561	7544.220321
512.261053	7513.018100
512.625488	7355.502207
512.989866	7273.865761
513.354186	7199.934719
513.718449	7069.383958
514.082655	7111.404496
514.446803	6982.666030
514.810894	6975.477344
515.174927	6824.998902
515.538904	6778.259844
515.902822	6772.044102
516.266684	6655.969014
516.630488	6547.886675
516.994235	6521.531523
517.357925	6465.121011
517.721558	6432.199756
518.085133	6367.667946
518.448651	6309.440098
518.812112	6189.364855
519.175516	6115.650583
519.538863	6091.692499
519.902152	6005.287122
520.265385	5982.687629
520.628560	5892.783692
520.991678	5802.647861
521.354739	5770.868427
521.717743	5684.276527
522.080690	5612.240960
522.443580	5579.100414
522.806413	5505.454198
523.169189	5457.883349
523.531908	5408.364095
523.894569	5291.817659
524.257174	5223.245364
524.619722	5194.765366
524.982213	5133.772445
525.344647	5073.966717
525.707025	5010.949773
526.069345	4975.192869
526.431608	4886.713057
526.793815	4865.018451
527.155964	4754.090382
527.518057	4715.596131
527.880093	4649.042818
528.242072	4613.051500
528.603995	4534.840518
528.965860	4470.041527
529.327669	4428.572995
529.689421	4369.198285
530.051117	4316.833300
530.412755	4278.596148
530.774337	4221.041294
531.135862	4162.715144
531.497331	4126.731388
531.858743	4049.778175
532.220098	4036.267882
532.581396	3977.258656
532.942638	3936.117800
533.303824	3894.467787
533.664953	3851.507073
534.026025	3803.832882
534.387040	3777.336577
534.747999	3742.073706
535.108902	3715.403481
535.469748	3649.699603
535.830537	3629.391314
536.191270	3591.295315
536.551947	3560.410686
536.912567	3528.449770
537.273131	3496.400635
537.633638	3459.275057
537.994089	3426.328596
538.354483	3392.411713
538.714821	3381.230434
539.075103	3355.165148
539.435328	3322.508553
539.795497	3282.910290
540.155609	3271.315636
540.515665	3252.610435
540.875665	3208.928837
541.235609	3189.545600
541.595496	3175.246367
541.955328	3156.740292
542.315102	3129.931435
542.674821	3106.061572
543.034483	3089.130857
543.394090	3068.404153
543.753640	3046.412119
544.113134	3038.358876
544.472571	3017.841380
544.831953	3004.600789
545.191278	2981.439208
545.550548	2965.428503
545.909761	2957.188737
546.268918	2938.735593
546.628019	2931.584717
546.987064	2911.778023
547.346053	2895.898389
547.704986	2886.133674
548.063863	2875.796788
548.422684	2862.057123
548.781449	2849.449197
549.140158	2839.417301
549.498811	2828.165446
549.857408	2813.530976
550.215949	2808.348670
550.574434	2797.573203
550.932864	2790.855866
551.291237	2781.073507
551.649555	2777.063269
552.007817	2771.563370
552.366022	2761.095414
552.724173	2754.138622
553.082267	2747.423805
553.440305	2746.561768
553.798288	2734.498287
554.156215	2731.297154
554.514086	2730.014180
554.871902	2721.295505
555.229661	2714.719319
555.587365	2711.303938
555.945014	2705.055427
556.302606	2704.392516
556.660143	2698.958152
557.017625	2695.502441
557.375050	2692.898685
557.732421	2690.887265
558.089735	2686.612366
558.446994	2680.772189
558.804197	2679.610203
559.161345	2678.533917
559.518437	2672.252639
559.875474	2674.831190
560.232455	2669.895900
560.589381	2667.191321
560.946251	2662.629077
561.303065	2665.671413
561.659825	2660.801658
562.016528	2658.754950
562.373177	2656.030206
562.729770	2654.091883
563.086307	2655.097593
563.442789	2652.294711
563.799216	2648.866727
564.155587	2649.632982
564.511904	2647.729947
564.868164	2646.096613
565.224370	2644.811118
565.580520	2640.979842
565.936615	2644.002013
566.292654	2637.246867
566.648638	2640.127887
567.004567	2639.762403
567.360441	2639.462454
567.716260	2636.205869
568.072023	2635.674027
568.427732	2629.465846
568.783385	2632.387195
569.138982	2628.709673
569.494525	2627.245218
569.850013	2625.561472
570.205445	2627.749333
570.560823	2629.879221
570.916145	2626.100876
571.271412	2627.182203
571.626625	2627.446864
571.981782	2624.782614
572.336884	2623.086266
572.691931	2625.445526
573.046923	2622.375463
573.401860	2618.622324
573.756743	2619.648199
574.111570	2621.926801
574.466342	2619.630555
574.821059	2619.449073
575.175722	2620.686677
575.530330	2619.776748
575.884882	2618.345061
576.239380	2616.968826
576.593823	2615.695934
576.948211	2617.404886
577.302544	2616.557972
577.656823	2616.081583
578.011047	2617.309104
578.365216	2613.896243
578.719330	2612.073865
579.073389	2612.333485
579.427394	2612.388937
579.781344	2611.894904
580.135239	2612.993876
580.489080	2609.815428
580.842866	2611.244596
581.196597	2610.372476
581.550273	2612.583022
581.903895	2609.346601
582.257463	2610.848865
582.610975	2607.362907
582.964434	2607.602362
583.317837	2607.980448
583.671186	2611.983125
584.024481	2605.694285
584.377721	2606.763010
584.730906	2606.813421
585.084037	2606.319388
585.437113	2608.396344
585.790135	2608.469440
586.143103	2607.249481
586.496016	2604.194542
586.848874	2600.832092
587.201679	2603.650097
587.554428	2600.577514
587.907124	2602.566249
588.259765	2599.972576
588.612352	2606.039604
588.964884	2601.421907
589.317362	2601.603389
589.669786	2604.358379
590.022155	2605.417022
590.374470	2602.266301
590.726731	2601.739500
591.078937	2598.392174
591.431090	2601.121959
591.783188	2599.539036
592.135232	2600.774119
592.487222	2601.409304
592.839157	2601.265632
593.191038	2600.448965
593.542866	2598.636670
593.894639	2600.658172
594.246358	2598.797987
594.598022	2599.763368
594.949633	2598.447627
595.301190	2597.724221
595.652692	2597.358737
596.004141	2601.742021
596.355535	2598.112390
596.706876	2596.078284
597.058162	2595.460743
597.409395	2595.506113
597.760573	2596.030393
598.111698	2595.440578
598.462768	2598.324118
598.813785	2593.277923
599.164748	2594.132399
599.515657	2596.610126
599.866511	2596.277410
600.217312	2595.150712
600.568060	2594.240784
600.918753	2595.949735
601.269392	2594.117275
601.619978	2593.716504
601.970510	2596.156422
602.320988	2593.872779
602.671412	2596.327821
603.021783	2595.397728
603.372100	2595.387646
603.722363	2593.318253
604.072572	2594.197934
604.422728	2594.591144
604.772830	2593.144333
605.122878	2589.756677
605.472872	2593.519899
605.822813	2588.335072
606.172701	2590.467480
606.522534	2594.213057
606.872314	2594.820516
607.222041	2592.070567
607.571714	2592.942687
607.921333	2593.724065
608.270899	2592.897316
608.620411	2595.226329
608.969870	2594.248345
609.319276	2596.012749
609.668627	2597.625918
610.017926	2600.022987
610.367171	2602.687237
610.716362	2599.811259
611.065500	2600.189345
611.414585	2599.163470
611.763616	2600.484253
612.112594	2595.407811
612.461518	2595.637183
612.810389	2596.632811
613.159207	2596.196751
613.507971	2594.535691
613.856682	2595.150712
614.205340	2597.643562
614.553945	2596.332863
614.902496	2596.259766
615.250994	2596.673140
615.599439	2594.966710
615.947830	2594.843202
616.296169	2596.436206
616.644454	2594.923860
616.992686	2594.354210
617.340864	2593.240115
617.688990	2590.167531
618.037063	2594.828078
618.385082	2593.524940
618.733048	2596.325301
619.080961	2596.451330
619.428821	2592.854466
619.776628	2596.519385
620.124382	2595.516196
620.472083	2594.833119
620.819731	2596.413521
621.167326	2592.829261
621.514868	2595.422934
621.862357	2591.939497
622.209793	2592.985536
622.557176	2594.576020
622.904506	2588.604774
623.251783	2586.051429
623.599007	2588.062850
623.946179	2586.913467
624.293297	2586.931111
624.640363	2590.401945
624.987376	2590.457398
625.334336	2590.323807
625.681243	2588.178796
626.028097	2588.882037
626.374899	2590.606112
626.721647	2590.679208
627.068343	2586.963878
627.414987	2585.348188
627.761577	2586.870617
628.108115	2584.143352
628.454600	2585.955647
628.801032	2585.658219
629.147412	2585.426326
629.493739	2585.509505
629.840014	2584.115626
630.186236	2587.795668
630.532405	2584.516398
630.878521	2585.277612
631.224585	2586.237952
631.570597	2583.498085
631.916556	2586.149732
632.262462	2584.302149
632.608316	2581.075810
632.954117	2583.682087
633.299866	2584.201326
633.645562	2582.278126
633.991206	2583.692169
634.336797	2581.937848
634.682336	2583.795513
635.027823	2583.551017
635.373257	2579.197981
635.718639	2580.584298
636.063968	2579.394586
636.409245	2579.107240
636.754470	2577.670511
637.099642	2577.655387
637.444762	2577.602455
637.789829	2580.213773
638.134845	2580.647312
638.479808	2577.962898
638.824719	2580.884247
639.169577	2575.641447
639.514383	2578.025912
639.859137	2575.207907
640.203839	2576.581622
640.548489	2574.781930
640.893086	2575.107084
641.237632	2571.515262
641.582125	2575.742270
641.926566	2572.203380
642.270955	2576.553895
642.615292	2575.651529
642.959576	2577.166396
643.303809	2578.524987
643.647990	2575.815366
