Dividing Wavelength (nm)	Counts (n)	Blue Motor Position (mm): 0.000000	Red Motor Position (mm): 36.000000	
326.493990	2076.053018
326.888308	2076.053018
327.282561	2076.053018
327.676750	2052.493186
328.070874	2054.441592
328.464933	2061.126162
328.858929	2072.859447
329.252859	2083.445870
329.646726	2097.992120
330.040528	2115.356374
330.434265	2135.636936
330.827938	2151.307363
331.221547	2172.691937
331.615091	2195.568693
332.008571	2214.024358
332.401986	2235.116545
332.795338	2254.898033
333.188625	2276.781682
333.581847	2293.273817
333.975006	2311.951292
334.368100	2331.329487
334.761129	2345.457321
335.154095	2362.093128
335.546996	2390.094218
335.939833	2432.611309
336.332606	2446.897939
336.725315	2456.372788
337.117960	2465.567852
337.510540	2471.037504
337.903056	2481.838176
338.295508	2488.469814
338.687896	2493.813437
339.080220	2503.825169
339.472480	2508.800788
339.864676	2511.767507
340.256807	2513.839421
340.648875	2515.772703
341.040879	2520.163548
341.432818	2517.774042
341.824694	2520.440812
342.216506	2519.228414
342.608253	2518.033661
342.999937	2518.230266
343.391557	2517.030471
343.783113	2516.909484
344.174605	2514.310769
344.566033	2514.136849
344.957397	2512.952178
345.348697	2509.836745
345.739934	2505.082937
346.131106	2507.472444
346.522215	2506.348266
346.913260	2506.118894
347.304241	2503.421877
347.695159	2502.930364
348.086012	2499.555312
348.476802	2498.574807
348.867528	2498.060609
349.258191	2498.794097
349.648789	2495.635814
350.039324	2493.241266
350.429796	2496.308808
350.820203	2494.632625
351.210548	2493.069867
351.600828	2493.412666
351.991045	2491.232367
352.381198	2491.156749
352.771288	2491.794455
353.161314	2493.344610
353.551276	2492.855618
353.941175	2493.780670
354.331010	2494.322594
354.720782	2492.890906
355.110490	2494.166318
355.500135	2494.073057
355.889717	2495.045999
356.279235	2494.312512
356.668689	2496.727224
357.058080	2493.296719
357.447408	2495.713952
357.836672	2491.953252
358.225873	2494.791421
358.615010	2493.400063
359.004084	2499.882987
359.393095	2498.224447
359.782043	2502.050683
360.170927	2501.962463
360.559748	2503.348780
360.948505	2501.992709
361.337199	2507.474964
361.725830	2505.660149
362.114398	2508.236178
362.502903	2506.224758
362.891344	2506.290293
363.279722	2507.449758
363.668037	2508.722650
364.056289	2510.371107
364.444478	2513.365553
364.832603	2510.202228
365.220665	2511.777589
365.608665	2512.914369
365.996601	2514.230110
366.384474	2515.066942
366.772284	2515.059380
367.160031	2516.745646
367.547715	2519.079700
367.935336	2517.819412
368.322893	2521.040709
368.710388	2519.193126
369.097820	2523.039527
369.485189	2522.444671
369.872495	2524.198992
370.259738	2523.997346
370.646918	2531.261649
371.034035	2530.931453
371.421090	2534.162833
371.808081	2534.319108
372.195010	2537.800025
372.581875	2542.619368
372.968678	2549.913918
373.355418	2555.015566
373.742096	2564.334138
374.128710	2573.153637
374.515262	2584.256778
374.901751	2598.384612
375.288177	2612.086468
375.674540	2630.126237
376.060841	2647.235913
376.447079	2669.737104
376.833254	2692.399611
377.219367	2713.917776
377.605417	2747.330544
377.991404	2765.594644
378.377329	2807.584935
378.763191	2839.868484
379.148991	2886.358005
379.534727	2932.461878
379.920402	2975.044504
380.306013	3020.515712
380.691563	3079.376224
381.077049	3129.933956
381.462474	3184.106195
381.847835	3254.437853
382.233134	3317.837924
382.618371	3378.430073
383.003545	3459.388483
383.388657	3531.492107
383.773706	3622.230355
384.158693	3686.767207
384.543618	3778.085188
384.928480	3853.074872
385.313280	3951.074903
385.698017	4053.211201
386.082692	4165.339065
386.467305	4223.985328
386.851856	4342.371785
387.236344	4489.482737
387.620770	4551.993044
388.005133	4663.019417
388.389435	4803.687774
388.773674	4885.132655
389.157851	5010.175956
389.541965	5137.288650
389.926018	5164.641951
390.310008	5331.602446
390.693936	5450.465292
391.077802	5562.482251
391.461606	5690.144431
391.845348	5798.325072
392.229027	5912.250107
392.612645	6126.547037
392.996200	6244.194965
393.379694	6414.137302
393.763125	6626.344673
394.146494	6710.153856
394.529801	6845.695359
394.913047	7071.733136
395.296230	7072.632982
395.679351	7129.287989
396.062410	7379.019189
396.445408	7281.472862
396.828343	7434.078672
397.211217	7566.484577
397.594028	7455.193544
397.976778	7654.172928
398.359466	7816.891292
398.742092	7794.886655
399.124656	7935.491998
399.507158	8121.523177
399.889598	8148.974781
400.271977	8355.667130
400.654294	8390.665340
401.036549	8585.866379
401.418742	8608.733053
401.800874	8906.357735
402.182944	8988.888985
402.564952	9347.756124
402.946898	9185.471300
403.328783	9239.424249
403.710606	9425.384852
404.092367	9687.149286
404.474067	10032.443119
404.855705	9839.087143
405.237282	9794.914032
405.618797	10217.571932
406.000250	10456.913314
406.381642	10816.342542
406.762972	10766.117526
407.144240	10579.844371
407.525447	10830.175468
407.906593	10775.118507
408.287677	11035.975533
408.668700	11188.588904
409.049661	11166.896819
409.430560	11332.256747
409.811399	11305.609208
410.192176	11466.555606
410.572891	11545.530323
410.953545	12017.435255
411.334138	11506.882317
411.714669	12082.587127
412.095139	11433.977150
412.475547	11908.765622
412.855894	11778.030858
413.236180	12098.980959
413.616405	11802.107409
413.996568	12069.417112
414.376670	12049.847353
414.756711	11942.443050
415.136691	12214.748537
415.516609	12376.357847
415.896466	12468.976446
416.276262	12751.606216
416.655997	13205.602449
417.035670	13257.813679
417.415283	13871.430487
417.794834	13956.028610
418.174324	13708.298748
418.553753	13619.627373
418.933121	14106.991003
419.312428	13928.662707
419.691674	13837.117873
420.070859	14308.072548
420.449983	13958.486173
420.829045	14512.451007
421.208047	14279.804278
421.586988	14721.575713
421.965867	14966.729545
422.344686	14971.770699
422.723444	15548.045159
423.102141	14238.718874
423.480777	15428.985708
423.859352	14935.829792
424.237866	16027.854621
424.616319	15751.891777
424.994712	16394.986732
425.373044	16185.599886
425.751314	16881.117800
426.129524	16009.167063
426.507673	17084.241012
426.885762	16818.945250
427.263789	16979.926936
427.641756	17172.544383
428.019662	17235.135350
428.397508	17288.506045
428.775292	17575.428358
429.153016	17556.055203
429.530679	17630.177809
429.908282	17663.794743
430.285824	17394.269453
430.663305	18097.109643
431.040726	17713.245942
431.418086	17567.596925
431.795385	18197.332823
432.172624	18632.439852
432.549802	18193.105815
432.926920	18401.461745
433.303977	18281.058826
433.680974	18539.702786
434.057910	18844.949692
434.434786	18890.902330
434.811601	18807.995514
435.188355	19854.357571
435.565050	19516.610346
435.941683	19494.381378
436.318257	20375.277642
436.694770	20178.811274
437.071222	20776.112387
437.447614	19851.519402
437.823946	19888.947448
438.200218	20063.484797
438.576429	19833.225054
438.952580	20145.398506
439.328670	20110.294431
439.704700	20531.744975
440.080670	20100.824624
440.456580	20718.058460
440.832429	20885.981815
441.208218	19898.651669
441.583947	20328.909109
441.959616	20457.387956
442.335224	20710.337932
442.710773	20845.801298
443.086261	21401.611195
443.461689	20730.956252
443.837057	20900.291130
444.212365	21548.923793
444.587612	21552.286242
444.962800	21155.681025
445.337927	21589.459711
445.712995	20305.518155
446.088002	22197.765663
446.462949	22399.308473
446.837837	22576.913364
447.212664	22605.690791
447.587431	25557.225874
447.962139	28528.633186
448.336786	30835.886122
448.711374	29165.033488
449.085901	25450.764267
449.460369	25470.225641
449.834776	25445.655057
450.209124	28013.097067
450.583412	27494.619435
450.957640	27974.312950
451.331808	26631.710008
451.705917	25247.106692
452.079965	25306.395703
452.453954	25686.584402
452.827883	25606.606497
453.201752	25397.927933
453.575562	25555.247221
453.949311	26684.420312
454.323001	26756.707938
454.696632	26552.374849
455.070202	28147.597572
455.443713	28329.414347
455.817164	28910.006556
456.190556	29473.017741
456.563888	28881.241732
456.937160	29317.435131
457.310373	27617.817673
457.683526	28063.919459
458.056619	28066.366940
458.429653	28034.320325
458.802628	28656.244954
459.175542	28779.367575
459.548398	30154.579221
459.921194	31788.064302
460.293930	32537.262942
460.666607	34631.854803
461.039224	36414.840343
461.411782	36758.248784
461.784280	35480.956510
462.156719	34930.694403
462.529099	34358.178123
462.901419	33029.183776
463.273680	31980.407006
463.645882	32113.710237
464.018024	32113.072531
464.390106	33049.396282
464.762130	35959.329243
465.134094	40288.062186
465.505999	45789.561599
465.877845	50319.149235
466.249631	51321.144097
466.621358	49469.823197
466.993026	47244.736027
467.364634	45102.114572
467.736184	43122.569403
468.107674	41856.274407
468.479105	41073.116034
468.850477	40336.021203
469.221790	38898.369826
469.593043	37112.024358
469.964238	36219.500672
470.335373	36160.766189
470.706449	38013.685135
471.077467	40786.768413
471.448425	45483.671945
471.819324	48226.203310
472.190164	46236.114568
472.560945	42591.173815
472.931667	39441.619688
473.302330	38333.732869
473.672934	37492.210537
474.043479	38023.923718
474.413965	37239.757114
474.784393	36859.815431
475.154761	37787.223901
475.525070	37833.083278
475.895321	37351.433795
476.265513	37984.189344
476.635645	38978.592228
477.005719	38838.047379
477.375734	39334.013739
477.745691	40066.884082
478.115588	41428.792123
478.485427	43563.393102
478.855207	47024.669497
479.224928	49687.596002
479.594591	51234.988257
479.964194	50134.398508
480.333739	50265.052613
480.703226	50334.469302
481.072653	50982.741522
481.442022	51470.069864
481.811333	51664.141684
482.180584	50398.363406
482.549777	49858.947342
482.918912	49329.865642
483.287988	49017.782931
483.657005	48181.274027
484.025964	47495.215838
484.394864	47484.329466
484.763706	47054.223261
485.132489	46156.424008
485.501213	45993.541807
485.869879	46141.603016
486.238487	45732.329379
486.607036	45923.840293
486.975527	45366.891096
487.343959	45582.725577
487.712333	45638.027035
488.080648	45539.669082
488.448905	46008.148550
488.817104	45787.275436
489.185244	46803.209088
489.553326	48585.728320
489.921350	51352.789940
490.289315	54178.840622
490.657222	54688.781060
491.025070	54920.860659
491.392861	53997.956460
491.760593	52715.978434
492.128267	51023.184178
492.495883	49447.190937
492.863440	48036.091317
493.230939	46656.088054
493.598380	45549.232151
493.965763	45217.930041
494.333088	44392.907405
494.700354	43907.046039
495.067563	43580.545627
495.434713	43454.955362
495.801805	43524.062019
496.168839	43114.954741
496.535815	42776.786579
496.902733	42786.006849
497.269593	42352.996940
497.636395	42294.547281
498.003139	42681.957434
498.369825	42135.919814
498.736453	42431.023919
499.103023	41942.659619
499.469535	41814.200937
499.835989	41909.811461
500.202385	41562.879253
500.568723	41563.461507
500.935003	41764.580860
501.301226	41550.243601
501.667390	42156.212979
502.033497	42398.689958
502.399546	41837.831346
502.765537	41108.139450
503.131470	41484.706081
503.497345	41845.907274
503.863163	40477.518830
504.228923	41129.952523
504.594625	41532.687783
504.960269	40778.891610
505.325856	41469.335602
505.691385	40850.256704
506.056856	40968.539818
506.422270	41404.599625
506.787625	40964.806843
507.152924	41167.466269
507.518164	41237.160221
507.883347	40447.897010
508.248472	40678.542402
508.613540	41153.310709
508.978550	41480.625267
509.343503	41209.837167
509.708398	41407.672209
510.073236	41939.997890
510.438016	41922.497525
510.802738	41369.394727
511.167403	41994.820438
511.532010	42213.341855
511.896561	42493.183866
512.261053	43338.328268
512.625488	42874.224521
512.989866	42752.546191
513.354186	42577.290477
513.718449	42556.251222
514.082655	43236.277670
514.446803	42879.290881
514.810894	43413.575050
515.174927	43309.669308
515.538904	43202.398595
515.902822	43863.795459
516.266684	43297.888131
516.630488	43709.258888
516.994235	43558.122575
517.357925	44133.792098
517.721558	44275.088078
518.085133	44576.556640
518.448651	44679.491960
518.812112	44436.218478
519.175516	44531.118200
519.538863	44844.945150
519.902152	44795.924970
520.265385	45236.950314
520.628560	45242.765285
520.991678	45027.117327
521.354739	45243.372744
521.717743	45542.870215
522.080690	45408.634370
522.443580	45921.176043
522.806413	45938.749506
523.169189	45875.898920
523.531908	46032.015893
523.894569	45869.287447
524.257174	46022.740170
524.619722	46265.847294
524.982213	46228.023516
525.344647	46139.342058
525.707025	46157.127249
526.069345	46522.862961
526.431608	46394.253044
526.793815	46685.717436
527.155964	46196.304576
527.518057	46313.844119
527.880093	46085.371465
528.242072	46560.595997
528.603995	46232.495020
528.965860	46193.826849
529.327669	46236.258241
529.689421	46119.187525
530.051117	46039.877573
530.412755	46139.936915
530.774337	46163.572364
531.135862	45936.959896
531.497331	46071.583910
531.858743	45923.177382
532.220098	46231.380925
532.581396	45895.740902
532.942638	45498.694584
533.303824	45770.732889
533.664953	45668.878896
534.026025	45358.237955
534.387040	45743.626605
534.747999	45652.164951
535.108902	45759.110509
535.469748	45204.407146
535.830537	45261.868738
536.191270	45386.866668
536.551947	44999.360733
536.912567	45226.288274
537.273131	45279.971521
537.633638	44738.216361
537.994089	44991.735988
538.354483	44509.970559
538.714821	45019.391758
539.075103	45266.937618
539.435328	44966.835209
539.795497	44773.489315
540.155609	44695.522829
540.515665	45071.411425
540.875665	44451.253720
541.235609	44676.366445
541.595496	44583.737763
541.955328	45150.650802
542.315102	44442.988748
542.674821	44150.901774
543.034483	44082.969705
543.394090	43996.284544
543.753640	43866.668917
544.113134	44723.050050
544.472571	43677.239999
544.831953	44770.930929
545.191278	43924.085139
545.550548	43556.363213
545.909761	43918.882668
546.268918	43981.138397
546.628019	44171.532696
546.987064	43650.166483
547.346053	42854.697612
547.704986	43566.826127
548.063863	43055.995926
548.422684	43099.654839
548.781449	42854.052344
549.140158	43129.697595
549.498811	42844.779141
549.857408	42209.351781
550.215949	42862.458468
550.574434	42674.201619
550.932864	42350.778832
551.291237	42873.301990
551.649555	42390.424986
552.007817	42479.655930
552.366022	42034.375852
552.724173	42054.066599
553.082267	42274.755711
553.440305	42394.016808
553.798288	41643.285657
554.156215	41794.792495
554.514086	41834.617610
554.871902	41452.735083
555.229661	41343.057219
555.587365	41032.391072
555.945014	40973.298667
556.302606	40779.912444
556.660143	40810.262710
557.017625	40739.968861
557.375050	40397.145194
557.732421	40539.479652
558.089735	40355.180109
558.446994	40125.507660
558.804197	40361.254699
559.161345	40145.889045
559.518437	39336.365437
559.875474	39446.403743
560.232455	39432.008728
560.589381	39402.412114
560.946251	38983.371242
561.303065	39388.117922
561.659825	39024.617963
562.016528	38582.980118
562.373177	38172.340329
562.729770	38396.210409
563.086307	37809.261305
563.442789	38016.578757
563.799216	37858.442802
564.155587	37518.411934
564.511904	37349.122426
564.868164	37210.964564
565.224370	37222.536533
565.580520	36813.522515
565.936615	36793.292365
566.292654	36371.451132
566.648638	36389.397639
567.004567	36151.820661
567.360441	36001.284246
567.716260	35676.273496
568.072023	35699.840890
568.427732	35469.157690
568.783385	34908.152884
569.138982	35005.648799
569.494525	34766.095689
569.850013	34383.383892
570.205445	34155.024664
570.560823	33905.880759
570.916145	33611.915954
571.271412	33424.679939
571.626625	33027.182438
571.981782	32845.032946
572.336884	32411.758376
572.691931	32425.843360
573.046923	31933.904882
573.401860	31602.406167
573.756743	31383.826778
574.111570	31253.593609
574.466342	30933.747521
574.821059	30783.957196
575.175722	30245.965258
575.530330	30056.864015
575.884882	29643.663320
576.239380	29396.104857
576.593823	29172.330558
576.948211	28908.703418
577.302544	28380.655156
577.656823	28172.609257
578.011047	28110.688764
578.365216	27717.808960
578.719330	27359.687911
579.073389	27055.209781
579.427394	26891.868834
579.781344	26646.896484
580.135239	26228.097587
580.489080	26051.851287
580.842866	25546.737753
581.196597	25585.186634
581.550273	25346.573699
581.903895	25052.203082
582.257463	25058.733897
582.610975	24495.160623
582.964434	24442.757829
583.317837	24035.893863
583.671186	23721.789650
584.024481	23634.186999
584.377721	23168.560824
584.730906	23112.228450
585.084037	22903.791862
585.437113	22553.971073
585.790135	22358.878419
586.143103	21944.868618
586.496016	21794.390176
586.848874	21600.454467
587.201679	21392.481665
587.554428	20954.652412
587.907124	20833.873928
588.259765	20521.997904
588.612352	20422.518295
588.964884	19953.650658
589.317362	19881.428567
589.669786	19652.875255
590.022155	19368.390340
590.374470	19326.127827
590.726731	18943.955433
591.078937	18538.823105
591.431090	18391.966731
591.783188	18051.530050
592.135232	17733.879385
592.487222	17644.159449
592.839157	17483.500397
593.191038	17159.339081
593.542866	16884.170219
593.894639	16486.851678
594.246358	16408.002991
594.598022	16220.020885
594.949633	15902.705456
595.301190	15708.222782
595.652692	15488.317569
596.004141	15425.318269
596.355535	14930.970120
596.706876	14735.718670
597.058162	14520.988201
597.409395	14505.723587
597.760573	14372.080078
598.111698	14085.823198
598.462768	13933.908027
598.813785	13788.216160
599.164748	13469.015340
599.515657	13420.322835
599.866511	13129.541519
600.217312	13148.037513
600.568060	12696.133359
600.918753	12761.040735
601.269392	12590.831217
601.619978	12350.864732
601.970510	12264.726536
602.320988	12162.648212
602.671412	12107.457659
603.021783	11910.338462
603.372100	11682.964779
603.722363	11575.562997
604.072572	11455.233175
604.422728	11329.075779
604.772830	11151.906948
605.122878	11047.607995
605.472872	10908.356203
605.822813	10834.097486
606.172701	10678.184680
606.522534	10608.833526
606.872314	10538.620336
607.222041	10368.965344
607.571714	10329.135188
607.921333	10100.105486
608.270899	10035.523264
608.620411	9995.259568
608.969870	9840.228964
609.319276	9730.243590
609.668627	9628.248445
610.017926	9611.915106
610.367171	9533.285709
610.716362	9438.638046
611.065500	9328.350203
611.414585	9256.710365
611.763616	9200.962765
612.112594	9091.786497
612.461518	9023.299901
612.810389	8981.549065
613.159207	8858.628090
613.507971	8772.147096
613.856682	8750.770083
614.205340	8647.340729
614.553945	8653.059918
614.902496	8483.031882
615.250994	8459.933315
615.599439	8376.870223
615.947830	8320.494999
616.296169	8254.249197
616.644454	8182.382507
616.992686	8123.847149
617.340864	8118.546376
617.688990	7998.128334
618.037063	8003.537492
618.385082	7920.325686
618.733048	7878.864717
619.080961	7802.503839
619.428821	7728.461892
619.776628	7661.064185
620.124382	7562.638177
620.472083	7495.058989
620.819731	7433.408198
621.167326	7315.866134
621.514868	7231.641057
621.862357	7106.320492
622.209793	7024.051382
622.557176	6923.311484
622.904506	6813.923487
623.251783	6704.376693
623.599007	6616.373271
623.946179	6524.205855
624.293297	6452.545853
624.640363	6343.029306
624.987376	6277.572444
625.334336	6197.065217
625.681243	6106.866372
626.028097	6044.955962
626.374899	5978.879038
626.721647	5926.589669
627.068343	5864.301173
627.414987	5797.626872
627.761577	5732.681687
628.108115	5711.211413
628.454600	5616.987206
628.801032	5583.483697
629.147412	5540.033992
629.493739	5492.944574
629.840014	5429.879740
630.186236	5410.814096
630.532405	5344.898489
630.878521	5323.171116
631.224585	5274.672695
631.570597	5216.275969
631.916556	5186.419735
632.262462	5153.080064
632.608316	5114.220330
632.954117	5066.551179
633.299866	5033.597157
633.645562	4986.555629
633.991206	4918.426956
634.336797	4849.736193
634.682336	4811.872087
635.027823	4755.842182
635.373257	4705.075243
635.718639	4655.974404
636.063968	4609.399184
