Dividing Wavelength (nm)	Counts (n)	Blue Motor Position (mm): 0.000000	Red Motor Position (mm): 6.600000	
326.493990	2128.087808
326.888308	2128.087808
327.282561	2128.087808
327.676750	2094.904413
328.070874	2091.846953
328.464933	2098.150916
328.858929	2100.321133
329.252859	2112.069542
329.646726	2124.954731
330.040528	2138.462503
330.434265	2155.032775
330.827938	2168.167502
331.221547	2188.869000
331.615091	2209.210056
332.008571	2226.362582
332.401986	2246.055849
332.795338	2266.626278
333.188625	2287.557148
333.581847	2305.269242
333.975006	2322.409165
334.368100	2339.125632
334.761129	2360.051461
335.154095	2374.043184
335.546996	2391.059598
335.939833	2405.363872
336.332606	2419.968095
336.725315	2432.870928
337.117960	2445.982970
337.510540	2453.436316
337.903056	2459.616770
338.295508	2469.414253
338.687896	2478.609317
339.080220	2485.709783
339.472480	2495.109014
339.864676	2498.844509
340.256807	2501.576814
340.648875	2504.314161
341.040879	2507.530417
341.432818	2509.100736
341.824694	2511.885974
342.216506	2510.797085
342.608253	2511.439832
342.999937	2512.059894
343.391557	2511.054183
343.783113	2508.152999
344.174605	2509.461179
344.566033	2507.326250
344.957397	2504.576301
345.348697	2505.599655
345.739934	2501.095384
346.131106	2499.535147
346.522215	2499.825013
346.913260	2498.037924
347.304241	2491.688591
347.695159	2492.265803
348.086012	2492.079280
348.476802	2488.762201
348.867528	2488.376553
349.258191	2488.041316
349.648789	2484.537714
350.039324	2482.705255
350.429796	2481.850779
350.820203	2480.807260
351.210548	2482.798516
351.600828	2479.347846
351.991045	2479.627630
352.381198	2478.720223
352.771288	2479.221818
353.161314	2477.366673
353.551276	2478.107723
353.941175	2476.910448
354.331010	2475.614872
354.720782	2477.369193
355.110490	2478.405151
355.500135	2480.613176
355.889717	2477.472537
356.279235	2478.022023
356.668689	2479.330202
357.058080	2481.182826
357.447408	2476.262660
357.836672	2474.006744
358.225873	2476.003041
358.615010	2475.393061
359.004084	2483.489154
359.393095	2481.709627
359.782043	2481.646612
360.170927	2480.693834
360.559748	2483.070738
360.948505	2483.045533
361.337199	2483.589977
361.725830	2485.800523
362.114398	2487.252376
362.502903	2485.654330
362.891344	2484.575523
363.279722	2487.287664
363.668037	2488.825216
364.056289	2488.522746
364.444478	2487.948055
364.832603	2487.138950
365.220665	2492.258241
365.608665	2489.064670
365.996601	2492.492655
366.384474	2488.288333
366.772284	2490.781183
367.160031	2492.449805
367.547715	2499.323418
367.935336	2498.456340
368.322893	2499.951042
368.710388	2504.901455
369.097820	2505.861795
369.485189	2511.061745
369.872495	2519.520801
370.259738	2525.439116
370.646918	2532.098480
371.034035	2537.260622
371.421090	2547.239586
371.808081	2554.297201
372.195010	2560.160063
372.581875	2572.536096
372.968678	2583.036819
373.355418	2589.814651
373.742096	2604.461723
374.128710	2612.555296
374.515262	2621.919239
374.901751	2632.125055
375.288177	2637.846764
375.674540	2649.058291
376.060841	2656.294867
376.447079	2665.094201
376.833254	2674.538803
377.219367	2675.917558
377.605417	2689.435412
377.991404	2687.504650
378.377329	2696.825744
378.763191	2694.030424
379.148991	2710.043649
379.534727	2714.363918
379.920402	2716.392982
380.306013	2713.045656
380.691563	2727.831361
381.077049	2723.760629
381.462474	2721.159393
381.847835	2721.056050
382.233134	2719.440360
382.618371	2708.160778
383.003545	2718.389279
383.388657	2706.209852
383.773706	2704.246322
384.158693	2696.414890
384.543618	2687.315607
384.928480	2681.172961
385.313280	2678.836386
385.698017	2668.300375
386.082692	2664.459016
386.467305	2651.793117
386.851856	2644.687610
387.236344	2639.086888
387.620770	2628.714714
388.005133	2618.229114
388.389435	2612.275512
388.773674	2599.186156
389.157851	2594.205496
389.541965	2586.265678
389.926018	2571.999213
390.310008	2569.244222
390.693936	2563.744323
391.077802	2557.339537
391.461606	2550.476007
391.845348	2546.450645
392.229027	2542.705068
392.612645	2535.917154
392.996200	2534.354397
393.379694	2532.796680
393.763125	2528.879703
394.146494	2522.512726
394.529801	2523.725124
394.913047	2520.569361
395.296230	2519.856038
395.679351	2518.419309
396.062410	2517.834535
396.445408	2513.985614
396.828343	2516.123064
397.211217	2508.112670
397.594028	2513.985614
397.976778	2508.077382
398.359466	2508.886487
398.742092	2506.015550
399.124656	2508.828514
399.507158	2510.534945
399.889598	2509.546878
400.271977	2513.940244
400.654294	2510.529903
401.036549	2512.127949
401.418742	2511.091992
401.800874	2511.480161
402.182944	2510.867661
402.564952	2512.248937
402.946898	2512.337157
403.328783	2511.102074
403.710606	2510.439163
404.092367	2512.679956
404.474067	2511.565861
404.855705	2512.054853
405.237282	2512.558968
405.618797	2513.340347
406.000250	2514.250275
406.381642	2510.499657
406.762972	2514.121726
407.144240	2512.667353
407.525447	2514.502333
407.906593	2512.531242
408.287677	2515.926459
408.668700	2512.586694
409.049661	2514.351098
409.430560	2514.784637
409.811399	2512.697600
410.192176	2512.080058
410.572891	2516.770852
410.953545	2514.444359
411.334138	2515.545852
411.714669	2514.580471
412.095139	2515.031654
412.475547	2514.300687
412.855894	2515.364370
413.236180	2516.491068
413.616405	2517.874865
413.996568	2513.015192
414.376670	2516.354957
414.756711	2514.893022
415.136691	2517.123733
415.516609	2517.244720
415.896466	2516.922087
416.276262	2517.297653
416.655997	2511.454955
417.035670	2513.020233
417.415283	2514.431757
417.794834	2512.407733
418.174324	2519.069618
418.553753	2516.869154
418.933121	2518.227745
419.312428	2515.871006
419.691674	2519.546007
420.070859	2519.571213
420.449983	2517.353105
420.829045	2519.286388
421.208047	2521.643127
421.586988	2518.053826
421.965867	2520.113137
422.344686	2517.723630
422.723444	2517.693383
423.102141	2516.637261
423.480777	2521.983405
423.859352	2518.613394
424.237866	2518.653723
424.616319	2518.411748
424.994712	2519.596419
425.373044	2521.307890
425.751314	2519.167921
426.129524	2522.159845
426.507673	2520.491223
426.885762	2521.068436
427.263789	2522.767304
427.641756	2520.382839
428.019662	2521.338137
428.397508	2520.992818
428.775292	2518.283198
429.153016	2523.795700
429.530679	2519.220853
429.908282	2520.098013
430.285824	2521.060874
430.663305	2520.549197
431.040726	2522.106913
431.418086	2522.580782
431.795385	2522.598426
432.172624	2520.282016
432.549802	2521.620442
432.926920	2524.819054
433.303977	2525.310567
433.680974	2522.051461
434.057910	2523.571368
434.434786	2519.556089
434.811601	2524.750998
435.188355	2521.791841
435.565050	2521.411234
435.941683	2522.167407
436.318257	2522.742099
436.694770	2516.594412
437.071222	2522.071625
437.447614	2519.576254
437.823946	2521.234794
438.200218	2523.591533
438.576429	2522.681605
438.952580	2526.401976
439.328670	2523.523478
439.704700	2525.277799
440.080670	2526.180166
440.456580	2523.349558
440.832429	2525.207223
441.208218	2524.062881
441.583947	2525.197141
441.959616	2524.294774
442.335224	2525.202182
442.710773	2526.487676
443.086261	2525.166894
443.461689	2524.448529
443.837057	2523.767973
444.212365	2525.010618
444.587612	2524.435926
444.962800	2526.870804
445.337927	2524.035155
445.712995	2523.999867
446.088002	2529.078829
446.462949	2523.417613
446.837837	2523.767973
447.212664	2523.813344
447.587431	2525.958355
447.962139	2526.641431
448.336786	2529.449354
448.711374	2528.121010
449.085901	2527.725279
449.460369	2524.267048
449.834776	2525.101359
450.209124	2526.228057
450.583412	2525.940711
450.957640	2527.644621
451.331808	2525.653365
451.705917	2528.035310
452.079965	2525.565145
452.453954	2526.762419
452.827883	2525.676050
453.201752	2528.156298
453.575562	2525.933149
453.949311	2531.170908
454.323001	2527.543798
454.696632	2526.936339
455.070202	2529.363654
455.443713	2524.309897
455.817164	2523.213447
456.190556	2522.381656
456.563888	2525.144208
456.937160	2524.821575
457.310373	2529.146885
457.683526	2530.069416
458.056619	2529.293078
458.429653	2530.286185
458.802628	2529.479601
459.175542	2526.769981
459.548398	2530.427338
459.921194	2526.739734
460.293930	2530.455064
460.666607	2530.845753
461.039224	2530.452543
461.411782	2529.580424
461.784280	2527.500948
462.156719	2527.155629
462.529099	2531.775846
462.901419	2529.071267
463.273680	2530.132430
463.645882	2530.742410
464.018024	2530.424817
464.390106	2529.212420
464.762130	2531.906916
465.134094	2533.396577
465.505999	2531.354910
465.877845	2530.588655
466.249631	2533.351207
466.621358	2529.454395
466.993026	2533.512524
467.364634	2532.199303
467.736184	2532.796680
468.107674	2532.133768
468.479105	2528.673016
468.850477	2532.630322
469.221790	2531.382636
469.593043	2531.145702
469.964238	2531.533871
470.335373	2532.297606
470.706449	2532.421114
471.077467	2530.530681
471.448425	2533.449509
471.819324	2533.073943
472.190164	2531.992616
472.560945	2528.710825
472.931667	2530.951618
473.302330	2530.480270
473.672934	2530.029087
474.043479	2531.538912
474.413965	2531.047400
474.784393	2526.550690
475.154761	2529.202337
475.525070	2525.418951
475.895321	2528.189065
476.265513	2528.221833
476.635645	2532.083357
477.005719	2531.208717
477.375734	2533.320960
477.745691	2533.847761
478.115588	2530.913809
478.485427	2531.775846
478.855207	2533.683923
479.224928	2533.063861
479.594591	2534.175436
479.964194	2531.075126
480.333739	2531.843902
480.703226	2533.613347
481.072653	2534.505631
481.442022	2535.287010
481.811333	2534.205682
482.180584	2533.404139
482.549777	2533.383974
482.918912	2534.404808
483.287988	2534.881197
483.657005	2535.370189
484.025964	2531.138140
484.394864	2536.252391
484.763706	2533.961187
485.132489	2534.828265
485.501213	2532.683254
485.869879	2534.606454
486.238487	2530.707122
486.607036	2534.119983
486.975527	2534.276259
487.343959	2532.037986
487.712333	2532.821886
488.080648	2533.701567
488.448905	2534.203162
488.817104	2535.128214
489.185244	2537.371527
489.553326	2535.423121
489.921350	2536.630478
490.289315	2534.331711
490.657222	2534.417411
491.025070	2535.788605
491.392861	2539.637526
491.760593	2535.937319
492.128267	2535.660055
492.495883	2537.147196
492.863440	2538.989737
493.230939	2535.569315
493.598380	2534.999664
493.965763	2530.417255
494.333088	2530.974303
494.700354	2530.976823
495.067563	2534.442617
495.434713	2530.860877
495.801805	2531.468336
496.168839	2534.838347
496.535815	2536.978317
496.902733	2534.261135
497.269593	2537.333718
497.636395	2535.105528
498.003139	2537.520241
498.369825	2532.453882
498.736453	2534.735004
499.103023	2536.632998
499.469535	2538.742721
499.835989	2535.229037
500.202385	2536.282638
500.568723	2536.411187
500.935003	2538.445293
501.301226	2534.016639
501.667390	2536.123842
502.033497	2538.581404
502.399546	2536.983358
502.765537	2537.721887
503.131470	2535.909592
503.497345	2536.232226
503.863163	2537.225334
504.228923	2536.796836
504.594625	2536.711136
504.960269	2537.051414
505.325856	2535.261804
505.691385	2534.830786
506.056856	2537.623585
506.422270	2534.465302
506.787625	2536.060827
507.152924	2535.337422
507.518164	2535.496218
507.883347	2535.508821
508.248472	2533.706608
508.613540	2537.603420
508.978550	2535.518903
509.343503	2534.820703
509.708398	2540.474357
510.073236	2535.886907
510.438016	2534.634181
510.802738	2538.457896
511.167403	2536.849768
511.532010	2536.491846
511.896561	2537.820190
512.261053	2538.856147
512.625488	2534.818183
512.989866	2535.027391
513.354186	2534.775333
513.718449	2532.216947
514.082655	2536.317926
514.446803	2533.961187
514.810894	2537.106867
515.174927	2537.321116
515.538904	2536.716177
515.902822	2537.830272
516.266684	2538.026877
516.630488	2537.318595
516.994235	2536.517052
517.357925	2535.070240
517.721558	2537.694161
518.085133	2536.199459
518.448651	2537.313554
518.812112	2536.043183
519.175516	2539.304810
519.538863	2534.190559
519.902152	2539.352701
520.265385	2538.220962
520.628560	2538.079809
520.991678	2533.925898
521.354739	2537.421939
521.717743	2536.910262
522.080690	2537.091743
522.443580	2538.803215
522.806413	2537.731970
523.169189	2536.350693
523.531908	2537.053934
523.894569	2535.879346
524.257174	2538.896476
524.619722	2537.038811
524.982213	2536.857329
525.344647	2538.339429
525.707025	2537.462268
526.069345	2535.755837
526.431608	2537.772299
526.793815	2538.520910
527.155964	2538.599048
527.518057	2536.927906
527.880093	2537.623585
528.242072	2538.997299
528.603995	2538.541075
528.965860	2539.387989
529.327669	2540.164326
529.689421	2539.113246
530.051117	2537.994110
530.412755	2537.454706
530.774337	2537.888245
531.135862	2540.091230
531.497331	2533.245343
531.858743	2534.518234
532.220098	2535.841537
532.581396	2534.969417
532.942638	2536.577545
533.303824	2537.008564
533.664953	2537.348842
534.026025	2538.893956
534.387040	2538.278935
534.747999	2538.034439
535.108902	2539.324974
535.469748	2537.527803
535.830537	2539.849254
536.191270	2538.241126
536.551947	2539.713143
536.912567	2540.060983
537.273131	2539.055273
537.633638	2535.037473
537.994089	2538.641898
538.354483	2540.371014
538.714821	2539.088040
539.075103	2541.069213
539.435328	2538.916641
539.795497	2537.542926
540.155609	2540.681045
540.515665	2539.738349
540.875665	2542.256405
541.235609	2540.739018
541.595496	2540.539892
541.955328	2538.823379
542.315102	2540.736497
542.674821	2538.699871
543.034483	2542.881508
543.394090	2538.155427
543.753640	2543.115922
544.113134	2537.827752
544.472571	2538.823379
544.831953	2537.595858
545.191278	2540.164326
545.550548	2541.868236
545.909761	2540.250026
546.268918	2536.784233
546.628019	2539.251878
546.987064	2541.323792
547.346053	2539.176260
547.704986	2537.043852
548.063863	2539.002340
548.422684	2539.224151
548.781449	2542.228679
549.140158	2537.099305
549.498811	2540.736497
549.857408	2538.720036
550.215949	2536.343132
550.574434	2533.855322
550.932864	2535.392874
551.291237	2531.808614
551.649555	2539.178781
552.007817	2537.956301
552.366022	2539.362783
552.724173	2537.157278
553.082267	2539.191384
553.440305	2538.145344
553.798288	2539.367824
554.156215	2536.857329
554.514086	2538.871270
554.871902	2539.163657
555.229661	2541.641384
555.587365	2537.953780
555.945014	2539.216589
556.302606	2539.075437
556.660143	2541.086857
557.017625	2538.702392
557.375050	2541.618699
557.732421	2541.205325
558.089735	2538.281455
558.446994	2537.731970
558.804197	2539.088040
559.161345	2539.171219
559.518437	2541.744728
559.875474	2539.347659
560.232455	2539.519059
560.589381	2539.698020
560.946251	2541.951415
561.303065	2537.426980
561.659825	2540.673483
562.016528	2537.550488
562.373177	2540.323123
562.729770	2539.211548
563.086307	2541.936292
563.442789	2538.926723
563.799216	2540.759183
564.155587	2538.599048
564.511904	2540.582742
564.868164	2538.180632
565.224370	2542.755479
565.580520	2541.182639
565.936615	2540.396219
566.292654	2538.830941
566.648638	2539.723225
567.004567	2539.302289
567.360441	2538.220962
567.716260	2539.267001
568.072023	2540.771785
568.427732	2539.269522
568.783385	2534.901362
569.138982	2533.910775
569.494525	2534.775333
569.850013	2536.078471
570.205445	2541.374203
570.560823	2538.392361
570.916145	2543.393185
571.271412	2539.209028
571.626625	2540.877650
571.981782	2538.079809
572.336884	2540.975952
572.691931	2539.246836
573.046923	2538.868750
573.401860	2541.018802
573.756743	2540.285314
574.111570	2540.950746
574.466342	2539.619882
574.821059	2542.188350
575.175722	2540.428987
575.530330	2541.293545
575.884882	2540.149203
576.239380	2539.415715
576.593823	2539.657690
576.948211	2539.168698
577.302544	2541.107022
577.656823	2539.070396
578.011047	2539.740869
578.365216	2540.426466
578.719330	2539.476209
579.073389	2538.858667
579.427394	2534.924047
579.781344	2541.018802
580.135239	2541.177598
580.489080	2538.319264
580.842866	2539.967721
581.196597	2545.563402
581.550273	2539.082999
581.903895	2541.769934
582.257463	2540.612989
582.610975	2539.821528
582.964434	2538.515869
583.317837	2542.808412
583.671186	2539.387989
584.024481	2539.637526
584.377721	2538.883873
584.730906	2538.314223
585.084037	2538.853626
585.437113	2537.845396
585.790135	2541.414533
586.143103	2537.237937
586.496016	2539.665252
586.848874	2535.498738
587.201679	2538.263811
587.554428	2536.385982
587.907124	2537.711805
588.259765	2535.410518
588.612352	2537.190046
588.964884	2538.886394
589.317362	2539.382948
589.669786	2540.129038
590.022155	2542.027033
590.374470	2538.440252
590.726731	2540.275232
591.078937	2539.609799
591.431090	2537.706764
591.783188	2537.769778
592.135232	2536.675848
592.487222	2539.531662
592.839157	2538.394881
593.191038	2537.046373
593.542866	2538.841023
593.894639	2536.953111
594.246358	2538.896476
594.598022	2536.045704
594.949633	2537.411856
595.301190	2538.530992
595.652692	2540.030736
596.004141	2538.528472
596.355535	2538.520910
596.706876	2540.973432
597.058162	2539.793802
597.409395	2538.009233
597.760573	2539.783719
598.111698	2540.958308
598.462768	2537.963863
598.813785	2536.776671
599.164748	2539.070396
599.515657	2538.442772
599.866511	2538.982176
600.217312	2537.464788
600.568060	2539.324974
600.918753	2540.270191
601.269392	2537.525282
601.619978	2539.163657
601.970510	2540.751621
602.320988	2535.344983
602.671412	2537.943698
603.021783	2535.334901
603.372100	2539.272042
603.722363	2538.772968
604.072572	2539.269522
604.422728	2539.350180
604.772830	2535.544109
605.122878	2535.697864
605.472872	2536.839685
605.822813	2532.917668
606.172701	2535.816331
606.522534	2538.767927
606.872314	2536.751465
607.222041	2538.432690
607.571714	2538.626774
607.921333	2537.704243
608.270899	2536.910262
608.620411	2539.846734
608.969870	2539.758513
609.319276	2540.202135
609.668627	2544.151879
610.017926	2545.976777
610.367171	2547.819318
610.716362	2547.761345
611.065500	2545.666746
611.414585	2542.538710
611.763616	2544.066179
612.112594	2542.447969
612.461518	2541.555685
612.810389	2541.832948
613.159207	2541.366642
613.507971	2538.684748
613.856682	2544.131714
614.205340	2538.702392
614.553945	2541.268339
614.902496	2538.931764
615.250994	2540.287835
615.599439	2539.209028
615.947830	2539.506456
616.296169	2539.602238
616.644454	2538.278935
616.992686	2539.617361
617.340864	2538.130221
617.688990	2539.277083
618.037063	2540.867567
618.385082	2539.451003
618.733048	2540.653318
619.080961	2539.821528
619.428821	2542.193391
619.776628	2539.423277
620.124382	2539.960160
620.472083	2540.963349
620.819731	2538.500746
621.167326	2538.984696
621.514868	2538.377237
621.862357	2540.532331
622.209793	2541.071734
622.557176	2540.355890
622.904506	2536.070909
623.251783	2534.180477
623.599007	2534.979500
623.946179	2536.224665
624.293297	2537.210210
624.640363	2537.742052
624.987376	2540.842362
625.334336	2541.049049
625.681243	2537.520241
626.028097	2537.520241
626.374899	2536.350693
626.721647	2537.492515
627.068343	2537.792463
627.414987	2539.133410
627.761577	2540.033256
628.108115	2539.859337
628.454600	2540.912938
628.801032	2537.280786
629.147412	2539.410674
629.493739	2539.788760
629.840014	2539.088040
630.186236	2538.636857
630.532405	2540.333205
630.878521	2537.137113
631.224585	2538.016795
631.570597	2537.673996
631.916556	2539.032587
632.262462	2535.917154
632.608316	2537.888245
632.954117	2536.428831
633.299866	2540.171888
633.645562	2539.274563
633.991206	2538.624254
634.336797	2535.758358
634.682336	2538.523431
635.027823	2535.413039
635.373257	2534.737524
635.718639	2538.916641
636.063968	2541.381765
636.409245	2535.140817
636.754470	2536.779192
637.099642	2535.801208
637.444762	2540.103832
637.789829	2537.280786
638.134845	2541.033925
638.479808	2537.202648
638.824719	2540.297917
639.169577	2537.704243
639.514383	2535.438245
639.859137	2536.685930
640.203839	2536.317926
640.548489	2537.230375
640.893086	2535.236598
641.237632	2533.981351
641.582125	2534.019160
641.926566	2533.066382
642.270955	2539.385468
642.615292	2538.110056
642.959576	2535.501259
643.303809	2537.812628
643.647990	2535.055117
643.992118	2538.110056
644.336195	2537.011085
