Dividing Wavelength (nm)	Counts (n)	Blue Motor Position (mm): 23.500000	Red Motor Position (mm): 0.000000	
326.493990	2193.388394
326.888308	2193.388394
327.282561	2193.388394
327.676750	2155.279792
328.070874	2151.443474
328.464933	2149.706796
328.858929	2154.808444
329.252859	2160.706594
329.646726	2167.499549
330.040528	2181.183761
330.434265	2194.628518
330.827938	2212.506970
331.221547	2228.255535
331.615091	2246.078534
332.008571	2263.982192
332.401986	2280.701179
332.795338	2301.632050
333.188625	2320.465801
333.581847	2338.787874
333.975006	2357.878724
334.368100	2375.580736
334.761129	2393.353323
335.154095	2414.642116
335.546996	2435.973759
335.939833	2471.718060
336.332606	2484.918321
336.725315	2497.952225
337.117960	2509.178874
337.510540	2522.595905
337.903056	2533.293234
338.295508	2542.216076
338.687896	2551.272509
339.080220	2559.489590
339.472480	2563.678788
339.864676	2572.669686
340.256807	2574.981055
340.648875	2579.876016
341.040879	2583.422467
341.432818	2586.817685
341.824694	2589.083683
342.216506	2590.258272
342.608253	2589.759198
342.999937	2589.575196
343.391557	2591.485793
343.783113	2593.053592
344.174605	2588.390525
344.566033	2588.435895
344.957397	2588.337592
345.348697	2585.146542
345.739934	2586.167376
346.131106	2585.043198
346.522215	2579.994483
346.913260	2578.598083
347.304241	2578.169585
347.695159	2575.825449
348.086012	2572.866291
348.476802	2571.490056
348.867528	2567.121897
349.258191	2564.727348
349.648789	2565.296999
350.039324	2560.316339
350.429796	2565.612071
350.820203	2563.376319
351.210548	2559.164435
351.600828	2559.381205
351.991045	2558.287274
352.381198	2557.868859
352.771288	2557.972202
353.161314	2558.854404
353.551276	2556.240566
353.941175	2555.065977
354.331010	2553.374670
354.720782	2556.169990
355.110490	2557.170659
355.500135	2557.032027
355.889717	2558.776266
356.279235	2557.997408
356.668689	2555.738971
357.058080	2553.994732
357.447408	2556.104455
357.836672	2559.013201
358.225873	2559.542522
358.615010	2555.542366
359.004084	2557.808365
359.393095	2555.930535
359.782043	2561.332131
360.170927	2560.044117
360.559748	2558.322562
360.948505	2561.778273
361.337199	2559.436657
361.725830	2560.505382
362.114398	2563.416648
362.502903	2560.974209
362.891344	2564.066957
363.279722	2562.967986
363.668037	2564.034190
364.056289	2565.707853
364.444478	2562.418500
364.832603	2563.446895
365.220665	2566.257339
365.608665	2566.605178
365.996601	2566.806824
366.384474	2567.583162
366.772284	2566.534602
367.160031	2564.548387
367.547715	2567.706670
367.935336	2566.811866
368.322893	2566.998388
368.710388	2566.106104
369.097820	2568.062072
369.485189	2560.888510
369.872495	2571.222875
370.259738	2568.195662
370.646918	2569.899572
371.034035	2569.511403
371.421090	2572.105077
371.808081	2571.447207
372.195010	2572.359655
372.581875	2568.823286
372.968678	2572.979717
373.355418	2571.525344
373.742096	2573.246898
374.128710	2571.701785
374.515262	2574.131621
374.901751	2572.828483
375.288177	2576.261508
375.674540	2575.465006
376.060841	2574.928123
376.447079	2573.856878
376.833254	2571.492577
377.219367	2578.003227
377.605417	2576.463155
377.991404	2574.184553
378.377329	2576.538772
378.763191	2574.519790
379.148991	2579.525656
379.534727	2576.374934
379.920402	2576.132959
380.306013	2576.785788
380.691563	2578.409040
381.077049	2577.657908
381.462474	2576.080027
381.847835	2576.984914
382.233134	2578.673701
382.618371	2576.203535
383.003545	2579.765110
383.388657	2576.705130
383.773706	2578.966087
384.158693	2576.763103
384.543618	2583.240986
384.928480	2576.861406
385.313280	2580.995152
385.698017	2582.925914
386.082692	2580.208732
386.467305	2579.704617
386.851856	2582.167220
387.236344	2582.666294
387.620770	2578.572878
388.005133	2578.502301
388.389435	2580.193608
388.773674	2577.776375
389.157851	2582.792323
389.541965	2582.933476
389.926018	2583.092272
390.310008	2582.610842
390.693936	2582.207549
391.077802	2585.796851
391.461606	2584.244176
391.845348	2582.288208
392.229027	2584.544124
392.612645	2585.217118
392.996200	2582.242837
393.379694	2584.929772
393.763125	2586.966399
394.146494	2587.500761
394.529801	2587.034454
394.913047	2586.747108
395.296230	2585.020513
395.679351	2588.362798
396.062410	2586.890781
396.445408	2588.940010
396.828343	2590.349013
397.211217	2589.252562
397.594028	2588.335072
397.976778	2590.802717
398.359466	2589.265165
398.742092	2587.830957
399.124656	2586.979002
399.507158	2588.917325
399.889598	2590.553180
400.271977	2589.398755
400.654294	2588.982860
401.036549	2590.815320
401.418742	2591.001842
401.800874	2589.537387
402.182944	2589.323138
402.564952	2593.098962
402.946898	2591.231215
403.328783	2593.827409
403.710606	2590.064188
404.092367	2595.596854
404.474067	2592.884713
404.855705	2592.662902
405.237282	2594.500403
405.618797	2588.947572
406.000250	2592.846905
406.381642	2593.824888
406.762972	2592.506627
407.144240	2590.311204
407.525447	2590.969075
407.906593	2590.099476
408.287677	2596.405959
408.668700	2595.886720
409.049661	2597.026021
409.430560	2596.693305
409.811399	2598.800507
410.192176	2595.448140
410.572891	2596.758840
410.953545	2596.441247
411.334138	2595.347317
411.714669	2595.314549
412.095139	2598.528285
412.475547	2597.464602
412.855894	2597.676330
413.236180	2596.907554
413.616405	2599.226485
413.996568	2598.392174
414.376670	2599.599530
414.756711	2599.632298
415.136691	2599.854108
415.516609	2598.790425
415.896466	2601.419387
416.276262	2602.099942
416.655997	2600.670775
417.035670	2598.656834
417.415283	2600.983327
417.794834	2601.275714
418.174324	2600.428800
418.553753	2600.534664
418.933121	2603.453492
419.312428	2602.616661
419.691674	2601.825200
420.070859	2602.286465
420.449983	2604.365941
420.829045	2602.389809
421.208047	2602.276383
421.586988	2604.771754
421.965867	2604.907865
422.344686	2605.868205
422.723444	2606.941971
423.102141	2603.743359
423.480777	2605.243102
423.859352	2603.486260
424.237866	2604.237392
424.616319	2605.472474
424.994712	2606.755448
425.373044	2607.783843
425.751314	2601.651280
426.129524	2601.835282
426.507673	2602.901486
426.885762	2603.579521
427.263789	2605.212855
427.641756	2607.703185
428.019662	2608.983638
428.397508	2606.989862
428.775292	2605.066662
429.153016	2608.696292
429.530679	2610.501025
429.908282	2607.811570
430.285824	2608.567743
430.663305	2606.339553
431.040726	2609.707044
431.418086	2609.185284
431.795385	2610.042280
432.172624	2609.606221
432.549802	2608.832403
432.926920	2609.621344
433.303977	2611.758793
433.680974	2610.206118
434.057910	2610.158227
434.434786	2611.327775
434.811601	2610.891715
435.188355	2609.878443
435.565050	2612.996397
435.941683	2611.305089
436.318257	2613.581170
436.694770	2611.778958
437.071222	2612.986314
437.447614	2610.788371
437.823946	2614.178547
438.200218	2614.531428
438.576429	2614.299535
438.952580	2612.832559
439.328670	2615.532097
439.704700	2615.973198
440.080670	2616.552931
440.456580	2615.481685
440.832429	2619.670884
441.208218	2617.188116
441.583947	2618.279526
441.959616	2617.389762
442.335224	2618.186264
442.710773	2620.631224
443.086261	2616.878085
443.461689	2617.727519
443.837057	2621.183230
444.212365	2620.573251
444.587612	2616.084103
444.962800	2618.670215
445.337927	2619.728857
445.712995	2615.784155
446.088002	2623.073663
446.462949	2624.034003
446.837837	2625.627007
447.212664	2623.497120
447.587431	2623.192130
447.962139	2629.183542
448.336786	2629.778398
448.711374	2630.337966
449.085901	2628.702111
449.460369	2628.281175
449.834776	2627.903088
450.209124	2629.654889
450.583412	2632.545991
450.957640	2633.183697
451.331808	2632.331742
451.705917	2631.048768
452.079965	2629.846453
452.453954	2634.391053
452.827883	2636.588997
453.201752	2637.216620
453.575562	2636.198307
453.949311	2638.940695
454.323001	2639.449851
454.696632	2640.541261
455.070202	2644.697692
455.443713	2641.821714
455.817164	2647.785399
456.190556	2646.618372
456.563888	2653.048364
456.937160	2650.444608
457.310373	2655.984836
457.683526	2658.608757
458.056619	2657.010711
458.429653	2661.759478
458.802628	2663.544046
459.175542	2668.985972
459.548398	2676.494770
459.921194	2684.585822
460.293930	2691.991277
460.666607	2705.226827
461.039224	2727.032338
461.411782	2736.121538
461.784280	2746.085379
462.156719	2753.858838
462.529099	2764.709922
462.901419	2763.487442
463.273680	2770.829882
463.645882	2780.995369
464.018024	2792.516926
464.390106	2815.514670
464.762130	2844.839062
465.134094	2888.830691
465.505999	2970.872949
465.877845	3109.413939
466.249631	3217.211452
466.621358	3234.129565
466.993026	3219.840414
467.364634	3236.791294
467.736184	3243.674990
468.107674	3258.269130
468.479105	3317.323727
468.850477	3349.491329
469.221790	3386.904253
469.593043	3406.655493
469.964238	3437.209927
470.335373	3476.745176
470.706449	3561.555028
471.077467	3596.777570
471.448425	3793.107827
471.819324	4194.045916
472.190164	4455.928817
472.560945	4269.030558
472.931667	4142.500118
473.302330	4181.821118
473.672934	4220.418712
474.043479	4357.013817
474.413965	4433.291515
474.784393	4490.934589
475.154761	4673.618443
475.525070	4777.567035
475.895321	4829.962267
476.265513	5021.710116
476.635645	5208.832705
477.005719	5300.251510
477.375734	5449.991423
477.745691	5669.274054
478.115588	5867.396441
478.485427	6115.708556
478.855207	6441.525891
479.224928	6947.456091
479.594591	7622.138916
479.964194	7794.690050
480.333739	8044.045684
480.703226	8060.610916
481.072653	8194.919857
481.442022	8556.773880
481.811333	8986.870003
482.180584	9190.973719
482.549777	9099.970810
482.918912	9242.731246
483.287988	9474.707502
483.657005	9599.798693
484.025964	9708.848933
484.394864	9890.723682
484.763706	10005.157874
485.132489	10073.636908
485.501213	10284.155492
485.869879	10507.012301
486.238487	10562.412061
486.607036	10906.296891
486.975527	10979.499486
487.343959	11301.835904
487.712333	11545.454705
488.080648	11566.864486
488.448905	12017.649504
488.817104	12113.093669
489.185244	12618.544960
489.553326	12893.791960
489.921350	13505.167975
490.289315	14781.381441
490.657222	15916.513176
491.025070	16441.579596
491.392861	16607.559587
491.760593	16440.767971
492.128267	16316.664845
492.495883	15973.818493
492.863440	15787.557940
493.230939	15516.908473
493.598380	15675.215827
493.965763	15654.801674
494.333088	15619.122908
494.700354	15790.534742
495.067563	15956.396265
495.434713	16013.378947
495.801805	16253.894918
496.168839	16405.089204
496.535815	16497.211250
496.902733	16832.266499
497.269593	16763.374090
497.636395	17122.581508
498.003139	17299.435267
498.369825	17360.559257
498.736453	17649.336714
499.103023	17753.154237
499.469535	17961.923541
499.835989	18278.770142
500.202385	18517.700670
500.568723	18325.478953
500.935003	18665.177105
501.301226	18549.880876
501.667390	19282.262227
502.033497	19691.213230
502.399546	19608.515622
502.765537	19508.194139
503.131470	19936.823286
503.497345	20203.646518
503.863163	19708.640499
504.228923	20393.312370
504.594625	20684.421361
504.960269	20394.209695
505.325856	20975.031277
505.691385	20621.112030
506.056856	21228.288764
506.422270	21364.788087
506.787625	21119.127618
507.152924	21634.242801
507.518164	21726.299311
507.883347	21675.837361
508.248472	21507.150271
508.613540	22316.787305
508.978550	22223.157955
509.343503	22320.411895
509.708398	22685.366228
510.073236	22896.814905
510.438016	23194.089227
510.802738	23000.251820
511.167403	23319.535820
511.532010	23106.272327
511.896561	23925.064096
512.261053	23984.693384
512.625488	23908.745881
512.989866	23884.777715
513.354186	23815.746675
513.718449	23972.806344
514.082655	24388.245312
514.446803	24219.704415
514.810894	24694.228227
515.174927	24267.519759
515.538904	24352.664848
515.902822	24861.196283
516.266684	24694.021539
516.630488	24642.095134
516.994235	24680.523850
517.357925	24987.837629
517.721558	25233.374589
518.085133	25338.142369
518.448651	25309.203625
518.812112	25070.696555
519.175516	25270.422029
519.538863	25481.414482
519.902152	25284.403669
520.265385	25633.584231
520.628560	25422.753095
520.991678	25463.883869
521.354739	25570.993265
521.717743	25639.991538
522.080690	25459.377078
522.443580	25813.510574
522.806413	25843.452507
523.169189	25937.407012
523.531908	26015.161769
523.894569	25628.142306
524.257174	25717.768980
524.619722	25941.931447
524.982213	25622.599557
525.344647	25720.070267
525.707025	25838.784399
526.069345	25857.771905
526.431608	25807.277187
526.793815	26015.338209
527.155964	25464.025022
527.518057	25654.603322
527.880093	25584.503558
528.242072	25809.994369
528.603995	25532.287286
528.965860	25334.837893
529.327669	25388.919391
529.689421	25396.909620
530.051117	25220.242383
530.412755	25405.109057
530.774337	25219.587033
531.135862	25089.265645
531.497331	25305.931917
531.858743	24835.912376
532.220098	25331.939229
532.581396	25002.608210
532.942638	24969.281142
533.303824	25054.718618
533.664953	25082.311373
534.026025	24740.311934
534.387040	24989.171015
534.747999	25051.441868
535.108902	25210.157555
535.469748	24711.905032
535.830537	24900.207252
536.191270	25006.482337
536.551947	24904.719085
536.912567	24585.593882
537.273131	24880.380394
537.633638	24602.315389
537.994089	24813.506968
538.354483	24377.132088
538.714821	24856.260993
539.075103	24908.298304
539.435328	24701.595873
539.795497	24248.386060
540.155609	24666.368290
540.515665	24949.116527
540.875665	24205.841242
541.235609	24463.905469
541.595496	24439.415544
541.955328	24807.003879
542.315102	24721.251332
542.674821	24286.129179
543.034483	24158.691330
543.394090	24319.572193
543.753640	24106.364153
544.113134	24743.412244
544.472571	24344.175545
544.831953	24636.285204
545.191278	24245.270627
545.550548	24181.492469
545.909761	24395.542382
546.268918	24608.750422
546.628019	24572.965791
546.987064	24286.870228
547.346053	24045.628332
547.704986	24174.124823
548.063863	24337.359905
548.422684	24322.533871
548.781449	23884.565987
549.140158	24285.078098
549.498811	23848.559545
549.857408	23593.971194
550.215949	24031.220714
550.574434	23712.065264
550.932864	23928.426546
551.291237	24064.477206
551.649555	23954.562408
552.007817	23990.031966
552.366022	23873.989646
552.724173	23920.406070
553.082267	23849.860163
553.440305	24327.005375
553.798288	23602.468059
554.156215	24137.273988
554.514086	24204.447363
554.871902	23564.924065
555.229661	23856.055741
555.587365	23722.631522
555.945014	23558.393251
556.302606	23845.308001
556.660143	23769.831846
557.017625	24023.366596
557.375050	23569.249375
557.732421	23961.362924
558.089735	23762.305403
558.446994	23832.049767
558.804197	23840.256765
559.161345	23815.650893
559.518437	23543.910016
559.875474	23753.743003
560.232455	23930.364869
560.589381	23757.831379
560.946251	23722.916347
561.303065	24070.932403
561.659825	24137.425222
562.016528	23750.052879
562.373177	23493.679959
562.729770	23837.421116
563.086307	23718.868301
563.442789	23889.823910
563.799216	23710.348751
564.155587	23728.806936
564.511904	23705.698287
564.868164	23627.068889
565.224370	23623.961018
565.580520	23513.799204
565.936615	23652.771212
566.292654	23333.333458
566.648638	23646.900789
567.004567	23462.437408
567.360441	23413.323966
567.716260	23154.526251
568.072023	23468.272543
568.427732	23223.718608
568.783385	23014.818234
569.138982	23240.304005
569.494525	23283.199183
569.850013	23040.946535
570.205445	23135.054795
570.560823	22924.092588
570.916145	22689.699099
571.271412	22875.516030
571.626625	22627.087968
571.981782	22748.506679
572.336884	22542.096635
572.691931	22677.277696
573.046923	22415.954363
573.401860	22303.166107
573.756743	22297.953554
574.111570	22218.668807
574.466342	22148.475781
574.821059	22236.675809
575.175722	21940.520623
575.530330	21929.992173
575.884882	21954.892953
576.239380	21860.104137
576.593823	21749.874267
576.948211	21720.348229
577.302544	21566.681257
577.656823	21448.874533
578.011047	21530.919312
578.365216	21412.931106
578.719330	21296.510699
579.073389	21205.981658
579.427394	21339.335301
579.781344	21121.857403
580.135239	21015.932679
580.489080	20978.358438
580.842866	20736.733414
581.196597	20919.099675
581.550273	20905.092829
581.903895	20803.727828
582.257463	21116.438163
582.610975	20640.830503
582.964434	20947.388110
583.317837	20663.210706
583.671186	20750.909139
584.024481	20728.594471
584.377721	20501.966879
584.730906	20539.127745
585.084037	20585.327399
585.437113	20475.909155
585.790135	20679.027326
586.143103	20137.362907
586.496016	20158.258490
586.848874	20399.437372
587.201679	20342.563074
587.554428	19999.172277
587.907124	20338.603248
588.259765	20122.259610
588.612352	20198.834737
588.964884	19763.921792
589.317362	19936.480488
589.669786	19989.165587
590.022155	20043.725995
590.374470	20217.542459
590.726731	20023.148005
591.078937	19770.051835
591.431090	19884.528877
591.783188	19622.335945
592.135232	19579.042516
592.487222	19697.998623
592.839157	19723.053158
593.191038	19604.195353
593.542866	19481.944851
593.894639	19223.353824
594.246358	19436.519014
594.598022	19342.793882
594.949633	19099.137272
595.301190	19046.379077
595.652692	19213.866372
596.004141	19450.692218
596.355535	18791.367268
596.706876	18800.973187
597.058162	18693.205921
597.409395	18907.580988
597.760573	19005.961626
598.111698	18782.943500
598.462768	18711.291060
598.813785	18670.084668
599.164748	18494.743255
599.515657	18525.327936
599.866511	18321.181370
600.217312	18687.141412
600.568060	18217.812510
600.918753	18512.793107
601.269392	18422.790867
601.619978	18197.068162
601.970510	18412.721162
602.320988	18360.769551
602.671412	18563.809584
603.021783	18468.680490
603.372100	18200.959933
603.722363	18340.776335
604.072572	18280.998332
604.422728	18404.962826
604.772830	18178.872117
605.122878	18122.151575
605.472872	18117.412890
605.822813	18110.188917
606.172701	18073.209533
606.522534	18262.900590
606.872314	18286.460423
607.222041	18127.848078
607.571714	18333.960695
607.921333	18166.279315
608.270899	18246.819309
608.620411	18433.369728
608.969870	18185.087860
609.319276	18190.585238
609.668627	18221.628663
610.017926	18357.618830
610.367171	18472.579822
610.716362	18508.518208
611.065500	18338.099482
611.414585	18470.165110
611.763616	18458.900652
612.112594	18400.738339
612.461518	18370.632568
612.810389	18568.686900
613.159207	18404.045336
613.507971	18316.828333
613.856682	18612.290360
614.205340	18539.876706
614.553945	18677.275874
614.902496	18415.473632
615.250994	18653.988264
615.599439	18595.334439
615.947830	18584.561493
616.296169	18631.764338
616.644454	18594.588348
616.992686	18563.504594
617.340864	18774.716337
617.688990	18534.142393
618.037063	18718.673830
618.385082	18557.407318
618.733048	18838.015585
619.080961	18702.801757
619.428821	18750.740609
619.776628	18640.243558
620.124382	18559.007885
620.472083	18591.034335
620.819731	18625.178070
621.167326	18324.584148
621.514868	18354.999950
621.862357	18112.863249
622.209793	18123.381616
622.557176	17968.361094
622.904506	17780.905788
623.251783	17690.086881
623.599007	17468.341647
623.946179	17411.976506
624.293297	17357.963063
624.640363	17108.103314
624.987376	17129.014020
625.334336	16909.539826
625.681243	16772.339782
626.028097	16766.292918
626.374899	16700.221036
626.721647	16568.152887
627.068343	16407.791263
627.414987	16327.473079
627.761577	16304.976930
628.108115	16355.285125
628.454600	16075.022177
628.801032	16167.686146
629.147412	16102.783811
629.493739	16118.567664
629.840014	15930.101607
630.186236	16026.869075
630.532405	15797.607481
630.878521	15989.594784
631.224585	15879.359873
631.570597	15704.603233
631.916556	15745.839872
632.262462	15718.904987
632.608316	15636.461957
632.954117	15575.307719
633.299866	15584.170068
633.645562	15500.796945
633.991206	15244.716412
634.336797	15122.770900
634.682336	15096.506489
635.027823	14981.628675
635.373257	14861.782804
635.718639	14758.232463
636.063968	14711.251430
636.409245	14465.217916
636.754470	14496.402494
637.099642	14341.760058
637.444762	14106.912865
637.789829	14153.946831
638.134845	13987.397190
