Dividing Wavelength (nm)	Counts (n)	Blue Motor Position (mm): 0.000000	Red Motor Position (mm): 25.500000	
326.493990	2081.953689
326.888308	2081.953689
327.282561	2081.953689
327.676750	2056.805893
328.070874	2058.572817
328.464933	2066.855433
328.858929	2075.193501
329.252859	2088.875193
329.646726	2101.495722
330.040528	2118.590274
330.434265	2137.756741
330.827938	2156.756850
331.221547	2176.800478
331.615091	2196.206399
332.008571	2219.544421
332.401986	2237.059910
332.795338	2257.012797
333.188625	2279.433329
333.581847	2296.525361
333.975006	2314.930614
334.368100	2331.818479
334.761129	2348.653412
335.154095	2365.712677
335.546996	2384.901829
335.939833	2409.777403
336.332606	2425.629311
336.725315	2435.096598
337.117960	2442.839810
337.510540	2449.418516
337.903056	2460.289764
338.295508	2468.196814
338.687896	2472.224696
339.080220	2481.248361
339.472480	2485.344299
339.864676	2488.444608
340.256807	2492.646410
340.648875	2496.424755
341.040879	2497.778305
341.432818	2497.090187
341.824694	2499.126813
342.216506	2496.792759
342.608253	2495.512306
342.999937	2497.168325
343.391557	2496.563387
343.783113	2494.254538
344.174605	2493.450474
344.566033	2491.202120
344.957397	2487.716162
345.348697	2487.441419
345.739934	2486.788589
346.131106	2484.603249
346.522215	2485.049391
346.913260	2482.551500
347.304241	2480.464462
347.695159	2480.023361
348.086012	2477.517908
348.476802	2476.444142
348.867528	2476.305510
349.258191	2472.242340
349.648789	2473.162351
350.039324	2472.562453
350.429796	2472.181846
350.820203	2470.702267
351.210548	2471.743266
351.600828	2472.229737
351.991045	2468.968111
352.381198	2472.733852
352.771288	2468.726135
353.161314	2470.188070
353.551276	2471.960035
353.941175	2471.733183
354.331010	2472.809470
354.720782	2470.435086
355.110490	2469.265539
355.500135	2470.319140
355.889717	2472.302834
356.279235	2475.549337
356.668689	2470.913996
357.058080	2471.584469
357.447408	2469.310909
357.836672	2472.149079
358.225873	2472.257463
358.615010	2470.515745
359.004084	2479.587301
359.393095	2475.982876
359.782043	2479.181488
360.170927	2475.229224
360.559748	2479.541931
360.948505	2481.233238
361.337199	2483.549648
361.725830	2479.032774
362.114398	2482.564103
362.502903	2482.785913
362.891344	2483.514360
363.279722	2486.793631
363.668037	2484.535194
364.056289	2484.351192
364.444478	2485.024186
364.832603	2486.294556
365.220665	2486.539052
365.608665	2488.447129
365.996601	2490.256903
366.384474	2489.745226
366.772284	2491.789414
367.160031	2491.252531
367.547715	2494.864518
367.935336	2491.459218
368.322893	2494.015083
368.710388	2495.489621
369.097820	2496.026504
369.485189	2498.657986
369.872495	2498.055568
370.259738	2499.872904
370.646918	2502.882473
371.034035	2503.888183
371.421090	2507.338853
371.808081	2509.294821
372.195010	2512.954698
372.581875	2515.344205
372.968678	2523.349558
373.355418	2527.256452
373.742096	2540.418905
374.128710	2550.027344
374.515262	2559.640824
374.901751	2570.529717
375.288177	2586.414392
375.674540	2605.134717
376.060841	2623.081225
376.447079	2644.944709
376.833254	2666.982113
377.219367	2690.438602
377.605417	2719.591595
377.991404	2744.444483
378.377329	2780.917231
378.763191	2814.632468
379.148991	2857.436905
379.534727	2903.845768
379.920402	2947.965946
380.306013	2992.741475
380.691563	3053.530228
381.077049	3102.820110
381.462474	3160.001918
381.847835	3225.683112
382.233134	3293.254738
382.618371	3350.214735
383.003545	3432.118362
383.388657	3506.828262
383.773706	3590.854214
384.158693	3656.900891
384.543618	3750.757093
384.928480	3825.335923
385.313280	3922.010131
385.698017	4019.989997
386.082692	4138.789828
386.467305	4194.960885
386.851856	4312.444975
387.236344	4459.823108
387.620770	4518.038353
388.005133	4631.297956
388.389435	4768.397176
388.773674	4848.969938
389.157851	4972.042148
389.541965	5102.040902
389.926018	5124.221979
390.310008	5297.942661
390.693936	5414.874745
391.077802	5524.827352
391.461606	5656.320809
391.845348	5760.667652
392.229027	5881.342793
392.612645	6093.023364
392.996200	6205.521753
393.379694	6371.985694
393.763125	6587.694147
394.146494	6677.875348
394.529801	6810.603887
394.913047	7039.142076
395.296230	7041.919752
395.679351	7093.122752
396.062410	7342.546441
396.445408	7245.847028
396.828343	7393.683906
397.211217	7522.243411
397.594028	7414.057729
397.976778	7616.356712
398.359466	7779.927031
398.742092	7761.335256
399.124656	7905.391268
399.507158	8089.963034
399.889598	8114.021941
400.271977	8320.323600
400.654294	8352.445832
401.036549	8547.440184
401.418742	8574.087723
401.800874	8873.834731
402.182944	8957.084345
402.564952	9308.079723
402.946898	9143.400350
403.328783	9200.970327
403.710606	9393.038289
404.092367	9640.458119
404.474067	9995.410803
404.855705	9798.841091
405.237282	9763.245504
405.618797	10175.422845
406.000250	10416.130379
406.381642	10771.761098
406.762972	10717.936698
407.144240	10538.453977
407.525447	10795.141970
407.906593	10740.606767
408.287677	11001.090748
408.668700	11139.064608
409.049661	11130.429112
409.430560	11290.415170
409.811399	11266.507498
410.192176	11426.760738
410.572891	11499.426450
410.953545	11970.613018
411.334138	11464.153497
411.714669	12046.714276
412.095139	11392.034750
412.475547	11870.440250
412.855894	11737.252965
413.236180	12058.666852
413.616405	11756.222827
413.996568	12023.890452
414.376670	12002.226093
414.756711	11896.979404
415.136691	12165.398161
415.516609	12333.470230
415.896466	12414.955441
416.276262	12696.508925
416.655997	13163.581911
417.035670	13211.528325
417.415283	13825.641687
417.794834	13911.893308
418.174324	13656.679854
418.553753	13565.742479
418.933121	14057.207088
419.312428	13878.813257
419.691674	13788.702632
420.070859	14250.389145
420.449983	13906.385848
420.829045	14469.644049
421.208047	14217.087283
421.586988	14669.354400
421.965867	14916.002934
422.344686	14916.590229
422.723444	15486.056611
423.102141	14191.894116
423.480777	15376.419077
423.859352	14878.133787
424.237866	15966.718027
424.616319	15692.728795
424.994712	16328.871999
425.373044	16125.718540
425.751314	16817.062379
426.129524	15946.240861
426.507673	17021.362700
426.885762	16757.160868
427.263789	16930.122857
427.641756	17113.164632
428.019662	17168.602201
428.397508	17219.548102
428.775292	17499.455649
429.153016	17480.838668
429.530679	17557.270122
429.908282	17591.973425
430.285824	17327.660687
430.663305	18033.964150
431.040726	17641.094428
431.418086	17488.985172
431.795385	18112.018855
432.172624	18545.941214
432.549802	18112.608670
432.926920	18322.454261
433.303977	18203.409933
433.680974	18456.584241
434.057910	18764.787785
434.434786	18805.447211
434.811601	18724.546774
435.188355	19764.375496
435.565050	19439.692420
435.941683	19391.884638
436.318257	20286.583581
436.694770	20082.139587
437.071222	20685.364056
437.447614	19742.562423
437.823946	19780.187075
438.200218	19953.207036
438.576429	19721.016531
438.952580	20025.718993
439.328670	19986.778600
439.704700	20408.009854
440.080670	19969.973914
440.456580	20580.127449
440.832429	20753.117164
441.208218	19761.144116
441.583947	20201.511590
441.959616	20316.422171
442.335224	20552.786751
442.710773	20692.850170
443.086261	21236.047100
443.461689	20575.547561
443.837057	20720.213553
444.212365	21357.271726
444.587612	21342.057524
444.962800	20938.601379
445.337927	21359.353723
445.712995	20076.798485
446.088002	21929.793048
446.462949	22116.782047
446.837837	22284.959980
447.212664	22270.151591
447.587431	25170.014847
447.962139	28062.243276
448.336786	30299.320830
448.711374	28618.706002
449.085901	24942.333654
449.460369	24917.077473
449.834776	24876.929724
450.209124	27314.675448
450.583412	26755.339265
450.957640	27185.256426
451.331808	25829.533881
451.705917	24447.463746
452.079965	24431.458082
452.453954	24739.477623
452.827883	24591.683596
453.201752	24327.494367
453.575562	24421.143882
453.949311	25436.220538
454.323001	25413.379070
454.696632	25117.816220
455.070202	26522.795879
455.443713	26605.037263
455.817164	27035.181276
456.190556	27442.095653
456.563888	26781.908666
456.937160	27069.375423
457.310373	25396.143365
457.683526	25680.918145
458.056619	25559.391050
458.429653	25408.665591
458.802628	25821.314280
459.175542	25794.815455
459.548398	26868.515689
459.921194	28142.871490
460.293930	28603.181769
460.666607	30238.895039
461.039224	31609.645264
461.411782	31723.270351
461.784280	30425.773133
462.156719	29766.382648
462.529099	29079.301105
462.901419	27750.780627
463.273680	26671.489753
463.645882	26589.465138
464.018024	26368.947425
464.390106	26908.902893
464.762130	29022.489822
465.134094	32209.605586
465.505999	36357.537547
465.877845	39821.568933
466.249631	40398.619731
466.621358	38492.314966
466.993026	36352.148553
467.364634	34332.024617
467.736184	32479.778665
468.107674	31191.897448
468.479105	30299.542641
468.850477	29455.804722
469.221790	28104.556201
469.593043	26543.814970
469.964238	25621.742561
470.335373	25307.086341
470.706449	26274.277077
471.077467	27856.942285
471.448425	30740.817522
471.819324	32342.878570
472.190164	30619.255138
472.560945	27844.737652
472.931667	25487.622663
473.302330	24461.445386
473.672934	23624.243323
474.043479	23658.744980
474.413965	22876.647769
474.784393	22361.141897
475.154761	22619.150672
475.525070	22347.203107
475.895321	21776.657918
476.265513	21830.494920
476.635645	22096.735899
477.005719	21713.396478
477.375734	21675.834841
477.745691	21760.047316
478.115588	22171.521416
478.485427	22958.006951
478.855207	24444.008035
479.224928	25522.431830
479.594591	25988.184034
479.964194	24995.043959
480.333739	24660.807897
480.703226	24312.796883
481.072653	24267.663432
481.442022	24143.875379
481.811333	23864.292987
482.180584	22837.004135
482.549777	22219.460268
482.918912	21612.596086
483.287988	21111.129828
483.657005	20394.373533
484.025964	19779.529204
484.394864	19414.262320
484.763706	18913.166586
485.132489	18225.026401
485.501213	17838.831167
485.869879	17566.893684
486.238487	17105.048375
486.607036	16872.918363
486.975527	16384.516255
487.343959	16160.759601
487.712333	15894.495937
488.080648	15568.245063
488.448905	15427.009576
488.817104	15081.015023
489.185244	15108.814466
489.553326	15349.544686
489.921350	15918.116263
490.289315	16544.411573
490.657222	16422.682831
491.025070	16182.940678
491.392861	15563.690380
491.760593	14867.751530
492.128267	14096.601185
492.495883	13399.074372
492.863440	12751.346596
493.230939	12168.269098
493.598380	11675.786176
493.965763	11366.050122
494.333088	10980.953859
494.700354	10655.570064
495.067563	10382.629392
495.434713	10143.693823
495.801805	9955.593249
496.168839	9693.097848
496.535815	9431.005739
496.902733	9245.733253
497.269593	8986.007965
497.636395	8791.351371
498.003139	8672.425511
498.369825	8414.247858
498.736453	8284.498640
499.103023	8050.805871
499.469535	7861.412242
499.835989	7710.286011
500.202385	7503.699527
500.568723	7354.670416
500.935003	7227.378761
501.301226	7054.802421
501.667390	6976.407437
502.033497	6867.944492
502.399546	6667.266239
502.765537	6455.351255
503.131470	6358.702254
503.497345	6264.934272
503.863163	6016.170973
504.228923	5954.739473
504.594625	5870.958016
504.960269	5691.099729
505.325856	5631.989680
505.691385	5481.985106
506.056856	5382.523141
506.422270	5313.671061
506.787625	5187.760682
507.152924	5101.738433
507.518164	5011.993292
507.883347	4881.066965
508.248472	4806.220953
508.613540	4751.655504
508.978550	4685.520607
509.343503	4596.385445
509.708398	4532.143501
510.073236	4486.440400
510.438016	4414.445162
510.802738	4325.554496
511.167403	4286.341881
511.532010	4234.128130
511.896561	4185.710368
512.261053	4163.630114
512.625488	4088.406016
512.989866	4028.242366
513.354186	3971.738593
513.718449	3922.927621
514.082655	3902.551277
514.446803	3847.428780
514.810894	3822.936334
515.174927	3782.576856
515.538904	3734.839650
515.902822	3719.620407
516.266684	3668.941687
516.630488	3650.745642
516.994235	3614.724077
517.357925	3598.831840
517.721558	3574.813262
518.085133	3550.620765
518.448651	3531.439175
518.812112	3500.559587
519.175516	3478.728870
519.538863	3463.544915
519.902152	3440.040535
520.265385	3430.616098
520.628560	3408.044331
520.991678	3388.272926
521.354739	3370.107128
521.717743	3362.552959
522.080690	3346.635516
522.443580	3340.349197
522.806413	3325.210612
523.169189	3311.236533
523.531908	3298.689102
523.894569	3284.919190
524.257174	3281.279477
524.619722	3269.750358
524.982213	3258.606887
525.344647	3245.053745
525.707025	3239.538723
526.069345	3233.975810
526.431608	3222.197154
526.793815	3219.948799
527.155964	3204.777447
527.518057	3194.281764
527.880093	3185.782379
528.242072	3183.377748
528.603995	3173.015657
528.965860	3164.594409
529.327669	3156.034530
529.689421	3149.980104
530.051117	3140.928712
530.412755	3137.916623
530.774337	3131.400932
531.135862	3119.758387
531.497331	3113.860237
531.858743	3106.301027
532.220098	3106.301027
532.581396	3097.302567
532.942638	3086.675815
533.303824	3087.288315
533.664953	3081.329671
534.026025	3072.976479
534.387040	3073.546130
534.747999	3070.445820
535.108902	3064.492217
535.469748	3053.842780
535.830537	3050.954199
536.191270	3051.309600
536.551947	3042.792571
536.912567	3041.282745
537.273131	3039.215872
537.633638	3031.757485
537.994089	3029.191538
538.354483	3021.284488
538.714821	3022.537214
539.075103	3023.081659
539.435328	3019.157121
539.795497	3015.381297
540.155609	3008.714371
540.515665	3010.882067
540.875665	3002.324708
541.235609	3005.331756
541.595496	3004.404184
541.955328	3005.588855
542.315102	2996.794562
542.674821	2987.135712
543.034483	2986.384580
543.394090	2984.123622
543.753640	2982.354177
544.113134	2989.686535
544.472571	2976.019967
544.831953	2987.954899
545.191278	2978.580873
545.550548	2971.770275
545.909761	2976.360245
546.268918	2974.432004
546.628019	2975.969556
546.987064	2971.911427
547.346053	2962.534881
547.704986	2964.831126
548.063863	2958.748974
548.422684	2960.031948
548.781449	2957.261834
549.140158	2955.673870
549.498811	2956.742595
549.857408	2947.529886
550.215949	2951.749332
550.574434	2949.995011
550.932864	2943.103753
551.291237	2949.773200
551.649555	2947.655915
552.007817	2948.586008
552.366022	2943.915379
552.724173	2941.911520
553.082267	2945.031995
553.440305	2947.280349
553.798288	2942.546706
554.156215	2940.419339
554.514086	2943.887653
554.871902	2940.613423
555.229661	2937.656787
555.587365	2935.093360
555.945014	2935.645366
556.302606	2935.153854
556.660143	2929.815272
557.017625	2933.346600
557.375050	2931.050354
557.732421	2934.120417
558.089735	2930.006836
558.446994	2930.873914
558.804197	2933.134872
559.161345	2929.611105
559.518437	2922.170362
559.875474	2925.116916
560.232455	2929.011208
560.589381	2927.284613
560.946251	2924.963161
561.303065	2926.301588
561.659825	2925.431988
562.016528	2920.894950
562.373177	2919.806061
562.729770	2923.901998
563.086307	2919.997625
563.442789	2919.153231
563.799216	2918.659198
564.155587	2921.174734
564.511904	2918.853283
564.868164	2916.378076
565.224370	2922.644230
565.580520	2914.023857
565.936615	2918.059301
566.292654	2914.336409
566.648638	2915.790782
567.004567	2915.644588
567.360441	2916.204156
567.716260	2916.859506
568.072023	2916.967891
568.427732	2912.650143
568.783385	2908.970101
569.138982	2910.794998
569.494525	2911.410019
569.850013	2904.576735
570.205445	2911.460431
570.560823	2905.935326
570.916145	2906.194945
571.271412	2909.418763
571.626625	2902.318298
571.981782	2904.054976
572.336884	2901.443658
572.691931	2898.766805
573.046923	2896.064747
573.401860	2897.695560
573.756743	2897.113307
574.111570	2896.737741
574.466342	2894.496948
574.821059	2894.549880
575.175722	2890.191803
575.530330	2893.108110
575.884882	2888.568551
576.239380	2886.620145
576.593823	2886.438663
576.948211	2882.115874
577.302544	2880.676625
577.656823	2880.144783
578.011047	2884.114692
578.365216	2878.766027
578.719330	2876.240409
579.073389	2874.002137
579.427394	2877.271325
579.781344	2874.236551
580.135239	2870.977445
580.489080	2868.867722
580.842866	2867.882176
581.196597	2872.809904
581.550273	2871.678165
581.903895	2868.958462
582.257463	2871.635315
582.610975	2864.749099
582.964434	2867.249511
583.317837	2863.393029
583.671186	2862.490662
584.024481	2862.858666
584.377721	2862.110055
584.730906	2864.847402
585.084037	2860.259952
585.437113	2857.308356
585.790135	2859.097966
586.143103	2854.966740
586.496016	2854.787779
586.848874	2853.106554
587.201679	2854.737367
587.554428	2848.027592
587.907124	2849.492047
588.259765	2845.822087
588.612352	2848.476254
588.964884	2845.416274
589.317362	2846.016171
589.669786	2846.772344
590.022155	2847.324351
590.374470	2849.555061
590.726731	2845.595235
591.078937	2837.292455
591.431090	2840.115501
591.783188	2836.153154
592.135232	2832.873883
592.487222	2833.171311
592.839157	2840.334791
593.191038	2834.628205
593.542866	2831.749706
593.894639	2826.060764
594.246358	2828.299036
594.598022	2827.948676
594.949633	2825.579334
595.301190	2822.451298
595.652692	2822.436174
596.004141	2825.886844
596.355535	2819.658498
596.706876	2813.440235
597.058162	2816.676656
597.409395	2817.374856
597.760573	2816.505257
598.111698	2811.849751
598.462768	2813.485606
598.813785	2813.563743
599.164748	2810.662559
599.515657	2811.496870
599.866511	2808.126859
600.217312	2809.366983
600.568060	2802.374902
600.918753	2809.556026
601.269392	2808.331026
601.619978	2806.579225
601.970510	2806.458237
602.320988	2806.138124
602.671412	2809.694658
603.021783	2807.539565
603.372100	2801.245684
603.722363	2802.785757
604.072572	2804.106539
604.422728	2804.335911
604.772830	2798.273924
605.122878	2799.468677
605.472872	2800.406332
605.822813	2796.053296
606.172701	2798.276444
606.522534	2801.442289
606.872314	2803.156281
607.222041	2800.550005
607.571714	2798.331897
607.921333	2796.746454
608.270899	2800.595375
608.620411	2801.744758
608.969870	2800.101342
609.319276	2795.879376
609.668627	2798.790642
610.017926	2798.672175
610.367171	2802.357258
610.716362	2799.047741
611.065500	2798.846095
611.414585	2799.304840
611.763616	2800.849953
612.112594	2800.925571
612.461518	2799.040179
612.810389	2800.371044
613.159207	2800.444141
613.507971	2798.468008
613.856682	2799.793832
614.205340	2798.805766
614.553945	2803.708288
614.902496	2795.828964
615.250994	2798.520940
615.599439	2800.030766
615.947830	2800.698719
616.296169	2799.070426
616.644454	2800.071095
616.992686	2799.844243
617.340864	2802.962197
617.688990	2798.578914
618.037063	2805.518062
618.385082	2800.441620
618.733048	2802.894141
619.080961	2801.865746
619.428821	2801.633853
619.776628	2801.608647
620.124382	2800.176959
620.472083	2799.090591
620.819731	2802.773154
621.167326	2796.517082
621.514868	2796.275106
621.862357	2789.754374
622.209793	2791.828809
622.557176	2787.609363
622.904506	2786.071811
623.251783	2778.752056
623.599007	2778.033691
623.946179	2775.568567
624.293297	2774.373813
624.640363	2772.697630
624.987376	2774.444390
625.334336	2770.028339
625.681243	2770.857609
626.028097	2766.827206
626.374899	2767.608585
626.721647	2764.404932
627.068343	2764.793101
627.414987	2760.344282
627.761577	2760.162801
628.108115	2762.121289
628.454600	2757.637183
628.801032	2758.090887
629.147412	2756.828077
629.493739	2755.875299
629.840014	2753.261461
630.186236	2753.599218
630.532405	2751.499578
630.878521	2752.066708
631.224585	2749.639392
631.570597	2746.125708
631.916556	2746.488671
632.262462	2748.490009
632.608316	2747.025554
632.954117	2745.543455
633.299866	2742.695203
633.645562	2742.922055
633.991206	2742.175964
634.336797	2735.773698
634.682336	2737.530541
635.027823	2734.110118
635.373257	2733.704305
635.718639	2730.183059
636.063968	2730.707339
636.409245	2726.402193
636.754470	2724.854559
637.099642	2724.660475
637.444762	2722.248283
637.789829	2719.407592
638.134845	2719.742829
638.479808	2716.299721
638.824719	2717.088662
639.169577	2714.182437
639.514383	2713.534648
639.859137	2712.589432
640.203839	2714.139587
640.548489	2710.434339
640.893086	2708.357383
