Dividing Wavelength (nm)	Counts (n)	Blue Motor Position (mm): 0.000000	Red Motor Position (mm): 19.500000	
326.493990	2083.791189
326.888308	2083.791189
327.282561	2083.791189
327.676750	2061.211861
328.070874	2062.865360
328.464933	2067.142779
328.858929	2079.322206
329.252859	2087.756057
329.646726	2102.297265
330.040528	2119.611108
330.434265	2139.591721
330.827938	2162.470998
331.221547	2179.749553
331.615091	2198.684127
332.008571	2222.180945
332.401986	2241.085272
332.795338	2260.765936
333.188625	2280.955757
333.581847	2300.891000
333.975006	2317.950265
334.368100	2334.528099
334.761129	2355.698425
335.154095	2367.683768
335.546996	2388.037427
335.939833	2406.235992
336.332606	2418.070101
336.725315	2427.202151
337.117960	2438.819490
337.510540	2441.887032
337.903056	2457.817078
338.295508	2463.458129
338.687896	2468.365693
339.080220	2479.120994
339.472480	2479.776344
339.864676	2482.528814
340.256807	2488.056440
340.648875	2488.920998
341.040879	2493.359733
341.432818	2493.092552
341.824694	2495.582882
342.216506	2488.936121
342.608253	2492.177583
342.999937	2491.469301
343.391557	2487.103662
343.783113	2490.448467
344.174605	2485.997128
344.566033	2487.738847
344.957397	2483.322796
345.348697	2482.117960
345.739934	2479.806591
346.131106	2480.018320
346.522215	2475.967753
346.913260	2479.347846
347.304241	2473.631178
347.695159	2473.835345
348.086012	2471.415591
348.476802	2468.892493
348.867528	2469.714201
349.258191	2465.824951
349.648789	2465.761937
350.039324	2464.484004
350.429796	2467.309571
350.820203	2461.502162
351.210548	2462.762450
351.600828	2462.921247
351.991045	2463.579117
352.381198	2462.578448
352.771288	2462.691874
353.161314	2463.662296
353.551276	2465.575414
353.941175	2464.486525
354.331010	2464.108438
354.720782	2463.110290
355.110490	2465.063737
355.500135	2464.252111
355.889717	2463.959724
356.279235	2464.826803
356.668689	2467.949797
357.058080	2465.487194
357.447408	2464.300002
357.836672	2463.001905
358.225873	2465.245218
358.615010	2464.975517
359.004084	2467.092801
359.393095	2469.036166
359.782043	2468.211937
360.170927	2471.332412
360.559748	2472.176805
360.948505	2474.241158
361.337199	2475.798874
361.725830	2474.946919
362.114398	2475.168730
362.502903	2476.507156
362.891344	2478.531179
363.279722	2475.786271
363.668037	2477.951447
364.056289	2475.808956
364.444478	2479.050418
364.832603	2480.903042
365.220665	2479.045377
365.608665	2483.252220
365.996601	2481.913794
366.384474	2484.086531
366.772284	2482.899339
367.160031	2483.383290
367.547715	2485.417396
367.935336	2486.004690
368.322893	2486.176089
368.710388	2486.241624
369.097820	2488.368991
369.485189	2483.952940
369.872495	2491.590288
370.259738	2494.632625
370.646918	2493.274034
371.034035	2494.012563
371.421090	2498.683192
371.808081	2503.550426
372.195010	2506.333143
372.581875	2510.877743
372.968678	2516.097858
373.355418	2518.547859
373.742096	2530.417255
374.128710	2537.830272
374.515262	2549.500543
374.901751	2562.458829
375.288177	2576.785788
375.674540	2595.042327
376.060841	2612.164606
376.447079	2634.935498
376.833254	2657.308139
377.219367	2676.164575
377.605417	2712.433156
377.991404	2734.190776
378.377329	2770.058586
378.763191	2801.109573
379.148991	2848.231758
379.534727	2891.588202
379.920402	2934.503545
380.306013	2980.841831
380.691563	3040.839123
381.077049	3090.691094
381.462474	3143.209835
381.847835	3215.172306
382.233134	3281.957512
382.618371	3335.817200
383.003545	3416.994900
383.388657	3492.798730
383.773706	3578.702513
384.158693	3645.465033
384.543618	3735.565576
384.928480	3809.852019
385.313280	3907.904982
385.698017	4007.326618
386.082692	4120.271150
386.467305	4179.333308
386.851856	4298.342348
387.236344	4442.968010
387.620770	4507.799769
388.005133	4617.684320
388.389435	4758.093058
388.773674	4836.097352
389.157851	4961.642247
389.541965	5085.558850
389.926018	5115.231081
390.310008	5284.026556
390.693936	5397.729781
391.077802	5512.829406
391.461606	5637.870186
391.845348	5746.622998
392.229027	5869.790989
392.612645	6078.759419
392.996200	6190.229413
393.379694	6359.090422
393.763125	6572.356436
394.146494	6660.238871
394.529801	6793.615199
394.913047	7025.626743
395.296230	7020.119282
395.679351	7074.893939
396.062410	7323.632032
396.445408	7226.146199
396.828343	7376.531380
397.211217	7507.026688
397.594028	7396.854792
397.976778	7601.538241
398.359466	7763.346676
398.742092	7746.123574
399.124656	7884.074749
399.507158	8073.289418
399.889598	8094.762212
400.271977	8304.373389
400.654294	8326.209147
401.036549	8532.939305
401.418742	8558.533243
401.800874	8846.035288
402.182944	8934.661293
402.564952	9281.346484
402.946898	9125.882341
403.328783	9174.531996
403.710606	9375.101863
404.092367	9626.035378
404.474067	9976.451023
404.855705	9773.214385
405.237282	9738.490918
405.618797	10153.869392
406.000250	10389.303879
406.381642	10750.608417
406.762972	10698.460201
407.144240	10514.947077
407.525447	10764.789182
407.906593	10704.650738
408.287677	10963.342588
408.668700	11112.091915
409.049661	11097.853176
409.430560	11258.156827
409.811399	11239.776780
410.192176	11390.020809
410.572891	11464.650050
410.953545	11936.290322
411.334138	11430.113105
411.714669	11999.027481
412.095139	11355.168792
412.475547	11823.804535
412.855894	11689.777899
413.236180	12006.674912
413.616405	11697.309383
413.996568	11977.489152
414.376670	11948.951180
414.756711	11836.150321
415.136691	12099.192688
415.516609	12267.726023
415.896466	12344.248217
416.276262	12630.646250
416.655997	13065.506263
417.035670	13107.466307
417.415283	13709.143142
417.794834	13780.470427
418.174324	13521.259338
418.553753	13422.256118
418.933121	13888.104103
419.312428	13693.233260
419.691674	13590.461777
420.070859	14018.581768
420.449983	13665.431297
420.829045	14168.311599
421.208047	13907.036157
421.586988	14316.370287
421.965867	14508.922199
422.344686	14478.302231
422.723444	14974.659280
423.102141	13690.959700
423.480777	14776.247026
423.859352	14241.892280
424.237866	15220.065170
424.616319	14894.522578
424.994712	15417.393575
425.373044	15157.784234
425.751314	15698.775659
426.129524	14833.123844
426.507673	15704.711618
426.885762	15362.281161
427.263789	15417.718730
427.641756	15473.478932
428.019662	15415.810653
428.397508	15349.988307
428.775292	15467.968951
429.153016	15320.502598
429.530679	15256.376601
429.908282	15150.507329
430.285824	14809.377489
430.663305	15223.420057
431.040726	14774.921203
431.418086	14502.865253
431.795385	14839.153064
432.172624	15009.102963
432.549802	14522.699673
432.926920	14516.582233
433.303977	14252.748405
433.680974	14268.570066
434.057910	14315.392303
434.434786	14165.581814
434.811601	13922.903188
435.188355	14448.483806
435.565050	14045.846848
435.941683	13819.194051
436.318257	14203.453482
436.694770	13872.748749
437.071222	14037.309654
437.447614	13258.844595
437.823946	13063.865367
438.200218	12949.035444
438.576429	12605.347219
438.952580	12570.154924
439.328670	12338.380314
439.704700	12352.666944
440.080670	11924.183991
440.456580	12021.589165
440.832429	11897.160886
441.208218	11204.193796
441.583947	11205.854856
441.959616	11053.889273
442.335224	10956.678183
442.710773	10809.423558
443.086261	10840.053609
443.461689	10359.082162
443.837057	10212.881139
444.212365	10266.377863
444.587612	10060.691225
444.962800	9697.198827
445.337927	9656.501592
445.712995	9007.148044
446.088002	9457.663360
446.462949	9330.096962
446.837837	9179.984004
447.212664	8984.278850
447.587431	9666.553652
447.962139	10337.246404
448.336786	10791.978646
448.711374	10092.858827
449.085901	8855.525260
449.460369	8601.420859
449.834776	8386.584526
450.209124	8786.587481
450.583412	8483.374680
450.957640	8388.318683
451.331808	7889.980461
451.705917	7392.395891
452.079965	7208.434105
452.453954	7099.550223
452.827883	6905.680049
453.201752	6704.848041
453.575562	6568.378966
453.949311	6585.166008
454.323001	6437.855931
454.696632	6244.966261
455.070202	6327.081616
455.443713	6201.763573
455.817164	6117.823320
456.190556	6036.237286
456.563888	5815.976672
456.937160	5720.328339
457.310373	5388.191918
457.683526	5295.172547
458.056619	5164.520963
458.429653	5034.867527
458.802628	4976.155729
459.175542	4869.724368
459.548398	4871.934914
459.921194	4902.423813
460.293930	4867.120613
460.666607	4923.949540
461.039224	4942.773208
461.411782	4842.976006
461.784280	4642.146519
462.156719	4484.930575
462.529099	4343.596786
462.901419	4166.243952
463.273680	4024.779093
463.645882	3949.728915
464.018024	3868.883931
464.390106	3840.083819
464.762130	3899.939959
465.134094	4032.771842
465.505999	4195.933828
465.877845	4289.676604
466.249631	4234.176021
466.621358	4069.945311
466.993026	3905.727204
467.364634	3768.983385
467.736184	3652.081548
468.107674	3565.522416
468.479105	3499.148064
468.850477	3438.061882
469.221790	3362.681508
469.593043	3291.104686
469.964238	3241.252715
470.335373	3208.633929
470.706449	3216.898901
471.077467	3244.569794
471.448425	3305.434165
471.819324	3337.432889
472.190164	3279.948612
472.560945	3201.840974
472.931667	3130.347331
473.302330	3093.221753
473.672934	3069.024215
474.043479	3060.146743
474.413965	3038.016077
474.784393	3020.125022
475.154761	3025.045188
475.525070	3014.539424
475.895321	3000.028463
476.265513	3000.623319
476.635645	3010.055318
477.005719	3002.483504
477.375734	3002.400325
477.745691	3005.354442
478.115588	3017.480937
478.485427	3038.343752
478.855207	3079.656008
479.224928	3104.655090
479.594591	3121.840383
479.964194	3103.319184
480.333739	3102.336159
480.703226	3102.358844
481.072653	3109.534927
481.442022	3109.234978
481.811333	3111.175823
482.180584	3090.975919
482.549777	3077.896645
482.918912	3072.467323
483.287988	3064.643452
483.657005	3053.265568
484.025964	3041.436500
484.394864	3041.002961
484.763706	3036.289482
485.132489	3022.328007
485.501213	3020.162831
485.869879	3019.688963
486.238487	3011.429032
486.607036	3012.528003
486.975527	3006.317302
487.343959	3006.022394
487.712333	3003.726149
488.080648	3003.196828
488.448905	3004.225223
488.817104	3001.787825
489.185244	3012.870802
489.553326	3023.555528
489.921350	3054.107440
490.289315	3081.871595
490.657222	3089.438367
491.025070	3089.065322
491.392861	3078.206676
491.760593	3058.765467
492.128267	3035.916437
492.495883	3017.859024
492.863440	3000.794718
493.230939	2984.612614
493.598380	2969.627784
493.965763	2955.880558
494.333088	2946.942592
494.700354	2934.634615
495.067563	2932.058585
495.434713	2927.879469
495.801805	2928.607915
496.168839	2920.658016
496.535815	2914.989238
496.902733	2911.657036
497.269593	2905.620254
497.636395	2901.050448
498.003139	2904.070099
498.369825	2892.556104
498.736453	2894.035682
499.103023	2886.738612
499.469535	2884.099568
499.835989	2881.566388
500.202385	2875.902652
500.568723	2875.842158
500.935003	2873.939122
501.301226	2868.129193
501.667390	2872.320912
502.033497	2877.230996
502.399546	2865.510313
502.765537	2857.066381
503.131470	2859.133254
503.497345	2861.028727
503.863163	2850.578416
504.228923	2850.371728
504.594625	2853.051102
504.960269	2844.040039
505.325856	2850.394413
505.691385	2841.688341
506.056856	2842.983917
506.422270	2846.560616
506.787625	2842.285717
507.152924	2840.680110
507.518164	2839.956704
507.883347	2832.203410
508.248472	2835.525530
508.613540	2838.779595
508.978550	2838.880418
509.343503	2837.499142
509.708398	2837.915037
510.073236	2840.417970
510.438016	2839.366889
510.802738	2835.129800
511.167403	2841.189267
511.532010	2839.525686
511.896561	2841.713547
512.261053	2848.196470
512.625488	2843.898887
512.989866	2839.142558
513.354186	2841.025429
513.718449	2835.064265
514.082655	2843.082220
514.446803	2841.953001
514.810894	2844.095492
515.174927	2845.333095
515.538904	2839.177846
515.902822	2844.944926
516.266684	2838.237671
516.630488	2842.053824
516.994235	2838.812362
517.357925	2842.366376
517.721558	2845.295286
518.085133	2845.827128
518.448651	2846.273270
518.812112	2843.666994
519.175516	2843.790502
519.538863	2841.428721
519.902152	2845.005420
520.265385	2843.367045
520.628560	2843.344360
520.991678	2842.540296
521.354739	2842.956191
521.717743	2843.566171
522.080690	2840.541478
522.443580	2844.279494
522.806413	2843.354442
523.169189	2843.419977
523.531908	2843.309072
523.894569	2841.141376
524.257174	2842.961232
524.619722	2841.761437
524.982213	2841.821931
525.344647	2841.012826
525.707025	2838.492249
526.069345	2837.047959
526.431608	2838.522496
526.793815	2838.542661
527.155964	2835.245746
527.518057	2833.375478
527.880093	2830.882627
528.242072	2832.543688
528.603995	2832.221054
528.965860	2827.976402
529.327669	2827.575631
529.689421	2825.561690
530.051117	2825.286947
530.412755	2823.043633
530.774337	2824.291319
531.135862	2821.916935
531.497331	2819.121616
531.858743	2815.686069
532.220098	2818.428457
532.581396	2813.483085
532.942638	2810.241623
533.303824	2813.369659
533.664953	2811.590132
534.026025	2806.354893
534.387040	2810.997796
534.747999	2807.484112
535.108902	2810.188691
535.469748	2802.170736
535.830537	2805.550829
536.191270	2802.831127
536.551947	2800.970941
536.912567	2801.870787
537.273131	2802.284162
537.633638	2796.438944
537.994089	2797.288378
538.354483	2790.586164
538.714821	2795.299643
539.075103	2797.893317
539.435328	2793.343675
539.795497	2792.607667
540.155609	2790.298818
540.515665	2793.729324
540.875665	2789.774538
541.235609	2789.172121
541.595496	2786.565844
541.955328	2789.532563
542.315102	2783.833539
542.674821	2783.863786
543.034483	2782.245575
543.394090	2781.219700
543.753640	2779.387241
544.113134	2784.877057
544.472571	2776.823814
544.831953	2784.178858
545.191278	2779.251130
545.550548	2774.867847
545.909761	2775.276180
546.268918	2776.201232
546.628019	2778.129473
546.987064	2773.400871
547.346053	2769.136055
547.704986	2773.673093
548.063863	2769.602361
548.422684	2770.751744
548.781449	2769.609923
549.140158	2772.349790
549.498811	2767.900972
549.857408	2764.110024
550.215949	2765.224119
550.574434	2762.028028
550.932864	2761.234046
551.291237	2760.256062
551.649555	2764.472987
552.007817	2763.928543
552.366022	2760.213212
552.724173	2759.802358
553.082267	2761.604571
553.440305	2765.461053
553.798288	2759.976278
554.156215	2759.623397
554.514086	2758.005187
554.871902	2757.642224
555.229661	2757.906884
555.587365	2754.219280
555.945014	2756.041657
556.302606	2756.298756
556.660143	2751.849938
557.017625	2751.088724
557.375050	2751.973446
557.732421	2754.557038
558.089735	2753.062336
558.446994	2752.222983
558.804197	2752.492685
559.161345	2749.331882
559.518437	2745.886253
559.875474	2747.537231
560.232455	2747.259967
560.589381	2749.301635
560.946251	2748.719382
561.303065	2745.356932
561.659825	2745.490522
562.016528	2742.352404
562.373177	2743.466499
562.729770	2739.791498
563.086307	2740.035994
563.442789	2739.408370
563.799216	2739.824266
564.155587	2738.011971
564.511904	2739.524317
564.868164	2734.813359
565.224370	2737.875860
565.580520	2735.778740
565.936615	2735.357803
566.292654	2732.655745
566.648638	2734.682289
567.004567	2733.681620
567.360441	2733.671537
567.716260	2727.662482
568.072023	2731.781105
568.427732	2728.209447
568.783385	2727.453274
569.138982	2725.426730
569.494525	2725.898078
569.850013	2724.783983
570.205445	2729.169787
570.560823	2724.257182
570.916145	2723.264075
571.271412	2723.216184
571.626625	2725.764487
571.981782	2723.097717
572.336884	2721.724003
572.691931	2721.436657
573.046923	2715.725030
573.401860	2716.894577
573.756743	2714.767210
574.111570	2715.339381
574.466342	2714.326109
574.821059	2715.077241
575.175722	2713.912735
575.530330	2713.887529
575.884882	2709.796633
576.239380	2709.778989
576.593823	2707.374358
576.948211	2707.465099
577.302544	2704.329501
577.656823	2705.458720
578.011047	2704.611806
578.365216	2702.484439
578.719330	2701.708101
579.073389	2701.418235
579.427394	2700.445292
579.781344	2698.690971
580.135239	2696.482945
580.489080	2694.821885
580.842866	2695.225178
581.196597	2695.575538
581.550273	2698.292720
581.903895	2691.640917
582.257463	2694.736186
582.610975	2690.804086
582.964434	2693.977492
583.317837	2690.917512
583.671186	2690.612522
584.024481	2690.216791
584.377721	2687.423992
584.730906	2687.678570
585.084037	2687.993642
585.437113	2683.507015
585.790135	2685.059691
586.143103	2684.152283
586.496016	2680.643640
586.848874	2679.597601
587.201679	2680.530214
587.554428	2678.947292
587.907124	2680.663805
588.259765	2674.551406
588.612352	2678.740604
588.964884	2676.721622
589.317362	2677.540810
589.669786	2675.269770
590.022155	2673.810356
590.374470	2677.248423
590.726731	2675.761282
591.078937	2673.659121
591.431090	2674.120387
591.783188	2671.519152
592.135232	2670.384892
592.487222	2668.948163
592.839157	2669.467402
593.191038	2667.375323
593.542866	2668.013029
593.894639	2663.816268
594.246358	2664.990857
594.598022	2663.712925
594.949633	2662.931546
595.301190	2661.958603
595.652692	2660.027841
596.004141	2661.704025
596.355535	2659.344765
596.706876	2659.546411
597.058162	2653.965854
597.409395	2658.656647
597.760573	2657.744199
598.111698	2657.252686
598.462768	2659.175886
598.813785	2658.376863
599.164748	2654.906029
599.515657	2653.746564
599.866511	2652.531646
600.217312	2654.757315
600.568060	2647.871099
600.918753	2652.065339
601.269392	2648.907056
601.619978	2650.714310
601.970510	2649.307828
602.320988	2652.907212
602.671412	2650.767242
603.021783	2649.653147
603.372100	2648.571819
603.722363	2648.634834
604.072572	2647.566109
604.422728	2649.360760
604.772830	2645.395892
605.122878	2642.464461
605.472872	2643.175264
605.822813	2641.499080
606.172701	2645.083341
606.522534	2646.900677
606.872314	2645.978146
607.222041	2645.592497
607.571714	2647.243475
607.921333	2645.605100
608.270899	2643.497898
608.620411	2641.829276
608.969870	2643.896149
609.319276	2641.519245
609.668627	2644.075110
610.017926	2644.405306
610.367171	2645.221972
610.716362	2641.294914
611.065500	2643.702065
611.414585	2640.647125
611.763616	2644.024698
612.112594	2644.732981
612.461518	2645.151396
612.810389	2641.317599
613.159207	2644.105357
613.507971	2643.883546
613.856682	2642.802219
614.205340	2643.026550
614.553945	2646.169709
614.902496	2642.688793
615.250994	2643.792805
615.599439	2644.090233
615.947830	2644.894297
616.296169	2642.164513
616.644454	2644.911942
616.992686	2645.171561
617.340864	2644.430511
617.688990	2644.049904
618.037063	2643.059317
618.385082	2642.409009
618.733048	2644.117960
619.080961	2641.657877
619.428821	2642.968577
619.776628	2642.182157
620.124382	2644.783392
620.472083	2642.285500
620.819731	2642.650984
621.167326	2641.385654
621.514868	2639.394399
621.862357	2640.052269
622.209793	2638.623102
622.557176	2635.361476
622.904506	2633.549181
623.251783	2631.177318
623.599007	2629.992647
623.946179	2630.373254
624.293297	2629.869138
624.640363	2629.919550
624.987376	2629.372585
625.334336	2626.300002
625.681243	2625.387553
626.028097	2624.223046
626.374899	2626.776391
626.721647	2623.169445
627.068343	2625.402676
627.414987	2622.685494
627.761577	2622.357819
628.108115	2621.760442
628.454600	2622.292284
628.801032	2622.166255
629.147412	2622.103241
629.493739	2621.725154
629.840014	2621.868827
630.186236	2619.726337
630.532405	2617.966974
630.878521	2621.112654
631.224585	2622.357819
631.570597	2616.525204
631.916556	2616.341202
632.262462	2618.156018
632.608316	2618.760956
632.954117	2617.029320
633.299866	2613.782817
633.645562	2616.860441
633.991206	2615.776593
634.336797	2613.404730
634.682336	2612.174688
635.027823	2614.173506
635.373257	2608.257712
635.718639	2609.696961
636.063968	2609.986828
636.409245	2606.024481
636.754470	2608.252671
637.099642	2607.907352
637.444762	2608.837445
637.789829	2602.558688
638.134845	2603.919799
638.479808	2604.078595
638.824719	2603.579521
639.169577	2602.707402
639.514383	2605.220417
639.859137	2598.964345
640.203839	2601.182452
640.548489	2603.425766
640.893086	2597.189859
641.237632	2593.905547
641.582125	2596.307657
641.926566	2593.149374
642.270955	2599.281937
642.615292	2598.926536
642.959576	2598.770260
