Dividing Wavelength (nm)	Counts (n)	Blue Motor Position (mm): 0.000000	Red Motor Position (mm): 42.400000	
326.493990	2127.954218
326.888308	2127.954218
327.282561	2127.954218
327.676750	2095.998343
328.070874	2093.815524
328.464933	2096.941039
328.858929	2101.324322
329.252859	2112.631630
329.646726	2125.708383
330.040528	2136.405712
330.434265	2156.441778
330.827938	2170.889725
331.221547	2189.534432
331.615091	2210.125025
332.008571	2227.620350
332.401986	2248.185737
332.795338	2266.028901
333.188625	2286.107817
333.581847	2303.961063
333.975006	2322.033599
334.368100	2342.258709
334.761129	2358.702953
335.154095	2377.110726
335.546996	2397.247615
335.939833	2419.511871
336.332606	2433.803542
336.725315	2445.151179
337.117960	2454.936059
337.510540	2466.714715
337.903056	2474.785602
338.295508	2481.318938
338.687896	2492.235556
339.080220	2500.056906
339.472480	2506.302896
339.864676	2510.177023
340.256807	2515.994514
340.648875	2518.396624
341.040879	2522.232942
341.432818	2519.298991
341.824694	2523.818385
342.216506	2523.193282
342.608253	2523.175638
342.999937	2523.896523
343.391557	2522.583302
343.783113	2521.658251
344.174605	2521.912829
344.566033	2519.298991
344.957397	2520.274454
345.348697	2512.639626
345.739934	2516.644823
346.131106	2515.533249
346.522215	2514.898063
346.913260	2511.031498
347.304241	2510.749194
347.695159	2506.875067
348.086012	2505.826507
348.476802	2499.973727
348.867528	2503.005981
349.258191	2496.187821
349.648789	2499.608244
350.039324	2497.047338
350.429796	2499.532626
350.820203	2497.309477
351.210548	2495.764364
351.600828	2494.925012
351.991045	2494.655310
352.381198	2491.378560
352.771288	2492.898468
353.161314	2491.053406
353.551276	2494.683036
353.941175	2490.967706
354.331010	2493.876452
354.720782	2492.056595
355.110490	2492.371667
355.500135	2492.117089
355.889717	2493.349651
356.279235	2492.227994
356.668689	2493.347131
357.058080	2493.765546
357.447408	2493.321925
357.836672	2491.439054
358.225873	2492.268324
358.615010	2491.141626
359.004084	2499.310816
359.393095	2497.886690
359.782043	2496.044148
360.170927	2498.572287
360.559748	2499.633449
360.948505	2496.601195
361.337199	2500.160250
361.725830	2499.199910
362.114398	2502.643018
362.502903	2501.647390
362.891344	2504.036897
363.279722	2502.363234
363.668037	2501.735611
364.056289	2502.756444
364.444478	2505.602176
364.832603	2504.770385
365.220665	2506.698627
365.608665	2505.960097
365.996601	2506.118894
366.384474	2509.635099
366.772284	2509.829183
367.160031	2511.132321
367.547715	2513.526869
367.935336	2514.278001
368.322893	2518.915863
368.710388	2519.223373
369.097820	2527.788294
369.485189	2529.139323
369.872495	2539.188863
370.259738	2544.446787
370.646918	2551.582540
371.034035	2557.760474
371.421090	2570.159192
371.808081	2579.092116
372.195010	2588.251893
372.581875	2601.134562
372.968678	2613.981942
373.355418	2623.930659
373.742096	2643.495377
374.128710	2657.439209
374.515262	2672.711384
374.901751	2687.391224
375.288177	2701.214068
375.674540	2723.611915
376.060841	2740.099008
376.447079	2759.963675
376.833254	2780.367745
377.219367	2792.708490
377.605417	2828.404900
377.991404	2840.024760
378.377329	2862.576362
378.763191	2879.575133
379.148991	2919.004517
379.534727	2942.944957
379.920402	2968.667444
380.306013	2983.133035
380.691563	3029.982999
381.077049	3053.787327
381.462474	3072.689133
381.847835	3110.918724
382.233134	3134.045017
382.618371	3133.498052
383.003545	3203.116386
383.388657	3209.871532
383.773706	3242.084506
384.158693	3255.138573
384.543618	3281.718057
384.928480	3319.372956
385.313280	3366.333824
385.698017	3366.497662
386.082692	3416.710075
386.467305	3422.141918
386.851856	3456.943524
387.236344	3476.326760
387.620770	3511.193901
388.005133	3533.276675
388.389435	3559.170562
388.773674	3575.730752
389.157851	3616.949747
389.541965	3629.716469
389.926018	3595.900409
390.310008	3667.268024
390.693936	3683.845858
391.077802	3727.512333
391.461606	3715.597566
391.845348	3776.764406
392.229027	3775.521762
392.612645	3791.308135
392.996200	3863.600802
393.379694	3909.200559
393.763125	3972.376299
394.146494	3938.993778
394.529801	4005.395856
394.913047	4049.510994
395.296230	4016.143596
395.679351	4067.490269
396.062410	4093.048919
396.445408	4077.496959
396.828343	4108.129531
397.211217	4133.781442
397.594028	4051.101478
397.976778	4119.882981
398.359466	4147.150582
398.742092	4177.142927
399.124656	4096.358436
399.507158	4177.979758
399.889598	4200.833829
400.271977	4261.872120
400.654294	4234.702821
401.036549	4242.249429
401.418742	4215.364955
401.800874	4312.659224
402.182944	4337.060930
402.564952	4404.589706
402.946898	4386.675966
403.328783	4382.738825
403.710606	4293.575937
404.092367	4489.316379
404.474067	4455.238179
404.855705	4463.591371
405.237282	4391.709558
405.618797	4501.916743
406.000250	4532.849263
406.381642	4617.563332
406.762972	4575.174790
407.144240	4589.781534
407.525447	4589.458900
407.906593	4650.789578
408.287677	4690.171071
408.668700	4619.236996
409.049661	4671.284388
409.430560	4712.402560
409.811399	4639.578051
410.192176	4800.247186
410.572891	4736.776539
410.953545	4844.085060
411.334138	4724.380341
411.714669	4790.860558
412.095139	4686.158313
412.475547	4825.077389
412.855894	4806.162980
413.236180	4814.153209
413.616405	4770.111168
413.996568	4859.831104
414.376670	4801.525119
414.756711	4753.374538
415.136691	4785.622799
415.516609	4860.279767
415.896466	4900.238473
416.276262	4934.581333
416.655997	4913.784053
417.035670	5098.834728
417.415283	5189.794788
417.794834	5133.709431
418.174324	5087.275363
418.553753	4993.469572
418.933121	5177.270041
419.312428	5247.268983
419.691674	5184.889745
420.070859	5308.750895
420.449983	5221.120518
420.829045	5337.513198
421.208047	5246.417028
421.586988	5316.637780
421.965867	5331.279812
422.344686	5457.406960
422.723444	5314.676772
423.102141	5132.786900
423.480777	5432.249082
423.859352	5202.697621
424.237866	5461.414678
424.616319	5449.444458
424.994712	5559.704575
425.373044	5437.696049
425.751314	5583.365230
426.129524	5382.606320
426.507673	5577.885496
426.885762	5660.260471
427.263789	5596.628506
427.641756	5473.218539
428.019662	5596.671356
428.397508	5603.945741
428.775292	5551.152257
429.153016	5646.669520
429.530679	5572.698149
429.908282	5663.214587
430.285824	5533.828332
430.663305	5807.033665
431.040726	5542.728489
431.418086	5542.539446
431.795385	5647.400487
432.172624	5658.826262
432.549802	5653.457433
432.926920	5667.492006
433.303977	5670.025186
433.680974	5713.341300
434.057910	5730.095575
434.434786	5737.687553
434.811601	5705.189754
435.188355	5940.402431
435.565050	5813.191434
435.941683	5796.043949
436.318257	6008.405076
436.694770	5995.870247
437.071222	6024.897211
437.447614	5957.146623
437.823946	5871.585640
438.200218	6026.984248
438.576429	5890.411829
438.952580	5989.251212
439.328670	6031.279311
439.704700	5944.110200
440.080670	5923.517086
440.456580	6198.612852
440.832429	6084.312250
441.208218	5930.814156
441.583947	6080.213792
441.959616	6094.553354
442.335224	6015.596282
442.710773	6154.689278
443.086261	6177.888668
443.461689	5974.498275
443.837057	6122.196521
444.212365	6279.218381
444.587612	6170.828532
444.962800	6327.563046
445.337927	6302.369880
445.712995	5915.224388
446.088002	6492.789384
446.462949	6321.924516
446.837837	6252.860708
447.212664	6424.214568
447.587431	6562.468213
447.962139	7108.969619
448.336786	8038.470168
448.711374	7778.029037
449.085901	6844.982036
449.460369	6769.717609
449.834776	6708.679318
450.209124	7100.790347
450.583412	7252.496310
450.957640	7400.013074
451.331808	7159.991137
451.705917	6716.054526
452.079965	6636.358925
452.453954	6843.636048
452.827883	6727.034159
453.201752	6816.859959
453.575562	6613.164576
453.949311	6819.846843
454.323001	6709.964813
454.696632	6782.348220
455.070202	6919.573469
455.443713	7083.229487
455.817164	7179.449991
456.190556	7258.016373
456.563888	7331.241654
456.937160	7374.222531
457.310373	7034.645367
457.683526	7059.112607
458.056619	6949.820392
458.429653	6936.340347
458.802628	6872.053032
459.175542	6981.937583
459.548398	7334.452869
459.921194	7497.488825
460.293930	7499.391861
460.666607	8032.234261
461.039224	8342.393772
461.411782	8464.356927
461.784280	8494.147626
462.156719	8372.565077
462.529099	8252.683918
462.901419	7847.203750
463.273680	7736.389106
463.645882	7746.567196
464.018024	7611.134077
464.390106	7779.438039
464.762130	8165.456833
465.134094	8635.892269
465.505999	9664.000308
465.877845	10880.052644
466.249631	11527.583815
466.621358	11146.185238
466.993026	10514.165698
467.364634	10261.273695
467.736184	9892.934228
468.107674	9560.114730
468.479105	9598.437582
468.850477	9361.820943
469.221790	9131.704873
469.593043	8810.064134
469.964238	8667.263369
470.335373	8677.242333
470.706449	8735.457578
471.077467	8716.228097
471.448425	10027.018838
471.819324	11097.172620
472.190164	11133.622683
472.560945	9876.918482
472.931667	9082.863654
473.302330	8950.828273
473.672934	8595.749561
474.043479	8955.080487
474.413965	8896.955983
474.784393	8777.626830
475.154761	8935.858567
475.525070	9016.363273
475.895321	8847.351029
476.265513	9027.085808
476.635645	9192.952372
477.005719	9192.082773
477.375734	9311.180033
477.745691	9540.219816
478.115588	9673.341566
478.485427	9923.352550
478.855207	10455.567326
479.224928	11274.606112
479.594591	11906.492061
479.964194	11724.725698
480.333739	11651.361786
480.703226	11567.865155
481.072653	11656.312199
481.442022	11899.749518
481.811333	12093.304620
482.180584	11896.835731
482.549777	11604.340423
482.918912	11423.216807
483.287988	11455.845675
483.657005	11464.226593
484.025964	11144.372943
484.394864	11276.312542
484.763706	11247.769529
485.132489	11005.209371
485.501213	10965.285953
485.869879	11044.560618
486.238487	10875.744978
486.607036	10997.141004
486.975527	10773.666654
487.343959	10966.473145
487.712333	11016.342759
488.080648	10937.723444
488.448905	10988.702113
488.817104	10919.509756
489.185244	11188.795591
489.553326	11342.681853
489.921350	11879.282433
490.289315	12937.728136
490.657222	13292.496818
491.025070	13187.857587
491.392861	13065.284452
491.760593	12691.619005
492.128267	12345.455574
492.495883	12015.602795
492.863440	11678.150477
493.230939	11340.481390
493.598380	11273.302974
493.965763	11142.240535
494.333088	11043.733869
494.700354	10960.083482
495.067563	11024.436332
495.434713	10852.200269
495.801805	10974.954886
496.168839	10901.154914
496.535815	10835.045223
496.902733	10831.360139
497.269593	10771.491396
497.636395	10875.724814
498.003139	10858.501712
498.369825	10727.595549
498.736453	10878.137006
499.103023	10806.532457
499.469535	10840.361120
499.835989	10836.602939
500.202385	10786.350197
500.568723	10642.392487
500.935003	10862.330468
501.301226	10666.758905
501.667390	10937.403331
502.033497	11025.532783
502.399546	10879.188087
502.765537	10792.815477
503.131470	10865.277023
503.497345	11045.989785
503.863163	10651.101081
504.228923	10960.380910
504.594625	11025.890705
504.960269	10776.663620
505.325856	10995.356436
505.691385	10782.808787
506.056856	10946.507655
506.422270	10969.613784
506.787625	10853.561381
507.152924	10973.860956
507.518164	10958.762700
507.883347	10875.104752
508.248472	10800.291508
508.613540	11035.380677
508.978550	10909.966851
509.343503	10886.885928
509.708398	11003.318938
510.073236	11114.070568
510.438016	11117.543923
510.802738	11070.709083
511.167403	11119.910744
511.532010	11016.998109
511.896561	11257.599779
512.261053	11326.240130
512.625488	11192.707527
512.989866	11168.477221
513.354186	11165.354226
513.718449	11067.961654
514.082655	11260.311920
514.446803	11149.386371
514.810894	11280.474015
515.174927	11145.789508
515.538904	11164.141828
515.902822	11324.879019
516.266684	11204.284536
516.630488	11147.178346
516.994235	11200.322189
517.357925	11264.017168
517.721558	11359.146262
518.085133	11369.851152
518.448651	11380.072092
518.812112	11258.101374
519.175516	11280.204313
519.538863	11392.332178
519.902152	11309.248921
520.265385	11473.106586
520.628560	11385.425797
520.991678	11364.353774
521.354739	11421.719584
521.717743	11360.751869
522.080690	11332.216418
522.443580	11475.080198
522.806413	11426.019688
523.169189	11452.989861
523.531908	11508.434992
523.894569	11331.825729
524.257174	11334.033754
524.619722	11462.787344
524.982213	11403.770556
525.344647	11455.190325
525.707025	11403.626883
526.069345	11499.270174
526.431608	11414.868656
526.793815	11524.339832
527.155964	11314.990795
527.518057	11366.098013
527.880093	11314.400980
528.242072	11388.624409
528.603995	11295.612600
528.965860	11211.163191
529.327669	11270.605956
529.689421	11210.056657
530.051117	11181.687564
530.412755	11293.606221
530.774337	11176.469970
531.135862	11160.189564
531.497331	11187.250477
531.858743	11038.009638
532.220098	11196.105264
532.581396	11066.103989
532.942638	11058.680890
533.303824	11020.448779
533.664953	11032.643330
534.026025	10942.439444
534.387040	11042.045082
534.747999	11041.288909
535.108902	11102.617066
535.469748	10857.690086
535.830537	10966.889040
536.191270	10938.666140
536.551947	10965.689245
536.912567	10963.592125
537.273131	10889.260312
537.633638	10870.645851
537.994089	10852.883346
538.354483	10798.088524
538.714821	10953.421598
539.075103	10957.983842
539.435328	10915.713767
539.795497	10751.339384
540.155609	10905.989381
540.515665	10991.794861
540.875665	10725.929448
541.235609	10800.805706
541.595496	10797.705396
541.955328	10950.825403
542.315102	10829.058853
542.674821	10781.591348
543.034483	10789.374890
543.394090	10790.010075
543.753640	10712.192304
544.113134	10941.564804
544.472571	10785.208376
544.831953	10932.599112
545.191278	10742.550132
545.550548	10779.849629
545.909761	10905.139947
546.268918	10887.180836
546.628019	10960.431322
546.987064	10827.584315
547.346053	10749.751420
547.704986	10852.265804
548.063863	10833.737043
548.422684	10822.207925
548.781449	10740.185831
549.140158	10846.168529
549.498811	10730.710982
549.857408	10578.705070
550.215949	10808.100256
550.574434	10658.877061
550.932864	10756.241906
551.291237	10816.345063
551.649555	10758.182750
552.007817	10773.780080
552.366022	10737.574513
552.724173	10728.883564
553.082267	10711.262211
553.440305	10849.354538
553.798288	10654.645012
554.156215	10809.524382
554.514086	10788.928748
554.871902	10634.800510
555.229661	10664.099696
555.587365	10649.676955
555.945014	10539.946159
556.302606	10669.012300
556.660143	10566.444984
557.017625	10715.335463
557.375050	10618.056317
557.732421	10745.428631
558.089735	10662.063070
558.446994	10666.564820
558.804197	10693.141783
559.161345	10704.086128
559.518437	10552.864116
559.875474	10640.302929
560.232455	10661.246403
560.589381	10620.002203
560.946251	10613.224371
561.303065	10719.607841
561.659825	10658.176340
562.016528	10587.769065
562.373177	10471.149532
562.729770	10574.508310
563.086307	10497.968471
563.442789	10591.640671
563.799216	10469.992588
564.155587	10513.545636
564.511904	10469.944697
564.868164	10462.912287
565.224370	10476.772940
565.580520	10397.710003
565.936615	10411.820193
566.292654	10276.127455
566.648638	10406.166539
567.004567	10362.903357
567.360441	10349.612354
567.716260	10255.574671
568.072023	10349.629998
568.427732	10308.005191
568.783385	10209.927023
569.138982	10277.929667
569.494525	10300.914808
569.850013	10180.537096
570.205445	10264.626062
570.560823	10152.057097
570.916145	10083.378937
571.271412	10140.515375
571.626625	10086.413712
571.981782	10063.791534
572.336884	10037.151557
572.691931	10045.293020
573.046923	9985.383948
573.401860	9943.756620
573.756743	9882.002485
574.111570	9925.056460
574.466342	9914.575901
574.821059	9939.408625
575.175722	9830.597840
575.530330	9840.455816
575.884882	9832.689918
576.239380	9758.642930
576.593823	9738.667358
576.948211	9757.652343
577.302544	9629.816244
577.656823	9642.275455
578.011047	9642.391402
578.365216	9616.038770
578.719330	9547.400940
579.073389	9553.755314
579.427394	9505.224126
579.781344	9484.232762
580.135239	9430.229401
580.489080	9441.698026
580.842866	9340.418725
581.196597	9341.769754
581.550273	9386.792299
581.903895	9351.587401
582.257463	9423.139018
582.610975	9295.970871
582.964434	9321.922731
583.317837	9240.666893
583.671186	9227.718689
584.024481	9218.896670
584.377721	9143.430597
584.730906	9117.798850
585.084037	9146.891349
585.437113	9081.124456
585.790135	9106.960370
586.143103	9006.681737
586.496016	8973.763003
586.848874	9034.123258
587.201679	9020.791927
587.554428	8909.440400
587.907124	8955.234242
588.259765	8926.812216
588.612352	8928.629552
588.964884	8807.442734
589.317362	8819.123088
589.669786	8817.363725
590.022155	8867.762661
590.374470	8881.514928
590.726731	8822.999735
591.078937	8667.102052
591.431090	8790.133933
591.783188	8657.677615
592.135232	8650.809043
592.487222	8644.825194
592.839157	8699.128503
593.191038	8630.588975
593.542866	8580.305986
593.894639	8474.451838
594.246358	8529.617184
594.598022	8547.208291
594.949633	8441.195346
595.301190	8421.497037
595.652692	8443.332795
596.004141	8553.655926
596.355535	8331.603182
596.706876	8307.987897
597.058162	8243.577074
597.409395	8322.019948
597.760573	8376.010706
598.111698	8286.061398
598.462768	8277.206611
598.813785	8237.938543
599.164748	8210.537352
599.515657	8202.690796
599.866511	8108.564892
600.217312	8235.836382
600.568060	8088.337262
600.918753	8193.644445
601.269392	8162.578334
601.619978	8074.862257
601.970510	8137.307030
602.320988	8133.284189
602.671412	8187.952982
603.021783	8122.849001
603.372100	8098.172553
603.722363	8098.560722
604.072572	8073.972494
604.422728	8085.249555
604.772830	8013.022423
605.122878	8014.113833
605.472872	8015.573247
605.822813	8043.450828
606.172701	7986.722724
606.522534	8057.135040
606.872314	8054.914412
607.222041	8032.627471
607.571714	8078.033143
607.921333	8039.029736
608.270899	8044.864872
608.620411	8132.621278
608.969870	8031.808283
609.319276	8021.115996
609.668627	8039.100312
610.017926	8075.101712
610.367171	8120.293136
610.716362	8091.107376
611.065500	8083.888443
611.414585	8102.760003
611.763616	8097.517203
612.112594	8073.642298
612.461518	8084.448012
612.810389	8145.909759
613.159207	8079.600942
613.507971	8029.348200
613.856682	8141.153431
614.205340	8095.147861
614.553945	8169.451948
614.902496	8064.928664
615.250994	8112.202084
615.599439	8095.241122
615.947830	8108.446424
616.296169	8073.859068
616.644454	8087.596212
616.992686	8076.382165
617.340864	8132.432234
617.688990	8025.617746
618.037063	8123.927808
618.385082	8063.670896
618.733048	8141.942371
619.080961	8078.010458
619.428821	8098.611133
619.776628	8093.897654
620.124382	8042.150210
620.472083	8017.418309
620.819731	8046.785551
621.167326	7933.399919
621.514868	7948.036909
621.862357	7830.454516
622.209793	7844.156372
622.557176	7777.287987
622.904506	7741.639468
623.251783	7676.018768
623.599007	7630.177036
623.946179	7631.757437
624.293297	7577.315496
624.640363	7496.969586
624.987376	7476.076524
625.334336	7425.213803
625.681243	7362.451437
626.028097	7351.847370
626.374899	7331.229051
626.721647	7313.204405
627.068343	7249.189313
627.414987	7212.230094
627.761577	7165.075141
628.108115	7191.654624
628.454600	7087.451454
628.801032	7125.668441
629.147412	7087.358192
629.493739	7066.492857
629.840014	7001.653536
630.186236	7044.200874
630.532405	6934.041580
630.878521	6967.333360
631.224585	6926.444562
631.570597	6848.987233
631.916556	6867.158072
632.262462	6860.410487
632.608316	6816.870042
632.954117	6785.887110
633.299866	6766.206445
633.645562	6751.965186
633.991206	6673.456776
634.336797	6617.396625
634.682336	6568.139511
635.027823	6537.189347
635.373257	6516.941552
635.718639	6447.348423
636.063968	6458.922913
636.409245	6359.067737
636.754470	6350.396953
637.099642	6302.518594
637.444762	6241.833184
637.789829	6245.399800
638.134845	6191.242685
638.479808	6162.024157
638.824719	6166.601525
639.169577	6096.852120
639.514383	6108.782011
639.859137	6035.738212
640.203839	6037.608480
640.548489	6011.417165
