Dividing Wavelength (nm)	Counts (n)	Blue Motor Position (mm): 0.000000	Red Motor Position (mm): 49.700000	
326.493990	2128.259207
326.888308	2128.259207
327.282561	2128.259207
327.676750	2093.195462
328.070874	2092.187231
328.464933	2097.170412
328.858929	2103.408839
329.252859	2113.965016
329.646726	2123.739813
330.040528	2137.076185
330.434265	2152.466828
330.827938	2170.158758
331.221547	2189.768846
331.615091	2207.528831
332.008571	2226.891903
332.401986	2246.181878
332.795338	2268.675507
333.188625	2287.037909
333.581847	2306.017854
333.975006	2321.325317
334.368100	2340.872391
334.761129	2357.853518
335.154095	2374.454038
335.546996	2395.657131
335.939833	2424.757191
336.332606	2437.838986
336.725315	2450.136880
337.117960	2462.175156
337.510540	2468.340487
337.903056	2480.822384
338.295508	2489.374701
338.687896	2494.007522
339.080220	2502.148985
339.472480	2510.091323
339.864676	2517.025430
340.256807	2521.295287
340.648875	2521.625483
341.040879	2525.000536
341.432818	2525.116482
341.824694	2526.454908
342.216506	2529.219981
342.608253	2524.609846
342.999937	2528.461288
343.391557	2528.090763
343.783113	2524.856863
344.174605	2525.378622
344.566033	2523.452901
344.957397	2522.308559
345.348697	2520.350071
345.739934	2519.777900
346.131106	2515.881088
346.522215	2515.853362
346.913260	2513.597446
347.304241	2513.239524
347.695159	2510.960922
348.086012	2506.413801
348.476802	2508.422701
348.867528	2507.046466
349.258191	2504.697288
349.648789	2505.418173
350.039324	2500.195538
350.429796	2499.172184
350.820203	2498.985661
351.210548	2499.083964
351.600828	2496.908706
351.991045	2496.611278
352.381198	2494.670433
352.771288	2496.659169
353.161314	2495.824858
353.551276	2496.160094
353.941175	2495.040958
354.331010	2497.916937
354.720782	2494.811586
355.110490	2499.131855
355.500135	2493.677326
355.889717	2495.885352
356.279235	2497.218737
356.668689	2499.882987
357.058080	2496.608757
357.447408	2492.782521
357.836672	2494.884683
358.225873	2495.668582
358.615010	2496.949035
359.004084	2496.228150
359.393095	2500.215703
359.782043	2501.962463
360.170927	2499.172184
360.559748	2504.228461
360.948505	2504.099912
361.337199	2504.598986
361.725830	2505.811383
362.114398	2503.757113
362.502903	2505.186280
362.891344	2504.409943
363.279722	2506.398678
363.668037	2505.148472
364.056289	2507.091837
364.444478	2507.777433
364.832603	2510.330778
365.220665	2509.355315
365.608665	2510.613083
365.996601	2512.319513
366.384474	2510.088803
366.772284	2514.711541
367.160031	2511.782630
367.547715	2518.154649
367.935336	2518.409227
368.322893	2522.918539
368.710388	2522.633714
369.097820	2532.191742
369.485189	2536.078471
369.872495	2541.666590
370.259738	2546.861499
370.646918	2554.332489
371.034035	2562.768860
371.421090	2571.311095
371.808081	2583.782910
372.195010	2592.002511
372.581875	2603.821497
372.968678	2618.191306
373.355418	2626.904940
373.742096	2645.688279
374.128710	2660.385763
374.515262	2675.347908
374.901751	2688.863241
375.288177	2702.950746
375.674540	2725.719117
376.060841	2743.844586
376.447079	2765.327463
376.833254	2785.429064
377.219367	2794.611526
377.605417	2833.496466
377.991404	2844.161027
378.377329	2868.741693
378.763191	2882.425905
379.148991	2919.937131
379.534727	2944.905966
379.920402	2973.610296
380.306013	2982.724702
380.691563	3034.799821
381.077049	3057.076680
381.462474	3073.760379
381.847835	3115.733026
382.233134	3138.062817
382.618371	3137.599030
383.003545	3205.037066
383.388657	3210.501677
383.773706	3246.177922
384.158693	3260.532608
384.543618	3288.095117
384.928480	3323.715910
385.313280	3367.836088
385.698017	3365.013042
386.082692	3417.511618
386.467305	3423.344233
386.851856	3457.414872
387.236344	3479.137203
387.620770	3515.511649
388.005133	3538.695916
388.389435	3566.016449
388.773674	3580.227462
389.157851	3617.637864
389.541965	3632.973054
389.926018	3598.262189
390.310008	3671.827747
390.693936	3687.967002
391.077802	3730.466449
391.461606	3718.218966
391.845348	3782.496198
392.229027	3779.526958
392.612645	3796.016573
392.996200	3874.257801
393.379694	3915.892690
393.763125	3978.133296
394.146494	3944.894448
394.529801	4006.769571
394.913047	4054.700862
395.296230	4018.523021
395.679351	4075.629212
396.062410	4101.457563
396.445408	4080.655242
396.828343	4113.279069
397.211217	4136.198675
397.594028	4056.946696
397.976778	4122.756438
398.359466	4152.249709
398.742092	4179.653421
399.124656	4097.464970
399.507158	4179.217362
399.889598	4205.847257
400.271977	4268.821351
400.654294	4241.909151
401.036549	4252.422477
401.418742	4217.179771
401.800874	4320.301614
402.182944	4344.047969
402.564952	4404.652720
402.946898	4393.567223
403.328783	4390.610586
403.710606	4300.525167
404.092367	4493.803006
404.474067	4460.478458
404.855705	4469.189572
405.237282	4396.488572
405.618797	4503.698791
406.000250	4538.117268
406.381642	4616.547540
406.762972	4580.347014
407.144240	4593.690948
407.525447	4592.465948
407.906593	4652.644722
408.287677	4695.895302
408.668700	4621.384527
409.049661	4675.297147
409.430560	4717.451275
409.811399	4640.382115
410.192176	4805.336231
410.572891	4743.677878
410.953545	4846.184701
411.334138	4725.317996
411.714669	4794.286022
412.095139	4686.375082
412.475547	4830.809181
412.855894	4808.416376
413.236180	4819.552285
413.616405	4773.599647
413.996568	4862.618862
414.376670	4806.659534
414.756711	4759.950723
415.136691	4788.357625
415.516609	4871.801324
415.896466	4903.111930
416.276262	4938.074853
416.655997	4922.974077
417.035670	5105.673054
417.415283	5192.769069
417.794834	5139.451305
418.174324	5089.112863
418.553753	4995.846476
418.933121	5182.177604
419.312428	5249.865177
419.691674	5191.924675
420.070859	5311.984795
420.449983	5229.808947
420.829045	5345.427810
421.208047	5253.633440
421.586988	5319.032328
421.965867	5327.619934
422.344686	5465.261078
422.723444	5315.334642
423.102141	5138.274196
423.480777	5435.397283
423.859352	5210.571903
424.237866	5464.517508
424.616319	5453.399243
424.994712	5567.117592
425.373044	5443.989929
425.751314	5589.076858
426.129524	5391.624944
426.507673	5581.913378
426.885762	5664.109392
427.263789	5601.178147
427.641756	5477.193489
428.019662	5601.425164
428.397508	5605.498416
428.775292	5557.849430
429.153016	5656.739225
429.530679	5579.801135
429.908282	5666.635010
430.285824	5540.170104
430.663305	5809.289581
431.040726	5542.806627
431.418086	5543.701432
431.795385	5656.225027
432.172624	5663.552344
432.549802	5656.527496
432.926920	5666.549310
433.303977	5685.065468
433.680974	5719.652825
434.057910	5736.238221
434.434786	5737.039764
434.811601	5707.985074
435.188355	5943.379232
435.565050	5813.622453
435.941683	5800.578467
436.318257	6017.839595
436.694770	5997.233879
437.071222	6037.747112
437.447614	5964.796574
437.823946	5876.445312
438.200218	6030.104723
438.576429	5898.102109
438.952580	5994.637685
439.328670	6039.420775
439.704700	5946.860149
440.080670	5934.784065
440.456580	6204.022010
440.832429	6087.152940
441.208218	5931.008241
441.583947	6086.510193
441.959616	6089.265183
442.335224	6015.603843
442.710773	6156.620040
443.086261	6183.365882
443.461689	5975.521629
443.837057	6128.598786
444.212365	6283.185769
444.587612	6175.436147
444.962800	6326.091029
445.337927	6308.512526
445.712995	5915.728503
446.088002	6496.376165
446.462949	6326.612789
446.837837	6258.622747
447.212664	6433.810405
447.587431	6569.077165
447.962139	7117.060671
448.336786	8043.241620
448.711374	7778.265971
449.085901	6852.347162
449.460369	6777.841428
449.834776	6711.845163
450.209124	7104.513239
450.583412	7253.827175
450.957640	7402.009371
451.331808	7167.323495
451.705917	6718.496965
452.079965	6641.369832
452.453954	6854.915630
452.827883	6733.007927
453.201752	6821.739796
453.575562	6618.041893
453.949311	6825.845816
454.323001	6715.920936
454.696632	6790.542616
455.070202	6929.076044
455.443713	7084.348623
455.817164	7182.686412
456.190556	7263.435614
456.563888	7338.833631
456.937160	7383.044551
457.310373	7037.357508
457.683526	7064.163843
458.056619	6957.306505
458.429653	6943.617252
458.802628	6875.181068
459.175542	6983.757440
459.548398	7343.526946
459.921194	7507.427460
460.293930	7503.727253
460.666607	8041.131897
461.039224	8345.688166
461.411782	8474.353535
461.784280	8488.919949
462.156719	8375.826704
462.529099	8261.397553
462.901419	7849.830191
463.273680	7735.295176
463.645882	7753.516426
464.018024	7619.943493
464.390106	7791.289792
464.762130	8175.428236
465.134094	8640.615830
465.505999	9661.273044
465.877845	10892.952957
466.249631	11547.360261
466.621358	11155.095478
466.993026	10523.484271
467.364634	10267.247462
467.736184	9902.701463
468.107674	9568.709897
468.479105	9600.126368
468.850477	9374.943067
469.221790	9136.942632
469.593043	8812.176378
469.964238	8671.477774
470.335373	8682.462448
470.706449	8741.504442
471.077467	8728.815858
471.448425	10034.273058
471.819324	11115.124169
472.190164	11134.351130
472.560945	9885.755624
472.931667	9091.133667
473.302330	8963.539543
473.672934	8599.555632
474.043479	8967.022980
474.413965	8903.237260
474.784393	8783.875340
475.154761	8942.328888
475.525070	9028.411631
475.895321	8856.954427
476.265513	9037.876397
476.635645	9200.811531
477.005719	9202.384371
477.375734	9311.689189
477.745691	9555.807064
478.115588	9686.710706
478.485427	9931.148694
478.855207	10467.230035
479.224928	11279.889241
479.594591	11915.155284
479.964194	11722.444576
480.333739	11666.240751
480.703226	11583.170098
481.072653	11668.736123
481.442022	11903.858058
481.811333	12097.927358
482.180584	11904.662123
482.549777	11618.589245
482.918912	11435.146697
483.287988	11460.929679
483.657005	11464.947478
484.025964	11159.665284
484.394864	11290.503391
484.763706	11262.237641
485.132489	11006.512509
485.501213	10976.429424
485.869879	11041.722448
486.238487	10885.270239
486.607036	11000.616880
486.975527	10779.108580
487.343959	10974.418003
487.712333	11015.349652
488.080648	10950.694333
488.448905	10992.793009
488.817104	10939.480287
489.185244	11190.353308
489.553326	11350.730056
489.921350	11882.670089
490.289315	12957.045838
490.657222	13292.464050
491.025070	13201.390565
491.392861	13078.663674
491.760593	12697.091178
492.128267	12357.831606
492.495883	12018.861901
492.863440	11685.702126
493.230939	11347.367606
493.598380	11278.961669
493.965763	11148.184056
494.333088	11051.739221
494.700354	10970.901798
495.067563	11032.736592
495.434713	10868.450429
495.801805	10987.635909
496.168839	10918.478840
496.535815	10851.033242
496.902733	10845.971924
497.269593	10780.696543
497.636395	10884.072965
498.003139	10873.955369
498.369825	10734.602753
498.736453	10893.482278
499.103023	10818.663993
499.469535	10843.229536
499.835989	10840.348517
500.202385	10799.409306
500.568723	10653.263736
500.935003	10872.062416
501.301226	10677.904896
501.667390	10935.775038
502.033497	11035.337827
502.399546	10893.333564
502.765537	10803.863166
503.131470	10874.479649
503.497345	11050.121011
503.863163	10660.948975
504.228923	10973.437499
504.594625	11033.215501
504.960269	10786.030084
505.325856	11003.969247
505.691385	10795.837649
506.056856	10953.535023
506.422270	10975.794238
506.787625	10866.300377
507.152924	10991.202525
507.518164	10966.712600
507.883347	10889.134283
508.248472	10803.356530
508.613540	11032.666015
508.978550	10923.464541
509.343503	10896.254913
509.708398	11015.480722
510.073236	11123.530293
510.438016	11136.735595
510.802738	11076.418190
511.167403	11135.238373
511.532010	11031.463700
511.896561	11254.423853
512.261053	11334.071563
512.625488	11204.158507
512.989866	11180.628922
513.354186	11174.561893
513.718449	11073.665720
514.082655	11268.488672
514.446803	11162.969760
514.810894	11287.418204
515.174927	11156.290231
515.538904	11179.799652
515.902822	11328.654843
516.266684	11219.231557
516.630488	11158.906590
516.994235	11210.583458
517.357925	11277.257759
517.721558	11364.000893
518.085133	11381.072761
518.448651	11393.942826
518.812112	11274.893458
519.175516	11293.029009
519.538863	11411.445713
519.902152	11329.713485
520.265385	11485.623771
520.628560	11391.107177
520.991678	11378.925229
521.354739	11436.066708
521.717743	11368.127078
522.080690	11352.055879
522.443580	11485.782567
522.806413	11440.598705
523.169189	11471.400155
523.531908	11525.088444
523.894569	11348.267452
524.257174	11351.844151
524.619722	11475.170938
524.982213	11425.308886
525.344647	11474.954169
525.707025	11420.214800
526.069345	11517.002433
526.431608	11433.863724
526.793815	11542.175435
527.155964	11332.312200
527.518057	11383.616023
527.880093	11328.780872
528.242072	11405.305587
528.603995	11303.716255
528.965860	11228.918135
529.327669	11279.790939
529.689421	11231.264792
530.051117	11206.676564
530.412755	11305.740278
530.774337	11195.671725
531.135862	11172.900833
531.497331	11200.692714
531.858743	11049.400126
532.220098	11217.434386
532.581396	11084.040414
532.942638	11070.023486
533.303824	11028.260047
533.664953	11049.122862
534.026025	10960.829573
534.387040	11057.922196
534.747999	11060.851107
535.108902	11119.235230
535.469748	10877.269928
535.830537	10984.223048
536.191270	10959.632299
536.551947	10983.396298
536.912567	10986.103398
537.273131	10906.964844
537.633638	10885.711340
537.994089	10875.422345
538.354483	10830.225880
538.714821	10969.644031
539.075103	10979.456637
539.435328	10941.874835
539.795497	10772.640779
540.155609	10931.485017
540.515665	11015.878973
540.875665	10747.498025
541.235609	10819.596607
541.595496	10814.310957
541.955328	10967.385594
542.315102	10854.375527
542.674821	10809.325256
543.034483	10804.692436
543.394090	10812.843981
543.753640	10744.299412
544.113134	10958.278749
544.472571	10812.085288
544.831953	10951.180805
545.191278	10759.180899
545.550548	10785.989755
545.909761	10931.779924
546.268918	10904.073743
546.628019	10987.126752
546.987064	10848.008550
547.346053	10771.299833
547.704986	10878.447037
548.063863	10859.169665
548.422684	10846.279434
548.781449	10762.941599
549.140158	10869.453618
549.498811	10745.080791
549.857408	10599.215005
550.215949	10830.843421
550.574434	10682.169712
550.932864	10776.328383
551.291237	10843.368168
551.649555	10783.058324
552.007817	10793.778338
552.366022	10762.109809
552.724173	10752.531617
553.082267	10739.187683
553.440305	10869.259534
553.798288	10672.523464
554.156215	10828.781589
554.514086	10803.021293
554.871902	10656.855558
555.229661	10693.391320
555.587365	10677.373054
555.945014	10563.732843
556.302606	10694.830570
556.660143	10583.592469
557.017625	10748.455844
557.375050	10637.240428
557.732421	10768.267578
558.089735	10680.869094
558.446994	10690.419560
558.804197	10722.042718
559.161345	10728.394572
559.518437	10580.383775
559.875474	10660.999386
560.232455	10693.144304
560.589381	10638.984667
560.946251	10643.448609
561.303065	10750.018602
561.659825	10684.922182
562.016528	10605.284554
562.373177	10486.832562
562.729770	10604.354461
563.086307	10522.959991
563.442789	10617.559764
563.799216	10484.992541
564.155587	10531.693790
564.511904	10487.525721
564.868164	10478.693619
565.224370	10499.049798
565.580520	10422.270505
565.936615	10422.978787
566.292654	10300.715683
566.648638	10434.097052
567.004567	10381.714422
567.360441	10372.156394
567.716260	10283.318661
568.072023	10371.944666
568.427732	10324.779631
568.783385	10228.644827
569.138982	10303.755498
569.494525	10320.323251
569.850013	10198.160969
570.205445	10275.860274
570.560823	10173.814717
570.916145	10088.470503
571.271412	10163.868520
571.626625	10109.925654
571.981782	10083.923382
572.336884	10060.759280
572.691931	10068.043748
573.046923	10011.018215
573.401860	9969.665630
573.756743	9900.569055
574.111570	9942.904665
574.466342	9926.042005
574.821059	9961.337644
575.175722	9846.293472
575.530330	9857.147076
575.884882	9842.086629
576.239380	9776.677658
576.593823	9761.304659
576.948211	9769.204148
577.302544	9651.596549
577.656823	9664.748919
578.011047	9666.586420
578.365216	9642.242688
578.719330	9567.187469
579.073389	9574.091329
579.427394	9520.120736
579.781344	9498.254731
580.135239	9446.232544
580.489080	9456.473648
580.842866	9353.729892
581.196597	9365.687508
581.550273	9404.743848
581.903895	9371.976348
582.257463	9442.376061
582.610975	9312.531062
582.964434	9343.443417
583.317837	9263.193289
583.671186	9245.629909
584.024481	9238.829393
584.377721	9161.440119
584.730906	9136.776274
585.084037	9165.437754
585.437113	9105.158157
585.790135	9121.352864
586.143103	9025.991877
586.496016	8998.580603
586.848874	9056.629490
587.201679	9044.999548
587.554428	8932.486035
587.907124	8972.210327
588.259765	8948.463972
588.612352	8949.540258
588.964884	8829.739758
589.317362	8842.186367
589.669786	8837.069596
590.022155	8885.147080
590.374470	8903.615347
590.726731	8845.798353
591.078937	8692.905198
591.431090	8809.880132
591.783188	8678.795009
592.135232	8673.010285
592.487222	8671.591200
592.839157	8728.820899
593.191038	8656.238366
593.542866	8607.132486
593.894639	8511.350563
594.246358	8554.210453
594.598022	8570.425325
594.949633	8467.578224
595.301190	8441.613762
595.652692	8467.202658
596.004141	8580.182478
596.355535	8354.825257
596.706876	8335.701640
597.058162	8273.551775
597.409395	8349.469031
597.760573	8410.076303
598.111698	8323.310484
598.462768	8305.409346
598.813785	8272.440200
599.164748	8237.028615
599.515657	8227.984785
599.866511	8141.531517
600.217312	8264.336545
600.568060	8121.876058
600.918753	8222.731903
601.269392	8194.398098
601.619978	8114.120243
601.970510	8172.300200
602.320988	8168.733583
602.671412	8233.404025
603.021783	8162.966503
603.372100	8134.889797
603.722363	8136.583625
604.072572	8115.173844
604.422728	8121.432437
604.772830	8055.327786
605.122878	8062.032521
605.472872	8055.529432
605.822813	8086.638393
606.172701	8029.388529
606.522534	8108.451466
606.872314	8110.175540
607.222041	8076.500633
607.571714	8130.660269
607.921333	8092.241635
608.270899	8099.246319
608.620411	8179.708175
608.969870	8087.187879
609.319276	8083.129750
609.668627	8103.604396
610.017926	8130.509034
610.367171	8180.345881
610.716362	8157.022983
611.065500	8151.190368
611.414585	8172.204418
611.763616	8165.043459
612.112594	8144.465469
612.461518	8157.199423
612.810389	8222.542859
613.159207	8159.979620
613.507971	8108.242258
613.856682	8223.248621
614.205340	8183.017693
614.553945	8257.546111
614.902496	8156.055081
615.250994	8218.681336
615.599439	8193.636883
615.947830	8204.971918
616.296169	8185.298815
616.644454	8198.461267
616.992686	8190.902057
617.340864	8251.544618
617.688990	8154.240266
618.037063	8244.129080
618.385082	8197.765588
618.733048	8275.106971
619.080961	8216.304432
619.428821	8235.294458
619.776628	8235.385199
620.124382	8194.014970
620.472083	8176.590222
620.819731	8202.136269
621.167326	8097.058458
621.514868	8107.118080
621.862357	7994.392839
622.209793	8014.244903
622.557176	7946.829553
622.904506	7911.463338
623.251783	7844.723502
623.599007	7801.984600
623.946179	7804.815208
624.293297	7760.347190
624.640363	7678.962802
624.987376	7661.691809
625.334336	7612.636341
625.681243	7558.537198
626.028097	7542.019858
626.374899	7522.329111
626.721647	7517.184613
627.068343	7446.280784
627.414987	7421.644666
627.761577	7377.000207
628.108115	7414.534118
628.454600	7307.482696
628.801032	7356.157557
629.147412	7318.842936
629.493739	7303.807694
629.840014	7235.127014
630.186236	7298.138917
630.532405	7180.264137
630.878521	7234.527117
631.224585	7189.439037
631.570597	7113.297449
631.916556	7145.575957
632.262462	7142.798282
632.608316	7103.061387
632.954117	7079.660350
633.299866	7065.371200
633.645562	7055.306536
633.991206	6975.928528
634.336797	6922.577997
634.682336	6878.359516
635.027823	6843.338620
635.373257	6837.669842
635.718639	6769.435304
636.063968	6782.418796
636.409245	6675.327044
636.754470	6671.301683
637.099642	6627.695702
637.444762	6574.095634
637.789829	6586.963179
638.134845	6530.290528
638.479808	6510.897209
638.824719	6517.987592
639.169577	6443.925480
639.514383	6464.780733
639.859137	6392.752727
640.203839	6404.334778
640.548489	6387.502366
