Dividing Wavelength (nm)	Counts (n)	Blue Motor Position (mm): 0.000000	Red Motor Position (mm): 5.000000	
326.493990	2148.300314
326.888308	2148.300314
327.282561	2148.300314
327.676750	2124.793414
328.070874	2124.531274
328.464933	2131.520834
328.858929	2138.233130
329.252859	2150.989770
329.646726	2167.844868
330.040528	2178.101095
330.434265	2197.388550
330.827938	2216.348330
331.221547	2238.027812
331.615091	2258.358785
332.008571	2277.305962
332.401986	2298.980403
332.795338	2316.238793
333.188625	2336.131186
333.581847	2356.046264
333.975006	2377.269522
334.368100	2394.916081
334.761129	2412.703792
335.154095	2429.785742
335.546996	2445.652774
335.939833	2456.196347
336.332606	2471.637402
336.725315	2483.794144
337.117960	2492.288488
337.510540	2498.315188
337.903056	2509.599811
338.295508	2515.931500
338.687896	2521.375946
339.080220	2530.432379
339.472480	2535.022349
339.864676	2538.742721
340.256807	2542.090047
340.648875	2542.722712
341.040879	2546.982487
341.432818	2547.312683
341.824694	2549.165307
342.216506	2548.494833
342.608253	2548.673794
342.999937	2543.856972
343.391557	2546.332178
343.783113	2544.212373
344.174605	2542.558874
344.566033	2540.653318
344.957397	2540.670962
345.348697	2536.068389
345.739934	2536.932947
346.131106	2534.843388
346.522215	2534.581248
346.913260	2529.005732
347.304241	2532.022863
347.695159	2529.270393
348.086012	2524.962727
348.476802	2526.928777
348.867528	2525.600433
349.258191	2522.157325
349.648789	2523.740247
350.039324	2519.054495
350.429796	2521.146573
350.820203	2518.086593
351.210548	2516.443177
351.600828	2517.769000
351.991045	2517.153980
352.381198	2518.484844
352.771288	2517.176665
353.161314	2513.516787
353.551276	2517.156500
353.941175	2513.547034
354.331010	2515.782786
354.720782	2515.954185
355.110490	2514.870337
355.500135	2516.092817
355.889717	2520.105575
356.279235	2516.531397
356.668689	2520.118178
357.058080	2518.205060
357.447408	2514.608197
357.836672	2514.857734
358.225873	2515.140039
358.615010	2515.860924
359.004084	2522.147242
359.393095	2521.033147
359.782043	2520.849145
360.170927	2523.006759
360.559748	2521.827129
360.948505	2521.423837
361.337199	2521.592716
361.725830	2523.881399
362.114398	2524.561955
362.502903	2524.871986
362.891344	2524.919877
363.279722	2524.440967
363.668037	2526.916174
364.056289	2528.524302
364.444478	2528.468849
364.832603	2527.934487
365.220665	2525.187058
365.608665	2526.999353
365.996601	2531.579241
366.384474	2528.277286
366.772284	2529.257790
367.160031	2527.672347
367.547715	2529.560259
367.935336	2527.785773
368.322893	2533.106711
368.710388	2530.132430
369.097820	2533.318439
369.485189	2526.439785
369.872495	2532.683254
370.259738	2528.478932
370.646918	2531.317101
371.034035	2530.530681
371.421090	2533.613347
371.808081	2534.253573
372.195010	2532.935312
372.581875	2533.593182
372.968678	2532.297606
373.355418	2534.414890
373.742096	2535.917154
374.128710	2535.602082
374.515262	2538.150385
374.901751	2540.252547
375.288177	2537.484953
375.674540	2539.496373
376.060841	2540.179450
376.447079	2546.881664
376.833254	2545.223124
377.219367	2544.353525
377.605417	2547.196736
377.991404	2546.682538
378.377329	2551.448949
378.763191	2549.407282
379.148991	2556.457336
379.534727	2560.785166
379.920402	2563.565362
380.306013	2563.585527
380.691563	2566.895045
381.077049	2567.676423
381.462474	2571.719429
381.847835	2574.050963
382.233134	2577.879719
382.618371	2578.956005
383.003545	2581.116140
383.388657	2585.975812
383.773706	2586.048909
384.158693	2587.583940
384.543618	2594.452512
384.928480	2598.140116
385.313280	2600.101125
385.698017	2602.873760
386.082692	2606.037084
386.467305	2603.526589
386.851856	2610.891715
387.236344	2615.403548
387.620770	2613.873557
388.005133	2614.544031
388.389435	2618.191306
388.773674	2620.114506
389.157851	2620.633745
389.541965	2622.773714
389.926018	2619.612911
390.310008	2622.698097
390.693936	2622.786317
391.077802	2622.244393
391.461606	2623.227418
391.845348	2619.978395
392.229027	2623.391256
392.612645	2621.899074
392.996200	2620.928652
393.379694	2618.438322
393.763125	2618.773559
394.146494	2618.453446
394.529801	2614.435646
394.913047	2613.830707
395.296230	2612.041098
395.679351	2608.902980
396.062410	2604.771754
396.445408	2600.708584
396.828343	2602.193204
397.211217	2593.774477
397.594028	2589.308015
397.976778	2585.854824
398.359466	2586.951275
398.742092	2579.954154
399.124656	2583.180492
399.507158	2581.317786
399.889598	2577.637743
400.271977	2573.352763
400.654294	2571.409398
401.036549	2571.358986
401.418742	2568.999726
401.800874	2566.958059
402.182944	2566.143913
402.564952	2565.130641
402.946898	2560.649055
403.328783	2561.821123
403.710606	2560.437327
404.092367	2557.495813
404.474067	2559.459343
404.855705	2555.628066
405.237282	2555.834753
405.618797	2555.675957
406.000250	2555.670916
406.381642	2556.817778
406.762972	2552.595812
407.144240	2554.627397
407.525447	2558.922460
407.906593	2550.523897
408.287677	2553.387273
408.668700	2552.983981
409.049661	2552.379042
409.430560	2555.837274
409.811399	2555.166800
410.192176	2551.801830
410.572891	2553.573796
410.953545	2552.222766
411.334138	2552.827705
411.714669	2553.588919
412.095139	2552.810061
412.475547	2554.042623
412.855894	2553.241079
413.236180	2554.297201
413.616405	2552.464742
413.996568	2554.824002
414.376670	2553.170503
414.756711	2555.900288
415.136691	2555.043292
415.516609	2552.689073
415.896466	2552.394166
416.276262	2554.140925
416.655997	2551.448949
417.035670	2552.628579
417.415283	2551.171686
417.794834	2551.685883
418.174324	2550.521377
418.553753	2557.001780
418.933121	2555.169321
419.312428	2553.969526
419.691674	2556.981616
420.070859	2557.261400
420.449983	2557.848694
420.829045	2559.005639
421.208047	2557.311811
421.586988	2554.876934
421.965867	2555.406255
422.344686	2559.242573
422.723444	2558.488921
423.102141	2555.766697
423.480777	2556.240566
423.859352	2560.409600
424.237866	2558.312480
424.616319	2556.580844
424.994712	2560.487738
425.373044	2557.949517
425.751314	2555.633107
426.129524	2557.805844
426.507673	2558.975392
426.885762	2558.594785
427.263789	2560.079405
427.641756	2558.768705
428.019662	2561.203582
428.397508	2558.688046
428.775292	2559.834909
429.153016	2559.875238
429.530679	2559.474466
429.908282	2560.505382
430.285824	2557.805844
430.663305	2558.788869
431.040726	2559.744168
431.418086	2556.774928
431.795385	2559.986143
432.172624	2560.306257
432.549802	2562.423541
432.926920	2558.619991
433.303977	2562.158881
433.680974	2561.364899
434.057910	2562.463870
434.434786	2561.259035
434.811601	2563.928326
435.188355	2560.883469
435.565050	2561.193500
435.941683	2562.675599
436.318257	2557.954558
436.694770	2559.061092
437.071222	2558.070505
437.447614	2557.344579
437.823946	2559.746688
438.200218	2562.136195
438.576429	2562.123592
438.952580	2561.425393
439.328670	2561.632080
439.704700	2560.979251
440.080670	2562.506720
440.456580	2562.249621
440.832429	2564.195507
441.208218	2563.310784
441.583947	2562.632749
441.959616	2564.757595
442.335224	2561.690053
442.710773	2560.661658
443.086261	2563.716597
443.461689	2564.019066
443.837057	2563.164591
444.212365	2562.305074
444.587612	2564.989488
444.962800	2565.281875
445.337927	2564.492935
445.712995	2562.489076
446.088002	2566.350600
446.462949	2565.496124
446.837837	2566.153995
447.212664	2565.186093
447.587431	2564.455126
447.962139	2565.967472
448.336786	2567.164746
448.711374	2565.082750
449.085901	2565.614592
449.460369	2564.966803
449.834776	2567.827658
450.209124	2565.445713
450.583412	2563.479663
450.957640	2566.789180
451.331808	2566.136351
451.705917	2565.841443
452.079965	2566.857236
452.453954	2565.468398
452.827883	2565.027297
453.201752	2565.796073
453.575562	2567.126938
453.949311	2566.325394
454.323001	2566.159036
454.696632	2564.828172
455.070202	2567.716753
455.443713	2568.901424
455.817164	2563.061247
456.190556	2563.537636
456.563888	2565.133161
456.937160	2565.793552
457.310373	2567.293296
457.683526	2565.211299
458.056619	2564.024107
458.429653	2565.743141
458.802628	2567.832699
459.175542	2566.758933
459.548398	2567.010991
459.921194	2569.690364
460.293930	2564.976886
460.666607	2568.989644
461.039224	2567.391598
461.411782	2570.759089
461.784280	2569.082905
462.156719	2571.752196
462.529099	2571.613565
462.901419	2568.205745
463.273680	2569.576938
463.645882	2569.294634
464.018024	2569.992834
464.390106	2568.251115
464.762130	2569.448389
465.134094	2568.891342
465.505999	2571.341342
465.877845	2570.123904
466.249631	2568.851012
466.621358	2570.653225
466.993026	2575.137331
467.364634	2572.135324
467.736184	2568.208265
468.107674	2572.200859
468.479105	2569.665159
468.850477	2570.562484
469.221790	2570.736404
469.593043	2573.312433
469.964238	2570.078533
470.335373	2573.302351
470.706449	2570.204562
471.077467	2570.615416
471.448425	2572.170612
471.819324	2570.721280
472.190164	2572.089954
472.560945	2572.052145
472.931667	2570.128945
473.302330	2568.500652
473.672934	2570.423852
474.043479	2569.939902
474.413965	2572.329408
474.784393	2567.351269
475.154761	2568.137689
475.525070	2569.287072
475.895321	2569.329922
476.265513	2565.566701
476.635645	2570.413770
477.005719	2569.607185
477.375734	2571.167422
477.745691	2571.636250
478.115588	2570.716239
478.485427	2572.757907
478.855207	2573.385530
479.224928	2570.491908
479.594591	2573.168761
479.964194	2571.777402
480.333739	2571.510221
480.703226	2572.009295
481.072653	2574.761765
481.442022	2570.585169
481.811333	2572.999882
482.180584	2571.984089
482.549777	2570.184398
482.918912	2573.501477
483.287988	2574.761765
483.657005	2570.562484
484.025964	2571.963925
484.394864	2573.403174
484.763706	2574.192115
485.132489	2573.801425
485.501213	2572.762948
485.869879	2572.009295
486.238487	2570.373441
486.607036	2571.389233
486.975527	2572.979717
487.343959	2572.760427
487.712333	2571.227916
488.080648	2570.776733
488.448905	2571.290931
488.817104	2572.389902
489.185244	2574.557598
489.553326	2574.378637
489.921350	2572.059707
490.289315	2571.779923
490.657222	2575.119687
491.025070	2571.258163
491.392861	2575.737228
491.760593	2574.774368
492.128267	2571.174984
492.495883	2575.860737
492.863440	2570.867474
493.230939	2574.595407
493.598380	2571.961404
493.965763	2567.736917
494.333088	2569.934860
494.700354	2570.411249
495.067563	2571.369069
495.434713	2569.493759
495.801805	2574.073648
496.168839	2574.673545
496.535815	2573.945098
496.902733	2572.518452
497.269593	2575.243195
497.636395	2574.030798
498.003139	2573.844275
498.369825	2572.808318
498.736453	2575.414595
499.103023	2575.742270
499.469535	2572.828483
499.835989	2572.321847
500.202385	2573.783781
500.568723	2574.081209
500.935003	2574.618092
501.301226	2572.402505
501.667390	2574.202197
502.033497	2573.579615
502.399546	2573.027608
502.765537	2573.627506
503.131470	2575.613720
503.497345	2575.008782
503.863163	2573.859399
504.228923	2572.609192
504.594625	2574.119018
504.960269	2573.763617
505.325856	2577.804102
505.691385	2574.008113
506.056856	2574.083730
506.422270	2575.268401
506.787625	2573.284707
507.152924	2573.088102
507.518164	2577.118505
507.883347	2573.098184
508.248472	2571.454768
508.613540	2573.894687
508.978550	2573.627506
509.343503	2577.274780
509.708398	2575.505335
510.073236	2576.644636
510.438016	2572.324367
510.802738	2571.275807
511.167403	2574.968452
511.532010	2572.969635
511.896561	2577.526838
512.261053	2575.641447
512.625488	2572.528534
512.989866	2567.923440
513.354186	2571.600962
513.718449	2572.072310
514.082655	2572.957032
514.446803	2576.972311
514.810894	2573.405695
515.174927	2576.934502
515.538904	2576.085068
515.902822	2576.155644
516.266684	2572.228585
516.630488	2574.056004
516.994235	2575.520459
517.357925	2574.650860
517.721558	2575.346539
518.085133	2574.061045
518.448651	2577.078175
518.812112	2576.574060
519.175516	2573.430901
519.538863	2574.789492
519.902152	2575.026426
520.265385	2576.258988
520.628560	2575.759914
520.991678	2576.090109
521.354739	2574.358473
521.717743	2573.919893
522.080690	2576.803432
522.443580	2575.563309
522.806413	2576.465675
523.169189	2575.308730
523.531908	2575.888463
523.894569	2575.769996
524.257174	2576.455593
524.619722	2576.319482
524.982213	2576.316961
525.344647	2574.691189
525.707025	2575.313772
526.069345	2575.286045
526.431608	2575.341498
526.793815	2575.119687
527.155964	2574.345870
527.518057	2576.649677
527.880093	2575.399471
528.242072	2576.730336
528.603995	2576.314441
528.965860	2575.454924
529.327669	2576.810994
529.689421	2575.107084
530.051117	2575.659091
530.412755	2574.260170
530.774337	2574.270253
531.135862	2576.909297
531.497331	2572.135324
531.858743	2575.147413
532.220098	2573.879563
532.581396	2573.304872
532.942638	2572.513411
533.303824	2576.488360
533.664953	2577.519276
534.026025	2575.946436
534.387040	2576.785788
534.747999	2576.853844
535.108902	2580.806109
535.469748	2576.929461
535.830537	2575.356621
536.191270	2577.032805
536.551947	2575.336457
536.912567	2573.282187
537.273131	2577.511715
537.633638	2577.312589
537.994089	2575.714543
538.354483	2575.651529
538.714821	2576.589183
539.075103	2574.305541
539.435328	2575.689338
539.795497	2575.747311
540.155609	2578.162023
540.515665	2575.459965
540.875665	2579.087075
541.235609	2576.551375
541.595496	2577.224369
541.955328	2576.064903
542.315102	2574.885273
542.674821	2575.071796
543.034483	2578.464493
543.394090	2578.371231
543.753640	2576.402661
544.113134	2576.178329
544.472571	2574.673545
544.831953	2577.262178
545.191278	2575.278483
545.550548	2574.481981
545.909761	2576.904256
546.268918	2576.412743
546.628019	2577.221848
546.987064	2575.643967
547.346053	2577.463824
547.704986	2576.599266
548.063863	2574.663463
548.422684	2576.763103
548.781449	2578.557754
549.140158	2579.223186
549.498811	2577.471385
549.857408	2576.793350
550.215949	2572.926785
550.574434	2569.970148
550.932864	2573.907290
551.291237	2570.910324
551.649555	2577.370562
552.007817	2577.736046
552.366022	2574.161868
552.724173	2575.719584
553.082267	2573.980386
553.440305	2578.716550
553.798288	2579.356777
554.156215	2576.155644
554.514086	2577.065572
554.871902	2575.465006
555.229661	2577.065572
555.587365	2576.697568
555.945014	2575.674214
556.302606	2576.160685
556.660143	2576.097671
557.017625	2577.645305
557.375050	2578.164544
557.732421	2576.604307
558.089735	2579.770152
558.446994	2575.722105
558.804197	2576.823597
559.161345	2573.740932
559.518437	2578.545151
559.875474	2575.875860
560.232455	2578.167065
560.589381	2577.357959
560.946251	2579.119843
561.303065	2579.127404
561.659825	2578.003227
562.016528	2575.482650
562.373177	2575.724626
562.729770	2576.316961
563.086307	2578.789647
563.442789	2577.597414
563.799216	2576.531210
564.155587	2579.747466
564.511904	2576.019533
564.868164	2576.311920
565.224370	2578.940882
565.580520	2576.248906
565.936615	2576.929461
566.292654	2574.615572
566.648638	2575.880901
567.004567	2574.991138
567.360441	2577.103381
567.716260	2578.540110
568.072023	2578.802250
568.427732	2573.188925
568.783385	2573.909810
569.138982	2574.807136
569.494525	2573.352763
569.850013	2575.381827
570.205445	2576.745459
570.560823	2577.181519
570.916145	2576.352249
571.271412	2578.582960
571.626625	2577.463824
571.981782	2580.117991
572.336884	2579.578588
572.691931	2577.816704
573.046923	2578.262847
573.401860	2577.373083
573.756743	2580.266705
574.111570	2576.442990
574.466342	2577.431056
574.821059	2577.932651
575.175722	2580.024730
575.530330	2578.038515
575.884882	2579.916345
576.239380	2577.337795
576.593823	2576.667321
576.948211	2579.671849
577.302544	2578.315779
577.656823	2577.521797
578.011047	2578.381314
578.365216	2575.764955
578.719330	2575.830490
579.073389	2576.758062
579.427394	2574.048442
579.781344	2576.453072
580.135239	2577.851992
580.489080	2579.175295
580.842866	2577.904925
581.196597	2581.617734
581.550273	2577.909966
581.903895	2577.380645
582.257463	2580.367528
582.610975	2577.133628
582.964434	2579.480285
583.317837	2576.233782
583.671186	2579.404668
584.024481	2577.839390
584.377721	2576.372414
584.730906	2577.892322
585.084037	2578.162023
585.437113	2577.776375
585.790135	2578.343505
586.143103	2577.158834
586.496016	2579.152610
586.848874	2575.278483
587.201679	2575.291086
587.554428	2572.110118
587.907124	2575.676735
588.259765	2574.643298
588.612352	2578.635892
588.964884	2573.347722
589.317362	2575.520459
589.669786	2577.143710
590.022155	2578.232600
590.374470	2577.299986
590.726731	2577.156313
591.078937	2577.143710
591.431090	2576.616910
591.783188	2579.197981
592.135232	2578.860223
592.487222	2578.046077
592.839157	2575.238154
593.191038	2577.292424
593.542866	2576.914338
593.894639	2576.397620
594.246358	2577.320151
594.598022	2579.109760
594.949633	2576.011971
595.301190	2578.146900
595.652692	2579.003896
596.004141	2578.376272
596.355535	2579.087075
596.706876	2578.706468
597.058162	2576.195973
597.409395	2576.241344
597.760573	2576.584142
598.111698	2577.431056
598.462768	2577.534400
598.813785	2578.751838
599.164748	2577.297466
599.515657	2578.015830
599.866511	2577.751169
600.217312	2576.193453
600.568060	2577.529359
600.918753	2578.061200
601.269392	2577.650346
601.619978	2574.965932
601.970510	2577.962898
602.320988	2576.223700
602.671412	2578.588001
603.021783	2577.330233
603.372100	2576.553895
603.722363	2573.609862
604.072572	2578.386355
604.422728	2581.595049
604.772830	2572.936867
605.122878	2571.646332
605.472872	2573.090623
605.822813	2573.569532
606.172701	2575.638926
606.522534	2576.195973
606.872314	2578.507342
607.222041	2575.991807
607.571714	2576.838721
607.921333	2575.505335
608.270899	2575.719584
608.620411	2576.420305
608.969870	2577.441138
609.319276	2577.781416
609.668627	2576.596745
610.017926	2575.893504
610.367171	2578.623289
610.716362	2576.969791
611.065500	2573.607341
611.414585	2575.215469
611.763616	2576.445511
612.112594	2575.434759
612.461518	2576.460634
612.810389	2578.726633
613.159207	2577.758731
613.507971	2577.357959
613.856682	2578.252764
614.205340	2578.777044
614.553945	2579.923907
614.902496	2575.273442
615.250994	2579.303845
615.599439	2578.129256
615.947830	2577.058011
616.296169	2576.034657
616.644454	2577.536920
616.992686	2575.782599
617.340864	2575.601117
617.688990	2575.888463
618.037063	2579.276118
618.385082	2577.426015
618.733048	2576.601786
619.080961	2575.580953
619.428821	2577.466344
619.776628	2574.635736
620.124382	2579.714699
620.472083	2576.339646
620.819731	2577.582291
621.167326	2576.533731
621.514868	2579.563464
621.862357	2576.034657
622.209793	2577.794019
622.557176	2574.829821
622.904506	2571.782443
623.251783	2570.660787
623.599007	2573.544327
623.946179	2572.276476
624.293297	2573.793864
624.640363	2574.870150
624.987376	2576.468196
625.334336	2577.547003
625.681243	2575.601117
626.028097	2577.173957
626.374899	2579.041705
626.721647	2574.557598
627.068343	2578.368711
627.414987	2575.873340
627.761577	2576.795871
628.108115	2574.539954
628.454600	2577.796540
628.801032	2576.190932
629.147412	2576.269070
629.493739	2576.750500
629.840014	2576.937023
630.186236	2579.074472
630.532405	2577.206725
630.878521	2576.382496
631.224585	2578.409040
631.570597	2574.023236
631.916556	2575.326374
632.262462	2575.253278
632.608316	2577.418453
632.954117	2577.776375
633.299866	2579.901222
633.645562	2578.530028
633.991206	2578.512384
634.336797	2577.869637
634.682336	2576.165727
635.027823	2576.334605
635.373257	2577.244533
635.718639	2574.464337
636.063968	2578.366190
636.409245	2576.690007
636.754470	2577.582291
637.099642	2574.529872
637.444762	2579.155131
637.789829	2575.805284
638.134845	2574.716395
638.479808	2573.836713
638.824719	2575.712023
639.169577	2578.391396
639.514383	2574.897876
639.859137	2573.211610
640.203839	2576.939544
640.548489	2576.760583
640.893086	2572.415108
641.237632	2569.463512
641.582125	2573.383010
641.926566	2571.568194
642.270955	2571.301013
642.615292	2575.409553
642.959576	2577.506673
643.303809	2577.000037
643.647990	2575.152455
643.992118	2574.366035
644.336195	2578.310737
