Dividing Wavelength (nm)	Counts (n)	Blue Motor Position (mm): 0.000000	Red Motor Position (mm): 36.300000	
326.493990	2128.128137
326.888308	2128.128137
327.282561	2128.128137
327.676750	2097.024218
328.070874	2094.274269
328.464933	2098.718046
328.858929	2103.958325
329.252859	2113.087855
329.646726	2124.198558
330.040528	2139.906793
330.434265	2155.055461
330.827938	2172.749911
331.221547	2190.807324
331.615091	2210.177957
332.008571	2229.581358
332.401986	2248.407548
332.795338	2269.285486
333.188625	2286.995060
333.581847	2305.604479
333.975006	2324.448312
334.368100	2343.279542
334.761129	2361.525999
335.154095	2376.541075
335.546996	2396.551936
335.939833	2416.615728
336.332606	2432.553336
336.725315	2442.466765
337.117960	2454.653754
337.510540	2458.129630
337.903056	2469.797380
338.295508	2478.445480
338.687896	2486.937303
339.080220	2497.059940
339.472480	2503.815087
339.864676	2509.209121
340.256807	2510.608041
340.648875	2513.698269
341.040879	2517.184227
341.432818	2520.617252
341.824694	2520.949968
342.216506	2523.178158
342.608253	2518.401665
342.999937	2521.988446
343.391557	2519.891326
343.783113	2519.903929
344.174605	2520.009793
344.566033	2517.093486
344.957397	2517.224556
345.348697	2512.264060
345.739934	2510.335819
346.131106	2510.824811
346.522215	2508.894049
346.913260	2506.716271
347.304241	2505.087978
347.695159	2504.934223
348.086012	2501.760816
348.476802	2499.464571
348.867528	2499.361227
349.258191	2496.775115
349.648789	2498.395846
350.039324	2496.578510
350.429796	2494.592296
350.820203	2490.939980
351.210548	2491.491986
351.600828	2490.864362
351.991045	2490.224136
352.381198	2492.285968
352.771288	2488.205154
353.161314	2490.783704
353.551276	2489.304125
353.941175	2488.447129
354.331010	2488.986533
354.720782	2490.640031
355.110490	2489.057109
355.500135	2487.506954
355.889717	2490.062819
356.279235	2486.425626
356.668689	2488.994094
357.058080	2489.283961
357.447408	2488.200113
357.836672	2488.495020
358.225873	2488.374032
358.615010	2489.704897
359.004084	2491.484424
359.393095	2493.606750
359.782043	2494.282265
360.170927	2495.711432
360.559748	2494.277223
360.948505	2498.015239
361.337199	2495.953407
361.725830	2499.615805
362.114398	2497.732934
362.502903	2499.152019
362.891344	2501.604541
363.279722	2501.148316
363.668037	2500.699653
364.056289	2500.359376
364.444478	2501.876763
364.832603	2500.588748
365.220665	2500.709736
365.608665	2503.242916
365.996601	2502.937926
366.384474	2504.178050
366.772284	2505.178719
367.160031	2509.403206
367.547715	2509.904800
367.935336	2512.868999
368.322893	2516.433095
368.710388	2518.618435
369.097820	2525.607995
369.485189	2530.465146
369.872495	2532.877338
370.259738	2540.368493
370.646918	2547.602549
371.034035	2555.922973
371.421090	2567.673903
371.808081	2577.690676
372.195010	2584.987746
372.581875	2599.637339
372.968678	2610.211159
373.355418	2622.256996
373.742096	2641.002527
374.128710	2654.747233
374.515262	2671.045283
374.901751	2685.710000
375.288177	2698.862370
375.674540	2723.949672
376.060841	2740.557753
376.447079	2758.889909
376.833254	2777.960594
377.219367	2791.854014
377.605417	2828.087308
377.991404	2838.620799
378.377329	2862.410004
378.763191	2877.893908
379.148991	2915.705082
379.534727	2940.507559
379.920402	2969.413535
380.306013	2981.356029
380.691563	3030.633308
381.077049	3053.137018
381.462474	3068.983885
381.847835	3110.507870
382.233134	3130.745582
382.618371	3132.242804
383.003545	3200.094215
383.388657	3207.240050
383.773706	3239.944536
384.158693	3255.665374
384.543618	3282.012965
384.928480	3320.797082
385.313280	3364.934904
385.698017	3362.472301
386.082692	3416.810898
386.467305	3421.133687
386.851856	3453.150055
387.236344	3475.578149
387.620770	3504.942870
388.005133	3533.919422
388.389435	3560.846746
388.773674	3571.838982
389.157851	3616.775827
389.541965	3628.254534
389.926018	3594.637600
390.310008	3665.475894
390.693936	3685.154038
391.077802	3725.531159
391.461606	3713.923903
391.845348	3779.907565
392.229027	3776.845064
392.612645	3789.579019
392.996200	3869.002398
393.379694	3906.226278
393.763125	3972.850167
394.146494	3940.879169
394.529801	4001.214219
394.913047	4046.730797
395.296230	4014.369110
395.679351	4069.317687
396.062410	4095.635031
396.445408	4074.865477
396.828343	4109.334366
397.211217	4132.843787
397.594028	4053.047363
397.976778	4119.396509
398.359466	4144.496414
398.742092	4174.970189
399.124656	4095.609825
399.507158	4177.200900
399.889598	4202.041186
400.271977	4263.414713
400.654294	4235.194334
401.036549	4242.975355
401.418742	4211.105180
401.800874	4315.746931
402.182944	4333.829550
402.564952	4405.686157
402.946898	4387.298548
403.328783	4383.205131
403.710606	4298.027275
404.092367	4491.111029
404.474067	4450.360862
404.855705	4462.321000
405.237282	4394.993870
405.618797	4502.435982
406.000250	4533.570148
406.381642	4613.215337
406.762972	4576.830809
407.144240	4590.477213
407.525447	4585.577211
407.906593	4646.696161
408.287677	4691.428839
408.668700	4617.742293
409.049661	4670.437475
409.430560	4712.440368
409.811399	4640.092249
410.192176	4803.891940
410.572891	4735.622114
410.953545	4840.644472
411.334138	4722.026122
411.714669	4788.650012
412.095139	4683.463816
412.475547	4827.595446
412.855894	4806.168021
413.236180	4810.488290
413.616405	4771.797434
413.996568	4859.455538
414.376670	4799.942196
414.756711	4759.015589
415.136691	4785.721101
415.516609	4867.095407
415.896466	4901.813833
416.276262	4935.753402
416.655997	4913.297582
417.035670	5097.294656
417.415283	5188.413512
417.794834	5137.238238
418.174324	5089.380044
418.553753	4994.402185
418.933121	5178.457233
419.312428	5247.765537
419.691674	5182.343963
420.070859	5311.667203
420.449983	5220.843254
420.829045	5339.824568
421.208047	5248.683027
421.586988	5315.742976
421.965867	5327.534234
422.344686	5458.195901
422.723444	5314.117203
423.102141	5133.520388
423.480777	5432.985091
423.859352	5199.430953
424.237866	5459.657836
424.616319	5454.677176
424.994712	5564.768414
425.373044	5440.700577
425.751314	5584.093677
426.129524	5384.625302
426.507673	5578.671916
426.885762	5661.440101
427.263789	5593.823104
427.641756	5477.145598
428.019662	5595.612714
428.397508	5601.979691
428.775292	5547.343666
429.153016	5647.947452
429.530679	5574.331483
429.908282	5661.432539
430.285824	5538.004928
430.663305	5803.414116
431.040726	5542.131112
431.418086	5542.012645
431.795385	5650.125231
432.172624	5659.658053
432.549802	5650.145395
432.926920	5669.332027
433.303977	5673.309497
433.680974	5714.644438
434.057910	5729.331840
434.434786	5737.082614
434.811601	5704.363005
435.188355	5943.369150
435.565050	5815.369213
435.941683	5794.234175
436.318257	6008.107648
436.694770	5994.531820
437.071222	6026.437283
437.447614	5958.595955
437.823946	5873.067739
438.200218	6025.602972
438.576429	5892.201438
438.952580	5991.776830
439.328670	6033.099168
439.704700	5940.152894
440.080670	5932.855824
440.456580	6200.803233
440.832429	6082.565490
441.208218	5928.008754
441.583947	6083.583803
441.959616	6088.370379
442.335224	6015.407238
442.710773	6153.698691
443.086261	6180.134502
443.461689	5974.362164
443.837057	6116.580676
444.212365	6276.823833
444.587612	6167.932389
444.962800	6328.145300
445.337927	6303.415919
445.712995	5913.996867
446.088002	6489.096739
446.462949	6319.214896
446.837837	6254.909937
447.212664	6426.533499
447.587431	6565.679428
447.962139	7107.724454
448.336786	8038.971763
448.711374	7775.878985
449.085901	6850.721390
449.460369	6769.868844
449.834776	6702.544234
450.209124	7096.671724
450.583412	7249.632935
450.957640	7393.661221
451.331808	7161.574059
451.705917	6711.767025
452.079965	6631.995807
452.453954	6845.216450
452.827883	6722.837399
453.201752	6813.479866
453.575562	6612.683146
453.949311	6820.295506
454.323001	6708.512960
454.696632	6783.396780
455.070202	6922.759478
455.443713	7072.695996
455.817164	7174.103847
456.190556	7259.677434
456.563888	7332.343146
456.937160	7378.066411
457.310373	7034.572270
457.683526	7060.859367
458.056619	6947.211595
458.429653	6933.424039
458.802628	6872.184102
459.175542	6983.132337
459.548398	7335.188877
459.921194	7498.101325
460.293930	7503.603745
460.666607	8028.047582
461.039224	8338.885128
461.411782	8466.640570
461.784280	8484.287129
462.156719	8377.467599
462.529099	8252.182323
462.901419	7845.492278
463.273680	7732.850216
463.645882	7750.118688
464.018024	7616.898636
464.390106	7774.354036
464.762130	8169.076382
465.134094	8636.431672
465.505999	9652.829111
465.877845	10880.047603
466.249631	11532.206553
466.621358	11146.462502
466.993026	10523.413695
467.364634	10263.539694
467.736184	9900.443026
468.107674	9566.564886
468.479105	9599.776008
468.850477	9364.283547
469.221790	9133.708732
469.593043	8809.718815
469.964238	8665.254470
470.335373	8681.403806
470.706449	8733.862053
471.077467	8724.800579
471.448425	10030.187203
471.819324	11098.594225
472.190164	11130.466921
472.560945	9879.073575
472.931667	9084.595291
473.302330	8953.250548
473.672934	8601.065458
474.043479	8956.718862
474.413965	8896.371209
474.784393	8783.025906
475.154761	8936.965100
475.525070	9021.754787
475.895321	8850.791616
476.265513	9026.390128
476.635645	9194.273154
477.005719	9193.937918
477.375734	9301.077560
477.745691	9541.364158
478.115588	9673.442389
478.485427	9927.486296
478.855207	10458.667636
479.224928	11276.567121
479.594591	11901.420661
479.964194	11716.843854
480.333739	11656.481077
480.703226	11567.880278
481.072653	11660.846717
481.442022	11903.401834
481.811333	12094.726225
482.180584	11898.769014
482.549777	11599.926893
482.918912	11430.135790
483.287988	11452.999944
483.657005	11467.314300
484.025964	11146.613736
484.394864	11269.423806
484.763706	11246.935218
485.132489	11004.470842
485.501213	10959.579367
485.869879	11039.947962
486.238487	10884.561957
486.607036	10993.224028
486.975527	10769.608525
487.343959	10957.696496
487.712333	11007.661892
488.080648	10939.384505
488.448905	10976.207613
488.817104	10915.270145
489.185244	11186.622854
489.553326	11337.449136
489.921350	11877.129861
490.289315	12938.191922
490.657222	13283.256383
491.025070	13193.964945
491.392861	13065.491139
491.760593	12689.995754
492.128267	12343.262672
492.495883	12008.575427
492.863440	11664.221769
493.230939	11330.555358
493.598380	11268.531522
493.965763	11140.498817
494.333088	11038.866635
494.700354	10959.100457
495.067563	11019.178408
495.434713	10848.832779
495.801805	10977.344393
496.168839	10899.569472
496.535815	10828.131280
496.902733	10837.046561
497.269593	10771.710687
497.636395	10868.054698
498.003139	10855.487102
498.369825	10720.764786
498.736453	10878.852850
499.103023	10806.151850
499.469535	10834.231077
499.835989	10823.465693
500.202385	10790.264653
500.568723	10636.701025
500.935003	10851.184477
501.301226	10665.745633
501.667390	10921.022102
502.033497	11018.467606
502.399546	10878.142047
502.765537	10785.478078
503.131470	10857.889212
503.497345	11035.668022
503.863163	10649.266101
504.228923	10953.421598
504.594625	11021.048676
504.960269	10771.420820
505.325856	10984.553243
505.691385	10785.415063
506.056856	10933.314955
506.422270	10960.088523
506.787625	10846.622233
507.152924	10962.062135
507.518164	10938.456932
507.883347	10860.843328
508.248472	10784.568149
508.613540	11016.773778
508.978550	10896.280119
509.343503	10872.858918
509.708398	10990.784109
510.073236	11103.350554
510.438016	11110.539239
510.802738	11057.123173
511.167403	11108.764753
511.532010	11008.382777
511.896561	11230.304452
512.261053	11301.704834
512.625488	11173.435195
512.989866	11152.446351
513.354186	11143.946966
513.718449	11035.978053
514.082655	11233.916439
514.446803	11129.990532
514.810894	11250.501835
515.174927	11116.699529
515.538904	11139.412448
515.902822	11286.472988
516.266684	11172.910915
516.630488	11105.634197
516.994235	11163.007569
517.357925	11223.710623
517.721558	11314.590024
518.085133	11326.696355
518.448651	11334.580719
518.812112	11220.950591
519.175516	11225.263298
519.538863	11340.657830
519.902152	11249.992678
520.265385	11411.599468
520.628560	11318.418780
520.991678	11287.705550
521.354739	11352.370951
521.717743	11277.706422
522.080690	11260.168247
522.443580	11379.878007
522.806413	11332.884371
523.169189	11358.183402
523.531908	11410.757595
523.894569	11220.350694
524.257174	11226.309338
524.619722	11336.463590
524.982213	11276.357913
525.344647	11318.731332
525.707025	11266.373908
526.069345	11354.500839
526.431608	11254.159192
526.793815	11359.347908
527.155964	11142.124589
527.518057	11194.792044
527.880093	11130.308124
528.242072	11191.159892
528.603995	11092.552403
528.965860	11007.288847
529.327669	11042.087932
529.689421	10985.269087
530.051117	10946.641246
530.412755	11035.869669
530.774337	10919.595455
531.135862	10889.073789
531.497331	10897.641230
531.858743	10739.492672
532.220098	10890.266022
532.581396	10755.284087
532.942638	10723.345857
533.303824	10669.266879
533.664953	10671.429534
534.026025	10576.411345
534.387040	10651.620320
534.747999	10644.018260
535.108902	10679.495380
535.469748	10434.066805
535.830537	10514.722746
536.191270	10476.777981
536.551947	10477.690430
536.912567	10464.422113
537.273131	10375.556653
537.633638	10330.420682
537.994089	10304.383122
538.354483	10232.617256
538.714821	10350.681079
539.075103	10337.821096
539.435328	10284.175657
539.795497	10107.914233
540.155609	10225.589888
540.515665	10287.321337
540.875665	10020.563640
541.235609	10062.057377
541.595496	10036.730620
541.955328	10146.058124
542.315102	10017.975008
542.674821	9948.800294
543.034483	9925.520246
543.394090	9898.177028
543.753640	9812.474892
544.113134	9976.083019
544.472571	9824.465276
544.831953	9914.422146
545.191278	9714.737001
545.550548	9706.789622
545.909761	9801.225557
546.268918	9740.429241
546.628019	9782.404409
546.987064	9631.678950
547.346053	9540.865084
547.704986	9585.633051
548.063863	9544.174602
548.422684	9505.665227
548.781449	9402.722345
549.140158	9448.183471
549.498811	9312.331936
549.857408	9172.036625
550.215949	9308.528386
550.574434	9152.907966
550.932864	9199.286582
551.291237	9217.669149
551.649555	9117.912276
552.007817	9103.481973
552.366022	9038.859422
552.724173	8990.151794
553.082267	8945.202346
553.440305	8999.044389
553.798288	8824.002925
554.156215	8887.486175
554.514086	8829.628853
554.871902	8675.757714
555.229661	8667.578442
555.587365	8608.365048
555.945014	8501.109459
556.302606	8538.260243
556.660143	8438.873894
557.017625	8492.547059
557.375050	8378.811067
557.732421	8431.115559
558.089735	8324.548087
558.446994	8284.670039
558.804197	8271.487422
559.161345	8225.587716
559.518437	8093.068385
559.875474	8092.859177
560.232455	8075.999038
560.589381	8009.412957
560.946251	7943.136908
561.303065	7994.271852
561.659825	7890.960965
562.016528	7805.218500
562.373177	7699.371913
562.729770	7706.769807
563.086307	7617.070036
563.442789	7632.077551
563.799216	7500.332036
564.155587	7493.612178
564.511904	7410.266781
564.868164	7364.004112
565.224370	7335.713157
565.580520	7230.431180
565.936615	7218.758388
566.292654	7076.239927
566.648638	7121.698532
567.004567	7047.132305
567.360441	6994.880746
567.716260	6902.393217
568.072023	6909.634834
568.427732	6832.762279
568.783385	6753.124651
569.138982	6730.237813
569.494525	6704.129677
569.850013	6597.163954
570.205445	6591.381751
570.560823	6506.271950
570.916145	6413.938176
571.271412	6408.279481
571.626625	6337.206774
571.981782	6290.855885
572.336884	6228.113684
572.691931	6201.390527
573.046923	6114.481035
573.401860	6063.220062
573.756743	5992.419577
574.111570	5965.308252
574.466342	5928.205359
574.821059	5895.694958
575.175722	5813.246887
575.530330	5768.753663
575.884882	5732.376697
576.239380	5653.543133
576.593823	5614.564932
576.948211	5579.092852
577.302544	5500.697869
577.656823	5456.663390
578.011047	5430.081386
578.365216	5377.386205
578.719330	5311.586544
579.073389	5269.364360
579.427394	5221.480960
579.781344	5181.572666
580.135239	5120.506649
580.489080	5093.206280
580.842866	5018.882028
581.196597	4993.678780
581.550273	4974.353517
581.903895	4918.870577
582.257463	4919.054579
582.610975	4838.696067
582.964434	4822.705527
583.317837	4760.835445
583.671186	4733.492227
584.024481	4690.581925
584.377721	4639.958658
584.730906	4603.468266
585.084037	4577.440789
585.437113	4537.666085
585.790135	4507.668699
586.143103	4451.711892
586.496016	4419.869443
586.848874	4401.512082
587.201679	4374.287330
587.554428	4307.224861
587.907124	4293.487716
588.259765	4262.666102
588.612352	4236.568048
588.964884	4186.847148
589.317362	4159.629958
589.669786	4133.025269
590.022155	4126.053353
590.374470	4095.009928
590.726731	4061.904670
591.078937	3995.550483
591.431090	3994.751460
591.783188	3947.636836
592.135232	3911.960590
592.487222	3896.643044
592.839157	3880.652504
593.191038	3843.685723
593.542866	3807.762461
593.894639	3765.396604
594.246358	3754.414450
594.598022	3734.159094
594.949633	3694.144936
595.301190	3669.299609
595.652692	3653.362001
596.004141	3645.207935
596.355535	3590.924790
596.706876	3568.284968
597.058162	3538.017880
597.409395	3527.111344
597.760573	3523.174203
598.111698	3492.846621
598.462768	3469.548929
598.813785	3446.110084
599.164748	3422.918256
599.515657	3408.787902
599.866511	3369.978579
600.217312	3380.585166
600.568060	3343.351204
600.918753	3339.771985
601.269392	3321.989315
601.619978	3290.013276
601.970510	3283.623613
602.320988	3272.190276
602.671412	3261.455139
603.021783	3241.144330
603.372100	3223.512895
603.722363	3207.527396
604.072572	3194.271682
604.422728	3184.811957
604.772830	3160.606857
605.122878	3145.299393
605.472872	3137.016777
605.822813	3122.775517
606.172701	3111.271604
606.522534	3104.765995
606.872314	3094.973554
607.222041	3079.509815
607.571714	3070.687795
607.921333	3060.204716
608.270899	3047.637119
608.620411	3043.021943
608.969870	3031.092053
609.319276	3018.675691
609.668627	3014.867099
610.017926	3007.696058
610.367171	3001.326560
610.716362	2993.172493
611.065500	2982.633961
611.414585	2969.746251
611.763616	2964.763071
612.112594	2951.535083
612.461518	2945.941923
612.810389	2941.208279
613.159207	2927.972730
613.507971	2919.627100
613.856682	2917.502253
614.205340	2910.416912
614.553945	2909.043197
614.902496	2891.356309
615.250994	2892.079715
615.599439	2882.370452
615.947830	2874.851571
616.296169	2868.270345
616.644454	2861.958820
616.992686	2858.309025
617.340864	2855.193592
617.688990	2843.714885
618.037063	2847.468024
618.385082	2837.894872
618.733048	2837.562156
619.080961	2826.048161
619.428821	2823.099086
619.776628	2817.838642
620.124382	2809.026705
620.472083	2802.677372
620.819731	2799.095632
621.167326	2789.446863
621.514868	2786.878396
621.862357	2771.119749
622.209793	2768.594131
622.557176	2762.504417
622.904506	2754.231883
623.251783	2745.301479
623.599007	2738.919378
623.946179	2735.148595
624.293297	2728.201885
624.640363	2722.669219
624.987376	2721.361040
625.334336	2716.098075
625.681243	2708.236396
626.028097	2707.253371
626.374899	2705.216744
626.721647	2697.924715
627.068343	2693.952286
627.414987	2690.234435
627.761577	2687.784434
628.108115	2687.252593
628.454600	2679.953002
628.801032	2677.750018
629.147412	2678.546520
629.493739	2677.334122
629.840014	2673.528051
630.186236	2669.356497
630.532405	2666.730055
630.878521	2663.849036
631.224585	2665.865497
631.570597	2658.606236
631.916556	2657.237563
632.262462	2658.959117
632.608316	2655.906698
632.954117	2649.776655
633.299866	2651.999804
633.645562	2648.130718
633.991206	2646.462096
634.336797	2640.039666
634.682336	2640.810963
635.027823	2639.351549
635.373257	2634.081023
635.718639	2633.161012
636.063968	2630.400980
636.409245	2628.445012
636.754470	2625.251442
637.099642	2628.066926
637.444762	2624.775052
637.789829	2621.863786
638.134845	2618.977726
638.479808	2617.059567
638.824719	2618.690380
639.169577	2618.226594
639.514383	2614.995214
639.859137	2614.997735
640.203839	2612.262909
640.548489	2612.628392
640.893086	2609.490274
641.237632	2608.366097
641.582125	2606.374841
