Dividing Wavelength (nm)	Counts (n)	Blue Motor Position (mm): 0.000000	Red Motor Position (mm): 30.000000	
326.493990	2077.847669
326.888308	2077.847669
327.282561	2077.847669
327.676750	2056.241283
328.070874	2056.952086
328.464933	2061.307643
328.858929	2074.036557
329.252859	2085.926118
329.646726	2101.485639
330.040528	2118.986005
330.434265	2137.295476
330.827938	2156.625780
331.221547	2176.508091
331.615091	2196.849147
332.008571	2215.183823
332.401986	2239.673748
332.795338	2256.377612
333.188625	2276.368307
333.581847	2295.892696
333.975006	2312.906590
334.368100	2331.752944
334.761129	2349.573423
335.154095	2362.234281
335.546996	2386.956099
335.939833	2419.637900
336.332606	2434.035435
336.725315	2444.445418
337.117960	2453.196861
337.510540	2459.155505
337.903056	2470.394757
338.295508	2474.556230
338.687896	2484.313383
339.080220	2490.118272
339.472480	2495.330825
339.864676	2497.112873
340.256807	2500.606392
340.648875	2504.354490
341.040879	2505.236692
341.432818	2505.697958
341.824694	2505.897083
342.216506	2504.546054
342.608253	2507.008658
342.999937	2504.130159
343.391557	2507.290962
343.783113	2502.161588
344.174605	2500.601351
344.566033	2501.710405
344.957397	2498.204282
345.348697	2498.174035
345.739934	2493.092552
346.131106	2493.450474
346.522215	2490.791266
346.913260	2491.368478
347.304241	2486.778507
347.695159	2486.072746
348.086012	2486.952427
348.476802	2485.147694
348.867528	2483.093424
349.258191	2479.088227
349.648789	2482.105358
350.039324	2479.546972
350.429796	2480.640902
350.820203	2478.069914
351.210548	2478.498412
351.600828	2477.467496
351.991045	2477.059163
352.381198	2477.507825
352.771288	2477.918679
353.161314	2478.226190
353.551276	2479.456231
353.941175	2479.761221
354.331010	2480.093937
354.720782	2479.451190
355.110490	2477.764924
355.500135	2479.839359
355.889717	2479.186529
356.279235	2479.960347
356.668689	2482.208701
357.058080	2482.186016
357.447408	2480.968577
357.836672	2480.706437
358.225873	2481.984370
358.615010	2478.032105
359.004084	2486.241624
359.393095	2484.913280
359.782043	2485.561068
360.170927	2487.454022
360.559748	2488.729434
360.948505	2486.869248
361.337199	2489.853611
361.725830	2491.204640
362.114398	2491.653303
362.502903	2493.841164
362.891344	2492.545587
363.279722	2494.050372
363.668037	2494.171359
364.056289	2492.621204
364.444478	2497.455671
364.832603	2495.061123
365.220665	2499.298213
365.608665	2495.950887
365.996601	2499.998933
366.384474	2498.289982
366.772284	2501.022287
367.160031	2500.056906
367.547715	2499.555312
367.935336	2502.317864
368.322893	2503.373986
368.710388	2502.955570
369.097820	2509.294821
369.485189	2506.151661
369.872495	2503.689058
370.259738	2510.832373
370.646918	2511.114677
371.034035	2515.172806
371.421090	2518.681449
371.808081	2520.670184
372.195010	2525.313087
372.581875	2528.970444
372.968678	2534.911444
373.355418	2540.189532
373.742096	2548.376366
374.128710	2559.638304
374.515262	2571.278328
374.901751	2581.463979
375.288177	2598.997112
375.674540	2617.213322
376.060841	2631.754530
376.447079	2652.846718
376.833254	2679.358146
377.219367	2699.807586
377.605417	2732.224726
377.991404	2753.473190
378.377329	2796.123872
378.763191	2826.670743
379.148991	2866.553832
379.534727	2915.228693
379.920402	2958.441464
380.306013	3003.476612
380.691563	3063.652865
381.077049	3117.439456
381.462474	3170.361489
381.847835	3239.102663
382.233134	3308.209321
382.618371	3364.778628
383.003545	3441.207562
383.388657	3519.942823
383.773706	3606.181842
384.158693	3674.567615
384.543618	3766.876183
384.928480	3841.626412
385.313280	3941.847071
385.698017	4038.758212
386.082692	4154.283815
386.467305	4215.029718
386.851856	4334.091690
387.236344	4479.791118
387.620770	4542.092218
388.005133	4652.962315
388.389435	4792.524138
388.773674	4880.527561
389.157851	4999.839070
389.541965	5127.685252
389.926018	5157.395292
390.310008	5324.267567
390.693936	5443.087563
391.077802	5552.775509
391.461606	5683.835427
391.845348	5788.005830
392.229027	5910.745323
392.612645	6126.050483
392.996200	6242.433081
393.379694	6408.624800
393.763125	6621.079188
394.146494	6717.254321
394.529801	6848.478076
394.913047	7070.306489
395.296230	7074.132725
395.679351	7132.370655
396.062410	7377.292594
396.445408	7279.816843
396.828343	7426.864780
397.211217	7567.702016
397.594028	7450.538039
397.976778	7651.952300
398.359466	7814.138822
398.742092	7794.430431
399.124656	7936.462420
399.507158	8123.272458
399.889598	8151.543249
400.271977	8356.083025
400.654294	8385.054536
401.036549	8588.543232
401.418742	8618.510371
401.800874	8909.074917
402.182944	8987.764807
402.564952	9345.890897
402.946898	9186.335858
403.328783	9236.200431
403.710606	9429.962220
404.092367	9683.673411
404.474067	10036.120641
404.855705	9846.124593
405.237282	9794.851018
405.618797	10221.720802
406.000250	10466.264654
406.381642	10820.408233
406.762972	10768.504513
407.144240	10585.833262
407.525447	10836.320635
407.906593	10784.182501
408.287677	11042.907119
408.668700	11188.165447
409.049661	11179.166987
409.430560	11341.156904
409.811399	11318.015488
410.192176	11478.503141
410.572891	11544.592668
410.953545	12024.470185
411.334138	11513.927329
411.714669	12086.516706
412.095139	11447.406783
412.475547	11923.823548
412.855894	11784.901951
413.236180	12102.237545
413.616405	11808.555045
413.996568	12080.490007
414.376670	12060.040566
414.756711	11951.945625
415.136691	12217.503527
415.516609	12394.616906
415.896466	12471.751601
416.276262	12764.493925
416.655997	13224.461405
417.035670	13262.819545
417.415283	13879.335016
417.794834	13968.170229
418.174324	13714.701014
418.553753	13629.896203
418.933121	14113.300007
419.312428	13943.481178
419.691674	13850.902908
420.070859	14313.937930
420.449983	13970.274911
420.829045	14522.898798
421.208047	14284.873158
421.586988	14734.687754
421.965867	14975.092819
422.344686	14978.684641
422.723444	15562.513271
423.102141	14246.104164
423.480777	15443.509273
423.859352	14941.637202
424.237866	16048.858588
424.616319	15762.362253
424.994712	16411.652787
425.373044	16202.137392
425.751314	16892.609110
426.129524	16029.067018
426.507673	17108.998119
426.885762	16833.352868
427.263789	17001.513157
427.641756	17194.380141
428.019662	17253.477588
428.397508	17301.103889
428.775292	17587.133917
429.153016	17568.970640
429.530679	17645.649110
429.908282	17688.917334
430.285824	17414.421466
430.663305	18132.780848
431.040726	17741.506651
431.418086	17579.010097
431.795385	18214.586172
432.172624	18651.011463
432.549802	18210.223053
432.926920	18426.793543
433.303977	18300.976425
433.680974	18565.251354
434.057910	18862.636581
434.434786	18906.814732
434.811601	18834.539710
435.188355	19883.276150
435.565050	19546.950530
435.941683	19517.472383
436.318257	20404.423073
436.694770	20204.364883
437.071222	20801.729011
437.447614	19875.971518
437.823946	19899.100332
438.200218	20076.024668
438.576429	19859.018118
438.952580	20161.026083
439.328670	20127.235229
439.704700	20553.459745
440.080670	20116.061511
440.456580	20730.036241
440.832429	20899.938249
441.208218	19917.104813
441.583947	20352.355516
441.959616	20472.700461
442.335224	20722.015765
442.710773	20862.842919
443.086261	21416.737177
443.461689	20750.737739
443.837057	20909.476112
444.212365	21575.919171
444.587612	21576.851785
444.962800	21179.432421
445.337927	21608.727001
445.712995	20311.708692
446.088002	22216.942212
446.462949	22412.516296
446.837837	22604.463270
447.212664	22620.300055
447.587431	25571.114253
447.962139	28550.627740
448.336786	30868.908200
448.711374	29188.684062
449.085901	25459.682068
449.460369	25476.259902
449.834776	25473.159592
450.209124	28030.262196
450.583412	27498.294436
450.957640	27986.343663
451.331808	26637.613199
451.705917	25258.305616
452.079965	25312.593801
452.453954	25696.502872
452.827883	25609.505160
453.201752	25397.098663
453.575562	25560.555556
453.949311	26697.572683
454.323001	26760.829081
454.696632	26539.373713
455.070202	28156.056628
455.443713	28325.164655
455.817164	28916.539892
456.190556	29479.777929
456.563888	28872.639003
456.937160	29324.943929
457.310373	27610.467671
457.683526	28038.534729
458.056619	28036.803093
458.429653	28029.586681
458.802628	28637.345668
459.175542	28762.149514
459.548398	30150.541257
459.921194	31772.620727
460.293930	32508.538447
460.666607	34600.818940
461.039224	36389.763123
461.411782	36732.206183
461.784280	35448.418383
462.156719	34898.047891
462.529099	34333.693239
462.901419	32989.489730
463.273680	31945.320575
463.645882	32058.502041
464.018024	32062.978585
464.390106	32994.780421
464.762130	35916.350886
465.134094	40221.778575
465.505999	45702.258897
465.877845	50237.391802
466.249631	51244.085019
466.621358	49361.982834
466.993026	47125.878222
467.364634	44994.077604
467.736184	43018.041078
468.107674	41753.765064
468.479105	40939.230549
468.850477	40212.565866
469.221790	38766.261348
469.593043	36990.588003
469.964238	36089.302792
470.335373	36025.902721
470.706449	37869.392188
471.077467	40630.686728
471.448425	45257.561072
471.819324	48008.554014
472.190164	45987.394120
472.560945	42364.326933
472.931667	39204.831651
473.302330	38087.782535
473.672934	37233.281752
474.043479	37753.130578
474.413965	36952.524771
474.784393	36561.066572
475.154761	37453.859959
475.525070	37493.148192
475.895321	36964.636143
476.265513	37571.152486
476.635645	38538.381030
477.005719	38351.724747
477.375734	38826.235956
477.745691	39504.102269
478.115588	40832.007728
478.485427	42871.769479
478.855207	46241.748058
479.224928	48826.186318
479.594591	50332.805721
479.964194	49182.182520
480.333739	49265.802659
480.703226	49259.337380
481.072653	49867.338342
481.442022	50264.863570
481.811333	50394.159084
482.180584	49042.754287
482.549777	48418.916540
482.918912	47813.284919
483.287988	47416.248684
483.657005	46505.602050
484.025964	45752.539365
484.394864	45664.924111
484.763706	45131.091125
485.132489	44160.563145
485.501213	43895.355603
485.869879	43923.192854
486.238487	43411.679577
486.607036	43473.668125
486.975527	42819.507837
487.343959	42906.044284
487.712333	42815.832836
488.080648	42576.622524
488.448905	42876.644275
488.817104	42526.820965
489.185244	43323.698839
489.553326	44796.247604
489.921350	47263.698327
490.289315	49923.990829
490.657222	50280.198760
491.025070	50332.281441
491.392861	49178.207570
491.760593	47684.632153
492.128267	45830.221025
492.495883	44160.631201
492.863440	42615.595685
493.230939	41166.621876
493.598380	39964.515891
493.965763	39440.099780
494.333088	38486.820108
494.700354	37818.791607
495.067563	37317.327869
495.434713	36972.696948
495.801805	36813.363719
496.168839	36232.519452
496.535815	35704.486313
496.902733	35487.633519
497.269593	34876.433944
497.636395	34581.365127
498.003139	34647.691588
498.369825	33939.371664
498.736453	33927.890436
499.103023	33278.796508
499.469535	32937.991823
499.835989	32714.489747
500.202385	32172.656449
500.568723	31922.002718
500.935003	31775.980656
501.301226	31350.197240
501.667390	31526.050330
502.033497	31405.937278
502.399546	30718.255838
502.765537	29887.209024
503.131470	29881.915812
503.497345	29852.440186
503.863163	28573.396111
504.228923	28723.105778
504.594625	28697.350522
504.960269	27870.762609
505.325856	28052.130721
505.691385	27300.401421
506.056856	27088.241941
506.422270	27057.170789
506.787625	26455.062936
507.152924	26279.524918
507.518164	26017.294177
507.883347	25204.357708
508.248472	25032.051069
508.613540	25024.438927
508.978550	24870.096440
509.343503	24384.721545
509.708398	24199.872516
510.073236	24167.142824
510.438016	23831.906094
510.802738	23200.703221
511.167403	23235.585485
511.532010	23013.147092
511.896561	22849.405374
512.261053	22964.134473
512.625488	22395.971229
512.989866	21997.762925
513.354186	21588.819484
513.718449	21258.066860
514.082655	21257.640882
514.446803	20778.695979
514.810894	20713.851617
515.174927	20339.029225
515.538904	19983.287601
515.902822	19950.966243
516.266684	19398.692716
516.630488	19259.188866
516.994235	18898.118742
517.357925	18809.654054
517.721558	18574.751408
518.085133	18394.177277
518.448651	18119.477242
518.812112	17721.387406
519.175516	17452.633412
519.538863	17284.629398
519.902152	16973.469218
520.265385	16848.791401
520.628560	16563.177268
520.991678	16202.681836
521.354739	16001.355796
521.717743	15835.776577
522.080690	15521.637075
522.443580	15419.508339
522.806413	15162.406973
523.169189	14886.973450
523.531908	14673.790615
523.894569	14381.159196
524.257174	14172.710005
524.619722	13996.821627
524.982213	13751.856838
525.344647	13495.294875
525.707025	13263.492539
526.069345	13128.669400
526.431608	12868.676931
526.793815	12709.512581
527.155964	12373.529759
527.518057	12180.120851
527.880093	11924.685586
528.242072	11824.220431
528.603995	11561.021788
528.965860	11353.293482
529.327669	11179.134220
529.689421	10963.282094
530.051117	10768.595253
530.412755	10610.466860
530.774337	10442.127610
531.135862	10227.152645
531.497331	10085.594525
531.858743	9891.207632
532.220098	9781.670921
532.581396	9570.759126
532.942638	9357.818267
533.303824	9250.381197
533.664953	9092.792207
534.026025	8895.569665
534.387040	8821.411772
534.747999	8668.881580
535.108902	8552.040237
535.469748	8342.101385
535.830537	8227.006801
536.191270	8114.705017
536.551947	7947.862989
536.912567	7851.982764
537.273131	7744.034016
537.633638	7559.663896
537.994089	7477.735064
538.354483	7320.945097
538.714821	7268.149093
539.075103	7192.231836
539.435328	7060.143523
539.795497	6936.756242
540.155609	6838.012641
540.515665	6779.532736
540.875665	6630.841382
541.235609	6557.938736
541.595496	6464.624458
541.955328	6429.800167
542.315102	6282.762312
542.674821	6169.863151
543.034483	6085.564977
543.394090	5999.378890
543.753640	5913.149953
544.113134	5906.699797
544.472571	5744.838429
544.831953	5759.430049
545.191278	5624.899297
545.550548	5527.035377
545.909761	5486.416280
546.268918	5428.369914
546.628019	5375.553745
546.987064	5279.340804
547.346053	5168.647147
547.704986	5153.332122
548.063863	5064.199481
548.422684	5008.109083
548.781449	4940.207261
549.140158	4901.445829
549.498811	4834.443853
549.857408	4751.126183
550.215949	4730.134818
550.574434	4674.092311
550.932864	4611.773567
551.291237	4591.094754
551.649555	4524.826266
552.007817	4489.268488
552.366022	4429.709776
552.724173	4385.022467
553.082267	4357.578426
553.440305	4323.888395
553.798288	4257.884567
554.156215	4223.629927
554.514086	4191.916028
554.871902	4138.620950
555.229661	4102.322121
555.587365	4060.248651
555.945014	4032.338303
556.302606	3994.229701
556.660143	3963.950010
557.017625	3935.447326
557.375050	3894.213208
557.732421	3875.818038
558.089735	3846.735621
558.446994	3813.035508
558.804197	3797.884320
559.161345	3766.805607
559.518437	3719.522104
559.875474	3701.104248
560.232455	3682.187319
560.589381	3660.263341
560.946251	3630.644041
561.303065	3621.925366
561.659825	3595.945779
562.016528	3568.209351
562.373177	3544.904097
562.729770	3535.487221
563.086307	3507.687778
563.442789	3497.040861
563.799216	3480.705002
564.155587	3460.207671
564.511904	3444.567491
564.868164	3428.725665
565.224370	3421.088317
565.580520	3405.054927
565.936615	3393.828278
566.292654	3376.287583
566.648638	3366.812734
567.004567	3355.984336
567.360441	3347.482430
567.716260	3331.209585
568.072023	3324.487206
568.427732	3309.225113
568.783385	3296.879327
569.138982	3291.843215
569.494525	3284.248716
569.850013	3271.658435
570.205445	3263.791714
570.560823	3255.098244
570.916145	3245.290679
571.271412	3239.700040
571.626625	3228.914491
571.981782	3223.139849
572.336884	3212.313972
572.691931	3208.795246
573.046923	3200.381560
573.401860	3190.732792
573.756743	3187.070394
574.111570	3177.842562
574.466342	3171.873835
574.821059	3166.686488
575.175722	3156.785662
575.530330	3153.677791
575.884882	3145.553971
576.239380	3141.949546
576.593823	3133.818165
576.948211	3128.703914
577.302544	3114.381996
577.656823	3109.227417
578.011047	3114.563478
578.365216	3105.207096
578.719330	3102.419338
579.073389	3091.225456
579.427394	3088.543562
579.781344	3087.615990
580.135239	3078.655339
580.489080	3077.689958
580.842866	3070.942374
581.196597	3073.122673
581.550273	3065.497928
581.903895	3061.744788
582.257463	3067.249728
582.610975	3053.419323
582.964434	3052.958057
583.317837	3047.425391
583.671186	3040.632436
584.024481	3042.437169
584.377721	3033.970551
584.730906	3032.654810
585.084037	3032.841333
585.437113	3026.441588
585.790135	3021.697862
586.143103	3020.402286
586.496016	3015.701410
586.848874	3012.359125
587.201679	3013.533714
587.554428	2997.094511
587.907124	3005.160357
588.259765	2997.656600
588.612352	2997.321363
588.964884	2993.298522
589.317362	2994.503358
589.669786	2989.159735
590.022155	2988.461535
590.374470	2986.006493
590.726731	2982.961636
591.078937	2977.408805
591.431090	2975.835965
591.783188	2969.975624
592.135232	2966.038483
592.487222	2965.743575
592.839157	2963.898513
593.191038	2959.260651
593.542866	2957.143367
593.894639	2946.889660
594.246358	2949.707665
594.598022	2950.156328
594.949633	2940.709205
595.301190	2938.024791
595.652692	2935.635284
596.004141	2941.046963
596.355535	2930.624377
596.706876	2928.219747
597.058162	2920.761359
597.409395	2925.986515
597.760573	2927.103131
598.111698	2920.978129
598.462768	2920.453849
598.813785	2920.171544
599.164748	2916.234403
599.515657	2913.459248
599.866511	2910.815163
600.217312	2911.699885
600.568060	2900.763102
600.918753	2910.154772
601.269392	2908.297107
601.619978	2902.938360
601.970510	2903.437434
602.320988	2903.326529
602.671412	2904.909451
603.021783	2903.444996
603.372100	2897.708163
603.722363	2895.805127
604.072572	2897.166239
604.422728	2898.497103
604.772830	2892.755229
605.122878	2894.116341
605.472872	2891.023593
605.822813	2890.345558
606.172701	2888.094683
606.522534	2892.961917
606.872314	2892.220867
607.222041	2891.139539
607.571714	2895.174983
607.921333	2887.494785
608.270899	2887.499826
608.620411	2888.888664
608.969870	2891.510064
609.319276	2887.540156
609.668627	2886.360526
610.017926	2889.846483
610.367171	2887.693911
610.716362	2888.235835
611.065500	2886.259703
611.414585	2887.638458
611.763616	2890.247255
612.112594	2886.481513
612.461518	2888.545866
612.810389	2888.903788
613.159207	2887.605691
613.507971	2883.807181
613.856682	2891.341186
614.205340	2884.903632
614.553945	2890.401010
614.902496	2885.354815
615.250994	2887.703993
615.599439	2887.167110
615.947830	2888.147615
616.296169	2885.954713
616.644454	2886.728530
616.992686	2887.204919
617.340864	2891.643655
617.688990	2883.429095
618.037063	2892.142729
618.385082	2889.942265
618.733048	2889.531411
619.080961	2891.696587
619.428821	2888.702142
619.776628	2890.295146
620.124382	2885.712737
620.472083	2886.703324
620.819731	2887.114178
621.167326	2882.975391
621.514868	2881.677294
621.862357	2877.399875
622.209793	2875.605224
622.557176	2872.094060
622.904506	2868.570294
623.251783	2863.191382
623.599007	2861.066536
623.946179	2858.430013
624.293297	2854.734847
624.640363	2856.146370
624.987376	2854.354240
625.334336	2847.089937
625.681243	2847.689834
626.028097	2847.765452
626.374899	2844.055162
626.721647	2841.716067
627.068343	2842.454596
627.414987	2838.570387
627.761577	2835.008812
628.108115	2836.372444
628.454600	2833.219202
628.801032	2832.725169
629.147412	2832.876404
629.493739	2830.607885
629.840014	2828.243583
630.186236	2830.255004
630.532405	2825.987667
630.878521	2828.301557
631.224585	2826.073367
631.570597	2823.089004
631.916556	2821.672439
632.262462	2820.283602
632.608316	2824.177893
632.954117	2817.326965
633.299866	2820.260916
633.645562	2818.856955
633.991206	2814.209011
634.336797	2807.564770
634.682336	2811.015440
635.027823	2805.654173
635.373257	2803.801549
635.718639	2801.437248
636.063968	2798.165539
636.409245	2794.387194
636.754470	2796.209571
637.099642	2792.355609
637.444762	2791.034827
637.789829	2789.386370
638.134845	2788.002573
638.479808	2784.377983
638.824719	2782.260699
639.169577	2781.718775
639.514383	2782.177520
