Dividing Wavelength (nm)	Counts (n)	Blue Motor Position (mm): 0.000000	Red Motor Position (mm): 25.800000	
326.493990	2126.459515
326.888308	2126.459515
327.282561	2126.459515
327.676750	2091.720924
328.070874	2092.378795
328.464933	2094.208734
328.858929	2098.687799
329.252859	2112.513163
329.646726	2124.783332
330.040528	2139.092647
330.434265	2153.119658
330.827938	2171.010713
331.221547	2189.534432
331.615091	2207.730477
332.008571	2226.854094
332.401986	2247.248082
332.795338	2268.393202
333.188625	2284.514812
333.581847	2306.118677
333.975006	2321.385811
334.368100	2342.780468
334.761129	2359.204547
335.154095	2373.833976
335.546996	2392.640000
335.939833	2407.939902
336.332606	2422.168559
336.725315	2437.012236
337.117960	2446.366097
337.510540	2455.011676
337.903056	2464.095835
338.295508	2473.109418
338.687896	2483.287508
339.080220	2489.074753
339.472480	2496.268479
339.864676	2497.881648
340.256807	2509.441014
340.648875	2510.789523
341.040879	2511.530573
341.432818	2514.656088
341.824694	2514.245234
342.216506	2514.734226
342.608253	2515.631551
342.999937	2515.676922
343.391557	2511.308762
343.783113	2510.928155
344.174605	2510.376148
344.566033	2510.517301
344.957397	2509.093175
345.348697	2508.679800
345.739934	2506.610406
346.131106	2504.394819
346.522215	2504.508245
346.913260	2501.355003
347.304241	2499.903151
347.695159	2496.495331
348.086012	2496.570948
348.476802	2493.652120
348.867528	2491.570124
349.258191	2489.329331
349.648789	2490.599702
350.039324	2489.455360
350.429796	2488.588281
350.820203	2483.804226
351.210548	2485.034268
351.600828	2485.878661
351.991045	2483.451346
352.381198	2482.097796
352.771288	2481.334061
353.161314	2481.316417
353.551276	2484.799854
353.941175	2480.093937
354.331010	2485.515698
354.720782	2482.027220
355.110490	2483.043012
355.500135	2483.370687
355.889717	2483.262302
356.279235	2484.792293
356.668689	2483.282467
357.058080	2483.821870
357.447408	2484.199957
357.836672	2480.240131
358.225873	2483.164000
358.615010	2485.049391
359.004084	2488.560555
359.393095	2485.858497
359.782043	2489.145329
360.170927	2485.750112
360.559748	2489.054588
360.948505	2490.266986
361.337199	2491.960813
361.725830	2491.381081
362.114398	2493.369816
362.502903	2490.803868
362.891344	2491.539877
363.279722	2492.684219
363.668037	2494.448623
364.056289	2493.962151
364.444478	2492.497696
364.832603	2495.391318
365.220665	2497.914416
365.608665	2496.908706
365.996601	2502.532113
366.384474	2500.561022
366.772284	2498.927688
367.160031	2502.617812
367.547715	2505.924809
367.935336	2507.270798
368.322893	2510.698782
368.710388	2513.496622
369.097820	2519.442663
369.485189	2522.122037
369.872495	2527.185876
370.259738	2531.301978
370.646918	2543.012578
371.034035	2546.889226
371.421090	2559.043448
371.808081	2570.595252
372.195010	2577.526838
372.581875	2591.700042
372.968678	2605.515324
373.355418	2617.881275
373.742096	2633.982720
374.128710	2648.748260
374.515262	2662.750064
374.901751	2676.893022
375.288177	2691.948427
375.674540	2714.484906
376.060841	2733.540467
376.447079	2751.920514
376.833254	2775.508073
377.219367	2783.538631
377.605417	2825.060095
377.991404	2831.842967
378.377329	2854.873479
378.763191	2870.753113
379.148991	2908.947415
379.534727	2933.555808
379.920402	2962.544963
380.306013	2972.760861
380.691563	3024.210878
381.077049	3043.460523
381.462474	3063.826785
381.847835	3100.032352
382.233134	3123.677884
382.618371	3123.776187
383.003545	3194.450643
383.388657	3202.609750
383.773706	3231.044379
384.158693	3247.191194
384.543618	3272.656583
384.928480	3310.891214
385.313280	3355.709593
385.698017	3355.144983
386.082692	3406.022829
386.467305	3414.227307
386.851856	3442.878704
387.236344	3467.734113
387.620770	3500.345338
388.005133	3527.340717
388.389435	3551.404664
388.773674	3560.609811
389.157851	3605.276955
389.541965	3622.396713
389.926018	3586.183585
390.310008	3656.653874
390.693936	3675.785053
391.077802	3718.833987
391.461606	3705.381668
391.845348	3771.415742
392.229027	3770.296606
392.612645	3782.034932
392.996200	3861.584340
393.379694	3900.799476
393.763125	3964.839774
394.146494	3932.074794
394.529801	3994.887571
394.913047	4044.316085
395.296230	4008.889376
395.679351	4064.316862
396.062410	4086.767641
396.445408	4064.841142
396.828343	4100.890434
397.211217	4122.864823
397.594028	4046.186353
397.976778	4110.493832
398.359466	4139.356958
398.742092	4169.147657
399.124656	4087.758228
399.507158	4173.321732
399.889598	4194.708827
400.271977	4257.813991
400.654294	4223.944999
401.036549	4233.699632
401.418742	4206.159808
401.800874	4305.163029
402.182944	4327.550793
402.564952	4392.508581
402.946898	4381.165985
403.328783	4376.117269
403.710606	4288.950678
404.092367	4478.997137
404.474067	4442.829378
404.855705	4452.704999
405.237282	4378.579873
405.618797	4494.428109
406.000250	4520.657232
406.381642	4605.315849
406.762972	4564.006114
407.144240	4580.188218
407.525447	4578.683433
407.906593	4635.439264
408.287677	4681.646480
408.668700	4610.510758
409.049661	4656.806195
409.430560	4699.633317
409.811399	4629.314262
410.192176	4789.433911
410.572891	4726.797575
410.953545	4831.061239
411.334138	4711.848033
411.714669	4778.918064
412.095139	4674.679606
412.475547	4814.178415
412.855894	4797.315755
413.236180	4806.561231
413.616405	4760.742184
413.996568	4846.441799
414.376670	4785.272439
414.756711	4742.677209
415.136691	4776.246253
415.516609	4851.772820
415.896466	4890.448552
416.276262	4926.134880
416.655997	4905.657713
417.035670	5085.548768
417.415283	5178.169887
417.794834	5120.410867
418.174324	5075.544598
418.553753	4981.496832
418.933121	5168.203526
419.312428	5234.996294
419.691674	5177.842212
420.070859	5298.025840
420.449983	5213.294127
420.829045	5324.007947
421.208047	5227.704265
421.586988	5306.520185
421.965867	5315.150640
422.344686	5448.993275
422.723444	5300.622035
423.102141	5120.690651
423.480777	5424.032001
423.859352	5189.567936
424.237866	5447.017142
424.616319	5442.459939
424.994712	5541.427872
425.373044	5425.604841
425.751314	5567.160441
426.129524	5370.139546
426.507673	5569.025668
426.885762	5644.990816
427.263789	5580.252318
427.641756	5461.475172
428.019662	5581.613429
428.397508	5584.179377
428.775292	5534.103075
429.153016	5635.568899
429.530679	5559.094595
429.908282	5640.839425
430.285824	5513.726731
430.663305	5787.040449
431.040726	5525.160068
431.418086	5525.167630
431.795385	5630.089165
432.172624	5643.261700
432.549802	5632.055215
432.926920	5643.841432
433.303977	5657.376931
433.680974	5696.859247
434.057910	5711.579417
434.434786	5714.757864
434.811601	5684.636970
435.188355	5919.574904
435.565050	5791.441376
435.941683	5772.300115
436.318257	5981.545808
436.694770	5963.644671
437.071222	5993.251367
437.447614	5923.033135
437.823946	5836.521894
438.200218	5987.690975
438.576429	5845.749726
438.952580	5942.592812
439.328670	5980.799717
439.704700	5884.732969
440.080670	5864.757397
440.456580	6126.819259
440.832429	6004.437688
441.208218	5848.116548
441.583947	5991.033260
441.959616	5983.103525
442.335224	5912.280354
442.710773	6030.981883
443.086261	6043.841867
443.461689	5839.740671
443.837057	5974.354602
444.212365	6107.793944
444.587612	5995.847562
444.962800	6131.920907
445.337927	6092.191573
445.712995	5706.122368
446.088002	6240.328400
446.462949	6064.003962
446.837837	5977.883410
447.212664	6130.249764
447.587431	6232.585187
447.962139	6703.343257
448.336786	7512.962647
448.711374	7259.012001
449.085901	6405.892495
449.460369	6305.868441
449.834776	6229.104271
450.209124	6536.687752
450.583412	6626.737883
450.957640	6730.225210
451.331808	6497.102091
451.705917	6079.019038
452.079965	5976.323173
452.453954	6123.303054
452.827883	5985.621581
453.201752	6029.920720
453.575562	5828.536707
453.949311	5946.298060
454.323001	5822.152085
454.696632	5848.391291
455.070202	5906.818264
455.443713	5979.584799
455.817164	6010.411455
456.190556	6021.706160
456.563888	6028.277304
456.937160	6009.264593
457.310373	5720.683741
457.683526	5686.678637
458.056619	5561.128701
458.429653	5497.532024
458.802628	5407.091204
459.175542	5430.915697
459.548398	5599.247386
459.921194	5646.054499
460.293930	5588.701292
460.666607	5835.032233
461.039224	5950.164625
461.411782	5957.993537
461.784280	5901.865330
462.156719	5773.000835
462.529099	5636.481348
462.901419	5347.492162
463.273680	5226.585129
463.645882	5177.605278
464.018024	5037.481366
464.390106	5056.317637
464.762130	5173.015307
465.134094	5322.336805
465.505999	5720.066199
465.877845	6186.907292
466.249631	6384.165122
466.621358	6109.873420
466.993026	5741.037399
467.364634	5545.455753
467.736184	5308.612263
468.107674	5104.180872
468.479105	5023.966032
468.850477	4879.645359
469.221790	4721.022933
469.593043	4537.615674
469.964238	4414.465326
470.335373	4357.661605
470.706449	4311.620747
471.077467	4251.096654
471.448425	4548.295358
471.819324	4762.771248
472.190164	4699.802196
472.560945	4311.025891
472.931667	4052.545768
473.302330	3962.770380
473.672934	3831.957479
474.043479	3847.050693
474.413965	3785.478040
474.784393	3704.754044
475.154761	3683.682021
475.525070	3651.950478
475.895321	3577.379210
476.265513	3559.576375
476.635645	3545.405691
477.005719	3497.340810
477.375734	3474.998416
477.745691	3461.956951
478.115588	3433.683640
478.485427	3417.171340
478.855207	3446.641926
479.224928	3503.949763
479.594591	3531.850029
479.964194	3450.218624
480.333739	3392.058833
480.703226	3328.116837
481.072653	3299.220943
481.442022	3284.528500
481.811333	3269.866304
482.180584	3210.199207
482.549777	3148.276194
482.918912	3105.532251
483.287988	3078.183991
483.657005	3048.579815
484.025964	3000.882938
484.394864	2973.043166
484.763706	2949.538786
485.132489	2914.139804
485.501213	2891.804972
485.869879	2873.641694
486.238487	2846.283352
486.607036	2835.744820
486.975527	2811.179278
487.343959	2802.148051
487.712333	2789.197326
488.080648	2774.709050
488.448905	2762.569952
488.817104	2746.617220
489.185244	2743.905080
489.553326	2736.819738
489.921350	2737.800242
490.289315	2753.069897
490.657222	2749.107550
491.025070	2739.269739
491.392861	2728.950497
491.760593	2710.832590
492.128267	2699.230374
492.495883	2687.174455
492.863440	2676.754390
493.230939	2666.387257
493.598380	2660.095897
493.965763	2650.989052
494.333088	2649.254896
494.700354	2640.936992
495.067563	2643.160141
495.434713	2635.903400
495.801805	2635.099336
496.168839	2635.341311
496.535815	2630.363172
496.902733	2630.955507
497.269593	2626.751185
497.636395	2622.453601
498.003139	2623.053498
498.369825	2619.292798
498.736453	2620.595936
499.103023	2617.384721
499.469535	2618.206429
499.835989	2615.670729
500.202385	2614.450769
500.568723	2610.743001
500.935003	2613.445059
501.301226	2608.913062
501.667390	2613.074534
502.033497	2615.658126
502.399546	2610.246447
502.765537	2608.814759
503.131470	2606.911724
503.497345	2608.073710
503.863163	2607.007506
504.228923	2607.572115
504.594625	2608.681169
504.960269	2603.745879
505.325856	2606.826024
505.691385	2603.221599
506.056856	2603.380396
506.422270	2603.743359
506.787625	2599.070209
507.152924	2598.571135
507.518164	2599.029880
507.883347	2598.654314
508.248472	2598.240939
508.613540	2597.562904
508.978550	2597.870414
509.343503	2597.643562
509.708398	2600.779160
510.073236	2601.028697
510.438016	2599.130703
510.802738	2599.748244
511.167403	2595.710280
511.532010	2596.683223
511.896561	2596.403439
512.261053	2601.149685
512.625488	2595.138109
512.989866	2593.129209
513.354186	2594.349168
513.718449	2590.064188
514.082655	2596.595002
514.446803	2597.507451
514.810894	2599.518872
515.174927	2596.894951
515.538904	2596.894951
515.902822	2596.206834
516.266684	2596.988212
516.630488	2595.947214
516.994235	2599.901999
517.357925	2595.168356
517.721558	2596.098449
518.085133	2597.935949
518.448651	2598.150198
518.812112	2595.732965
519.175516	2594.747420
519.538863	2599.286979
519.902152	2596.347986
520.265385	2598.235898
520.628560	2595.627101
520.991678	2595.611977
521.354739	2597.777153
521.717743	2595.243973
522.080690	2592.859508
522.443580	2596.600044
522.806413	2595.919488
523.169189	2597.855291
523.531908	2597.678851
523.894569	2594.107193
524.257174	2598.944180
524.619722	2598.109869
524.982213	2595.685074
525.344647	2595.488469
525.707025	2598.064499
526.069345	2596.204313
526.431608	2596.630291
526.793815	2598.339242
527.155964	2598.006526
527.518057	2596.857142
527.880093	2596.521906
528.242072	2599.102977
528.603995	2599.617174
528.965860	2595.790938
529.327669	2596.451330
529.689421	2595.816144
530.051117	2597.162132
530.412755	2599.418049
530.774337	2597.681371
531.135862	2596.295054
531.497331	2595.296905
531.858743	2590.349013
532.220098	2590.714497
532.581396	2592.330186
532.942638	2591.233735
533.303824	2595.743048
533.664953	2592.655341
534.026025	2593.068715
534.387040	2596.282451
534.747999	2594.941504
535.108902	2597.210023
535.469748	2594.460074
535.830537	2594.558376
536.191270	2592.395721
536.551947	2596.751278
536.912567	2593.043510
537.273131	2593.371185
537.633638	2596.426124
537.994089	2594.772625
538.354483	2593.161977
538.714821	2593.971082
539.075103	2593.829930
539.435328	2593.131730
539.795497	2594.805393
540.155609	2595.412852
540.515665	2594.815475
540.875665	2597.215064
541.235609	2593.877821
541.595496	2595.007039
541.955328	2594.944025
542.315102	2594.066864
542.674821	2595.768253
543.034483	2594.936463
543.394090	2595.228850
543.753640	2595.453181
544.113134	2593.078798
544.472571	2595.440578
544.831953	2597.260435
545.191278	2596.116093
545.550548	2594.563417
545.909761	2595.049889
546.268918	2593.479569
546.628019	2597.202462
546.987064	2595.886720
547.346053	2595.251535
547.704986	2596.010229
548.063863	2594.520568
548.422684	2594.621391
548.781449	2593.366143
549.140158	2594.760022
549.498811	2594.308839
549.857408	2592.672985
550.215949	2593.308170
550.574434	2589.030751
550.932864	2593.580392
551.291237	2593.560228
551.649555	2595.722883
552.007817	2596.539550
552.366022	2597.368820
552.724173	2596.126175
553.082267	2592.239446
553.440305	2599.339911
553.798288	2594.941504
554.156215	2596.300095
554.514086	2594.311360
554.871902	2594.374374
555.229661	2593.862697
555.587365	2596.539550
555.945014	2594.036617
556.302606	2593.456884
556.660143	2595.349837
557.017625	2596.358068
557.375050	2594.631473
557.732421	2599.649942
558.089735	2596.113572
558.446994	2593.174580
558.804197	2592.836822
559.161345	2597.182297
559.518437	2593.973602
559.875474	2593.114086
560.232455	2597.512492
560.589381	2595.417893
560.946251	2596.204313
561.303065	2596.058120
561.659825	2595.433017
562.016528	2597.925867
562.373177	2592.612491
562.729770	2594.664241
563.086307	2597.305805
563.442789	2594.404621
563.799216	2596.859663
564.155587	2594.402101
564.511904	2596.809252
564.868164	2594.134919
565.224370	2595.256576
565.580520	2594.172728
565.936615	2598.364447
566.292654	2593.396390
566.648638	2595.838829
567.004567	2593.114086
567.360441	2595.087697
567.716260	2592.720876
568.072023	2595.012080
568.427732	2590.016297
568.783385	2592.433530
569.138982	2590.182655
569.494525	2593.512337
569.850013	2592.209199
570.205445	2594.724734
570.560823	2593.746751
570.916145	2591.692480
571.271412	2593.519899
571.626625	2592.839343
571.981782	2592.942687
572.336884	2594.233222
572.691931	2593.792121
573.046923	2591.019486
573.401860	2592.655341
573.756743	2591.737851
574.111570	2592.151225
574.466342	2592.778849
574.821059	2589.592840
575.175722	2591.105186
575.530330	2591.160639
575.884882	2593.358582
576.239380	2592.458736
576.593823	2592.367995
576.948211	2590.855649
577.302544	2588.685432
577.656823	2591.100145
578.011047	2591.788262
578.365216	2592.315063
578.719330	2591.644589
579.073389	2588.425813
579.427394	2585.960688
579.781344	2589.529825
580.135239	2589.663416
580.489080	2589.348344
580.842866	2587.132757
581.196597	2592.393201
581.550273	2590.061667
581.903895	2589.315576
582.257463	2588.720720
582.610975	2586.653847
582.964434	2589.371029
583.317837	2588.940010
583.671186	2589.605443
584.024481	2588.609815
584.377721	2587.682242
584.730906	2584.092941
585.084037	2587.157962
585.437113	2586.679053
585.790135	2589.166862
586.143103	2587.311718
586.496016	2588.501430
586.848874	2582.719227
587.201679	2586.618559
587.554428	2579.596232
587.907124	2584.637386
588.259765	2586.041347
588.612352	2587.243662
588.964884	2584.173599
589.317362	2583.361974
589.669786	2586.152252
590.022155	2588.140987
590.374470	2587.866245
590.726731	2586.258117
591.078937	2585.348188
591.431090	2584.758373
591.783188	2588.163673
592.135232	2585.040678
592.487222	2582.691500
592.839157	2583.591346
593.191038	2585.663260
593.542866	2585.101172
593.894639	2585.287694
594.246358	2582.404154
594.598022	2583.954309
594.949633	2584.788620
595.301190	2581.960533
595.652692	2584.234093
596.004141	2582.293249
596.355535	2583.283836
596.706876	2583.112437
597.058162	2582.383990
597.409395	2583.180492
597.760573	2584.014803
598.111698	2582.978846
598.462768	2581.101016
598.813785	2584.287025
599.164748	2580.796026
599.515657	2580.758218
599.866511	2580.833835
600.217312	2582.013465
600.568060	2580.848958
600.918753	2585.963209
601.269392	2583.440112
601.619978	2580.105388
601.970510	2581.839545
602.320988	2582.933476
602.671412	2582.714185
603.021783	2582.593198
603.372100	2582.192426
603.722363	2580.022209
604.072572	2581.945409
604.422728	2585.106213
604.772830	2578.066242
605.122878	2576.006930
605.472872	2579.336612
605.822813	2577.315110
606.172701	2580.160841
606.522534	2582.724268
606.872314	2583.404823
607.222041	2580.052456
607.571714	2582.840214
607.921333	2579.984401
608.270899	2579.739905
608.620411	2583.069587
608.969870	2581.615214
609.319276	2583.508167
609.668627	2584.327355
610.017926	2587.339444
610.367171	2589.441605
610.716362	2589.481934
611.065500	2588.597212
611.414585	2584.609659
611.763616	2585.065884
612.112594	2584.468507
612.461518	2583.964392
612.810389	2584.897005
613.159207	2584.092941
613.507971	2584.473548
613.856682	2584.730647
614.205340	2584.529001
614.553945	2583.540935
614.902496	2582.943558
615.250994	2585.718713
615.599439	2580.669997
615.947830	2581.544638
616.296169	2581.431212
616.644454	2583.235945
616.992686	2581.537076
617.340864	2582.328537
617.688990	2582.550348
618.037063	2582.860379
618.385082	2582.651171
618.733048	2585.393559
619.080961	2582.131932
619.428821	2583.959350
619.776628	2582.235276
620.124382	2583.782910
620.472083	2582.136973
620.819731	2582.893146
621.167326	2583.475400
621.514868	2581.428691
621.862357	2582.872982
622.209793	2579.911304
622.557176	2581.078331
622.904506	2579.054308
623.251783	2574.892835
623.599007	2576.450552
623.946179	2575.054152
624.293297	2574.577763
624.640363	2576.369893
624.987376	2578.943402
625.334336	2578.308217
625.681243	2575.558268
626.028097	2577.733525
626.374899	2576.377455
626.721647	2576.707651
627.068343	2572.432752
627.414987	2574.479461
627.761577	2573.592217
628.108115	2575.190263
628.454600	2573.617423
628.801032	2577.365521
629.147412	2574.277814
629.493739	2576.362332
629.840014	2576.392578
630.186236	2577.110943
630.532405	2574.731518
630.878521	2574.207238
631.224585	2575.520459
631.570597	2571.051476
631.916556	2573.178843
632.262462	2575.233113
632.608316	2574.948288
632.954117	2572.541137
633.299866	2576.256467
633.645562	2571.381672
633.991206	2571.447207
634.336797	2569.516445
634.682336	2570.743966
635.027823	2571.303534
635.373257	2570.580128
635.718639	2567.686506
636.063968	2571.553071
636.409245	2570.587690
636.754470	2568.538461
637.099642	2570.799418
637.444762	2567.807493
637.789829	2567.368913
638.134845	2571.283369
638.479808	2567.613409
638.824719	2571.253122
639.169577	2569.219017
639.514383	2569.047617
639.859137	2567.288255
640.203839	2566.637946
640.548489	2568.898903
640.893086	2564.384550
641.237632	2563.933367
641.582125	2567.237843
641.926566	2561.107800
642.270955	2566.927812
642.615292	2566.746331
642.959576	2566.920250
643.303809	2567.321022
643.647990	2567.205076
643.992118	2568.107442
644.336195	2568.130127
