Dividing Wavelength (nm)	Counts (n)	Blue Motor Position (mm): 0.000000	Red Motor Position (mm): 19.500000	
326.493990	2145.467186
326.888308	2145.467186
327.282561	2145.467186
327.676750	2118.358381
328.070874	2121.975409
328.464933	2124.122941
328.858929	2134.721967
329.252859	2147.574388
329.646726	2160.996460
330.040528	2176.263595
330.434265	2191.946624
330.827938	2213.336240
331.221547	2231.325598
331.615091	2252.342168
332.008571	2271.319592
332.401986	2292.938580
332.795338	2311.525314
333.188625	2334.444920
333.581847	2353.891171
333.975006	2368.734849
334.368100	2391.548590
334.761129	2408.875036
335.154095	2424.593354
335.546996	2442.895263
335.939833	2453.771552
336.332606	2468.196814
336.725315	2478.062352
337.117960	2485.755153
337.510540	2495.658500
337.903056	2503.371465
338.295508	2511.817918
338.687896	2520.665143
339.080220	2525.865093
339.472480	2531.065044
339.864676	2533.262987
340.256807	2540.013092
340.648875	2538.861188
341.040879	2545.172713
341.432818	2543.050387
341.824694	2544.103988
342.216506	2542.213555
342.608253	2543.592311
342.999937	2541.727084
343.391557	2542.823535
343.783113	2542.024512
344.174605	2537.830272
344.566033	2539.365303
344.957397	2537.406815
345.348697	2533.880528
345.739934	2531.387677
346.131106	2533.363810
346.522215	2531.417924
346.913260	2526.142357
347.304241	2526.679240
347.695159	2525.401307
348.086012	2524.171266
348.476802	2520.985257
348.867528	2519.989629
349.258191	2521.713703
349.648789	2518.809999
350.039324	2519.117509
350.429796	2519.276305
350.820203	2514.971160
351.210548	2515.346726
351.600828	2515.649195
351.991045	2510.766838
352.381198	2511.815398
352.771288	2515.082065
353.161314	2513.841942
353.551276	2513.342867
353.941175	2512.962260
354.331010	2513.476458
354.720782	2514.179699
355.110490	2516.395286
355.500135	2512.891684
355.889717	2513.559637
356.279235	2511.591066
356.668689	2514.270440
357.058080	2514.807322
357.447408	2511.631396
357.836672	2513.496623
358.225873	2510.981087
358.615010	2512.349760
359.004084	2517.711027
359.393095	2517.615245
359.782043	2517.521984
360.170927	2517.474093
360.559748	2518.323527
360.948505	2520.579444
361.337199	2522.454753
361.725830	2520.965092
362.114398	2519.946779
362.502903	2520.231604
362.891344	2523.659589
363.279722	2521.065915
363.668037	2523.566327
364.056289	2525.083715
364.444478	2524.030113
364.832603	2523.626821
365.220665	2524.350227
365.608665	2525.358458
365.996601	2524.917357
366.384474	2526.689322
366.772284	2525.890299
367.160031	2525.348375
367.547715	2526.016328
367.935336	2524.725793
368.322893	2526.732172
368.710388	2524.277130
369.097820	2531.922040
369.485189	2528.448685
369.872495	2528.158818
370.259738	2531.662420
370.646918	2524.446009
371.034035	2527.876514
371.421090	2529.769467
371.808081	2528.582275
372.195010	2530.218130
372.581875	2531.296937
372.968678	2532.282482
373.355418	2534.772812
373.742096	2532.688295
374.128710	2534.276259
374.515262	2536.713657
374.901751	2537.263142
375.288177	2540.638195
375.674540	2539.922351
376.060841	2540.371014
376.447079	2543.267157
376.833254	2542.125335
377.219367	2542.203473
377.605417	2545.155069
377.991404	2546.753114
378.377329	2549.286294
378.763191	2554.455998
379.148991	2560.165104
379.534727	2563.134344
379.920402	2566.832030
380.306013	2570.638101
380.691563	2576.571539
381.077049	2579.674370
381.462474	2584.750812
381.847835	2587.510843
382.233134	2595.811103
382.618371	2598.939139
383.003545	2605.409460
383.388657	2612.540172
383.773706	2616.605863
384.158693	2622.274640
384.543618	2629.135651
384.928480	2634.534726
385.313280	2644.342291
385.698017	2651.588950
386.082692	2662.553459
386.467305	2664.950528
386.851856	2676.222548
387.236344	2687.484486
387.620770	2691.555217
388.005133	2702.411342
388.389435	2711.218238
388.773674	2717.597818
389.157851	2727.780949
389.541965	2736.224882
389.926018	2738.957187
390.310008	2753.926893
390.693936	2762.199427
391.077802	2770.534975
391.461606	2781.242386
391.845348	2793.295784
392.229027	2799.088070
392.612645	2815.285297
392.996200	2820.676812
393.379694	2837.446210
393.763125	2850.795185
394.146494	2861.747092
394.529801	2871.113556
394.913047	2888.077038
395.296230	2890.781618
395.679351	2890.610218
396.062410	2913.164341
396.445408	2909.138979
396.828343	2924.433840
397.211217	2930.730241
397.594028	2925.167328
397.976778	2936.414142
398.359466	2952.271092
398.742092	2947.691203
399.124656	2964.160653
399.507158	2978.716985
399.889598	2982.671770
400.271977	2995.501506
400.654294	3005.440141
401.036549	3019.383973
401.418742	3022.577544
401.800874	3044.478837
402.182944	3050.674415
402.564952	3081.213725
402.946898	3071.552353
403.328783	3080.913776
403.710606	3095.044130
404.092367	3117.578088
404.474067	3144.160092
404.855705	3134.612147
405.237282	3137.238588
405.618797	3167.919050
406.000250	3188.073583
406.381642	3220.473079
406.762972	3222.129098
407.144240	3213.554095
407.525447	3236.209041
407.906593	3235.639390
408.287677	3256.413985
408.668700	3275.393930
409.049661	3274.698250
409.430560	3288.987401
409.811399	3294.076446
410.192176	3312.799291
410.572891	3319.322544
410.953545	3357.859645
411.334138	3327.174141
411.714669	3381.215311
412.095139	3326.654903
412.475547	3375.677603
412.855894	3368.095708
413.236180	3395.428844
413.616405	3377.719270
413.996568	3402.945204
414.376670	3402.456212
414.756711	3396.396745
415.136691	3425.033020
415.516609	3445.374076
415.896466	3451.877164
416.276262	3481.365393
416.655997	3507.498735
417.035670	3511.577028
417.415283	3581.517997
417.794834	3599.361161
418.174324	3584.945982
418.553753	3580.605548
418.933121	3619.702217
419.312428	3608.218468
419.691674	3604.351903
420.070859	3641.545536
420.449983	3620.733133
420.829045	3664.376922
421.208047	3648.356135
421.586988	3689.113864
421.965867	3716.822566
422.344686	3725.952096
422.723444	3756.078031
423.102141	3656.611025
423.480777	3754.280860
423.859352	3720.600911
424.237866	3806.119045
424.616319	3788.691776
424.994712	3841.089529
425.373044	3818.616065
425.751314	3874.817369
426.129524	3802.756595
426.507673	3891.044843
426.885762	3857.334647
427.263789	3868.939383
427.641756	3863.472252
428.019662	3882.008575
428.397508	3873.673027
428.775292	3891.349833
429.153016	3886.835480
429.530679	3888.126015
429.908282	3880.501270
430.285824	3853.626879
430.663305	3899.234197
431.040726	3849.467927
431.418086	3830.056964
431.795385	3871.649004
432.172624	3886.081827
432.549802	3839.315043
432.926920	3836.796987
433.303977	3816.627330
433.680974	3832.678364
434.057910	3831.279444
434.434786	3815.961898
434.811601	3789.155562
435.188355	3850.307279
435.565050	3803.981596
435.941683	3786.962660
436.318257	3819.412568
436.694770	3800.888848
437.071222	3815.971980
437.447614	3749.849686
437.823946	3730.665575
438.200218	3717.246023
438.576429	3684.440714
438.952580	3675.059127
439.328670	3656.026251
439.704700	3655.403668
440.080670	3608.594034
440.456580	3614.164509
440.832429	3608.117645
441.208218	3532.646531
441.583947	3537.692726
441.959616	3519.201774
442.335224	3507.067716
442.710773	3487.162720
443.086261	3486.681290
443.461689	3437.535081
443.837057	3418.560178
444.212365	3423.109820
444.587612	3398.975296
444.962800	3362.184955
445.337927	3348.820856
445.712995	3279.799898
446.088002	3323.153821
446.462949	3306.613795
446.837837	3283.671504
447.212664	3250.362080
447.587431	3294.857825
447.962139	3351.046525
448.336786	3418.545055
448.711374	3383.209087
449.085901	3267.398660
449.460369	3213.990155
449.834776	3174.850637
450.209124	3198.581868
450.583412	3174.515400
450.957640	3175.722756
451.331808	3123.433388
451.705917	3068.595717
452.079965	3042.444731
452.453954	3022.814478
452.827883	2995.594768
453.201752	2974.447127
453.575562	2958.146556
453.949311	2958.358285
454.323001	2936.842640
454.696632	2915.488313
455.070202	2916.826739
455.443713	2903.661766
455.817164	2890.537122
456.190556	2881.392468
456.563888	2859.710466
456.937160	2848.544310
457.310373	2821.150680
457.683526	2808.220120
458.056619	2793.326031
458.429653	2778.003444
458.802628	2768.241250
459.175542	2758.579878
459.548398	2755.156935
459.921194	2753.321955
460.293930	2745.558578
460.666607	2750.471182
461.039224	2753.221132
461.411782	2746.160996
461.784280	2730.924108
462.156719	2719.407592
462.529099	2704.001826
462.901419	2690.952800
463.273680	2680.580626
463.645882	2669.003616
464.018024	2662.170332
464.390106	2659.188489
464.762130	2660.844508
465.134094	2664.617812
465.505999	2676.051149
465.877845	2686.289732
466.249631	2686.549352
466.621358	2676.167095
466.993026	2667.614778
467.364634	2656.584733
467.736184	2644.634678
468.107674	2638.451703
468.479105	2632.636732
468.850477	2631.081536
469.221790	2626.078191
469.593043	2619.950668
469.964238	2617.974536
470.335373	2616.265585
470.706449	2615.970677
471.077467	2615.637961
471.448425	2618.380349
471.819324	2623.388735
472.190164	2622.284722
472.560945	2617.349433
472.931667	2611.859616
473.302330	2607.922475
473.672934	2607.093205
474.043479	2607.846858
474.413965	2603.511466
474.784393	2599.208841
475.154761	2600.869901
475.525070	2602.757813
475.895321	2600.191866
476.265513	2599.239088
476.635645	2602.462906
477.005719	2605.452310
477.375734	2602.498194
477.745691	2604.499532
478.115588	2604.638163
478.485427	2603.818976
478.855207	2609.147476
479.224928	2610.639657
479.594591	2613.351798
479.964194	2612.520007
480.333739	2612.343567
480.703226	2610.478340
481.072653	2611.781478
481.442022	2611.640326
481.811333	2611.481530
482.180584	2612.814915
482.549777	2612.930862
482.918912	2610.067486
483.287988	2610.304420
483.657005	2609.379369
484.025964	2607.556992
484.394864	2610.029678
484.763706	2609.182764
485.132489	2610.669904
485.501213	2607.625047
485.869879	2605.822835
486.238487	2605.018771
486.607036	2605.510283
486.975527	2607.168823
487.343959	2606.581528
487.712333	2607.163782
488.080648	2606.478185
488.448905	2607.511621
488.817104	2606.931888
489.185244	2607.998092
489.553326	2607.892228
489.921350	2613.031685
490.289315	2612.472117
490.657222	2615.930348
491.025070	2614.803650
491.392861	2615.194340
491.760593	2615.474124
492.128267	2612.078907
492.495883	2610.327106
492.863440	2608.343412
493.230939	2606.208483
493.598380	2605.162443
493.965763	2601.061465
494.333088	2601.396702
494.700354	2604.257556
495.067563	2602.349480
495.434713	2597.756988
495.801805	2602.278903
496.168839	2600.932915
496.535815	2601.132041
496.902733	2600.731269
497.269593	2602.750251
497.636395	2601.177411
498.003139	2600.091043
498.369825	2599.468460
498.736453	2599.912082
499.103023	2597.441916
499.469535	2600.867380
499.835989	2598.021649
500.202385	2599.171032
500.568723	2599.705394
500.935003	2596.983171
501.301226	2599.196238
501.667390	2598.399736
502.033497	2600.517020
502.399546	2601.066506
502.765537	2597.562904
503.131470	2601.515169
503.497345	2598.281268
503.863163	2601.878132
504.228923	2599.561722
504.594625	2600.088522
504.960269	2599.420569
505.325856	2600.572473
505.691385	2597.489807
506.056856	2598.321598
506.422270	2599.062647
506.787625	2597.147009
507.152924	2599.564242
507.518164	2599.987699
507.883347	2596.733634
508.248472	2600.590117
508.613540	2599.155909
508.978550	2597.545260
509.343503	2598.089705
509.708398	2598.871083
510.073236	2596.148860
510.438016	2601.311002
510.802738	2598.341762
511.167403	2601.467278
511.532010	2599.423090
511.896561	2600.146495
512.261053	2599.700353
512.625488	2598.011567
512.989866	2594.185331
513.354186	2597.643562
513.718449	2595.556525
514.082655	2596.375712
514.446803	2598.692122
514.810894	2599.087853
515.174927	2601.837803
515.538904	2602.951897
515.902822	2600.287648
516.266684	2599.564242
516.630488	2597.726742
516.994235	2599.798656
517.357925	2600.529623
517.721558	2602.578852
518.085133	2602.092381
518.448651	2601.618512
518.812112	2599.057606
519.175516	2597.338573
519.538863	2600.280086
519.902152	2599.793615
520.265385	2598.918974
520.628560	2601.769747
520.991678	2599.675147
521.354739	2599.838985
521.717743	2598.498038
522.080690	2601.101794
522.443580	2601.497525
522.806413	2600.416197
523.169189	2601.308481
523.531908	2600.383430
523.894569	2597.545260
524.257174	2599.506269
524.619722	2598.102307
524.982213	2601.225302
525.344647	2599.292020
525.707025	2599.523913
526.069345	2600.605240
526.431608	2599.975096
526.793815	2600.305292
527.155964	2600.645570
527.518057	2599.090374
527.880093	2600.872422
528.242072	2598.495517
528.603995	2600.471650
528.965860	2598.848398
529.327669	2601.202617
529.689421	2598.417380
530.051117	2599.405446
530.412755	2595.629622
530.774337	2598.339242
531.135862	2602.077257
531.497331	2596.542070
531.858743	2596.887389
532.220098	2598.445106
532.581396	2597.033583
532.942638	2596.506782
533.303824	2598.117431
533.664953	2598.240939
534.026025	2595.377564
534.387040	2598.979468
534.747999	2598.135075
535.108902	2595.922008
535.469748	2596.025352
535.830537	2599.987699
536.191270	2597.275558
536.551947	2598.251022
536.912567	2598.450147
537.273131	2597.928388
537.633638	2596.675661
537.994089	2597.527616
538.354483	2595.919488
538.714821	2596.055599
539.075103	2596.910075
539.435328	2595.695157
539.795497	2597.046186
540.155609	2596.458891
540.515665	2597.225147
540.875665	2597.915785
541.235609	2597.620877
541.595496	2596.912595
541.955328	2597.928388
542.315102	2597.726742
542.674821	2598.306474
543.034483	2599.153388
543.394090	2597.797318
543.753640	2596.781525
544.113134	2596.574838
544.472571	2596.877307
544.831953	2598.598861
545.191278	2598.974427
545.550548	2596.942842
545.909761	2595.322111
546.268918	2597.794797
546.628019	2598.437544
546.987064	2599.498707
547.346053	2597.225147
547.704986	2597.598192
548.063863	2596.640373
548.422684	2596.353027
548.781449	2598.929057
549.140158	2595.042327
549.498811	2596.325301
549.857408	2597.643563
550.215949	2593.814806
550.574434	2595.611977
550.932864	2594.389498
551.291237	2593.819847
551.649555	2595.995105
552.007817	2594.064343
552.366022	2597.557863
552.724173	2599.932246
553.082267	2594.838160
553.440305	2599.465940
553.798288	2596.521906
554.156215	2596.698346
554.514086	2595.692636
554.871902	2595.012080
555.229661	2596.809252
555.587365	2595.748089
555.945014	2598.790425
556.302606	2596.385795
556.660143	2598.155240
557.017625	2595.846391
557.375050	2597.567945
557.732421	2598.361927
558.089735	2596.332862
558.446994	2599.554160
558.804197	2597.608274
559.161345	2596.587441
559.518437	2598.820672
559.875474	2598.122472
560.232455	2595.838829
560.589381	2598.871083
560.946251	2600.552308
561.303065	2598.046855
561.659825	2597.804879
562.016528	2597.454519
562.373177	2595.526278
562.729770	2597.194900
563.086307	2597.595672
563.442789	2597.555342
563.799216	2597.502410
564.155587	2596.083325
564.511904	2597.729262
564.868164	2596.234560
565.224370	2599.135744
565.580520	2602.208327
565.936615	2596.075764
566.292654	2597.888058
566.648638	2597.840167
567.004567	2598.485435
567.360441	2598.460229
567.716260	2597.756988
568.072023	2596.358068
568.427732	2594.303798
568.783385	2594.908737
569.138982	2596.562235
569.494525	2597.220106
569.850013	2592.476380
570.205445	2595.508634
570.560823	2596.108531
570.916145	2595.271700
571.271412	2597.179776
571.626625	2595.851432
571.981782	2594.858325
572.336884	2597.346134
572.691931	2595.143150
573.046923	2594.195413
573.401860	2596.393356
573.756743	2596.801690
574.111570	2596.847060
574.466342	2594.911257
574.821059	2597.731783
575.175722	2597.058789
575.530330	2595.450661
575.884882	2596.078284
576.239380	2594.891092
576.593823	2598.997112
576.948211	2597.341093
577.302544	2596.131216
577.656823	2594.528129
578.011047	2596.980651
578.365216	2595.788418
578.719330	2595.571648
579.073389	2595.617019
579.427394	2594.202975
579.781344	2595.755650
580.135239	2595.911926
580.489080	2594.749940
580.842866	2595.848912
581.196597	2596.063161
581.550273	2595.377564
581.903895	2592.514188
582.257463	2593.840012
582.610975	2593.666092
582.964434	2595.080136
583.317837	2594.621391
583.671186	2595.780856
584.024481	2592.867069
584.377721	2594.896134
584.730906	2594.155084
585.084037	2596.562235
585.437113	2595.092739
585.790135	2597.189859
586.143103	2591.853797
586.496016	2592.287337
586.848874	2590.439754
587.201679	2593.741709
587.554428	2589.779362
587.907124	2591.195927
588.259765	2589.970926
588.612352	2594.356730
588.964884	2593.557707
589.317362	2596.221957
589.669786	2595.097780
590.022155	2594.076946
590.374470	2593.943356
590.726731	2597.202462
591.078937	2591.218612
591.431090	2593.328335
591.783188	2593.945876
592.135232	2592.551997
592.487222	2592.809096
592.839157	2592.499065
593.191038	2592.221802
593.542866	2594.056782
593.894639	2590.926225
594.246358	2591.710124
594.598022	2592.035279
594.949633	2592.456215
595.301190	2592.597367
595.652692	2590.976637
596.004141	2592.846905
596.355535	2591.027048
596.706876	2594.770105
597.058162	2591.415217
597.409395	2591.047213
597.760573	2590.482603
598.111698	2590.598550
598.462768	2592.320104
598.813785	2589.146698
599.164748	2590.603591
599.515657	2592.947728
599.866511	2589.814651
600.217312	2591.405135
600.568060	2588.723241
600.918753	2592.471339
601.269392	2590.046544
601.619978	2591.334558
601.970510	2591.523602
602.320988	2591.218612
602.671412	2592.884713
603.021783	2589.887747
603.372100	2590.134764
603.722363	2590.197778
604.072572	2592.244487
604.422728	2592.108376
604.772830	2587.664598
605.122878	2588.274578
605.472872	2587.893971
605.822813	2587.972109
606.172701	2587.415061
606.522534	2589.489496
606.872314	2588.819023
607.222041	2590.419589
607.571714	2593.025866
607.921333	2589.136615
608.270899	2589.670978
608.620411	2593.391349
608.969870	2592.647779
609.319276	2592.615012
609.668627	2591.354723
610.017926	2590.283478
610.367171	2590.359095
610.716362	2591.120309
611.065500	2591.006883
611.414585	2592.221802
611.763616	2591.765577
612.112594	2589.920515
612.461518	2591.074939
612.810389	2593.167018
613.159207	2594.066864
613.507971	2590.659044
613.856682	2591.795824
614.205340	2587.354568
614.553945	2590.260793
614.902496	2591.213571
615.250994	2591.241297
615.599439	2590.346492
615.947830	2590.863211
616.296169	2588.221646
616.644454	2593.393870
616.992686	2590.885896
617.340864	2592.357913
617.688990	2592.947728
618.037063	2590.439754
618.385082	2592.667944
618.733048	2592.778849
619.080961	2592.315063
619.428821	2592.191555
619.776628	2592.254569
620.124382	2591.548807
620.472083	2592.549477
620.819731	2592.042841
621.167326	2591.997470
621.514868	2591.092583
621.862357	2591.271544
622.209793	2591.475711
622.557176	2593.111565
622.904506	2588.768611
623.251783	2585.950606
623.599007	2585.217118
623.946179	2587.851121
624.293297	2587.485638
624.640363	2588.821543
624.987376	2590.817840
625.334336	2589.880186
625.681243	2590.212902
626.028097	2587.954465
626.374899	2591.614342
626.721647	2588.198961
627.068343	2593.066195
627.414987	2591.299270
627.761577	2588.824064
628.108115	2587.341965
628.454600	2589.187027
628.801032	2587.604105
629.147412	2590.099476
629.493739	2590.608632
629.840014	2589.118971
630.186236	2588.110741
630.532405	2588.181317
630.878521	2586.777355
631.224585	2591.722727
631.570597	2587.382294
631.916556	2588.423292
632.262462	2588.536718
632.608316	2591.175762
632.954117	2588.561924
633.299866	2587.200812
633.645562	2586.464804
633.991206	2589.081163
634.336797	2588.483786
634.682336	2589.595360
635.027823	2585.842221
635.373257	2587.251224
635.718639	2586.689135
636.063968	2587.352047
636.409245	2588.597212
636.754470	2587.614187
637.099642	2587.967068
637.444762	2588.130905
637.789829	2587.410020
638.134845	2586.139649
638.479808	2587.152921
638.824719	2585.428847
639.169577	2583.649319
639.514383	2587.102510
639.859137	2586.232911
640.203839	2586.195102
640.548489	2586.260637
640.893086	2581.741243
641.237632	2581.355594
641.582125	2580.722930
641.926566	2582.172261
642.270955	2586.631162
642.615292	2585.393559
642.959576	2584.440781
643.303809	2581.975656
643.647990	2585.217118
643.992118	2584.740729
644.336195	2584.602097
