Dividing Wavelength (nm)	Counts (n)	Blue Motor Position (mm): 0.000000	Red Motor Position (mm): 7.700000	
326.493990	2126.348610
326.888308	2126.348610
327.282561	2126.348610
327.676750	2094.417942
328.070874	2095.002715
328.464933	2095.373240
328.858929	2102.236771
329.252859	2111.083996
329.646726	2122.857611
330.040528	2134.958901
330.434265	2156.008239
330.827938	2171.739159
331.221547	2188.989988
331.615091	2206.994469
332.008571	2226.949876
332.401986	2248.246231
332.795338	2267.841196
333.188625	2284.683691
333.581847	2303.401495
333.975006	2324.871769
334.368100	2339.652432
334.761129	2360.366533
335.154095	2374.766589
335.546996	2390.512633
335.939833	2406.972001
336.332606	2420.096645
336.725315	2433.866556
337.117960	2443.180088
337.510540	2456.619804
337.903056	2463.879066
338.295508	2471.244192
338.687896	2478.916828
339.080220	2487.242293
339.472480	2493.785711
339.864676	2495.945845
340.256807	2503.981445
340.648875	2503.764675
341.040879	2508.243740
341.432818	2507.671569
341.824694	2511.596107
342.216506	2512.843793
342.608253	2516.302025
342.999937	2510.096364
343.391557	2510.177023
343.783113	2510.542506
344.174605	2507.081754
344.566033	2507.848010
344.957397	2505.120745
345.348697	2504.097391
345.739934	2504.629233
346.131106	2500.755106
346.522215	2502.128821
346.913260	2496.938953
347.304241	2497.841319
347.695159	2492.868221
348.086012	2490.831595
348.476802	2491.040803
348.867528	2491.557521
349.258191	2485.538383
349.648789	2485.382108
350.039324	2484.068887
350.429796	2486.062663
350.820203	2479.438587
351.210548	2483.348002
351.600828	2480.119143
351.991045	2481.805409
352.381198	2480.426653
352.771288	2479.899853
353.161314	2477.061683
353.551276	2479.120994
353.941175	2479.420943
354.331010	2479.494040
354.720782	2475.080510
355.110490	2478.233751
355.500135	2480.466982
355.889717	2479.007568
356.279235	2478.977322
356.668689	2478.294245
357.058080	2478.241313
357.447408	2478.508494
357.836672	2477.112095
358.225873	2478.551344
358.615010	2475.713174
359.004084	2481.739874
359.393095	2479.698207
359.782043	2483.342961
360.170927	2479.824235
360.559748	2483.920173
360.948505	2483.824391
361.337199	2487.524598
361.725830	2482.480923
362.114398	2486.791110
362.502903	2486.004690
362.891344	2484.736840
363.279722	2486.203816
363.668037	2486.602067
364.056289	2488.570637
364.444478	2490.713128
364.832603	2486.899495
365.220665	2491.993581
365.608665	2490.052737
365.996601	2490.481235
366.384474	2490.246821
366.772284	2493.014414
367.160031	2496.780156
367.547715	2496.555825
367.935336	2498.973058
368.322893	2500.480363
368.710388	2503.890704
369.097820	2510.028309
369.485189	2514.444359
369.872495	2521.794362
370.259738	2529.008253
370.646918	2533.141999
371.034035	2541.853113
371.421090	2549.918959
371.808081	2560.318859
372.195010	2569.196331
372.581875	2581.446335
372.968678	2592.410845
373.355418	2603.196393
373.742096	2618.783641
374.128710	2632.147740
374.515262	2645.050573
374.901751	2658.702018
375.288177	2666.777946
375.674540	2685.894002
376.060841	2699.384129
376.447079	2712.428115
376.833254	2722.142418
377.219367	2728.343038
377.605417	2755.867738
377.991404	2755.877820
378.377329	2767.716970
378.763191	2769.035232
379.148991	2793.923408
379.534727	2800.996147
379.920402	2811.995945
380.306013	2810.806232
380.691563	2832.780622
381.077049	2834.529902
381.462474	2835.643997
381.847835	2843.495594
382.233134	2843.495594
382.618371	2830.645693
383.003545	2850.921214
383.388657	2841.020388
383.773706	2838.862774
384.158693	2834.035869
384.543618	2824.840805
384.928480	2825.912050
385.313280	2827.691577
385.698017	2808.242806
386.082692	2810.907055
386.467305	2791.513737
386.851856	2783.233641
387.236344	2774.716612
387.620770	2763.147164
388.005133	2750.743405
388.389435	2741.344173
388.773674	2724.758777
389.157851	2719.460525
389.541965	2701.962680
389.926018	2681.404854
390.310008	2678.785975
390.693936	2664.756444
391.077802	2655.999959
391.461606	2641.378093
391.845348	2633.786115
392.229027	2624.308746
392.612645	2608.345932
392.996200	2608.955912
393.379694	2598.422421
393.763125	2593.782039
394.146494	2578.451890
394.529801	2576.843762
394.913047	2565.314643
395.296230	2558.945145
395.679351	2551.252344
396.062410	2548.318393
396.445408	2541.386806
396.828343	2537.817669
397.211217	2529.126720
397.594028	2526.704446
397.976778	2519.281347
398.359466	2523.278982
398.742092	2517.176665
399.124656	2519.344361
399.507158	2517.761439
399.889598	2517.443846
400.271977	2518.038702
400.654294	2516.400327
401.036549	2515.129956
401.418742	2514.988804
401.800874	2513.075686
402.182944	2517.259844
402.564952	2513.166427
402.946898	2513.582322
403.328783	2513.055522
403.710606	2515.427384
404.092367	2514.499812
404.474067	2512.432939
404.855705	2513.902435
405.237282	2517.143897
405.618797	2515.692045
406.000250	2517.116171
406.381642	2514.255316
406.762972	2514.189781
407.144240	2516.150790
407.525447	2516.092817
407.906593	2513.526869
408.287677	2517.063239
408.668700	2515.455111
409.049661	2513.831859
409.430560	2513.136180
409.811399	2516.367560
410.192176	2515.966788
410.572891	2515.059380
410.953545	2516.032323
411.334138	2514.691376
411.714669	2516.967457
412.095139	2515.865965
412.475547	2517.516943
412.855894	2514.953516
413.236180	2517.534587
413.616405	2517.423681
413.996568	2515.941582
414.376670	2518.250431
414.756711	2515.213135
415.136691	2517.900070
415.516609	2517.464011
415.896466	2518.310924
416.276262	2520.594567
416.655997	2518.822602
417.035670	2516.092817
417.415283	2518.154649
417.794834	2513.700789
418.174324	2517.264885
418.553753	2517.942920
418.933121	2518.159690
419.312428	2517.282529
419.691674	2519.795544
420.070859	2520.029958
420.449983	2519.120030
420.829045	2522.308559
421.208047	2520.539114
421.586988	2521.217150
421.965867	2519.001563
422.344686	2520.355112
422.723444	2517.683301
423.102141	2520.271933
423.480777	2519.833353
423.859352	2519.503157
424.237866	2522.086749
424.616319	2521.073477
424.994712	2522.116996
425.373044	2520.445853
425.751314	2519.528363
426.129524	2521.998528
426.507673	2523.180679
426.885762	2521.096162
427.263789	2522.006090
427.641756	2522.802592
428.019662	2521.088600
428.397508	2521.005421
428.775292	2521.915349
429.153016	2519.787982
429.530679	2523.783097
429.908282	2523.646986
430.285824	2523.258817
430.663305	2522.429547
431.040726	2524.317459
431.418086	2520.284536
431.795385	2525.560104
432.172624	2522.129598
432.549802	2520.188754
432.926920	2523.611698
433.303977	2527.072450
433.680974	2522.187572
434.057910	2523.962058
434.434786	2523.599095
434.811601	2524.435926
435.188355	2522.487520
435.565050	2527.873993
435.941683	2523.510875
436.318257	2523.553724
436.694770	2519.364526
437.071222	2523.425175
437.447614	2522.976512
437.823946	2519.437622
438.200218	2522.293436
438.576429	2524.738396
438.952580	2525.353416
439.328670	2522.043899
439.704700	2524.367871
440.080670	2524.927439
440.456580	2527.236287
440.832429	2525.451719
441.208218	2524.118334
441.583947	2525.721421
441.959616	2526.331400
442.335224	2525.358457
442.710773	2528.521782
443.086261	2526.747295
443.461689	2525.464322
443.837057	2526.449867
444.212365	2522.721934
444.587612	2527.057326
444.962800	2523.878879
445.337927	2527.458098
445.712995	2525.131606
446.088002	2529.104035
446.462949	2525.736544
446.837837	2527.072450
447.212664	2525.993643
447.587431	2527.737882
447.962139	2529.804755
448.336786	2530.576052
448.711374	2531.576721
449.085901	2527.700073
449.460369	2528.700743
449.834776	2529.356092
450.209124	2529.472039
450.583412	2528.678057
450.957640	2527.223684
451.331808	2529.083870
451.705917	2527.750485
452.079965	2527.463139
452.453954	2530.157636
452.827883	2527.901720
453.201752	2528.657893
453.575562	2528.730989
453.949311	2528.955321
454.323001	2530.051772
454.696632	2528.030269
455.070202	2529.419107
455.443713	2526.873324
455.817164	2527.800897
456.190556	2526.832995
456.563888	2527.528674
456.937160	2523.221008
457.310373	2527.626977
457.683526	2529.766947
458.056619	2533.192411
458.429653	2529.976154
458.802628	2529.426669
459.175542	2527.911802
459.548398	2531.183511
459.921194	2528.899868
460.293930	2532.995806
460.666607	2532.927750
461.039224	2532.035466
461.411782	2529.530012
461.784280	2533.467153
462.156719	2530.951618
462.529099	2531.170908
462.901419	2531.591844
463.273680	2532.136289
463.645882	2536.267514
464.018024	2531.735517
464.390106	2530.392050
464.762130	2531.450692
465.134094	2531.947246
465.505999	2535.319778
465.877845	2534.243491
466.249631	2534.707277
466.621358	2531.637215
466.993026	2540.446631
467.364634	2539.125849
467.736184	2531.155784
468.107674	2535.324819
468.479105	2533.540250
468.850477	2535.307175
469.221790	2533.956145
469.593043	2532.249715
469.964238	2531.208717
470.335373	2535.745755
470.706449	2531.644776
471.077467	2532.171577
471.448425	2530.986906
471.819324	2535.937319
472.190164	2532.642925
472.560945	2530.684437
472.931667	2531.720394
473.302330	2533.517565
473.672934	2534.770292
474.043479	2532.806762
474.413965	2534.447658
474.784393	2530.293747
475.154761	2530.384488
475.525070	2531.191073
475.895321	2533.757020
476.265513	2528.224353
476.635645	2532.842050
477.005719	2534.271217
477.375734	2532.642925
477.745691	2536.012936
478.115588	2533.618388
478.485427	2532.065713
478.855207	2536.315405
479.224928	2535.957483
479.594591	2535.246681
479.964194	2535.995292
480.333739	2536.801877
480.703226	2535.907072
481.072653	2535.460930
481.442022	2536.877494
481.811333	2539.382947
482.180584	2532.804242
482.549777	2535.793646
482.918912	2535.735673
483.287988	2537.285828
483.657005	2536.748945
484.025964	2535.397915
484.394864	2535.985210
484.763706	2534.850950
485.132489	2538.377237
485.501213	2537.593338
485.869879	2533.915816
486.238487	2537.280786
486.607036	2536.101156
486.975527	2538.498225
487.343959	2535.594520
487.712333	2536.663245
488.080648	2534.850950
488.448905	2533.651156
488.817104	2536.829603
489.185244	2536.144006
489.553326	2537.071578
489.921350	2536.680889
490.289315	2536.295241
490.657222	2538.246167
491.025070	2540.053421
491.392861	2538.246167
491.760593	2536.403626
492.128267	2538.775488
492.495883	2535.402957
492.863440	2536.272556
493.230939	2537.288348
493.598380	2538.770447
493.965763	2531.962369
494.333088	2532.980682
494.700354	2533.058820
495.067563	2535.498738
495.434713	2534.689633
495.801805	2537.638708
496.168839	2537.497556
496.535815	2536.610313
496.902733	2537.711805
497.269593	2539.559388
497.636395	2536.504449
498.003139	2536.282638
498.369825	2538.150385
498.736453	2538.578883
499.103023	2536.128883
499.469535	2536.512010
499.835989	2534.719880
500.202385	2537.290869
500.568723	2537.253060
500.935003	2539.178781
501.301226	2538.079809
501.667390	2538.019315
502.033497	2540.862526
502.399546	2539.786240
502.765537	2537.711805
503.131470	2538.788091
503.497345	2536.900179
503.863163	2541.197763
504.228923	2536.247350
504.594625	2536.980838
504.960269	2539.766075
505.325856	2540.015612
505.691385	2537.752134
506.056856	2539.957639
506.422270	2537.230375
506.787625	2539.947557
507.152924	2535.148378
507.518164	2539.990407
507.883347	2537.724408
508.248472	2538.304141
508.613540	2540.781868
508.978550	2539.690458
509.343503	2539.156096
509.708398	2537.928575
510.073236	2540.444110
510.438016	2541.636343
510.802738	2538.972093
511.167403	2539.292207
511.532010	2537.553009
511.896561	2539.740869
512.261053	2539.718184
512.625488	2535.917154
512.989866	2532.171577
513.354186	2539.498894
513.718449	2535.786084
514.082655	2537.716846
514.446803	2537.134593
514.810894	2539.362783
515.174927	2538.528472
515.538904	2538.778009
515.902822	2537.202648
516.266684	2539.793802
516.630488	2539.824048
516.994235	2540.217258
517.357925	2540.267670
517.721558	2538.125180
518.085133	2539.196425
518.448651	2539.410674
518.812112	2539.037628
519.175516	2541.026364
519.538863	2540.393699
519.902152	2537.709284
520.265385	2541.888401
520.628560	2541.843031
520.991678	2540.234902
521.354739	2540.975952
521.717743	2538.583925
522.080690	2541.084337
522.443580	2540.252547
522.806413	2541.908566
523.169189	2537.701723
523.531908	2541.981662
523.894569	2540.365972
524.257174	2540.197094
524.619722	2540.880170
524.982213	2539.314892
525.344647	2536.537216
525.707025	2539.425797
526.069345	2540.481919
526.431608	2542.445448
526.793815	2540.247505
527.155964	2540.791950
527.518057	2539.914789
527.880093	2541.142310
528.242072	2540.388658
528.603995	2543.506611
528.965860	2542.551313
529.327669	2540.343287
529.689421	2541.409491
530.051117	2540.940664
530.412755	2539.372865
530.774337	2541.323792
531.135862	2542.188350
531.497331	2536.784233
531.858743	2535.604603
532.220098	2537.394212
532.581396	2536.706095
532.942638	2539.176260
533.303824	2538.427649
533.664953	2540.295396
534.026025	2540.250026
534.387040	2541.805222
534.747999	2543.705737
535.108902	2541.530479
535.469748	2540.670962
535.830537	2542.962167
536.191270	2543.635161
536.551947	2539.811446
536.912567	2539.554347
537.273131	2543.342774
537.633638	2541.099460
537.994089	2541.394368
538.354483	2538.198276
538.714821	2540.035777
539.075103	2542.906714
539.435328	2543.093237
539.795497	2542.533669
540.155609	2541.916127
540.515665	2542.236241
540.875665	2539.120807
541.235609	2544.734132
541.595496	2542.637012
541.955328	2541.260777
542.315102	2543.695655
542.674821	2539.282124
543.034483	2539.637526
543.394090	2539.859337
543.753640	2541.263298
544.113134	2540.345808
544.472571	2544.444266
544.831953	2543.806560
545.191278	2543.196580
545.550548	2540.179450
545.909761	2539.335057
546.268918	2540.295396
546.628019	2539.067875
546.987064	2538.498225
547.346053	2540.575180
547.704986	2543.819163
548.063863	2543.814122
548.422684	2540.282793
548.781449	2540.227341
549.140158	2542.263967
549.498811	2543.118442
549.857408	2540.320602
550.215949	2538.412525
550.574434	2540.164326
550.932864	2537.676517
551.291237	2537.500077
551.649555	2539.103163
552.007817	2540.481919
552.366022	2542.785726
552.724173	2542.790768
553.082267	2542.009389
553.440305	2540.323123
553.798288	2540.454193
554.156215	2541.132228
554.514086	2541.626261
554.871902	2540.287835
555.229661	2540.597866
555.587365	2541.217927
555.945014	2541.026364
556.302606	2540.156765
556.660143	2541.338915
557.017625	2543.133566
557.375050	2542.568957
557.732421	2542.246323
558.089735	2541.558205
558.446994	2541.653987
558.804197	2540.441590
559.161345	2541.467465
559.518437	2540.320602
559.875474	2542.800850
560.232455	2544.776982
560.589381	2541.727084
560.946251	2544.376210
561.303065	2540.910417
561.659825	2543.506611
562.016528	2542.536189
562.373177	2543.007537
562.729770	2540.610468
563.086307	2544.633309
563.442789	2540.207176
563.799216	2543.592311
564.155587	2540.870088
564.511904	2542.178267
564.868164	2544.986190
565.224370	2543.244471
565.580520	2541.780016
565.936615	2542.069883
566.292654	2540.875129
566.648638	2542.127856
567.004567	2542.843700
567.360441	2544.091385
567.716260	2539.526620
568.072023	2543.536858
568.427732	2538.336908
568.783385	2539.559388
569.138982	2537.621064
569.494525	2536.592669
569.850013	2538.190715
570.205445	2540.479398
570.560823	2541.182639
570.916145	2544.124153
571.271412	2539.750952
571.626625	2541.681714
571.981782	2543.103319
572.336884	2541.175078
572.691931	2542.150541
573.046923	2543.312527
573.401860	2542.137938
573.756743	2540.703730
574.111570	2538.170550
574.466342	2542.173226
574.821059	2539.216589
575.175722	2538.231044
575.530330	2541.638864
575.884882	2539.725746
576.239380	2544.076262
576.593823	2545.321427
576.948211	2541.298586
577.302544	2542.238761
577.656823	2540.184491
578.011047	2542.586601
578.365216	2542.916796
578.719330	2540.615510
579.073389	2542.024512
579.427394	2540.181970
579.781344	2544.903011
580.135239	2542.271529
580.489080	2541.885880
580.842866	2541.570808
581.196597	2540.761703
581.550273	2542.571477
581.903895	2542.536189
582.257463	2541.906045
582.610975	2539.929913
582.964434	2542.838658
583.317837	2539.990407
583.671186	2539.067875
584.024481	2540.910417
584.377721	2543.183978
584.730906	2542.758000
585.084037	2540.224820
585.437113	2538.009233
585.790135	2542.453010
586.143103	2541.727084
586.496016	2542.649615
586.848874	2537.406815
587.201679	2542.957126
587.554428	2537.447144
587.907124	2539.844213
588.259765	2541.220448
588.612352	2540.393699
588.964884	2541.202804
589.317362	2541.628782
589.669786	2539.871939
590.022155	2544.441745
590.374470	2540.887732
590.726731	2541.220448
591.078937	2541.185160
591.431090	2541.371683
591.783188	2541.298586
592.135232	2541.187681
592.487222	2540.640715
592.839157	2543.967877
593.191038	2543.088196
593.542866	2539.771116
593.894639	2540.882691
594.246358	2542.326981
594.598022	2540.459234
594.949633	2540.524769
595.301190	2540.736497
595.652692	2541.313709
596.004141	2539.826569
596.355535	2541.152393
596.706876	2540.703730
597.058162	2540.302958
597.409395	2539.115766
597.760573	2543.617517
598.111698	2540.544933
598.462768	2542.730274
598.813785	2539.829090
599.164748	2539.738349
599.515657	2541.449821
599.866511	2541.107022
600.217312	2540.297917
600.568060	2540.532331
600.918753	2543.060469
601.269392	2541.096940
601.619978	2541.583411
601.970510	2541.296065
602.320988	2540.214738
602.671412	2540.907897
603.021783	2537.951260
603.372100	2538.077289
603.722363	2541.570808
604.072572	2539.035108
604.422728	2543.589790
604.772830	2539.206507
605.122878	2537.797505
605.472872	2539.561908
605.822813	2536.249870
606.172701	2539.239275
606.522534	2541.888401
606.872314	2539.652649
607.222041	2540.318082
607.571714	2539.846734
607.921333	2541.185160
608.270899	2542.097609
608.620411	2542.079965
608.969870	2542.039636
609.319276	2541.994265
609.668627	2546.201108
610.017926	2545.949050
610.367171	2546.795964
610.716362	2552.545400
611.065500	2544.396375
611.414585	2544.973587
611.763616	2543.065510
612.112594	2544.388813
612.461518	2543.776313
612.810389	2545.321427
613.159207	2541.815304
613.507971	2542.140459
613.856682	2542.989893
614.205340	2542.548792
614.553945	2540.988555
614.902496	2540.625592
615.250994	2541.084337
615.599439	2538.987217
615.947830	2540.620551
616.296169	2540.721374
616.644454	2542.730274
616.992686	2540.376055
617.340864	2539.342618
617.688990	2541.157434
618.037063	2539.730787
618.385082	2542.266488
618.733048	2542.379913
619.080961	2539.942516
619.428821	2542.931920
619.776628	2539.650129
620.124382	2543.113401
620.472083	2540.345808
620.819731	2540.623071
621.167326	2540.638195
621.514868	2538.440252
621.862357	2539.680376
622.209793	2540.451672
622.557176	2540.111394
622.904506	2537.457227
623.251783	2536.748945
623.599007	2538.402443
623.946179	2534.193080
624.293297	2539.206507
624.640363	2541.172557
624.987376	2539.302289
625.334336	2540.005530
625.681243	2540.307999
626.028097	2542.349667
626.374899	2539.463606
626.721647	2539.995448
627.068343	2538.644418
627.414987	2536.333049
627.761577	2540.847403
628.108115	2542.909235
628.454600	2541.835469
628.801032	2539.309851
629.147412	2539.783719
629.493739	2538.578883
629.840014	2541.023843
630.186236	2538.959491
630.532405	2539.067875
630.878521	2541.288504
631.224585	2539.224151
631.570597	2541.676672
631.916556	2538.475540
632.262462	2539.811446
632.608316	2539.670293
632.954117	2541.429656
633.299866	2539.962680
633.645562	2540.345808
633.991206	2540.557536
634.336797	2540.227341
634.682336	2538.785571
635.027823	2538.830941
635.373257	2539.430838
635.718639	2535.549150
636.063968	2538.042001
636.409245	2537.721887
636.754470	2537.726928
637.099642	2539.108205
637.444762	2538.689789
637.789829	2539.297248
638.134845	2536.935467
638.479808	2539.130890
638.824719	2535.153419
639.169577	2536.025539
639.514383	2537.958822
639.859137	2537.739531
640.203839	2538.841023
640.548489	2537.061496
640.893086	2535.922195
641.237632	2535.176105
641.582125	2536.869932
641.926566	2534.810621
642.270955	2537.159799
642.615292	2538.697351
642.959576	2536.164171
643.303809	2537.394212
643.647990	2541.071734
643.992118	2536.814480
644.336195	2537.565612
