Dividing Wavelength (nm)	Counts (n)	Blue Motor Position (mm): 0.000000	Red Motor Position (mm): 3.600000	
326.493990	2128.322222
326.888308	2128.322222
327.282561	2128.322222
327.676750	2097.490525
328.070874	2095.325349
328.464933	2097.465319
328.858929	2102.572008
329.252859	2111.998966
329.646726	2125.431120
330.040528	2139.248923
330.434265	2156.550163
330.827938	2172.986845
331.221547	2190.237673
331.615091	2210.082175
332.008571	2228.167315
332.401986	2250.325707
332.795338	2268.950249
333.188625	2288.157046
333.581847	2304.868471
333.975006	2322.245328
334.368100	2344.222238
334.761129	2362.385515
335.154095	2377.730788
335.546996	2394.525392
335.939833	2408.708678
336.332606	2422.057653
336.725315	2437.523913
337.117960	2444.823504
337.510540	2455.228446
337.903056	2466.074488
338.295508	2470.097329
338.687896	2479.126036
339.080220	2488.865545
339.472480	2495.333345
339.864676	2499.386433
340.256807	2504.278873
340.648875	2508.321878
341.040879	2507.936230
341.432818	2511.580984
341.824694	2511.901097
342.216506	2512.443021
342.608253	2513.937723
342.999937	2512.750532
343.391557	2513.279853
343.783113	2512.009482
344.174605	2510.905469
344.566033	2508.155520
344.957397	2507.142248
345.348697	2506.020591
345.739934	2502.675786
346.131106	2502.660662
346.522215	2500.767709
346.913260	2499.144458
347.304241	2497.637153
347.695159	2497.730414
348.086012	2493.974754
348.476802	2492.104486
348.867528	2488.220277
349.258191	2489.233549
349.648789	2490.698004
350.039324	2486.566779
350.429796	2485.833291
350.820203	2483.247179
351.210548	2484.701552
351.600828	2480.769452
351.991045	2479.017651
352.381198	2482.775831
352.771288	2480.348515
353.161314	2481.576036
353.551276	2478.773155
353.941175	2481.921355
354.331010	2480.872795
354.720782	2476.355922
355.110490	2478.659729
355.500135	2480.386324
355.889717	2478.682414
356.279235	2480.809781
356.668689	2482.675008
357.058080	2481.223156
357.447408	2478.843731
357.836672	2476.827269
358.225873	2480.681232
358.615010	2478.236272
359.004084	2480.466983
359.393095	2482.299442
359.782043	2483.680718
360.170927	2484.580564
360.559748	2483.504278
360.948505	2484.991418
361.337199	2487.504433
361.725830	2483.713486
362.114398	2487.824547
362.502903	2483.489154
362.891344	2487.111223
363.279722	2483.451346
363.668037	2489.614156
364.056289	2487.680874
364.444478	2488.875627
364.832603	2488.008549
365.220665	2489.568786
365.608665	2489.679691
365.996601	2488.847901
366.384474	2490.531646
366.772284	2492.439723
367.160031	2492.616163
367.547715	2494.095742
367.935336	2494.030207
368.322893	2494.262100
368.710388	2498.158912
369.097820	2500.482884
369.485189	2500.079592
369.872495	2501.178563
370.259738	2499.875425
370.646918	2505.140910
371.034035	2503.278204
371.421090	2505.150992
371.808081	2507.023781
372.195010	2507.777433
372.581875	2510.292969
372.968678	2510.958402
373.355418	2511.182733
373.742096	2512.695079
374.128710	2515.850841
374.515262	2516.375121
374.901751	2516.322189
375.288177	2515.119874
375.674540	2517.373270
376.060841	2519.795544
376.447079	2517.791686
376.833254	2515.321520
377.219367	2511.346570
377.605417	2514.144411
377.991404	2515.596263
378.377329	2512.344719
378.763191	2509.539317
379.148991	2518.474762
379.534727	2514.807323
379.920402	2518.184896
380.306013	2516.032323
380.691563	2518.900739
381.077049	2515.949144
381.462474	2514.383866
381.847835	2513.158865
382.233134	2513.047960
382.618371	2511.318844
383.003545	2514.870337
383.388657	2511.722136
383.773706	2513.806653
384.158693	2510.479492
384.543618	2508.699965
384.928480	2506.073523
385.313280	2504.606548
385.698017	2505.045128
386.082692	2506.559995
386.467305	2503.918430
386.851856	2506.118894
387.236344	2505.380365
387.620770	2505.347597
388.005133	2503.731907
388.389435	2504.788029
388.773674	2505.864316
389.157851	2506.113853
389.541965	2505.410612
389.926018	2505.922289
390.310008	2503.522700
390.693936	2505.894562
391.077802	2504.662000
391.461606	2505.960098
391.845348	2505.282062
392.229027	2506.585201
392.612645	2504.863647
392.996200	2505.783657
393.379694	2507.802639
393.763125	2507.384223
394.146494	2504.510766
394.529801	2510.920593
394.913047	2505.491270
395.296230	2508.457989
395.679351	2507.868174
396.062410	2511.157527
396.445408	2508.193329
396.828343	2508.974708
397.211217	2503.389109
397.594028	2506.363390
397.976778	2504.024294
398.359466	2507.880777
398.742092	2504.777947
399.124656	2511.780110
399.507158	2509.809018
399.889598	2509.146107
400.271977	2512.564009
400.654294	2511.701972
401.036549	2510.895387
401.418742	2513.199194
401.800874	2510.930675
402.182944	2513.408402
402.564952	2514.651047
402.946898	2511.091992
403.328783	2510.023268
403.710606	2509.642660
404.092367	2511.550737
404.474067	2513.105933
404.855705	2511.631396
405.237282	2515.719771
405.618797	2511.281035
406.000250	2511.175171
406.381642	2510.187105
406.762972	2512.138032
407.144240	2511.676766
407.525447	2512.115346
407.906593	2510.194667
408.287677	2514.388907
408.668700	2514.565347
409.049661	2513.894874
409.430560	2510.237517
409.811399	2514.905625
410.192176	2513.988135
410.572891	2511.475120
410.953545	2514.754390
411.334138	2515.006448
411.714669	2516.854031
412.095139	2512.543844
412.475547	2514.482168
412.855894	2516.279339
413.236180	2517.166583
413.616405	2516.428053
413.996568	2515.117353
414.376670	2517.353105
414.756711	2516.581809
415.136691	2518.056346
415.516609	2518.321007
415.896466	2515.387055
416.276262	2518.094155
416.655997	2514.522497
417.035670	2514.623320
417.415283	2515.092148
417.794834	2510.371107
418.174324	2515.210615
418.553753	2518.396624
418.933121	2519.369567
419.312428	2516.034843
419.691674	2516.251613
420.070859	2516.997704
420.449983	2517.726151
420.829045	2518.111799
421.208047	2518.000893
421.586988	2516.937210
421.965867	2518.741943
422.344686	2516.153311
422.723444	2520.546676
423.102141	2519.349402
423.480777	2518.988960
423.859352	2517.083403
424.237866	2517.930317
424.616319	2519.858559
424.994712	2519.077180
425.373044	2521.799403
425.751314	2518.215143
426.129524	2519.228414
426.507673	2519.414937
426.885762	2523.089938
427.263789	2520.365195
427.641756	2516.798578
428.019662	2521.365864
428.397508	2518.996521
428.775292	2520.352592
429.153016	2519.881244
429.530679	2520.803775
429.908282	2521.834691
430.285824	2523.193282
430.663305	2521.900226
431.040726	2519.402334
431.418086	2519.929135
431.795385	2523.684794
432.172624	2520.828981
432.549802	2523.190761
432.926920	2523.266379
433.303977	2523.059691
433.680974	2523.810823
434.057910	2525.078673
434.434786	2522.497603
434.811601	2522.724455
435.188355	2523.914167
435.565050	2525.015659
435.941683	2522.648837
436.318257	2521.610360
436.694770	2519.112468
437.071222	2521.922911
437.447614	2518.794875
437.823946	2519.808147
438.200218	2519.699762
438.576429	2522.669002
438.952580	2525.514733
439.328670	2524.355268
439.704700	2518.346213
440.080670	2522.205216
440.456580	2521.539783
440.832429	2525.376102
441.208218	2525.134126
441.583947	2523.155473
441.959616	2526.051616
442.335224	2523.715041
442.710773	2524.456091
443.086261	2523.266379
443.461689	2524.766122
443.837057	2526.462470
444.212365	2524.468694
444.587612	2526.308715
444.962800	2525.487007
445.337927	2525.587830
445.712995	2526.321318
446.088002	2526.928777
446.462949	2525.824764
446.837837	2525.771832
447.212664	2527.367357
447.587431	2525.761750
447.962139	2527.974816
448.336786	2528.539426
448.711374	2524.289733
449.085901	2526.114631
449.460369	2525.900382
449.834776	2527.173273
450.209124	2524.287212
450.583412	2525.706297
450.957640	2525.139167
451.331808	2523.578930
451.705917	2524.733354
452.079965	2527.080012
452.453954	2527.430372
452.827883	2526.207892
453.201752	2528.020187
453.575562	2526.293592
453.949311	2527.581606
454.323001	2526.706966
454.696632	2525.255114
455.070202	2529.666123
455.443713	2524.635052
455.817164	2527.385001
456.190556	2525.784435
456.563888	2527.208561
456.937160	2523.954496
457.310373	2528.456247
457.683526	2526.119672
458.056619	2525.315608
458.429653	2527.692512
458.802628	2528.489014
459.175542	2529.033459
459.548398	2529.396422
459.921194	2530.356762
460.293930	2527.997502
460.666607	2528.451205
461.039224	2529.028418
461.411782	2527.939528
461.784280	2528.126051
462.156719	2528.337779
462.529099	2529.013294
462.901419	2526.913653
463.273680	2528.196627
463.645882	2528.521782
464.018024	2529.890455
464.390106	2529.464477
464.762130	2529.063706
465.134094	2528.564631
465.505999	2528.920033
465.877845	2528.914992
466.249631	2529.338448
466.621358	2531.710311
466.993026	2531.430527
467.364634	2533.474715
467.736184	2529.887934
468.107674	2528.599919
468.479105	2530.747451
468.850477	2528.771319
469.221790	2530.500434
469.593043	2530.560928
469.964238	2529.890455
470.335373	2529.015815
470.706449	2531.002029
471.077467	2528.942718
471.448425	2530.815507
471.819324	2528.725948
472.190164	2532.103521
472.560945	2530.742410
472.931667	2531.589324
473.302330	2531.324663
473.672934	2530.482790
474.043479	2532.174098
474.413965	2529.159487
474.784393	2526.316277
475.154761	2528.274765
475.525070	2527.490866
475.895321	2528.504137
476.265513	2527.122861
476.635645	2531.496062
477.005719	2529.330887
477.375734	2531.233922
477.745691	2530.639066
478.115588	2531.934643
478.485427	2531.977493
478.855207	2532.355579
479.224928	2533.961187
479.594591	2528.889786
479.964194	2531.428007
480.333739	2532.075795
480.703226	2535.254243
481.072653	2532.973120
481.442022	2531.977492
481.811333	2532.310209
482.180584	2531.949766
482.549777	2530.288706
482.918912	2530.737369
483.287988	2532.426155
483.657005	2532.292565
484.025964	2533.018491
484.394864	2531.049920
484.763706	2532.869777
485.132489	2532.549663
485.501213	2535.586959
485.869879	2535.856660
486.238487	2533.777184
486.607036	2532.365661
486.975527	2532.053110
487.343959	2533.371372
487.712333	2533.459592
488.080648	2534.959335
488.448905	2532.141330
488.817104	2534.361958
489.185244	2533.661238
489.553326	2534.019160
489.921350	2534.757689
490.289315	2535.710467
490.657222	2534.298944
491.025070	2535.251722
491.392861	2532.017822
491.760593	2533.580579
492.128267	2532.521937
492.495883	2533.789787
492.863440	2534.503111
493.230939	2531.465815
493.598380	2536.572504
493.965763	2526.018849
494.333088	2532.148892
494.700354	2528.602440
495.067563	2531.624612
495.434713	2527.732841
495.801805	2529.892975
496.168839	2535.919675
496.535815	2531.359951
496.902733	2534.293903
497.269593	2533.998995
497.636395	2534.301464
498.003139	2534.805580
498.369825	2534.437576
498.736453	2534.493028
499.103023	2534.828265
499.469535	2532.461443
499.835989	2534.740045
500.202385	2532.476567
500.568723	2533.883049
500.935003	2534.974458
501.301226	2530.550846
501.667390	2536.249870
502.033497	2537.167360
502.399546	2533.782226
502.765537	2532.736186
503.131470	2533.688964
503.497345	2533.492359
503.863163	2534.571166
504.228923	2534.450178
504.594625	2537.094264
504.960269	2532.060672
505.325856	2535.801208
505.691385	2534.225847
506.056856	2537.230375
506.422270	2533.205013
506.787625	2535.831455
507.152924	2532.330373
507.518164	2538.941847
507.883347	2536.290200
508.248472	2533.968748
508.613540	2534.309026
508.978550	2534.750127
509.343503	2536.144006
509.708398	2536.645601
510.073236	2535.357586
510.438016	2535.760878
510.802738	2536.169212
511.167403	2534.631660
511.532010	2533.182328
511.896561	2535.685261
512.261053	2536.053265
512.625488	2531.513706
512.989866	2533.033614
513.354186	2531.576721
513.718449	2530.523120
514.082655	2534.694674
514.446803	2533.210055
514.810894	2534.251053
515.174927	2534.480425
515.538904	2535.493697
515.902822	2533.300795
516.266684	2535.609644
516.630488	2531.778367
516.994235	2533.666279
517.357925	2534.417411
517.721558	2536.912782
518.085133	2536.040663
518.448651	2534.803059
518.812112	2536.428831
519.175516	2537.192566
519.538863	2535.244160
519.902152	2537.147196
520.265385	2534.399767
520.628560	2535.896990
520.991678	2535.034952
521.354739	2536.617875
521.717743	2536.272556
522.080690	2538.828421
522.443580	2535.997813
522.806413	2537.215251
523.169189	2537.124511
523.531908	2538.654501
523.894569	2537.230375
524.257174	2536.638039
524.619722	2538.069727
524.982213	2537.547968
525.344647	2536.433873
525.707025	2536.317926
526.069345	2537.192566
526.431608	2535.828934
526.793815	2535.443286
527.155964	2534.619057
527.518057	2536.413708
527.880093	2536.811959
528.242072	2534.606454
528.603995	2536.156609
528.965860	2538.261291
529.327669	2534.460261
529.689421	2534.810621
530.051117	2535.208872
530.412755	2535.135775
530.774337	2537.671476
531.135862	2536.350693
531.497331	2534.142668
531.858743	2532.332894
532.220098	2536.721218
532.581396	2533.184849
532.942638	2534.223327
533.303824	2536.696013
533.664953	2536.716177
534.026025	2536.625436
534.387040	2538.462937
534.747999	2542.211035
535.108902	2539.085519
535.469748	2537.565612
535.830537	2538.924203
536.191270	2536.549819
536.551947	2538.069727
536.912567	2538.334388
537.273131	2534.208203
537.633638	2536.023018
537.994089	2536.771630
538.354483	2537.066537
538.714821	2536.948070
539.075103	2534.674510
539.435328	2533.890610
539.795497	2536.542257
540.155609	2538.415046
540.515665	2537.913451
540.875665	2539.718184
541.235609	2538.528472
541.595496	2537.190046
541.955328	2536.307844
542.315102	2537.190046
542.674821	2535.246681
543.034483	2540.015612
543.394090	2534.661907
543.753640	2539.128369
544.113134	2535.584438
544.472571	2537.051414
544.831953	2536.688451
545.191278	2537.628626
545.550548	2538.714995
545.909761	2539.622402
546.268918	2537.474871
546.628019	2540.638195
546.987064	2536.864891
547.346053	2537.479912
547.704986	2537.452186
548.063863	2537.222813
548.422684	2536.940508
548.781449	2539.435880
549.140158	2535.632329
549.498811	2539.393030
549.857408	2537.522762
550.215949	2535.173584
550.574434	2532.446320
550.932864	2534.402287
551.291237	2535.430683
551.649555	2537.807587
552.007817	2537.459747
552.366022	2538.261291
552.724173	2537.137113
553.082267	2537.013605
553.440305	2536.471681
553.798288	2536.063348
554.156215	2536.000333
554.514086	2538.873791
554.871902	2538.286497
555.229661	2536.401105
555.587365	2537.187525
555.945014	2536.648122
556.302606	2535.584438
556.660143	2539.947557
557.017625	2532.738707
557.375050	2540.003009
557.732421	2537.593338
558.089735	2539.173740
558.446994	2537.263142
558.804197	2537.807587
559.161345	2535.791125
559.518437	2537.633667
559.875474	2535.183666
560.232455	2538.072247
560.589381	2537.187525
560.946251	2538.717515
561.303065	2535.695343
561.659825	2537.908410
562.016528	2535.907072
562.373177	2538.183153
562.729770	2535.836496
563.086307	2538.162988
563.442789	2536.403626
563.799216	2537.444624
564.155587	2537.444624
564.511904	2542.518545
564.868164	2537.512679
565.224370	2537.794984
565.580520	2535.155940
565.936615	2538.596528
566.292654	2537.845396
566.648638	2536.736342
567.004567	2536.587628
567.360441	2539.120808
567.716260	2538.657021
568.072023	2538.470499
568.427732	2534.543440
568.783385	2536.476722
569.138982	2536.413708
569.494525	2536.406146
569.850013	2532.965559
570.205445	2535.465971
570.560823	2533.351207
570.916145	2538.989738
571.271412	2538.634336
571.626625	2536.885056
571.981782	2539.937474
572.336884	2536.678368
572.691931	2538.137783
573.046923	2539.156096
573.401860	2539.755993
573.756743	2539.027546
574.111570	2539.945036
574.466342	2538.011754
574.821059	2536.328008
575.175722	2537.908410
575.530330	2538.251208
575.884882	2537.018646
576.239380	2538.508307
576.593823	2538.556198
576.948211	2538.467978
577.302544	2537.094264
577.656823	2538.057124
578.011047	2538.170550
578.365216	2537.288348
578.719330	2537.918492
579.073389	2537.366486
579.427394	2539.395550
579.781344	2537.001002
580.135239	2539.597197
580.489080	2535.299613
580.842866	2540.277752
581.196597	2540.118956
581.550273	2537.578214
581.903895	2537.356404
582.257463	2537.716846
582.610975	2539.186343
582.964434	2539.330015
583.317837	2536.448996
583.671186	2539.939995
584.024481	2540.272711
584.377721	2538.662063
584.730906	2537.305992
585.084037	2537.679037
585.437113	2537.545447
585.790135	2539.138452
586.143103	2539.710622
586.496016	2538.878832
586.848874	2531.846423
587.201679	2537.192566
587.554428	2534.379602
587.907124	2537.598379
588.259765	2533.394057
588.612352	2537.711805
588.964884	2539.574511
589.317362	2539.355221
589.669786	2539.821528
590.022155	2538.309182
590.374470	2540.565098
590.726731	2540.139121
591.078937	2540.250026
591.431090	2537.285827
591.783188	2540.141641
592.135232	2536.789274
592.487222	2535.960004
592.839157	2539.483771
593.191038	2536.368337
593.542866	2537.951260
593.894639	2538.518390
594.246358	2536.111239
594.598022	2538.969573
594.949633	2537.079140
595.301190	2539.080478
595.652692	2538.105015
596.004141	2537.643749
596.355535	2538.145344
596.706876	2537.469830
597.058162	2536.524613
597.409395	2535.092926
597.760573	2541.170037
598.111698	2537.076620
598.462768	2541.033925
598.813785	2537.358924
599.164748	2536.443955
599.515657	2540.098791
599.866511	2538.798174
600.217312	2536.048224
600.568060	2542.271529
600.918753	2538.425128
601.269392	2537.323636
601.619978	2538.772968
601.970510	2538.951929
602.320988	2537.147196
602.671412	2540.053421
603.021783	2536.935467
603.372100	2538.702392
603.722363	2536.925385
604.072572	2540.159285
604.422728	2539.309851
604.772830	2534.833306
605.122878	2534.961856
605.472872	2535.876825
605.822813	2531.604447
606.172701	2539.055273
606.522534	2535.720549
606.872314	2535.854140
607.222041	2538.036959
607.571714	2540.401261
607.921333	2538.616692
608.270899	2539.874460
608.620411	2539.239275
608.969870	2540.434028
609.319276	2540.232382
609.668627	2541.953936
610.017926	2543.640202
610.367171	2547.017775
610.716362	2545.404606
611.065500	2543.335212
611.414585	2543.773793
611.763616	2541.238092
612.112594	2541.651467
612.461518	2542.677342
612.810389	2540.176929
613.159207	2539.819007
613.507971	2540.275232
613.856682	2539.889583
614.205340	2539.128369
614.553945	2538.558719
614.902496	2538.306661
615.250994	2539.796322
615.599439	2539.667773
615.947830	2539.715664
616.296169	2540.098791
616.644454	2539.811446
616.992686	2536.829603
617.340864	2538.314223
617.688990	2536.325488
618.037063	2536.980838
618.385082	2538.636857
618.733048	2539.650129
619.080961	2537.497556
619.428821	2536.832124
619.776628	2538.432690
620.124382	2538.178112
620.472083	2537.532844
620.819731	2539.463606
621.167326	2536.474202
621.514868	2541.245654
621.862357	2538.760365
622.209793	2539.272042
622.557176	2538.387320
622.904506	2536.922864
623.251783	2532.847092
623.599007	2539.211548
623.946179	2534.062010
624.293297	2536.282638
624.640363	2537.658873
624.987376	2538.866229
625.334336	2538.566281
625.681243	2539.082999
626.028097	2537.878163
626.374899	2541.197763
626.721647	2536.252391
627.068343	2539.370345
627.414987	2538.813297
627.761577	2536.149047
628.108115	2538.689789
628.454600	2537.618544
628.801032	2539.183822
629.147412	2538.178112
629.493739	2536.091074
629.840014	2539.309851
630.186236	2536.890097
630.532405	2538.546116
630.878521	2536.217103
631.224585	2538.934285
631.570597	2535.334901
631.916556	2540.340767
632.262462	2538.024357
632.608316	2536.602751
632.954117	2536.486805
633.299866	2536.675848
633.645562	2536.017977
633.991206	2536.910262
634.336797	2537.159799
634.682336	2536.718698
635.027823	2537.101825
635.373257	2538.848585
635.718639	2537.263142
636.063968	2536.481763
636.409245	2536.905220
636.754470	2536.958152
637.099642	2536.577545
637.444762	2539.062834
637.789829	2538.052083
638.134845	2540.111394
638.479808	2536.968235
638.824719	2534.619057
639.169577	2534.767771
639.514383	2537.263142
639.859137	2538.137782
640.203839	2539.040149
640.548489	2537.215251
640.893086	2535.249201
641.237632	2532.821886
641.582125	2535.045035
641.926566	2532.494211
642.270955	2537.298430
642.615292	2540.055942
642.959576	2539.118287
643.303809	2537.253060
643.647990	2538.962011
643.992118	2534.724921
644.336195	2538.490663
