Dividing Wavelength (nm)	Counts (n)	Blue Motor Position (mm): 0.000000	Red Motor Position (mm): 20.500000	
326.493990	2147.329892
326.888308	2147.329892
327.282561	2147.329892
327.676750	2119.041458
328.070874	2120.604215
328.464933	2125.552108
328.858929	2135.992337
329.252859	2144.617752
329.646726	2163.270021
330.040528	2176.596311
330.434265	2193.640452
330.827938	2214.253730
331.221547	2230.909703
331.615091	2251.134812
332.008571	2273.590632
332.401986	2294.551749
332.795338	2313.249389
333.188625	2334.906186
333.581847	2351.380677
333.975006	2371.598224
334.368100	2391.752757
334.761129	2409.190108
335.154095	2423.232242
335.546996	2440.039449
335.939833	2453.360698
336.332606	2469.426856
336.725315	2476.983545
337.117960	2489.052068
337.510540	2498.111021
337.903056	2505.566887
338.295508	2512.032167
338.687896	2517.958044
339.080220	2527.586648
339.472480	2530.908768
339.864676	2536.416228
340.256807	2542.057280
340.648875	2541.384286
341.040879	2545.381921
341.432818	2544.565254
341.824694	2547.123639
342.216506	2543.544420
342.608253	2546.737991
342.999937	2548.401572
343.391557	2543.425953
343.783113	2540.567619
344.174605	2538.878832
344.566033	2540.635674
344.957397	2538.314223
345.348697	2533.499921
345.739934	2534.142668
346.131106	2530.528161
346.522215	2529.187214
346.913260	2527.470701
347.304241	2528.143695
347.695159	2525.839888
348.086012	2526.336441
348.476802	2521.537263
348.867528	2523.125226
349.258191	2517.305214
349.648789	2519.787983
350.039324	2516.339833
350.429796	2517.080883
350.820203	2514.706499
351.210548	2515.883609
351.600828	2516.233969
351.991045	2513.889833
352.381198	2514.744308
352.771288	2515.026613
353.161314	2515.518125
353.551276	2511.422188
353.941175	2514.144411
354.331010	2514.850172
354.720782	2514.252796
355.110490	2515.261026
355.500135	2516.077693
355.889717	2515.656757
356.279235	2513.872188
356.668689	2514.638444
357.058080	2515.225738
357.447408	2512.377486
357.836672	2513.340347
358.225873	2513.110974
358.615010	2512.077538
359.004084	2517.479134
359.393095	2516.992663
359.782043	2517.776562
360.170927	2520.970133
360.559748	2518.948630
360.948505	2519.024248
361.337199	2518.336130
361.725830	2521.691018
362.114398	2520.909639
362.502903	2520.632376
362.891344	2522.333765
363.279722	2521.043230
363.668037	2521.209588
364.056289	2523.715041
364.444478	2521.431399
364.832603	2524.309897
365.220665	2525.287881
365.608665	2525.383663
365.996601	2527.642100
366.384474	2524.607326
366.772284	2527.359796
367.160031	2526.119672
367.547715	2526.585978
367.935336	2529.434230
368.322893	2526.220495
368.710388	2526.477594
369.097820	2527.891637
369.485189	2528.801566
369.872495	2530.152595
370.259738	2525.078673
370.646918	2530.064375
371.034035	2530.848274
371.421090	2531.947246
371.808081	2529.492204
372.195010	2531.932122
372.581875	2533.043697
372.968678	2531.480939
373.355418	2532.660569
373.742096	2537.006043
374.128710	2535.912113
374.515262	2537.449665
374.901751	2535.992772
375.288177	2538.614172
375.674540	2539.723225
376.060841	2542.160623
376.447079	2543.824204
376.833254	2547.547096
377.219367	2543.350336
377.605417	2546.690100
377.991404	2549.588763
378.377329	2551.993394
378.763191	2551.862324
379.148991	2560.646534
379.534727	2565.307081
379.920402	2566.393450
380.306013	2571.192628
380.691563	2574.623133
381.077049	2579.379462
381.462474	2587.188209
381.847835	2587.233580
382.233134	2592.972933
382.618371	2598.573655
383.003545	2604.481888
383.388657	2610.843824
383.773706	2618.869341
384.158693	2625.498458
384.543618	2629.745630
384.928480	2637.090591
385.313280	2645.728608
385.698017	2650.754639
386.082692	2661.232677
386.467305	2666.276352
386.851856	2674.067455
387.236344	2685.170596
387.620770	2691.847604
388.005133	2703.903524
388.389435	2712.738146
388.773674	2716.052705
389.157851	2727.470918
389.541965	2738.647156
389.926018	2740.714029
390.310008	2755.466966
390.693936	2764.097421
391.077802	2773.352980
391.461606	2782.043929
391.845348	2791.130609
392.229027	2797.795014
392.612645	2811.073413
392.996200	2820.482727
393.379694	2838.439317
393.763125	2853.025896
394.146494	2860.146526
394.529801	2872.333515
394.913047	2888.409755
395.296230	2891.038716
395.679351	2894.920405
396.062410	2915.458066
396.445408	2907.760224
396.828343	2921.023499
397.211217	2928.902823
397.594028	2923.259251
397.976778	2939.131324
398.359466	2949.422840
398.742092	2947.585339
399.124656	2962.804583
399.507158	2974.187508
399.889598	2985.300732
400.271977	3000.759430
400.654294	3006.213958
401.036549	3016.886081
401.418742	3024.407483
401.800874	3042.641336
402.182944	3052.922769
402.564952	3083.078952
402.946898	3073.347004
403.328783	3078.965370
403.710606	3094.976075
404.092367	3120.108747
404.474067	3146.181595
404.855705	3133.238432
405.237282	3135.990902
405.618797	3166.822599
406.000250	3191.052905
406.381642	3219.275805
406.762972	3223.956516
407.144240	3212.291286
407.525447	3235.483115
407.906593	3235.596541
408.287677	3256.174531
408.668700	3276.679424
409.049661	3273.896707
409.430560	3289.451187
409.811399	3293.602577
410.192176	3311.050011
410.572891	3323.126095
410.953545	3360.662526
411.334138	3328.920901
411.714669	3379.115670
412.095139	3324.015858
412.475547	3376.675752
412.855894	3366.757281
413.236180	3397.899009
413.616405	3375.337325
413.996568	3404.959145
414.376670	3406.037952
414.756711	3399.164339
415.136691	3423.838266
415.516609	3445.411884
415.896466	3455.504274
416.276262	3484.803460
416.655997	3510.765403
417.035670	3518.422915
417.415283	3583.602514
417.794834	3604.354424
418.174324	3585.868513
418.553753	3589.377156
418.933121	3629.212353
419.312428	3619.828246
419.691674	3611.825414
420.070859	3654.244203
420.449983	3633.540184
420.829045	3678.741690
421.208047	3667.583096
421.586988	3711.035322
421.965867	3742.519848
422.344686	3745.380703
422.723444	3780.177267
423.102141	3690.540511
423.480777	3790.443577
423.859352	3752.612238
424.237866	3850.382896
424.616319	3833.976461
424.994712	3889.925707
425.373044	3877.756362
425.751314	3934.708797
426.129524	3868.571379
426.507673	3965.507727
426.885762	3937.496555
427.263789	3955.032209
427.641756	3957.514977
428.019662	3977.475426
428.397508	3973.439982
428.775292	4004.556504
429.153016	4006.406608
429.530679	4009.234695
429.908282	4012.342566
430.285824	3985.896673
430.663305	4044.550498
431.040726	3994.864886
431.418086	3977.989623
431.795385	4036.467008
432.172624	4063.064136
432.549802	4017.963453
432.926920	4024.516953
433.303977	4006.610774
433.680974	4033.976678
434.057910	4039.537071
434.434786	4035.458777
434.811601	4017.542517
435.188355	4088.753856
435.565050	4049.619378
435.941683	4035.597409
436.318257	4091.559258
436.694770	4079.016867
437.071222	4106.264304
437.447614	4036.472049
437.823946	4021.996376
438.200218	4016.279707
438.576429	3983.668483
438.952580	3984.409533
439.328670	3968.234991
439.704700	3982.342660
440.080670	3934.416410
440.456580	3957.424236
440.832429	3960.534628
441.208218	3868.200854
441.583947	3886.182650
441.959616	3871.981720
442.335224	3866.436451
442.710773	3856.076879
443.086261	3866.595247
443.461689	3813.980724
443.837057	3794.748722
444.212365	3813.448883
444.587612	3795.663692
444.962800	3747.722319
445.337927	3746.338522
445.712995	3655.902742
446.088002	3730.771439
446.462949	3714.009602
446.837837	3699.685164
447.212664	3663.346006
447.587431	3739.253180
447.962139	3844.267977
448.336786	3971.335300
448.711374	3932.883899
449.085901	3746.802308
449.460369	3681.176567
449.834776	3620.218935
450.209124	3679.487781
450.583412	3654.690345
450.957640	3665.922036
451.331808	3583.844489
451.705917	3493.426354
452.079965	3463.814616
452.453954	3442.102367
452.827883	3403.169536
453.201752	3373.028477
453.575562	3352.843697
453.949311	3358.709079
454.323001	3333.636901
454.696632	3302.081798
455.070202	3311.397850
455.443713	3287.452370
455.817164	3279.741925
456.190556	3268.782456
456.563888	3232.967579
456.937160	3220.309242
457.310373	3162.961075
457.683526	3146.234527
458.056619	3115.294445
458.429653	3085.433170
458.802628	3070.763413
459.175542	3052.978222
459.548398	3050.112326
459.921194	3053.373953
460.293930	3042.303579
460.666607	3052.731205
461.039224	3056.028120
461.411782	3050.195505
461.784280	3013.853827
462.156719	2987.738129
462.529099	2961.788790
462.901419	2918.029054
463.273680	2886.050495
463.645882	2865.747247
464.018024	2848.027592
464.390106	2834.461847
464.762130	2840.342353
465.134094	2855.327182
465.505999	2887.731719
465.877845	2916.211718
466.249631	2916.486461
466.621358	2887.063767
466.993026	2855.380115
467.364634	2821.899291
467.736184	2791.309570
468.107674	2770.928185
468.479105	2756.782707
468.850477	2739.103381
469.221790	2724.897409
469.593043	2708.795964
469.964238	2696.256093
470.335373	2689.362316
470.706449	2686.289732
471.077467	2683.086079
471.448425	2690.486493
471.819324	2696.001515
472.190164	2694.521937
472.560945	2677.167764
472.931667	2665.820127
473.302330	2652.604742
473.672934	2648.597025
474.043479	2643.601242
474.413965	2640.168216
474.784393	2633.657566
475.154761	2632.545991
475.525070	2629.188583
475.895321	2625.823612
476.265513	2625.813530
476.635645	2626.456277
477.005719	2622.660288
477.375734	2624.384363
477.745691	2626.259672
478.115588	2625.833695
478.485427	2623.653396
478.855207	2628.631535
479.224928	2632.372071
479.594591	2631.497431
479.964194	2630.683285
480.333739	2630.763943
480.703226	2628.543315
481.072653	2627.802265
481.442022	2626.572224
481.811333	2629.463326
482.180584	2623.630711
482.549777	2625.216153
482.918912	2623.111472
483.287988	2624.409569
483.657005	2619.227263
484.025964	2617.881275
484.394864	2618.574433
484.763706	2615.335492
485.132489	2618.317334
485.501213	2617.687190
485.869879	2617.810698
486.238487	2614.092848
486.607036	2616.923455
486.975527	2614.027312
487.343959	2615.113681
487.712333	2614.821294
488.080648	2614.917076
488.448905	2615.048146
488.817104	2610.662342
489.185244	2614.274329
489.553326	2614.838938
489.921350	2618.559310
490.289315	2619.870010
490.657222	2623.154322
491.025070	2624.323869
491.392861	2624.139867
491.760593	2617.558641
492.128267	2621.629372
492.495883	2616.310955
492.863440	2613.414812
493.230939	2614.838938
493.598380	2613.959257
493.965763	2608.655963
494.333088	2609.548247
494.700354	2607.105808
495.067563	2606.384923
495.434713	2605.593462
495.801805	2610.904318
496.168839	2609.964142
496.535815	2611.141252
496.902733	2607.930037
497.269593	2608.618154
497.636395	2603.546754
498.003139	2605.346446
498.369825	2606.100098
498.736453	2608.134204
499.103023	2608.325767
499.469535	2607.763679
499.835989	2603.055241
500.202385	2606.803339
500.568723	2603.932402
500.935003	2606.105139
501.301226	2603.443410
501.667390	2604.232351
502.033497	2604.149172
502.399546	2605.815273
502.765537	2602.961980
503.131470	2602.689758
503.497345	2605.099429
503.863163	2604.307968
504.228923	2604.088678
504.594625	2604.338215
504.960269	2601.154726
505.325856	2605.197732
505.691385	2601.938626
506.056856	2602.346959
506.422270	2606.077413
506.787625	2603.024994
507.152924	2602.601537
507.518164	2605.066662
507.883347	2603.496342
508.248472	2602.909048
508.613540	2601.986517
508.978550	2604.325612
509.343503	2603.350149
509.708398	2601.182453
510.073236	2604.537340
510.438016	2602.669593
510.802738	2603.161105
511.167403	2605.553133
511.532010	2602.692278
511.896561	2605.036415
512.261053	2605.164964
512.625488	2601.386619
512.989866	2598.752616
513.354186	2603.791250
513.718449	2600.393512
514.082655	2601.565580
514.446803	2604.938112
514.810894	2604.781836
515.174927	2604.126486
515.538904	2602.755292
515.902822	2602.609099
516.266684	2601.190014
516.630488	2602.783019
516.994235	2604.116404
517.357925	2604.025663
517.721558	2605.331322
518.085133	2604.930550
518.448651	2605.369131
518.812112	2601.399222
519.175516	2604.141610
519.538863	2605.054059
519.902152	2601.416866
520.265385	2603.836620
520.628560	2603.806373
520.991678	2601.641197
521.354739	2603.037597
521.717743	2604.048348
522.080690	2603.423245
522.443580	2605.079264
522.806413	2602.155395
523.169189	2603.246805
523.531908	2604.043307
523.894569	2604.587752
524.257174	2603.138420
524.619722	2602.553646
524.982213	2604.325612
525.344647	2600.143975
525.707025	2605.356528
526.069345	2600.743872
526.431608	2602.835951
526.793815	2601.946187
527.155964	2603.476177
527.518057	2602.508276
527.880093	2600.068357
528.242072	2600.638008
528.603995	2601.958790
528.965860	2603.047679
529.327669	2601.540374
529.689421	2602.813266
530.051117	2603.561877
530.412755	2601.946187
530.774337	2605.114552
531.135862	2601.452154
531.497331	2600.774119
531.858743	2594.881010
532.220098	2597.986361
532.581396	2596.494179
532.942638	2598.079622
533.303824	2599.284458
533.664953	2602.702360
534.026025	2600.411156
534.387040	2601.215220
534.747999	2601.726897
535.108902	2601.452154
535.469748	2601.537854
535.830537	2601.767226
536.191270	2601.104315
536.551947	2600.464088
536.912567	2601.805035
537.273131	2601.260590
537.633638	2599.811259
537.994089	2601.825200
538.354483	2600.879983
538.714821	2601.429469
539.075103	2600.930395
539.435328	2601.782350
539.795497	2601.331167
540.155609	2603.440889
540.515665	2602.203286
540.875665	2601.303440
541.235609	2601.883173
541.595496	2600.643049
541.955328	2602.180601
542.315102	2598.760178
542.674821	2599.221444
543.034483	2601.560539
543.394090	2601.805035
543.753640	2600.842175
544.113134	2600.408635
544.472571	2598.997112
544.831953	2603.551795
545.191278	2603.554315
545.550548	2600.053234
545.909761	2600.685899
546.268918	2601.661362
546.628019	2602.777978
546.987064	2599.478542
547.346053	2600.645570
547.704986	2601.983996
548.063863	2599.697833
548.422684	2599.952411
548.781449	2601.232864
549.140158	2600.665734
549.498811	2601.348811
549.857408	2600.217072
550.215949	2595.949735
550.574434	2597.787235
550.932864	2596.577358
551.291237	2597.212544
551.649555	2600.874942
552.007817	2600.224633
552.366022	2599.113059
552.724173	2600.421238
553.082267	2600.166660
553.440305	2599.392843
553.798288	2599.342431
554.156215	2600.350662
554.514086	2599.997781
554.871902	2600.885024
555.229661	2599.997781
555.587365	2599.599530
555.945014	2600.834613
556.302606	2600.406115
556.660143	2601.789912
557.017625	2601.275714
557.375050	2599.864191
557.732421	2600.335539
558.089735	2601.419387
558.446994	2599.786053
558.804197	2601.437031
559.161345	2601.883173
559.518437	2600.915271
559.875474	2600.607761
560.232455	2600.574993
560.589381	2599.642380
560.946251	2600.078440
561.303065	2601.298399
561.659825	2602.057093
562.016528	2600.905189
562.373177	2601.578183
562.729770	2601.240426
563.086307	2601.769747
563.442789	2601.729418
563.799216	2602.243615
564.155587	2602.611620
564.511904	2602.503235
564.868164	2599.861670
565.224370	2603.350149
565.580520	2600.154057
565.936615	2603.748400
566.292654	2601.701691
566.648638	2601.172370
567.004567	2601.255549
567.360441	2600.927874
567.716260	2599.377719
568.072023	2600.229674
568.427732	2596.902513
568.783385	2600.489294
569.138982	2594.381936
569.494525	2598.563573
569.850013	2596.799169
570.205445	2600.552308
570.560823	2599.758327
570.916145	2600.501897
571.271412	2600.443923
571.626625	2600.983327
571.981782	2599.077771
572.336884	2603.571959
572.691931	2599.907041
573.046923	2602.316712
573.401860	2596.713470
573.756743	2601.684047
574.111570	2599.380240
574.466342	2599.259252
574.821059	2600.869901
575.175722	2600.184304
575.530330	2600.020467
575.884882	2600.431321
576.239380	2599.982658
576.593823	2599.775971
576.948211	2599.879314
577.302544	2599.886876
577.656823	2600.837133
578.011047	2598.119952
578.365216	2598.936618
578.719330	2598.283789
579.073389	2596.650455
579.427394	2595.674992
579.781344	2600.002822
580.135239	2601.177411
580.489080	2600.017946
580.842866	2598.364447
581.196597	2599.292020
581.550273	2599.483584
581.903895	2600.264962
582.257463	2602.888883
582.610975	2598.137596
582.964434	2596.468974
583.317837	2594.213057
583.671186	2598.619026
584.024481	2598.225816
584.377721	2598.999633
584.730906	2599.357555
585.084037	2599.077771
585.437113	2596.897472
585.790135	2597.525095
586.143103	2596.670620
586.496016	2597.386464
586.848874	2594.765064
587.201679	2596.022832
587.554428	2595.584251
587.907124	2596.053078
588.259765	2596.342945
588.612352	2594.223140
588.964884	2595.407811
589.317362	2598.160281
589.669786	2598.286310
590.022155	2596.433686
590.374470	2596.300095
590.726731	2597.066350
591.078937	2597.595672
591.431090	2596.126175
591.783188	2595.289344
592.135232	2595.274220
592.487222	2598.077102
592.839157	2594.636514
593.191038	2596.688264
593.542866	2597.663727
593.894639	2593.610639
594.246358	2596.521906
594.598022	2595.264138
594.949633	2594.578541
595.301190	2593.610639
595.652692	2595.208685
596.004141	2597.451999
596.355535	2599.082812
596.706876	2596.068202
597.058162	2596.050558
597.409395	2594.520568
597.760573	2596.731114
598.111698	2593.683736
598.462768	2596.194231
598.813785	2594.810434
599.164748	2593.499734
599.515657	2593.913109
599.866511	2594.739858
600.217312	2594.611308
600.568060	2595.662389
600.918753	2596.146340
601.269392	2596.244642
601.619978	2595.738006
601.970510	2594.061823
602.320988	2595.720362
602.671412	2595.790938
603.021783	2596.070723
603.372100	2597.439396
603.722363	2595.140630
604.072572	2595.299426
604.422728	2598.046855
604.772830	2590.648962
605.122878	2589.373550
605.472872	2592.758684
605.822813	2590.308684
606.172701	2591.011925
606.522534	2595.483428
606.872314	2592.511668
607.222041	2595.299426
607.571714	2595.029724
607.921333	2593.318252
608.270899	2594.409662
608.620411	2594.313880
608.969870	2594.187852
609.319276	2594.152563
609.668627	2594.815475
610.017926	2592.640217
610.367171	2594.563417
610.716362	2594.326483
611.065500	2594.263469
611.414585	2595.029724
611.763616	2596.436206
612.112594	2592.824219
612.461518	2593.880341
612.810389	2596.181628
613.159207	2595.735486
613.507971	2593.293047
613.856682	2595.690115
614.205340	2592.360433
614.553945	2595.775815
614.902496	2595.329673
615.250994	2594.278592
615.599439	2594.087028
615.947830	2594.482759
616.296169	2592.176431
616.644454	2596.221957
616.992686	2593.456884
617.340864	2596.050558
617.688990	2594.480238
618.037063	2596.479056
618.385082	2592.972933
618.733048	2596.537029
619.080961	2593.464446
619.428821	2593.605598
619.776628	2594.699529
620.124382	2594.011411
620.472083	2595.617019
620.819731	2590.631317
621.167326	2591.967223
621.514868	2593.797162
621.862357	2593.484611
622.209793	2595.894282
622.557176	2596.519385
622.904506	2592.173911
623.251783	2589.308015
623.599007	2591.344641
623.946179	2587.785586
624.293297	2589.118971
624.640363	2590.540577
624.987376	2591.614342
625.334336	2594.114755
625.681243	2591.150556
626.028097	2589.582757
626.374899	2592.554518
626.721647	2591.097624
627.068343	2594.603747
627.414987	2590.807758
627.761577	2593.035948
628.108115	2590.502768
628.454600	2592.080649
628.801032	2592.254569
629.147412	2591.107707
629.493739	2591.848756
629.840014	2593.401432
630.186236	2591.067377
630.532405	2590.482603
630.878521	2590.999322
631.224585	2591.543766
631.570597	2589.547469
631.916556	2590.207861
632.262462	2591.493355
632.608316	2591.150556
632.954117	2592.171390
633.299866	2590.245669
633.645562	2591.299270
633.991206	2592.451174
634.336797	2588.685432
634.682336	2588.733323
635.027823	2587.838518
635.373257	2589.960844
635.718639	2590.036461
636.063968	2591.185844
636.409245	2586.706779
636.754470	2586.318610
637.099642	2587.185689
637.444762	2589.592840
637.789829	2587.795668
638.134845	2588.198961
638.479808	2587.127716
638.824719	2587.954465
639.169577	2587.823395
639.514383	2585.038157
639.859137	2589.726430
640.203839	2587.473035
640.548489	2586.986563
640.893086	2584.768456
641.237632	2584.279464
641.582125	2582.928434
641.926566	2582.363825
642.270955	2586.782397
642.615292	2585.728795
642.959576	2585.925400
643.303809	2586.033785
643.647990	2590.578385
643.992118	2587.838518
644.336195	2589.275247
