Dividing Wavelength (nm)	Counts (n)	Blue Motor Position (mm): 0.000000	Red Motor Position (mm): 40.600000	
326.493990	2129.027983
326.888308	2129.027983
327.282561	2129.027983
327.676750	2095.385843
328.070874	2095.229567
328.464933	2097.704774
328.858929	2104.497729
329.252859	2114.350664
329.646726	2124.659823
330.040528	2136.504014
330.434265	2153.802734
330.827938	2172.034067
331.221547	2190.023424
331.615091	2209.567978
332.008571	2227.138919
332.401986	2245.539131
332.795338	2267.662235
333.188625	2286.102775
333.581847	2305.165899
333.975006	2324.123158
334.368100	2341.767196
334.761129	2358.957531
335.154095	2376.979656
335.546996	2398.278531
335.939833	2416.940882
336.332606	2432.550815
336.725315	2443.790068
337.117960	2453.219546
337.510540	2461.058540
337.903056	2474.727629
338.295508	2478.538741
338.687896	2491.151708
339.080220	2494.171359
339.472480	2504.906496
339.864676	2508.526045
340.256807	2511.412105
340.648875	2518.363857
341.040879	2522.217819
341.432818	2522.265710
341.824694	2521.320493
342.216506	2525.285361
342.608253	2524.377953
342.999937	2523.299146
343.391557	2524.259486
343.783113	2520.385359
344.174605	2518.414268
344.566033	2517.491737
344.957397	2519.319155
345.348697	2515.893691
345.739934	2515.220697
346.131106	2513.927641
346.522215	2508.856240
346.913260	2507.245592
347.304241	2506.146620
347.695159	2506.814573
348.086012	2504.830879
348.476802	2499.623367
348.867528	2499.782163
349.258191	2497.138078
349.648789	2495.431648
350.039324	2494.735968
350.429796	2499.663696
350.820203	2493.856287
351.210548	2493.838643
351.600828	2491.497027
351.991045	2493.725217
352.381198	2491.681029
352.771288	2491.857470
353.161314	2492.999291
353.551276	2492.021307
353.941175	2492.265803
354.331010	2491.350834
354.720782	2491.527274
355.110490	2490.380412
355.500135	2490.980309
355.889717	2492.636328
356.279235	2491.035762
356.668689	2493.087511
357.058080	2494.478870
357.447408	2490.617346
357.836672	2490.824033
358.225873	2491.844867
358.615010	2486.866727
359.004084	2494.347800
359.393095	2495.414004
359.782043	2494.055413
360.170927	2493.974754
360.559748	2496.727224
360.948505	2499.172184
361.337199	2500.752586
361.725830	2500.669407
362.114398	2499.320898
362.502903	2501.319715
362.891344	2504.546054
363.279722	2500.069509
363.668037	2502.948008
364.056289	2501.004643
364.444478	2504.127638
364.832603	2506.113853
365.220665	2505.453462
365.608665	2507.200221
365.996601	2506.643174
366.384474	2507.041425
366.772284	2510.537465
367.160031	2509.874553
367.547715	2513.277332
367.935336	2514.456962
368.322893	2517.340502
368.710388	2520.304701
369.097820	2528.448685
369.485189	2527.422810
369.872495	2536.227185
370.259738	2546.493495
370.646918	2550.307128
371.034035	2557.470607
371.421090	2569.410580
371.808081	2577.468865
372.195010	2588.335072
372.581875	2601.953749
372.968678	2612.930862
373.355418	2623.648355
373.742096	2643.407157
374.128710	2654.190185
374.515262	2670.641991
374.901751	2688.588498
375.288177	2700.384798
375.674540	2721.759291
376.060841	2736.398802
376.447079	2759.494848
376.833254	2780.473610
377.219367	2791.589354
377.605417	2829.224088
377.991404	2838.104080
378.377329	2861.744571
378.763191	2881.394989
379.148991	2915.790782
379.534727	2940.570573
379.920402	2970.993937
380.306013	2981.812253
380.691563	3034.731766
381.077049	3054.276319
381.462474	3073.115111
381.847835	3109.313116
382.233134	3133.576190
382.618371	3130.327166
383.003545	3202.997919
383.388657	3208.122252
383.773706	3239.689957
384.158693	3256.812237
384.543618	3283.091772
384.928480	3320.066114
385.313280	3369.063609
385.698017	3362.081611
386.082692	3415.583377
386.467305	3418.517328
386.851856	3452.643419
387.236344	3477.191318
387.620770	3509.794981
388.005133	3533.543856
388.389435	3561.885223
388.773674	3573.116914
389.157851	3613.829272
389.541965	3631.528764
389.926018	3594.249431
390.310008	3668.571162
390.693936	3685.045653
391.077802	3725.261458
391.461606	3711.897359
391.845348	3775.851957
392.229027	3777.618882
392.612645	3789.027013
392.996200	3868.392418
393.379694	3909.097215
393.763125	3972.318325
394.146494	3938.572842
394.529801	3999.890916
394.913047	4051.227507
395.296230	4018.391951
395.679351	4069.088315
396.062410	4093.968929
396.445408	4078.409408
396.828343	4107.988378
397.211217	4131.417141
397.594028	4051.061148
397.976778	4114.630098
398.359466	4143.203358
398.742092	4173.556146
399.124656	4096.728961
399.507158	4178.650232
399.889598	4202.812482
400.271977	4263.303808
400.654294	4234.039910
401.036549	4241.087443
401.418742	4215.075089
401.800874	4315.313392
402.182944	4335.961958
402.564952	4397.380856
402.946898	4392.319538
403.328783	4384.311665
403.710606	4296.709014
404.092367	4492.830063
404.474067	4453.120894
404.855705	4463.157831
405.237282	4390.832397
405.618797	4500.427082
406.000250	4532.773645
406.381642	4616.136686
406.762972	4576.999688
407.144240	4584.989917
407.525447	4583.729628
407.906593	4650.804701
408.287677	4689.102347
408.668700	4616.744145
409.049661	4671.145757
409.430560	4712.281572
409.811399	4637.745592
410.192176	4798.366836
410.572891	4739.612188
410.953545	4842.867621
411.334138	4724.511411
411.714669	4787.583808
412.095139	4684.890463
412.475547	4826.839273
412.855894	4808.078619
413.236180	4814.231347
413.616405	4770.610243
413.996568	4854.298438
414.376670	4799.130571
414.756711	4751.448817
415.136691	4783.760092
415.516609	4864.184140
415.896466	4900.256117
416.276262	4931.854069
416.655997	4915.026698
417.035670	5097.589563
417.415283	5187.604407
417.794834	5130.175582
418.174324	5082.249332
418.553753	4994.818081
418.933121	5175.926574
419.312428	5243.977109
419.691674	5188.075754
420.070859	5310.689219
420.449983	5219.260332
420.829045	5336.588147
421.208047	5243.775463
421.586988	5314.097039
421.965867	5326.906611
422.344686	5461.109688
422.723444	5315.385054
423.102141	5134.006859
423.480777	5433.307724
423.859352	5201.913722
424.237866	5458.084996
424.616319	5452.083502
424.994712	5558.555192
425.373044	5437.804434
425.751314	5578.891206
426.129524	5385.885590
426.507673	5582.765333
426.885762	5660.315923
427.263789	5594.856541
427.641756	5474.433457
428.019662	5598.145893
428.397508	5602.690494
428.775292	5550.774171
429.153016	5645.270600
429.530679	5575.180917
429.908282	5662.513866
430.285824	5530.808681
430.663305	5805.286905
431.040726	5540.049116
431.418086	5535.020565
431.795385	5649.711856
432.172624	5659.728629
432.549802	5653.792670
432.926920	5664.963867
433.303977	5670.889743
433.680974	5711.687802
434.057910	5730.035081
434.434786	5735.587912
434.811601	5706.079518
435.188355	5939.371515
435.565050	5813.362833
435.941683	5795.605369
436.318257	6010.343399
436.694770	5994.859495
437.071222	6026.964084
437.447614	5958.517817
437.823946	5863.552561
438.200218	6027.412746
438.576429	5888.896962
438.952580	5988.444627
439.328670	6034.104878
439.704700	5937.831443
440.080670	5925.155461
440.456580	6194.779054
440.832429	6079.679429
441.208218	5925.238640
441.583947	6083.508186
441.959616	6085.391057
442.335224	6016.047465
442.710773	6154.094422
443.086261	6178.289440
443.461689	5975.146063
443.837057	6123.424042
444.212365	6275.283760
444.587612	6167.723181
444.962800	6317.705070
445.337927	6300.202184
445.712995	5913.069295
446.088002	6487.723025
446.462949	6323.341080
446.837837	6253.614361
447.212664	6421.389002
447.587431	6563.095836
447.962139	7105.975173
448.336786	8033.590331
448.711374	7773.315558
449.085901	6854.638366
449.460369	6767.751559
449.834776	6700.805036
450.209124	7094.556960
450.583412	7243.223108
450.957640	7396.345635
451.331808	7157.566342
451.705917	6710.620163
452.079965	6632.903214
452.453954	6842.945410
452.827883	6722.444189
453.201752	6813.431975
453.575562	6613.151973
453.949311	6815.816440
454.323001	6709.432971
454.696632	6781.763446
455.070202	6919.487769
455.443713	7072.943013
455.817164	7179.150042
456.190556	7256.592247
456.563888	7330.382137
456.937160	7375.011472
457.310373	7029.919285
457.683526	7054.252935
458.056619	6946.014321
458.429653	6939.007117
458.802628	6873.502364
459.175542	6980.831050
459.548398	7340.373704
459.921194	7494.506983
460.293930	7493.201324
460.666607	8027.838374
461.039224	8336.598965
461.411782	8464.989592
461.784280	8482.742015
462.156719	8376.356025
462.529099	8253.871110
462.901419	7842.402051
463.273680	7731.894917
463.645882	7745.473265
464.018024	7608.726926
464.390106	7778.205477
464.762130	8167.548912
465.134094	8631.037638
465.505999	9658.424792
465.877845	10874.272962
466.249631	11530.525328
466.621358	11143.732717
466.993026	10518.276759
467.364634	10263.821998
467.736184	9892.503209
468.107674	9559.802178
468.479105	9593.721582
468.850477	9364.374288
469.221790	9127.329152
469.593043	8802.177249
469.964238	8663.283378
470.335373	8680.340122
470.706449	8735.991940
471.077467	8717.836225
471.448425	10021.929793
471.819324	11099.710841
472.190164	11121.024839
472.560945	9877.074758
472.931667	9084.582688
473.302330	8954.425137
473.672934	8597.435827
474.043479	8951.433212
474.413965	8898.712825
474.784393	8775.360831
475.154761	8931.407228
475.525070	9016.665742
475.895321	8844.835493
476.265513	9026.710242
476.635645	9192.922125
477.005719	9194.598309
477.375734	9305.231471
477.745691	9543.587307
478.115588	9679.648049
478.485427	9918.429863
478.855207	10462.445980
479.224928	11265.000193
479.594591	11900.881257
479.964194	11709.806403
480.333739	11659.296562
480.703226	11566.123436
481.072653	11658.008547
481.442022	11897.690207
481.811333	12084.112076
482.180584	11889.488249
482.549777	11604.839498
482.918912	11426.090264
483.287988	11449.093049
483.657005	11454.187135
484.025964	11141.819599
484.394864	11270.467325
484.763706	11244.034034
485.132489	10994.743936
485.501213	10963.322424
485.869879	11039.307736
486.238487	10878.991482
486.607036	10991.961219
486.975527	10769.081725
487.343959	10960.406116
487.712333	11003.560914
488.080648	10935.767477
488.448905	10989.072638
488.817104	10922.678121
489.185244	11186.476660
489.553326	11343.959786
489.921350	11878.622042
490.289315	12935.832662
490.657222	13285.850056
491.025070	13193.929657
491.392861	13069.453486
491.760593	12691.419880
492.128267	12344.258300
492.495883	12012.290757
492.863440	11671.901967
493.230939	11332.539052
493.598380	11268.599577
493.965763	11138.071501
494.333088	11033.384380
494.700354	10956.776485
495.067563	11024.196877
495.434713	10851.713798
495.801805	10977.641821
496.168839	10902.604246
496.535815	10832.822074
496.902733	10838.821047
497.269593	10771.834195
497.636395	10872.614422
498.003139	10857.122956
498.369825	10726.481454
498.736453	10871.215502
499.103023	10806.524895
499.469535	10839.867087
499.835989	10823.758079
500.202385	10786.687955
500.568723	10636.227156
500.935003	10863.086641
501.301226	10663.003245
501.667390	10919.910527
502.033497	11021.567915
502.399546	10876.912006
502.765537	10785.092429
503.131470	10865.511436
503.497345	11038.082735
503.863163	10650.319702
504.228923	10955.828748
504.594625	11025.308451
504.960269	10776.794690
505.325856	10990.403502
505.691385	10785.581421
506.056856	10941.070771
506.422270	10966.528598
506.787625	10853.752945
507.152924	10971.395832
507.518164	10956.176588
507.883347	10872.644669
508.248472	10791.451845
508.613540	11024.557319
508.978550	10905.838146
509.343503	10884.703109
509.708398	10998.434060
510.073236	11110.675351
510.438016	11117.516196
510.802738	11069.201778
511.167403	11120.188008
511.532010	11017.512307
511.896561	11249.181053
512.261053	11322.648308
512.625488	11189.667711
512.989866	11169.677015
513.354186	11159.221662
513.718449	11062.998638
514.082655	11259.815367
514.446803	11144.766153
514.810894	11269.489341
515.174927	11142.495114
515.538904	11163.244503
515.902822	11312.639097
516.266684	11199.800430
516.630488	11141.905299
516.994235	11190.864985
517.357925	11259.351580
517.721558	11347.788542
518.085133	11365.780420
518.448651	11378.884900
518.812112	11261.020202
519.175516	11269.645617
519.538863	11388.039635
519.902152	11309.637090
520.265385	11471.778242
520.628560	11382.275076
520.991678	11361.702127
521.354739	11421.533061
521.717743	11349.663852
522.080690	11329.637868
522.443580	11469.469393
522.806413	11420.648339
523.169189	11454.597989
523.531908	11505.377532
523.894569	11324.218627
524.257174	11323.139821
524.619722	11451.374172
524.982213	11397.837118
525.344647	11442.486617
525.707025	11400.002293
526.069345	11490.294400
526.431608	11409.943449
526.793815	11519.510407
527.155964	11307.907974
527.518057	11361.707168
527.880093	11307.918057
528.242072	11373.324507
528.603995	11286.949377
528.965860	11202.119361
529.327669	11258.519790
529.689421	11199.492920
530.051117	11171.506954
530.412755	11283.871753
530.774337	11170.118116
531.135862	11154.248564
531.497331	11170.692808
531.858743	11024.073369
532.220098	11183.971207
532.581396	11060.969574
532.942638	11040.719259
533.303824	11007.840853
533.664953	11026.427588
534.026025	10926.683318
534.387040	11035.647858
534.747999	11037.664319
535.108902	11095.627506
535.469748	10851.817142
535.830537	10957.673811
536.191270	10933.907291
536.551947	10951.949581
536.912567	10953.439242
537.273131	10887.332071
537.633638	10852.225475
537.994089	10849.921668
538.354483	10795.948554
538.714821	10936.889133
539.075103	10948.859353
539.435328	10913.760320
539.795497	10747.369475
540.155609	10896.519573
540.515665	10984.323871
540.875665	10716.288241
541.235609	10784.411874
541.595496	10786.662749
541.955328	10942.242839
542.315102	10822.923768
542.674821	10774.201017
543.034483	10772.028279
543.394090	10777.629001
543.753640	10700.592609
544.113134	10937.181520
544.472571	10786.572008
544.831953	10930.381004
545.191278	10733.261806
545.550548	10765.247927
545.909761	10897.439584
546.268918	10875.429906
546.628019	10955.826228
546.987064	10817.126442
547.346053	10739.966541
547.704986	10835.534215
548.063863	10825.890488
548.422684	10814.739455
548.781449	10732.427495
549.140158	10830.402320
549.498811	10706.420183
549.857408	10563.994983
550.215949	10791.958481
550.574434	10646.241408
550.932864	10746.666234
551.291237	10802.053392
551.649555	10750.464744
552.007817	10759.979922
552.366022	10728.870961
552.724173	10725.768131
553.082267	10710.667355
553.440305	10835.254431
553.798288	10644.081274
554.156215	10797.574326
554.514086	10774.702611
554.871902	10624.204004
555.229661	10667.356281
555.587365	10634.303956
555.945014	10528.850579
556.302606	10657.309262
556.660143	10551.281193
557.017625	10704.552435
557.375050	10602.826992
557.732421	10738.618032
558.089735	10649.578652
558.446994	10648.986317
558.804197	10687.810763
559.161345	10683.276245
559.518437	10536.739985
559.875474	10618.993972
560.232455	10652.895732
560.589381	10600.392114
560.946251	10598.471435
561.303065	10711.317663
561.659825	10647.113528
562.016528	10566.976826
562.373177	10453.692017
562.729770	10569.993957
563.086307	10478.885183
563.442789	10577.477549
563.799216	10449.646491
564.155587	10496.483851
564.511904	10447.362848
564.868164	10433.406414
565.224370	10454.523807
565.580520	10382.072344
565.936615	10388.406554
566.292654	10252.796995
566.648638	10384.043435
567.004567	10338.713380
567.360441	10323.637809
567.716260	10227.008972
568.072023	10325.954219
568.427732	10276.576117
568.783385	10184.456593
569.138982	10254.276573
569.494525	10271.708883
569.850013	10146.534513
570.205445	10229.426206
570.560823	10118.639288
570.916145	10036.833964
571.271412	10101.877452
571.626625	10050.825687
571.981782	10026.219815
572.336884	9998.430454
572.691931	10008.316157
573.046923	9944.777454
573.401860	9904.619622
573.756743	9838.252832
574.111570	9885.622034
574.466342	9864.030772
574.821059	9891.235359
575.175722	9774.774623
575.530330	9785.638309
575.884882	9781.839800
576.239380	9703.588489
576.593823	9681.782978
576.948211	9693.964926
577.302544	9573.244415
577.656823	9589.018186
578.011047	9586.381662
578.365216	9556.434688
578.719330	9478.216145
579.073389	9490.584616
579.427394	9436.540926
579.781344	9408.328108
580.135239	9360.608546
580.489080	9372.208241
580.842866	9261.575079
581.196597	9264.330069
581.550273	9295.373495
581.903895	9266.212940
582.257463	9326.540428
582.610975	9205.832520
582.964434	9228.021159
583.317837	9149.535434
583.671186	9124.062484
584.024481	9116.377245
584.377721	9036.926140
584.730906	9011.301955
585.084037	9037.634422
585.437113	8974.133527
585.790135	8983.840269
586.143103	8885.257985
586.496016	8855.308490
586.848874	8902.934791
587.201679	8892.091269
587.554428	8775.547354
587.907124	8816.685690
588.259765	8782.201677
588.612352	8778.221686
588.964884	8656.818099
589.317362	8667.943925
589.669786	8650.962798
590.022155	8703.166467
590.374470	8702.402732
590.726731	8652.460021
591.078937	8498.382195
591.431090	8596.762833
591.783188	8467.618554
592.135232	8459.761915
592.487222	8456.712017
592.839157	8499.647525
593.191038	8427.609436
593.542866	8369.653811
593.894639	8260.785053
594.246358	8308.003020
594.598022	8321.619177
594.949633	8213.166313
595.301190	8182.029627
595.652692	8199.477060
596.004141	8303.130745
596.355535	8075.875529
596.706876	8051.864514
597.058162	7982.117630
597.409395	8049.049029
597.760573	8097.030732
598.111698	8002.103284
598.462768	7988.172055
598.813785	7941.680014
599.164748	7909.225066
599.515657	7888.279071
599.866511	7792.963455
600.217312	7906.447390
600.568060	7761.907427
600.918753	7850.276333
601.269392	7814.839542
601.619978	7719.334882
601.970510	7769.602748
602.320988	7759.709484
602.671412	7804.401833
603.021783	7738.836586
603.372100	7692.644493
603.722363	7691.520316
604.072572	7660.439082
604.422728	7661.225502
604.772830	7577.789365
605.122878	7577.002945
605.472872	7566.582880
605.822813	7575.465393
606.172701	7518.492793
606.522534	7576.866834
606.872314	7560.228505
607.222041	7524.947990
607.571714	7557.085346
607.921333	7516.304932
608.270899	7502.093919
608.620411	7573.355670
608.969870	7470.501008
609.319276	7454.112217
609.668627	7455.397711
610.017926	7475.350598
610.367171	7494.938001
610.716362	7464.214689
611.065500	7438.189733
611.414585	7442.336082
611.763616	7428.677075
612.112594	7395.899493
612.461518	7390.066878
612.810389	7426.945439
613.159207	7361.899431
613.507971	7304.258878
613.856682	7385.308029
614.205340	7332.822055
614.553945	7384.612349
614.902496	7279.539580
615.250994	7308.271636
615.599439	7276.204857
615.947830	7269.074144
616.296169	7225.906744
616.644454	7226.141158
616.992686	7202.654422
617.340864	7230.421097
617.688990	7134.482898
618.037063	7192.700664
618.385082	7132.753783
618.733048	7183.787904
619.080961	7111.548169
619.428821	7111.906091
619.776628	7098.877229
620.124382	7037.649895
620.472083	7012.116451
620.819731	7014.838674
621.167326	6914.181955
621.514868	6912.432674
621.862357	6806.762528
622.209793	6807.037271
622.557176	6734.870633
622.904506	6696.850251
623.251783	6633.056969
623.599007	6583.000832
623.946179	6565.404685
624.293297	6514.652868
624.640363	6444.235511
624.987376	6412.884575
625.334336	6360.050762
625.681243	6297.845444
626.028097	6277.380880
626.374899	6243.768987
626.721647	6221.141768
627.068343	6154.469988
627.414987	6112.220078
627.761577	6065.047480
628.108115	6077.922587
628.454600	5981.351724
628.801032	5997.692624
629.147412	5956.884483
629.493739	5931.046049
629.840014	5869.581781
630.186236	5891.503239
630.532405	5793.011695
630.878521	5813.670344
631.224585	5769.479589
631.570597	5695.724988
631.916556	5696.314803
632.262462	5686.504718
632.608316	5636.529239
632.954117	5606.700732
633.299866	5585.931178
633.645562	5562.870419
633.991206	5494.537579
634.336797	5442.749806
634.682336	5406.655144
635.027823	5363.646540
635.373257	5350.070713
635.718639	5287.537720
636.063968	5283.966062
636.409245	5203.368095
636.754470	5181.812121
637.099642	5139.274865
637.444762	5093.425570
637.789829	5077.462757
638.134845	5028.487947
638.479808	5003.723279
638.824719	4995.130632
639.169577	4939.083084
639.514383	4937.172486
639.859137	4878.327097
640.203839	4873.038927
640.548489	4846.164536
