Dividing Wavelength (nm)	Counts (n)	Blue Motor Position (mm): 0.000000	Red Motor Position (mm): 37.700000	
326.493990	2129.418673
326.888308	2129.418673
327.282561	2129.418673
327.676750	2095.615216
328.070874	2094.319639
328.464933	2094.974989
328.858929	2102.851792
329.252859	2110.405961
329.646726	2124.440533
330.040528	2137.824797
330.434265	2154.425316
330.827938	2171.550116
331.221547	2189.259689
331.615091	2209.394058
332.008571	2229.354507
332.401986	2249.917373
332.795338	2269.565270
333.188625	2287.335338
333.581847	2303.764458
333.975006	2322.620894
334.368100	2341.431959
334.761129	2358.534074
335.154095	2374.280118
335.546996	2395.130330
335.939833	2412.416447
336.332606	2430.302461
336.725315	2444.720161
337.117960	2453.693414
337.510540	2459.999898
337.903056	2469.913327
338.295508	2481.432363
338.687896	2488.810092
339.080220	2496.525578
339.472480	2503.623523
339.864676	2508.084944
340.256807	2511.049142
340.648875	2515.215656
341.040879	2515.815553
341.432818	2519.735050
341.824694	2519.702283
342.216506	2519.283867
342.608253	2519.636748
342.999937	2520.924763
343.391557	2520.145904
343.783113	2519.455266
344.174605	2519.195647
344.566033	2515.674401
344.957397	2517.249762
345.348697	2512.803464
345.739934	2511.578463
346.131106	2510.005623
346.522215	2510.426560
346.913260	2505.168636
347.304241	2506.189470
347.695159	2502.055724
348.086012	2503.628564
348.476802	2502.406084
348.867528	2498.441217
349.258191	2496.694457
349.648789	2497.652276
350.039324	2494.463746
350.429796	2496.525578
350.820203	2490.985350
351.210548	2495.106493
351.600828	2489.178096
351.991045	2490.249342
352.381198	2487.723723
352.771288	2492.548108
353.161314	2488.152222
353.551276	2491.048364
353.941175	2489.170535
354.331010	2487.121306
354.720782	2489.357057
355.110490	2489.707418
355.500135	2489.248672
355.889717	2489.503251
356.279235	2489.278919
356.668689	2494.002481
357.058080	2488.235401
357.447408	2493.631956
357.836672	2487.428816
358.225873	2490.415700
358.615010	2489.770432
359.004084	2489.651965
359.393095	2493.483242
359.782043	2494.249497
360.170927	2497.158243
360.559748	2496.172697
360.948505	2495.293016
361.337199	2498.337873
361.725830	2495.900475
362.114398	2494.642707
362.502903	2498.859632
362.891344	2499.013388
363.279722	2498.852071
363.668037	2498.882318
364.056289	2499.933398
364.444478	2500.775271
364.832603	2506.441528
365.220665	2501.954901
365.608665	2503.822648
365.996601	2503.706702
366.384474	2506.784326
366.772284	2506.116373
367.160031	2512.385048
367.547715	2510.832373
367.935336	2513.602487
368.322893	2516.158352
368.710388	2516.932169
369.097820	2523.246214
369.485189	2529.761905
369.872495	2533.557894
370.259738	2540.267670
370.646918	2548.036088
371.034035	2553.770401
371.421090	2564.437482
371.808081	2576.382496
372.195010	2584.914649
372.581875	2599.952411
372.968678	2612.318361
373.355418	2621.024434
373.742096	2638.161837
374.128710	2655.425268
374.515262	2670.715087
374.901751	2685.412572
375.288177	2697.138295
375.674540	2718.737119
376.060841	2737.336456
376.447079	2758.957965
376.833254	2775.863474
377.219367	2790.908798
377.605417	2828.349448
377.991404	2839.255984
378.377329	2861.096783
378.763191	2877.321737
379.148991	2915.047212
379.534727	2938.138217
379.920402	2970.280614
380.306013	2980.108343
380.691563	3031.891075
381.077049	3051.430588
381.462474	3068.305850
381.847835	3106.394288
382.233134	3131.577372
382.618371	3130.823720
383.003545	3199.353165
383.388657	3204.122097
383.773706	3235.727611
384.158693	3252.794437
384.543618	3280.435083
384.928480	3315.738284
385.313280	3361.138915
385.698017	3358.567927
386.082692	3411.777306
386.467305	3420.110333
386.851856	3452.177113
387.236344	3474.128817
387.620770	3504.547139
388.005133	3531.844988
388.389435	3557.658216
388.773674	3566.192889
389.157851	3612.236268
389.541965	3628.196561
389.926018	3593.301694
390.310008	3665.649813
390.693936	3684.491126
391.077802	3721.856158
391.461606	3712.340980
391.845348	3774.284158
392.229027	3775.564611
392.612645	3785.714975
392.996200	3867.890823
393.379694	3902.087491
393.763125	3969.747337
394.146494	3939.959159
394.529801	3998.169362
394.913047	4046.962690
395.296230	4011.926671
395.679351	4063.777459
396.062410	4091.937344
396.445408	4074.439499
396.828343	4105.795476
397.211217	4129.004949
397.594028	4052.477713
397.976778	4115.650932
398.359466	4143.548678
398.742092	4174.022453
399.124656	4093.366512
399.507158	4174.488759
399.889598	4194.567675
400.271977	4263.107203
400.654294	4229.417172
401.036549	4239.449068
401.418742	4211.221127
401.800874	4313.543947
402.182944	4333.824509
402.564952	4395.997059
402.946898	4387.288466
403.328783	4383.565574
403.710606	4296.051143
404.092367	4485.984176
404.474067	4449.425728
404.855705	4459.679435
405.237282	4389.735946
405.618797	4498.695445
406.000250	4532.942524
406.381642	4610.956900
406.762972	4571.308225
407.144240	4582.365996
407.525447	4585.274742
407.906593	4640.611488
408.287677	4686.455741
408.668700	4617.339001
409.049661	4666.288605
409.430560	4710.393660
409.811399	4633.221156
410.192176	4795.256444
410.572891	4736.547166
410.953545	4839.626159
411.334138	4719.384558
411.714669	4784.362510
412.095139	4682.793343
412.475547	4825.231145
412.855894	4802.487979
413.236180	4813.084484
413.616405	4768.782824
413.996568	4854.200135
414.376670	4793.381135
414.756711	4748.918158
415.136691	4782.542654
415.516609	4859.823542
415.896466	4899.091610
416.276262	4931.869193
416.655997	4910.124175
417.035670	5095.731898
417.415283	5187.576680
417.794834	5130.929234
418.174324	5081.722532
418.553753	4989.204756
418.933121	5172.758208
419.312428	5238.439402
419.691674	5179.778015
420.070859	5303.001459
420.449983	5217.238829
420.829045	5336.290719
421.208047	5239.540894
421.586988	5309.285257
421.965867	5325.931147
422.344686	5456.454182
422.723444	5313.449251
423.102141	5129.064008
423.480777	5426.406385
423.859352	5197.444739
424.237866	5458.084996
424.616319	5451.153409
424.994712	5560.191046
425.373044	5436.965082
425.751314	5575.027162
426.129524	5380.592379
426.507673	5576.771401
426.885762	5657.613865
427.263789	5588.852526
427.641756	5467.390966
428.019662	5595.436273
428.397508	5599.673363
428.775292	5544.550866
429.153016	5645.895703
429.530679	5573.451801
429.908282	5655.115973
430.285824	5524.388772
430.663305	5803.509898
431.040726	5537.137850
431.418086	5537.904105
431.795385	5644.733717
432.172624	5655.305016
432.549802	5650.387371
432.926920	5663.000338
433.303977	5675.653634
433.680974	5711.508841
434.057910	5723.794132
434.434786	5731.582715
434.811601	5699.583991
435.188355	5937.786072
435.565050	5804.213139
435.941683	5789.429956
436.318257	6004.830898
436.694770	5984.865408
437.071222	6021.960738
437.447614	5948.901816
437.823946	5865.269074
438.200218	6022.245564
438.576429	5884.765737
438.952580	5985.407332
439.328670	6033.021030
439.704700	5937.234066
440.080670	5923.814514
440.456580	6198.348191
440.832429	6078.240180
441.208218	5926.554381
441.583947	6080.143216
441.959616	6080.329738
442.335224	6010.489593
442.710773	6148.218957
443.086261	6175.143760
443.461689	5969.356298
443.837057	6119.010512
444.212365	6272.095231
444.587612	6162.545916
444.962800	6317.994936
445.337927	6299.866947
445.712995	5907.488738
446.088002	6484.390822
446.462949	6318.549463
446.837837	6250.831644
447.212664	6419.503610
447.587431	6560.338325
447.962139	7105.123218
448.336786	8026.938528
448.711374	7774.822863
449.085901	6849.158632
449.460369	6769.823473
449.834776	6702.536672
450.209124	7090.466064
450.583412	7239.716985
450.957640	7391.551498
451.331808	7156.532905
451.705917	6710.171500
452.079965	6631.713502
452.453954	6841.097827
452.827883	6717.093004
453.201752	6810.714793
453.575562	6613.721624
453.949311	6816.290309
454.323001	6701.752773
454.696632	6779.454598
455.070202	6918.172028
455.443713	7070.372024
455.817164	7167.134452
456.190556	7255.810869
456.563888	7326.084553
456.937160	7369.173816
457.310373	7027.796960
457.683526	7050.121709
458.056619	6942.553569
458.429653	6934.891015
458.802628	6866.059100
459.175542	6974.375852
459.548398	7333.545461
459.921194	7489.382650
460.293930	7497.350193
460.666607	8025.426182
461.039224	8334.539654
461.411782	8457.019528
461.784280	8478.630954
462.156719	8368.383440
462.529099	8247.788958
462.901419	7835.591452
463.273680	7727.020122
463.645882	7741.039570
464.018024	7607.917821
464.390106	7776.869571
464.762130	8156.118096
465.134094	8628.857339
465.505999	9651.387341
465.877845	10872.558969
466.249631	11528.007272
466.621358	11141.113837
466.993026	10507.881900
467.364634	10251.244319
467.736184	9882.279749
468.107674	9558.304956
468.479105	9585.491898
468.850477	9365.246408
469.221790	9119.122153
469.593043	8794.973440
469.964238	8657.269282
470.335373	8674.315944
470.706449	8730.686126
471.077467	8712.848003
471.448425	10014.758751
471.819324	11090.036867
472.190164	11122.030550
472.560945	9869.094611
472.931667	9083.604704
473.302330	8947.972460
473.672934	8591.315866
474.043479	8944.282335
474.413965	8886.639261
474.784393	8765.427238
475.154761	8927.273482
475.525070	9010.376903
475.895321	8839.101181
476.265513	9013.870423
476.635645	9185.801495
477.005719	9188.649747
477.375734	9293.843504
477.745691	9537.147233
478.115588	9664.549794
478.485427	9911.221013
478.855207	10448.847468
479.224928	11262.426684
479.594591	11894.854558
479.964194	11707.479910
480.333739	11650.131744
480.703226	11561.180585
481.072653	11653.592496
481.442022	11896.855896
481.811333	12079.761560
482.180584	11882.080274
482.549777	11589.650501
482.918912	11420.855026
483.287988	11436.280957
483.657005	11453.453647
484.025964	11135.296346
484.394864	11267.024217
484.763706	11228.179606
485.132489	10989.564150
485.501213	10950.633839
485.869879	11030.964626
486.238487	10868.072342
486.607036	10982.730866
486.975527	10761.933369
487.343959	10949.005547
487.712333	11000.861376
488.080648	10925.241548
488.448905	10969.520522
488.817104	10909.223281
489.185244	11175.781852
489.553326	11331.122488
489.921350	11862.563447
490.289315	12931.207404
490.657222	13277.080969
491.025070	13184.122092
491.392861	13061.054924
491.760593	12673.390193
492.128267	12321.888179
492.495883	12002.205929
492.863440	11668.526915
493.230939	11326.779534
493.598380	11259.505336
493.965763	11127.454831
494.333088	11032.429081
494.700354	10953.464447
495.067563	11009.506955
495.434713	10836.476911
495.801805	10967.309976
496.168839	10893.797350
496.535815	10826.293780
496.902733	10821.018212
497.269593	10762.636610
497.636395	10856.230672
498.003139	10847.532161
498.369825	10714.080216
498.736453	10869.456139
499.103023	10801.181272
499.469535	10829.943575
499.835989	10810.388939
500.202385	10775.582293
500.568723	10629.187185
500.935003	10848.552995
501.301226	10653.707357
501.667390	10912.532799
502.033497	11004.687612
502.399546	10872.289267
502.765537	10774.909299
503.131470	10853.306803
503.497345	11018.664211
503.863163	10638.364606
504.228923	10955.632143
504.594625	11018.228151
504.960269	10766.092321
505.325856	10982.582152
505.691385	10769.263206
506.056856	10931.386714
506.422270	10954.679365
506.787625	10838.967241
507.152924	10959.012237
507.518164	10938.676223
507.883347	10864.780469
508.248472	10778.662438
508.613540	11013.471822
508.978550	10892.191743
509.343503	10866.801972
509.708398	10986.355456
510.073236	11093.190108
510.438016	11108.769794
510.802738	11053.485981
511.167403	11104.467170
511.532010	11003.225677
511.896561	11231.927703
512.261053	11303.990998
512.625488	11173.110041
512.989866	11151.133131
513.354186	11143.243725
513.718449	11046.975331
514.082655	11240.931204
514.446803	11133.564710
514.810894	11255.827814
515.174927	11119.409150
515.538904	11150.192956
515.902822	11302.546707
516.266684	11187.376506
516.630488	11126.396189
516.994235	11190.945643
517.357925	11242.564538
517.721558	11333.436377
518.085133	11355.236847
518.448651	11362.728002
518.812112	11239.053374
519.175516	11250.842113
519.538863	11372.618746
519.902152	11285.928543
520.265385	11453.985489
520.628560	11359.204235
520.991678	11342.722183
521.354739	11400.080431
521.717743	11331.349340
522.080690	11309.107769
522.443580	11448.359562
522.806413	11400.939948
523.169189	11428.018506
523.531908	11487.531847
523.894569	11310.516771
524.257174	11314.675723
524.619722	11428.086561
524.982213	11370.831657
525.344647	11431.791809
525.707025	11377.697708
526.069345	11465.670884
526.431608	11385.912268
526.793815	11501.289156
527.155964	11282.114911
527.518057	11342.157573
527.880093	11286.445262
528.242072	11343.448109
528.603995	11252.112483
528.965860	11173.299084
529.327669	11227.047867
529.689421	11167.524442
530.051117	11146.308747
530.412755	11248.049313
530.774337	11137.020421
531.135862	11119.404108
531.497331	11146.855712
531.858743	10988.747483
532.220098	11154.019191
532.581396	11019.311999
532.942638	11007.487973
533.303824	10965.880809
533.664953	10970.874072
534.026025	10891.559078
534.387040	10982.209107
534.747999	10983.088788
535.108902	11038.445698
535.469748	10793.944696
535.830537	10898.495706
536.191270	10864.324244
536.551947	10890.399613
536.912567	10880.430731
537.273131	10807.512961
537.633638	10782.481112
537.994089	10774.816037
538.354483	10716.081554
538.714821	10854.879643
539.075103	10865.183761
539.435328	10821.111474
539.795497	10647.479012
540.155609	10798.456528
540.515665	10881.691019
540.875665	10613.637746
541.235609	10672.588999
541.595496	10669.907105
541.955328	10815.772892
542.315102	10699.975067
542.674821	10640.832250
543.034483	10634.800510
543.394090	10633.207505
543.753640	10561.366022
544.113134	10768.630542
544.472571	10621.658222
544.831953	10749.769064
545.191278	10560.050281
545.550548	10574.261293
545.909761	10694.160096
546.268918	10668.765284
546.628019	10737.826571
546.987064	10598.536970
547.346053	10517.437407
547.704986	10607.679102
548.063863	10581.626419
548.422684	10566.777700
548.781449	10476.047013
549.140158	10559.866278
549.498811	10436.922618
549.857408	10290.683787
550.215949	10492.004786
550.574434	10344.450213
550.932864	10422.545248
551.291237	10475.429472
551.649555	10410.519575
552.007817	10406.143854
552.366022	10367.082473
552.724173	10340.939049
553.082267	10314.193208
553.440305	10424.173540
553.798288	10225.592408
554.156215	10352.556388
554.514086	10319.257047
554.871902	10159.596143
555.229661	10175.828658
555.587365	10140.618719
555.945014	10032.377584
556.302606	10123.264547
556.660143	10016.502991
557.017625	10137.525971
557.375050	10024.329382
557.732421	10131.968099
558.089735	10034.162153
558.446994	10011.718936
558.804197	10030.348520
559.161345	10016.218165
559.518437	9862.377273
559.875474	9910.608513
560.232455	9920.615203
560.589381	9867.234425
560.946251	9825.944855
561.303065	9913.802084
561.659825	9827.774793
562.016528	9738.506041
562.373177	9616.585735
562.729770	9686.927476
563.086307	9598.603940
563.442789	9653.164348
563.799216	9513.443728
564.155587	9540.212255
564.511904	9471.629877
564.868164	9432.986912
565.224370	9428.139843
565.580520	9329.736520
565.936615	9326.729472
566.292654	9167.255090
566.648638	9258.159697
567.004567	9193.398514
567.360441	9154.727823
567.716260	9047.482316
568.072023	9108.596224
568.427732	9019.035085
568.783385	8933.532074
569.138982	8951.589488
569.494525	8941.038352
569.850013	8814.432294
570.205445	8840.731994
570.560823	8735.792815
570.916145	8633.837999
571.271412	8659.386567
571.626625	8585.712624
571.981782	8542.961118
572.336884	8493.318356
572.691931	8471.301117
573.046923	8388.729537
573.401860	8326.665372
573.756743	8241.651353
574.111570	8244.081189
574.466342	8210.166827
574.821059	8190.617232
575.175722	8083.102023
575.530330	8048.209677
575.884882	8015.434615
576.239380	7923.332735
576.593823	7881.627269
576.948211	7849.953699
577.302544	7746.186588
577.656823	7708.698048
578.011047	7694.698764
578.365216	7632.906820
578.719330	7551.129223
579.073389	7516.647730
579.427394	7456.587423
579.781344	7409.734940
580.135239	7337.543096
580.489080	7318.784962
580.842866	7210.233797
581.196597	7181.181627
581.550273	7180.901843
581.903895	7120.218954
582.257463	7136.915255
582.610975	7009.913466
582.964434	7010.873806
583.317837	6916.589106
583.671186	6883.682974
584.024481	6838.194122
584.377721	6759.398367
584.730906	6712.503033
585.084037	6696.144489
585.437113	6631.287524
585.790135	6605.290294
586.143103	6512.364185
586.496016	6471.528318
586.848874	6468.659901
587.201679	6439.630417
587.554428	6335.606207
587.907124	6329.498849
588.259765	6284.264576
588.612352	6246.597074
588.964884	6150.172404
589.317362	6124.112159
589.669786	6094.281132
590.022155	6100.779179
590.374470	6067.958747
590.726731	6019.598958
591.078937	5897.361059
591.431090	5922.765954
591.783188	5831.591646
592.135232	5787.337877
592.487222	5779.266989
592.839157	5762.109422
593.191038	5697.693558
593.542866	5645.394108
593.894639	5557.181477
594.246358	5564.501233
594.598022	5539.824785
594.949633	5459.413340
595.301190	5419.394140
595.652692	5403.819495
596.004141	5419.389099
596.355535	5297.735974
596.706876	5252.335343
597.058162	5192.020457
597.409395	5198.722671
597.760573	5203.625193
598.111698	5141.402232
598.462768	5097.778607
598.813785	5063.483637
599.164748	5018.627450
599.515657	4997.242876
599.866511	4915.437552
600.217312	4960.523111
600.568060	4868.766549
600.918753	4887.774220
601.269392	4850.769630
601.619978	4784.594403
601.970510	4787.845948
602.320988	4769.513792
602.671412	4756.212707
603.021783	4712.367272
603.372100	4680.676058
603.722363	4643.671468
604.072572	4619.506697
604.422728	4597.096248
604.772830	4548.807035
605.122878	4523.381976
605.472872	4503.320704
605.822813	4482.220955
606.172701	4446.055717
606.522534	4444.460192
606.872314	4424.855144
607.222041	4386.307962
607.571714	4380.064493
607.921333	4338.270807
608.270899	4319.923527
608.620411	4330.489786
608.969870	4276.146147
609.319276	4255.767283
609.668627	4234.818768
610.017926	4226.883992
610.367171	4218.976942
610.716362	4192.110113
611.065500	4172.051361
611.414585	4154.114936
611.763616	4138.200013
612.112594	4106.581896
612.461518	4088.607662
612.810389	4090.573712
613.159207	4048.268349
613.507971	4017.514790
613.856682	4028.466697
614.205340	4000.417717
614.553945	3996.760360
614.902496	3950.737146
615.250994	3945.811938
615.599439	3925.256634
615.947830	3905.717121
616.296169	3885.408833
616.644454	3868.876369
616.992686	3851.449100
617.340864	3849.258719
617.688990	3809.630208
618.037063	3814.434428
618.385082	3789.621869
618.733048	3787.766724
619.080961	3761.272940
619.428821	3747.059407
619.776628	3725.609297
620.124382	3702.578786
620.472083	3677.559539
620.819731	3671.338756
621.167326	3628.957775
621.514868	3615.908748
621.862357	3572.660690
622.209793	3563.067374
622.557176	3529.437837
622.904506	3505.749455
623.251783	3478.260043
623.599007	3454.100313
623.946179	3437.865277
624.293297	3415.079262
624.640363	3392.056312
624.987376	3371.594268
625.334336	3355.349150
625.681243	3328.257989
626.028097	3312.965649
626.374899	3305.156902
626.721647	3281.546658
627.068343	3266.375305
627.414987	3251.035074
627.761577	3230.578072
628.108115	3227.061867
628.454600	3201.649411
628.801032	3195.410983
629.147412	3186.122657
629.493739	3171.609175
629.840014	3154.741474
630.186236	3152.183088
630.532405	3128.066208
630.878521	3129.225674
631.224585	3114.145062
631.570597	3093.347782
631.916556	3087.439550
632.262462	3084.644230
632.608316	3071.020512
632.954117	3059.327555
633.299866	3051.906977
633.645562	3036.554143
633.991206	3024.357071
634.336797	3003.433762
634.682336	2992.101248
635.027823	2982.064311
635.373257	2971.692137
635.718639	2956.079683
636.063968	2946.526697
636.409245	2928.668409
636.754470	2923.521391
637.099642	2911.387334
637.444762	2899.714542
637.789829	2892.722462
638.134845	2885.901781
638.479808	2872.966180
638.824719	2869.255891
639.169577	2857.184848
639.514383	2851.442973
639.859137	2841.758917
640.203839	2839.384533
640.548489	2827.928511
640.893086	2823.928356
