Dividing Wavelength (nm)	Counts (n)	Blue Motor Position (mm): 0.000000	Red Motor Position (mm): 35.100000	
326.493990	2127.747530
326.888308	2127.747530
327.282561	2127.747530
327.676750	2095.116141
328.070874	2093.954155
328.464933	2096.857860
328.858929	2101.644436
329.252859	2112.291353
329.646726	2122.592950
330.040528	2137.819756
330.434265	2153.470018
330.827938	2170.735970
331.221547	2186.197188
331.615091	2209.630992
332.008571	2226.319732
332.401986	2248.278998
332.795338	2268.859509
333.188625	2285.954061
333.581847	2305.516259
333.975006	2323.188024
334.368100	2343.483709
334.761129	2359.907788
335.154095	2377.955119
335.546996	2393.963303
335.939833	2414.629513
336.332606	2430.047882
336.725315	2443.366611
337.117960	2452.481017
337.510540	2461.459312
337.903056	2469.532720
338.295508	2476.618062
338.687896	2487.713641
339.080220	2495.252687
339.472480	2500.427431
339.864676	2503.736949
340.256807	2510.164420
340.648875	2513.957888
341.040879	2515.369411
341.432818	2516.750687
341.824694	2519.273785
342.216506	2517.774042
342.608253	2522.865607
342.999937	2518.010976
343.391557	2519.046933
343.783113	2517.743795
344.174605	2516.622138
344.566033	2515.208094
344.957397	2511.696931
345.348697	2512.571571
345.739934	2509.302383
346.131106	2511.119718
346.522215	2509.761128
346.913260	2506.688544
347.304241	2505.271980
347.695159	2501.864160
348.086012	2500.084633
348.476802	2499.709067
348.867528	2498.310147
349.258191	2496.278562
349.648789	2495.595485
350.039324	2494.672954
350.429796	2497.435506
350.820203	2489.447798
351.210548	2491.010556
351.600828	2490.907212
351.991045	2487.096100
352.381198	2488.893271
352.771288	2487.146511
353.161314	2488.240442
353.551276	2487.403610
353.941175	2489.682212
354.331010	2487.096100
354.720782	2485.472848
355.110490	2488.789927
355.500135	2487.454022
355.889717	2490.415700
356.279235	2491.103817
356.668689	2489.019300
357.058080	2490.655154
357.447408	2488.051398
357.836672	2488.066522
358.225873	2488.847901
358.615010	2486.687766
359.004084	2490.468632
359.393095	2492.399394
359.782043	2492.238077
360.170927	2492.835453
360.559748	2493.931904
360.948505	2492.200268
361.337199	2495.109014
361.725830	2497.992554
362.114398	2497.748058
362.502903	2497.397698
362.891344	2500.180415
363.279722	2497.352327
363.668037	2496.772595
364.056289	2501.486073
364.444478	2499.341063
364.832603	2500.871053
365.220665	2501.569253
365.608665	2502.516989
365.996601	2503.928512
366.384474	2502.751403
366.772284	2505.536641
367.160031	2505.168636
367.547715	2510.567712
367.935336	2508.636950
368.322893	2513.882271
368.710388	2517.010307
369.097820	2524.594723
369.485189	2525.474404
369.872495	2532.005219
370.259738	2538.359593
370.646918	2545.800336
371.034035	2553.863662
371.421090	2562.499158
371.808081	2574.605489
372.195010	2584.115626
372.581875	2594.812955
372.968678	2608.668566
373.355418	2619.872530
373.742096	2637.997999
374.128710	2652.816471
374.515262	2667.150992
374.901751	2680.010975
375.288177	2695.661237
375.674540	2717.938096
376.060841	2736.769326
376.447079	2756.447470
376.833254	2775.757610
377.219367	2790.843263
377.605417	2826.834581
377.991404	2838.388906
378.377329	2858.639221
378.763191	2876.696634
379.148991	2910.973959
379.534727	2936.446910
379.920402	2966.151909
380.306013	2976.997951
380.691563	3026.159283
381.077049	3049.625855
381.462474	3066.745613
381.847835	3109.308075
382.233134	3130.070067
382.618371	3129.485293
383.003545	3198.135726
383.388657	3204.963969
383.773706	3238.119638
384.158693	3251.329982
384.543618	3279.850310
384.928480	3313.620999
385.313280	3359.382073
385.698017	3362.018597
386.082692	3410.534661
386.467305	3417.393151
386.851856	3454.538893
387.236344	3474.121255
387.620770	3505.071419
388.005133	3532.651572
388.389435	3556.579409
388.773674	3569.449475
389.157851	3610.469343
389.541965	3630.918784
389.926018	3593.107610
390.310008	3664.691994
390.693936	3681.794109
391.077802	3722.032599
391.461606	3710.513562
391.845348	3772.413890
392.229027	3771.622429
392.612645	3788.447280
392.996200	3861.186089
393.379694	3905.018922
393.763125	3971.673058
394.146494	3939.059313
394.529801	3999.205319
394.913047	4048.139800
395.296230	4013.035725
395.679351	4067.215526
396.062410	4093.847942
396.445408	4069.945311
396.828343	4105.001495
397.211217	4129.060401
397.594028	4047.872619
397.976778	4114.380561
398.359466	4140.713028
398.742092	4171.574972
399.124656	4092.912808
399.507158	4167.872245
399.889598	4200.811144
400.271977	4263.565948
400.654294	4232.981267
401.036549	4237.082246
401.418742	4210.142320
401.800874	4314.025377
402.182944	4336.657637
402.564952	4397.829519
402.946898	4387.747211
403.328783	4379.615830
403.710606	4293.109630
404.092367	4484.917972
404.474067	4450.295327
404.855705	4459.082058
405.237282	4391.089496
405.618797	4494.289477
406.000250	4533.774314
406.381642	4612.849854
406.762972	4569.072474
407.144240	4585.980504
407.525447	4582.653342
407.906593	4640.641735
408.287677	4685.724774
408.668700	4613.472436
409.049661	4666.311290
409.430560	4710.741500
409.811399	4637.037310
410.192176	4795.511022
410.572891	4737.981374
410.953545	4836.775387
411.334138	4720.551585
411.714669	4787.702275
412.095139	4678.306716
412.475547	4824.462369
412.855894	4805.154749
413.236180	4813.523065
413.616405	4764.034057
413.996568	4853.663252
414.376670	4795.052277
414.756711	4750.511162
415.136691	4780.957211
415.516609	4858.391855
415.896466	4898.887443
416.276262	4928.549593
416.655997	4911.908744
417.035670	5092.702165
417.415283	5184.564591
417.794834	5126.674501
418.174324	5083.295372
418.553753	4993.141897
418.933121	5179.147871
419.312428	5242.742027
419.691674	5181.950752
420.070859	5306.646213
420.449983	5217.720260
420.829045	5332.645964
421.208047	5241.232201
421.586988	5308.574455
421.965867	5326.936858
422.344686	5451.138286
422.723444	5314.379343
423.102141	5127.072752
423.480777	5430.272950
423.859352	5194.619172
424.237866	5458.516014
424.616319	5449.812462
424.994712	5556.818514
425.373044	5432.037354
425.751314	5575.813582
426.129524	5385.079006
426.507673	5574.548252
426.885762	5659.789123
427.263789	5592.257826
427.641756	5471.023117
428.019662	5593.001396
428.397508	5598.138332
428.775292	5544.722266
429.153016	5648.552391
429.530679	5568.413168
429.908282	5652.754193
430.285824	5525.908679
430.663305	5804.079549
431.040726	5536.666502
431.418086	5539.050967
431.795385	5646.172966
432.172624	5656.530017
432.549802	5649.482484
432.926920	5663.781717
433.303977	5669.601729
433.680974	5710.490528
434.057910	5729.147838
434.434786	5730.594649
434.811601	5699.647006
435.188355	5942.285302
435.565050	5807.053829
435.941683	5794.710564
436.318257	6006.209653
436.694770	5988.127034
437.071222	6024.246902
437.447614	5956.887004
437.823946	5867.078848
438.200218	6021.340677
438.576429	5883.815479
438.952580	5983.221992
439.328670	6030.767634
439.704700	5937.783552
440.080670	5925.233599
440.456580	6197.922213
440.832429	6080.236477
441.208218	5921.102373
441.583947	6079.702115
441.959616	6081.058185
442.335224	6012.374984
442.710773	6149.053268
443.086261	6171.662843
443.461689	5967.866637
443.837057	6115.983299
444.212365	6272.075066
444.587612	6165.247975
444.962800	6319.847560
445.337927	6299.816536
445.712995	5908.963275
446.088002	6486.603888
446.462949	6322.295041
446.837837	6248.137147
447.212664	6417.807262
447.587431	6562.437966
447.962139	7105.060204
448.336786	8036.536885
448.711374	7774.406968
449.085901	6849.587130
449.460369	6767.000427
449.834776	6701.956940
450.209124	7091.683502
450.583412	7245.163952
450.957640	7392.055613
451.331808	7154.990312
451.705917	6712.518157
452.079965	6632.696527
452.453954	6842.325348
452.827883	6717.544187
453.201752	6818.331976
453.575562	6610.344051
453.949311	6817.467418
454.323001	6698.150868
454.696632	6776.974350
455.070202	6916.679847
455.443713	7069.789771
455.817164	7169.652508
456.190556	7255.694922
456.563888	7325.411559
456.937160	7377.229580
457.310373	7028.837958
457.683526	7050.328397
458.056619	6943.710513
458.429653	6927.765344
458.802628	6865.819645
459.175542	6970.010213
459.548398	7327.967424
459.921194	7491.106724
460.293930	7494.864905
460.666607	8028.493724
461.039224	8332.513110
461.411782	8464.883728
461.784280	8477.353022
462.156719	8370.888894
462.529099	8248.708968
462.901419	7836.544230
463.273680	7726.614309
463.645882	7742.516628
464.018024	7603.993283
464.390106	7769.585104
464.762130	8162.333838
465.134094	8623.601936
465.505999	9655.952106
465.877845	10873.781449
466.249631	11531.805781
466.621358	11144.758592
466.993026	10507.828968
467.364634	10255.607438
467.736184	9892.145287
468.107674	9561.674967
468.479105	9589.822250
468.850477	9358.546714
469.221790	9132.002301
469.593043	8800.806055
469.964238	8660.414962
470.335373	8671.094646
470.706449	8733.022701
471.077467	8713.747849
471.448425	10027.449856
471.819324	11098.629513
472.190164	11119.341094
472.560945	9875.302792
472.931667	9079.748221
473.302330	8945.885422
473.672934	8592.417358
474.043479	8951.332389
474.413965	8891.866938
474.784393	8771.806818
475.154761	8928.110313
475.525070	9016.537193
475.895321	8842.892128
476.265513	9019.773614
476.635645	9187.432308
477.005719	9189.098410
477.375734	9306.111152
477.745691	9531.753198
478.115588	9668.849898
478.485427	9915.087578
478.855207	10454.037336
479.224928	11271.715010
479.594591	11904.183213
479.964194	11709.335055
480.333739	11644.329376
480.703226	11564.921121
481.072653	11657.254895
481.442022	11891.444217
481.811333	12090.287489
482.180584	11888.883311
482.549777	11595.629309
482.918912	11422.432907
483.287988	11441.586771
483.657005	11456.322064
484.025964	11133.645368
484.394864	11268.017324
484.763706	11233.445091
485.132489	10991.555406
485.501213	10953.661052
485.869879	11031.930007
486.238487	10872.130471
486.607036	10979.910340
486.975527	10765.777248
487.343959	10950.883377
487.712333	11006.676347
488.080648	10934.676067
488.448905	10973.646707
488.817104	10909.094732
489.185244	11185.176043
489.553326	11334.416882
489.921350	11878.523740
490.289315	12935.164709
490.657222	13273.529476
491.025070	13185.160570
491.392861	13059.406467
491.760593	12678.784228
492.128267	12328.771875
492.495883	12001.013696
492.863440	11663.362253
493.230939	11326.217445
493.598380	11258.615572
493.965763	11130.419030
494.333088	11026.238544
494.700354	10948.791298
495.067563	11010.439568
495.434713	10836.766777
495.801805	10968.151849
496.168839	10888.559592
496.535815	10826.278656
496.902733	10824.466362
497.269593	10759.364901
497.636395	10848.694147
498.003139	10846.133241
498.369825	10706.833557
498.736453	10864.944306
499.103023	10800.263782
499.469535	10820.733387
499.835989	10812.271810
500.202385	10775.952818
500.568723	10622.968922
500.935003	10843.776501
501.301226	10649.563529
501.667390	10903.877137
502.033497	10999.159986
502.399546	10864.982115
502.765537	10767.062743
503.131470	10837.553197
503.497345	11007.727427
503.863163	10623.029416
504.228923	10932.266395
504.594625	10986.466361
504.960269	10736.052085
505.325856	10953.368665
505.691385	10745.640359
506.056856	10900.053422
506.422270	10915.930536
506.787625	10803.240583
507.152924	10920.959087
507.518164	10895.440767
507.883347	10816.710546
508.248472	10724.855682
508.613540	10956.353028
508.978550	10830.548514
509.343503	10809.274844
509.708398	10922.743656
510.073236	11017.124138
510.438016	11023.491115
510.802738	10965.585902
511.167403	11015.200938
511.532010	10898.359595
511.896561	11125.415684
512.261053	11185.816269
512.625488	11049.884076
512.989866	11018.414673
513.354186	11012.435865
513.718449	10901.903526
514.082655	11087.133162
514.446803	10964.804523
514.810894	11077.275186
515.174927	10943.377098
515.538904	10955.327154
515.902822	11102.617066
516.266684	10971.957920
516.630488	10902.488300
516.994235	10957.900663
517.357925	10996.571354
517.721558	11064.193392
518.085133	11072.140771
518.448651	11065.446118
518.812112	10937.506675
519.175516	10936.372415
519.538863	11036.981243
519.902152	10940.594382
520.265385	11072.352499
520.628560	10974.639814
520.991678	10931.694224
521.354739	10978.367747
521.717743	10894.208204
522.080690	10861.481034
522.443580	10961.341250
522.806413	10897.255582
523.169189	10907.824361
523.531908	10937.736047
523.894569	10743.641542
524.257174	10730.632844
524.619722	10816.957563
524.982213	10750.164795
525.344647	10760.476475
525.707025	10693.411485
526.069345	10752.329971
526.431608	10647.635288
526.793815	10726.317617
527.155964	10498.389407
527.518057	10528.512822
527.880093	10454.831317
528.242072	10487.243416
528.603995	10361.781700
528.965860	10272.951528
529.327669	10281.077868
529.689421	10202.070384
530.051117	10154.436522
530.412755	10204.099449
530.774337	10077.284183
531.135862	10009.014357
531.497331	10004.510086
531.858743	9837.806690
532.220098	9947.482033
532.581396	9794.924114
532.942638	9752.641437
533.303824	9677.588738
533.664953	9650.631168
534.026025	9543.557060
534.387040	9584.130787
534.747999	9551.315396
535.108902	9549.440087
535.469748	9312.977204
535.830537	9355.600160
536.191270	9296.790059
536.551947	9275.687789
536.912567	9224.348678
537.273131	9127.682032
537.633638	9067.485614
537.994089	9009.401440
538.354483	8931.976878
538.714821	9001.270059
539.075103	8959.471332
539.435328	8881.938385
539.795497	8724.974499
540.155609	8790.885065
540.515665	8812.834248
540.875665	8570.228720
541.235609	8569.936333
541.595496	8520.583437
541.955328	8580.500071
542.315102	8453.702448
542.674821	8374.939461
543.034483	8331.998912
543.394090	8286.769680
543.753640	8183.574740
544.113134	8277.446066
544.472571	8137.218810
544.831953	8178.092485
545.191278	8000.802666
545.550548	7976.917679
545.909761	8015.411930
546.268918	7938.756145
546.628019	7947.242927
546.987064	7797.563508
547.346053	7715.228863
547.704986	7712.365487
548.063863	7656.232239
548.422684	7606.223993
548.781449	7493.193762
549.140158	7508.193715
549.498811	7381.887606
549.857408	7251.803151
550.215949	7320.708163
550.574434	7192.395674
550.932864	7185.844694
551.291237	7182.041144
551.649555	7083.816782
552.007817	7050.681277
552.366022	6979.729558
552.724173	6928.599655
553.082267	6871.501026
553.440305	6874.180399
553.798288	6741.436736
554.156215	6752.832264
554.514086	6692.688778
554.871902	6574.188895
555.229661	6543.939452
555.587365	6486.845864
555.945014	6400.518625
556.302606	6390.237192
556.660143	6307.050591
557.017625	6317.342107
557.375050	6224.917592
557.732421	6234.062245
558.089735	6143.059336
558.446994	6101.540393
558.804197	6068.803140
559.161345	6019.510738
559.518437	5921.069606
559.875474	5895.437859
560.232455	5859.655749
560.589381	5801.531245
560.946251	5735.005659
561.303065	5747.018728
561.659825	5665.404968
562.016528	5598.907108
562.373177	5511.770763
562.729770	5495.833156
563.086307	5428.715233
563.442789	5420.886321
563.799216	5315.470753
564.155587	5297.534328
564.511904	5228.460438
564.868164	5191.009706
565.224370	5153.052338
565.580520	5069.981684
565.936615	5048.307243
566.292654	4957.763079
566.648638	4961.433039
567.004567	4901.150922
567.360441	4861.746742
567.716260	4788.955002
568.072023	4782.824958
568.427732	4721.159044
568.783385	4678.294113
569.138982	4641.055109
569.494525	4614.258856
569.850013	4547.622364
570.205445	4528.919683
570.560823	4476.048062
570.916145	4414.601438
571.271412	4401.912853
571.626625	4353.737067
571.981782	4314.960511
572.336884	4272.120786
572.691931	4247.953494
573.046923	4191.772355
573.401860	4157.363960
573.756743	4110.438379
574.111570	4087.685131
574.466342	4059.321079
574.821059	4031.642624
575.175722	3984.974142
575.530330	3948.559367
575.884882	3928.772838
576.239380	3881.895149
576.593823	3851.686034
576.948211	3826.379442
577.302544	3786.216569
577.656823	3753.854882
578.011047	3735.661358
578.365216	3703.289589
578.719330	3669.566790
579.073389	3639.607213
579.427394	3614.010754
579.781344	3590.483689
580.135239	3556.970098
580.489080	3538.809342
580.842866	3503.811131
581.196597	3482.696258
581.550273	3471.220071
581.903895	3441.971297
582.257463	3435.533743
582.610975	3397.755336
582.964434	3384.950806
583.317837	3356.286805
583.671186	3340.036645
584.024481	3319.909839
584.377721	3297.133906
584.730906	3274.846964
585.084037	3258.014552
585.437113	3238.157447
585.790135	3218.880074
586.143103	3195.834440
586.496016	3180.675690
586.848874	3165.285047
587.201679	3158.660971
587.554428	3128.179634
587.907124	3120.527163
588.259765	3101.864811
588.612352	3092.606732
588.964884	3072.968918
589.317362	3061.822926
589.669786	3047.770710
590.022155	3041.446583
590.374470	3027.404448
590.726731	3013.732839
591.078937	2992.358347
591.431090	2984.264774
591.783188	2967.384471
592.135232	2954.811833
592.487222	2948.790175
592.839157	2942.864298
593.191038	2926.263779
593.542866	2916.010072
593.894639	2900.778226
594.246358	2892.999725
594.598022	2886.300032
594.949633	2870.604399
595.301190	2862.263810
595.652692	2857.615866
596.004141	2849.892819
596.355535	2835.838082
596.706876	2823.983808
597.058162	2813.972077
597.409395	2811.023002
597.760573	2807.494194
598.111698	2793.089097
598.462768	2788.746143
598.813785	2781.872530
599.164748	2776.624689
599.515657	2766.922988
599.866511	2760.258583
600.217312	2762.234715
600.568060	2749.929258
600.918753	2750.856831
601.269392	2744.441962
601.619978	2736.144223
601.970510	2735.468709
602.320988	2728.254817
602.671412	2728.153994
603.021783	2720.786348
603.372100	2715.588918
603.722363	2710.525079
604.072572	2711.480378
604.422728	2705.670448
604.772830	2696.843388
605.122878	2690.960361
605.472872	2688.845597
605.822813	2685.747808
606.172701	2684.626152
606.522534	2682.682787
606.872314	2682.317303
607.222041	2678.748166
607.571714	2679.607683
607.921333	2672.862619
608.270899	2671.448575
608.620411	2672.209790
608.969870	2670.089984
609.319276	2668.905313
609.668627	2670.226096
610.017926	2669.361538
610.367171	2667.965138
610.716362	2666.112514
611.065500	2662.780311
611.414585	2657.111534
611.763616	2656.637665
612.112594	2654.548107
612.461518	2654.101965
612.810389	2651.346974
613.159207	2647.954278
613.507971	2649.373363
613.856682	2647.419916
614.205340	2645.857158
614.553945	2646.981335
614.902496	2643.258443
615.250994	2641.020171
615.599439	2639.288534
615.947830	2640.112763
616.296169	2638.925571
616.644454	2636.820890
616.992686	2633.904582
617.340864	2634.781743
617.688990	2632.765281
618.037063	2636.248719
618.385082	2631.149592
618.733048	2635.542957
619.080961	2631.341155
619.428821	2632.271248
619.776628	2632.747637
620.124382	2628.553397
620.472083	2626.766308
620.819731	2626.657923
621.167326	2625.775722
621.514868	2625.362347
621.862357	2626.148767
622.209793	2621.523508
622.557176	2623.207254
622.904506	2619.759104
623.251783	2614.034874
623.599007	2614.881788
623.946179	2611.894904
624.293297	2614.289452
624.640363	2611.794081
624.987376	2614.024792
625.334336	2612.630913
625.681243	2609.780140
626.028097	2608.411467
626.374899	2613.666870
626.721647	2608.542537
627.068343	2605.986672
627.414987	2605.568256
627.761577	2605.676641
628.108115	2605.086826
628.454600	2604.728904
628.801032	2602.415015
629.147412	2602.210848
629.493739	2604.300406
629.840014	2604.277721
630.186236	2604.081116
630.532405	2601.515169
630.878521	2600.275045
631.224585	2603.093050
631.570597	2601.502566
631.916556	2600.365786
632.262462	2599.770929
632.608316	2597.986361
632.954117	2597.071392
633.299866	2600.496856
633.645562	2597.124324
633.991206	2599.261773
634.336797	2595.077615
634.682336	2594.888572
635.027823	2595.853953
635.373257	2593.978644
635.718639	2589.613004
636.063968	2593.756833
636.409245	2593.214909
636.754470	2590.505289
637.099642	2590.643920
637.444762	2592.093252
637.789829	2589.842377
638.134845	2589.441605
638.479808	2589.791965
638.824719	2586.721903
639.169577	2586.225349
639.514383	2588.783735
639.859137	2588.093097
640.203839	2588.020000
640.548489	2587.379773
640.893086	2585.007910
641.237632	2580.531366
641.582125	2583.820719
641.926566	2581.176633
642.270955	2584.506316
