Dividing Wavelength (nm)	Counts (n)	Blue Motor Position (mm): 24.000000	Red Motor Position (mm): 0.000000	
326.493990	2198.243026
326.888308	2198.243026
327.282561	2198.243026
327.676750	2154.546304
328.070874	2151.909781
328.464933	2153.888433
328.858929	2154.006901
329.252859	2163.073416
329.646726	2167.633139
330.040528	2181.599656
330.434265	2196.236646
330.827938	2214.954451
331.221547	2228.862994
331.615091	2249.128433
332.008571	2267.581576
332.401986	2284.015738
332.795338	2304.147586
333.188625	2321.080821
333.581847	2340.920282
333.975006	2357.644310
334.368100	2378.376055
334.761129	2395.483211
335.154095	2415.040367
335.546996	2437.420570
335.939833	2474.238637
336.332606	2486.518888
336.725315	2500.984479
337.117960	2515.359329
337.510540	2525.804600
337.903056	2533.938501
338.295508	2543.809081
338.687896	2555.993549
339.080220	2559.184600
339.472480	2569.733214
339.864676	2572.352094
340.256807	2578.373752
340.648875	2583.089751
341.040879	2585.302818
341.432818	2585.960688
341.824694	2591.669795
342.216506	2595.150712
342.608253	2594.601226
342.999937	2592.788931
343.391557	2591.715166
343.783113	2593.106524
344.174605	2591.765577
344.566033	2593.484611
344.957397	2591.556369
345.348697	2589.237438
345.739934	2586.001018
346.131106	2586.490010
346.522215	2584.292067
346.913260	2582.424319
347.304241	2577.559606
347.695159	2578.585480
348.086012	2576.440469
348.476802	2574.718915
348.867528	2569.589541
349.258191	2566.564849
349.648789	2565.417987
350.039324	2558.047820
350.429796	2566.017884
350.820203	2563.545198
351.210548	2563.068809
351.600828	2562.030331
351.991045	2563.197358
352.381198	2562.002605
352.771288	2561.218705
353.161314	2560.356668
353.551276	2559.471946
353.941175	2558.105793
354.331010	2558.055381
354.720782	2553.934238
355.110490	2557.422717
355.500135	2555.010524
355.889717	2558.746019
356.279235	2557.180741
356.668689	2558.259548
357.058080	2557.062274
357.447408	2558.499003
357.836672	2557.901626
358.225873	2557.941955
358.615010	2557.783159
359.004084	2561.558983
359.393095	2558.231822
359.782043	2559.983623
360.170927	2563.134344
360.559748	2561.173335
360.948505	2564.150136
361.337199	2563.754406
361.725830	2564.724828
362.114398	2565.811197
362.502903	2563.893038
362.891344	2563.525033
363.279722	2564.427400
363.668037	2567.220199
364.056289	2565.775908
364.444478	2567.099211
364.832603	2566.900086
365.220665	2570.411249
365.608665	2566.663152
365.996601	2568.309088
366.384474	2569.481157
366.772284	2571.792526
367.160031	2568.815724
367.547715	2572.387382
367.935336	2567.925961
368.322893	2568.606516
368.710388	2566.660631
369.097820	2568.314129
369.485189	2567.109294
369.872495	2571.245560
370.259738	2570.829665
370.646918	2572.730180
371.034035	2574.872671
371.421090	2573.156158
371.808081	2574.943247
372.195010	2576.029615
372.581875	2575.442321
372.968678	2574.713874
373.355418	2573.869481
373.742096	2578.910635
374.128710	2575.180181
374.515262	2576.233782
374.901751	2575.679255
375.288177	2576.858885
375.674540	2575.659091
376.060841	2576.621951
376.447079	2575.555747
376.833254	2576.213617
377.219367	2578.464493
377.605417	2578.661098
377.991404	2576.241344
378.377329	2579.112281
378.763191	2577.163875
379.148991	2578.847620
379.534727	2577.332754
379.920402	2579.016499
380.306013	2579.255954
380.691563	2579.082034
381.077049	2579.359297
381.462474	2580.846438
381.847835	2579.303845
382.233134	2582.376428
382.618371	2583.518249
383.003545	2577.572208
383.388657	2580.143197
383.773706	2583.278795
384.158693	2580.349884
384.543618	2581.111098
384.928480	2581.521952
385.313280	2580.738053
385.698017	2583.029258
386.082692	2583.979515
386.467305	2584.556727
386.851856	2584.138311
387.236344	2585.723754
387.620770	2583.520770
388.005133	2582.683938
388.389435	2584.002200
388.773674	2579.281160
389.157851	2585.491861
389.541965	2584.443301
389.926018	2586.794999
390.310008	2583.435070
390.693936	2585.922880
391.077802	2587.639393
391.461606	2586.502612
391.845348	2589.000504
392.229027	2588.887078
392.612645	2587.125195
392.996200	2587.170565
393.379694	2587.384814
393.763125	2587.649475
394.146494	2587.546131
394.529801	2590.727099
394.913047	2590.717017
395.296230	2592.367995
395.679351	2591.435382
396.062410	2590.994281
396.445408	2590.656523
396.828343	2589.698704
397.211217	2590.573344
397.594028	2590.225505
397.976778	2594.719693
398.359466	2593.035948
398.742092	2590.981678
399.124656	2590.343972
399.507158	2590.742223
399.889598	2591.720207
400.271977	2594.371854
400.654294	2592.960331
401.036549	2594.417224
401.418742	2593.260279
401.800874	2590.563262
402.182944	2593.855135
402.564952	2594.381936
402.946898	2595.347317
403.328783	2595.067533
403.710606	2593.398911
404.092367	2594.795311
404.474067	2595.740527
404.855705	2597.956114
405.237282	2594.830599
405.618797	2595.990064
406.000250	2600.310333
406.381642	2594.959148
406.762972	2594.074426
407.144240	2591.768098
407.525447	2594.515527
407.906593	2593.033427
408.287677	2597.371340
408.668700	2599.229005
409.049661	2599.909561
409.430560	2599.884355
409.811399	2598.727411
410.192176	2600.592637
410.572891	2598.979468
410.953545	2601.011053
411.334138	2601.769747
411.714669	2598.470312
412.095139	2598.034252
412.475547	2600.632967
412.855894	2602.785539
413.236180	2601.371496
413.616405	2603.604727
413.996568	2602.019284
414.376670	2599.818820
414.756711	2599.710436
415.136691	2602.077257
415.516609	2604.262597
415.896466	2604.315530
416.276262	2600.325456
416.655997	2604.343256
417.035670	2604.391147
417.415283	2606.659666
417.794834	2604.267639
418.174324	2605.023812
418.553753	2603.098091
418.933121	2604.847371
419.312428	2603.937443
419.691674	2604.650766
420.070859	2606.301744
420.449983	2605.225458
420.829045	2602.190683
421.208047	2605.227978
421.586988	2607.360387
421.965867	2607.650253
422.344686	2606.876436
422.723444	2609.129832
423.102141	2606.420211
423.480777	2607.831734
423.859352	2606.652104
424.237866	2606.253853
424.616319	2606.631940
424.994712	2610.415326
425.373044	2607.718308
425.751314	2606.763010
426.129524	2606.069851
426.507673	2608.925665
426.885762	2603.682865
427.263789	2610.299379
427.641756	2610.493464
428.019662	2610.556478
428.397508	2610.508587
428.775292	2611.814246
429.153016	2610.067486
429.530679	2613.399689
429.908282	2611.153855
430.285824	2614.917076
430.663305	2609.770058
431.040726	2613.056890
431.418086	2612.915738
431.795385	2612.625872
432.172624	2613.997066
432.549802	2613.994545
432.926920	2616.767180
433.303977	2616.295832
433.680974	2611.536982
434.057910	2614.982611
434.434786	2614.604525
434.811601	2616.356326
435.188355	2616.293311
435.565050	2613.455142
435.941683	2616.908332
436.318257	2616.053856
436.694770	2617.062087
437.071222	2617.518312
437.447614	2619.731378
437.823946	2617.631737
438.200218	2618.834053
438.576429	2618.929835
438.952580	2619.025617
439.328670	2616.159721
439.704700	2620.860597
440.080670	2618.423199
440.456580	2621.906636
440.832429	2622.756070
441.208218	2622.249434
441.583947	2623.224898
441.959616	2621.568879
442.335224	2623.088787
442.710773	2624.099538
443.086261	2623.557614
443.461689	2626.179014
443.837057	2627.363685
444.212365	2624.215484
444.587612	2625.374950
444.962800	2625.117851
445.337927	2622.801441
445.712995	2621.876389
446.088002	2628.346710
446.462949	2627.353603
446.837837	2629.415435
447.212664	2632.180507
447.587431	2632.104890
447.962139	2632.656897
448.336786	2638.164357
448.711374	2638.025725
449.085901	2634.396095
449.460369	2637.098153
449.834776	2635.134624
450.209124	2639.696868
450.583412	2639.187711
450.957640	2643.966725
451.331808	2645.287507
451.705917	2642.497229
452.079965	2641.864564
452.453954	2645.095944
452.827883	2645.756335
453.201752	2650.923517
453.575562	2651.155411
453.949311	2653.441574
454.323001	2656.423416
454.696632	2660.347955
455.070202	2665.179901
455.443713	2669.202741
455.817164	2672.882784
456.190556	2680.033660
456.563888	2687.650844
456.937160	2693.485979
457.310373	2696.271217
457.683526	2703.754810
458.056619	2707.092054
458.429653	2714.220245
458.802628	2721.736606
459.175542	2730.389746
459.548398	2755.479569
459.921194	2771.134872
460.293930	2790.450053
460.666607	2824.528253
461.039224	2869.291179
461.411782	2904.254101
461.784280	2928.093718
462.156719	2945.901594
462.529099	2969.804225
462.901419	2968.939667
463.273680	2986.200578
463.645882	3009.160513
464.018024	3037.217054
464.390106	3081.564085
464.762130	3152.745177
465.134094	3238.901017
465.505999	3404.563415
465.877845	3690.792568
466.249631	3926.887447
466.621358	3960.549752
466.993026	3931.374074
467.364634	3965.807675
467.736184	3957.343578
468.107674	3978.478615
468.479105	4078.732042
468.850477	4128.730206
469.221790	4178.672917
469.593043	4196.085062
469.964238	4237.775405
470.335373	4294.473262
470.706449	4432.570630
471.077467	4468.254438
471.448425	4801.124347
471.819324	5487.003575
472.190164	5924.177477
472.560945	5568.080452
472.931667	5314.775074
473.302330	5335.907591
473.672934	5366.613259
474.043479	5573.671092
474.413965	5656.154451
474.784393	5723.552157
475.154761	5988.621068
475.525070	6121.707529
475.895321	6176.467063
476.265513	6446.783814
476.635645	6708.104627
477.005719	6820.466905
477.375734	7015.748602
477.745691	7309.310114
478.115588	7582.913698
478.485427	7922.989936
478.855207	8377.984318
479.224928	9064.324811
479.594591	9982.931427
479.964194	10197.608963
480.333739	10532.676815
480.703226	10533.823678
481.072653	10680.377582
481.442022	11124.185643
481.811333	11661.759166
482.180584	11900.437636
482.549777	11747.670509
482.918912	11884.565563
483.287988	12150.352837
483.657005	12261.711926
484.025964	12364.768234
484.394864	12592.462030
484.763706	12692.647401
485.132489	12717.941390
485.501213	12980.552738
485.869879	13216.854304
486.238487	13256.331580
486.607036	13635.685968
486.975527	13675.813553
487.343959	14056.932346
487.712333	14309.390810
488.080648	14288.681750
488.448905	14804.033866
488.817104	14873.919382
489.185244	15466.096163
489.553326	15726.711213
489.921350	16435.328566
490.289315	18001.935179
490.657222	19371.954436
491.025070	19964.902513
491.392861	20103.032649
491.760593	19834.490384
492.128267	19603.361042
492.495883	19134.289238
492.863440	18828.016457
493.230939	18428.442000
493.598380	18556.570487
493.965763	18458.585579
494.333088	18366.259367
494.700354	18498.942537
495.067563	18638.963105
495.434713	18629.054717
495.801805	18873.646461
496.168839	18979.041864
496.535815	19021.132978
496.902733	19343.058542
497.269593	19218.176559
497.636395	19579.614687
498.003139	19723.698425
498.369825	19716.479493
498.736453	19994.778912
499.103023	20045.644154
499.469535	20219.795855
499.835989	20531.263545
500.202385	20713.723067
500.568723	20426.231105
500.935003	20768.240626
501.301226	20566.186138
501.667390	21349.984738
502.033497	21725.739743
502.399546	21586.860996
502.765537	21401.132285
503.131470	21819.328764
503.497345	22068.119789
503.863163	21460.156635
504.228923	22138.355665
504.594625	22400.833422
504.960269	22036.224408
505.325856	22601.849432
505.691385	22159.397441
506.056856	22778.340228
506.422270	22854.459130
506.787625	22550.976628
507.152924	23029.803064
507.518164	23097.949382
507.883347	22981.062668
508.248472	22761.318772
508.613540	23566.698552
508.978550	23427.419033
509.343503	23472.950734
509.708398	23804.537669
510.073236	23993.893490
510.438016	24250.936884
510.802738	24005.651982
511.167403	24280.772953
511.532010	24030.192318
511.896561	24830.180584
512.261053	24852.674213
512.625488	24735.875719
512.989866	24665.841489
513.354186	24564.105963
513.718449	24696.330388
514.082655	25089.910912
514.446803	24879.533480
514.810894	25337.678583
515.174927	24862.244843
515.538904	24916.923718
515.902822	25414.457877
516.266684	25194.650966
516.630488	25120.288906
516.994235	25146.593646
517.357925	25438.415960
517.721558	25653.516954
518.085133	25747.027837
518.448651	25695.174528
518.812112	25425.369454
519.175516	25613.394410
519.538863	25801.908358
519.902152	25586.968682
520.265385	25903.976600
520.628560	25698.599993
520.991678	25734.150209
521.354739	25821.538611
521.717743	25869.974017
522.080690	25664.879714
522.443580	26011.201942
522.806413	26021.707707
523.169189	26125.353830
523.531908	26183.556472
523.894569	25789.945700
524.257174	25862.371957
524.619722	26068.713946
524.982213	25756.220381
525.344647	25834.053276
525.707025	25957.309487
526.069345	25963.729397
526.431608	25918.888333
526.793815	26122.014066
527.155964	25554.004577
527.518057	25728.201648
527.880093	25651.341696
528.242072	25890.262141
528.603995	25598.006288
528.965860	25401.118983
529.327669	25450.426509
529.689421	25443.162207
530.051117	25274.167606
530.412755	25452.770646
530.774337	25271.571412
531.135862	25136.176102
531.497331	25333.111298
531.858743	24873.990732
532.220098	25366.269487
532.581396	25039.320413
532.942638	25000.004454
533.303824	25077.716361
533.664953	25113.138029
534.026025	24774.927017
534.387040	25012.307390
534.747999	25081.025879
535.108902	25248.296405
535.469748	24723.643359
535.830537	24922.678195
536.191270	25033.767582
536.551947	24928.039463
536.912567	24605.045174
537.273131	24903.133642
537.633638	24638.024402
537.994089	24828.917775
538.354483	24395.136569
538.714821	24873.315217
539.075103	24933.597335
539.435328	24712.303284
539.795497	24264.948771
540.155609	24676.417830
540.515665	24952.438647
540.875665	24215.490010
541.235609	24480.682429
541.595496	24468.318999
541.955328	24820.831764
542.315102	24748.823923
542.674821	24300.473782
543.034483	24178.775287
543.394090	24343.411810
543.753640	24118.740186
544.113134	24761.121817
544.472571	24365.058524
544.831953	24643.141173
545.191278	24249.485031
545.550548	24206.020203
545.909761	24407.588219
546.268918	24636.507015
546.628019	24593.994965
546.987064	24289.715960
547.346053	24075.257713
547.704986	24185.666544
548.063863	24337.964843
548.422684	24334.622558
548.781449	23900.644747
549.140158	24291.336691
549.498811	23864.870199
549.857408	23603.866979
550.215949	24053.484970
550.574434	23724.330391
550.932864	23942.894657
551.291237	24082.012859
551.649555	23965.070693
552.007817	24016.780329
552.366022	23896.989910
552.724173	23936.079017
553.082267	23860.219734
553.440305	24341.100441
553.798288	23606.679943
554.156215	24136.457321
554.514086	24217.433375
554.871902	23587.392488
555.229661	23875.829667
555.587365	23738.037288
555.945014	23580.743206
556.302606	23849.600544
556.660143	23782.091932
557.017625	24051.760895
557.375050	23576.359923
557.732421	23970.535304
558.089735	23774.232773
558.446994	23837.345499
558.804197	23861.842986
559.161345	23821.710360
559.518437	23556.344022
559.875474	23762.912862
560.232455	23939.222177
560.589381	23773.456435
560.946251	23745.969544
561.303065	24078.088321
561.659825	24152.883921
562.016528	23752.996912
562.373177	23499.532738
562.729770	23844.607281
563.086307	23732.628130
563.442789	23889.516400
563.799216	23716.173804
564.155587	23738.496033
564.511904	23719.385019
564.868164	23650.928671
565.224370	23641.942814
565.580520	23540.902967
565.936615	23663.208921
566.292654	23329.305576
566.648638	23654.434793
567.004567	23484.749555
567.360441	23428.512963
567.716260	23158.438187
568.072023	23481.117403
568.427732	23237.758222
568.783385	23024.819883
569.138982	23246.986054
569.494525	23300.722233
569.850013	23042.584910
570.205445	23138.999497
570.560823	22939.558848
570.916145	22712.734652
571.271412	22885.482391
571.626625	22649.873984
571.981782	22757.497577
572.336884	22561.474831
572.691931	22686.908821
573.046923	22422.659098
573.401860	22313.976862
573.756743	22323.403820
574.111570	22229.088872
574.466342	22165.197288
574.821059	22251.141400
575.175722	21944.477929
575.530330	21936.805293
575.884882	21961.632976
576.239380	21872.102083
576.593823	21755.031367
576.948211	21739.713822
577.302544	21575.548647
577.656823	21460.675874
578.011047	21546.672917
578.365216	21432.047161
578.719330	21313.532155
579.073389	21216.883153
579.427394	21350.027588
579.781344	21129.903085
580.135239	21021.225890
580.489080	20988.886888
580.842866	20749.737070
581.196597	20936.494176
581.550273	20924.839029
581.903895	20829.982157
582.257463	21137.512707
582.610975	20653.856845
582.964434	20961.034513
583.317837	20679.496153
583.671186	20765.374730
584.024481	20730.278217
584.377721	20495.461270
584.730906	20554.415044
585.084037	20594.517423
585.437113	20487.080352
585.790135	20702.022549
586.143103	20161.943573
586.496016	20171.554533
586.848874	20415.475803
587.201679	20358.306598
587.554428	20019.646923
587.907124	20357.792400
588.259765	20135.429624
588.612352	20213.693538
588.964884	19774.898904
589.317362	19952.418096
589.669786	20001.665128
590.022155	20064.036804
590.374470	20230.099973
590.726731	20040.938237
591.078937	19780.567682
591.431090	19897.492204
591.783188	19645.565582
592.135232	19612.803123
592.487222	19708.106136
592.839157	19740.172916
593.191038	19615.182547
593.542866	19500.143417
593.894639	19223.192507
594.246358	19445.958575
594.598022	19356.541108
594.949633	19101.637685
595.301190	19067.940092
595.652692	19228.919258
596.004141	19473.233738
596.355535	18805.245565
596.706876	18818.854160
597.058162	18706.968271
597.409395	18917.254962
597.760573	19008.333489
598.111698	18795.226272
598.462768	18724.798832
598.813785	18681.502882
599.164748	18510.040637
599.515657	18532.748514
599.866511	18336.274584
600.217312	18689.760292
600.568060	18218.881235
600.918753	18532.859420
601.269392	18438.151262
601.619978	18210.023927
601.970510	18424.094005
602.320988	18364.868009
602.671412	18578.781811
603.021783	18479.007294
603.372100	18219.541626
603.722363	18353.482563
604.072572	18284.703580
604.422728	18423.282379
604.772830	18197.768882
605.122878	18131.916290
605.472872	18132.483419
605.822813	18114.879710
606.172701	18070.136949
606.522534	18285.300957
606.872314	18310.370615
607.222041	18135.568606
607.571714	18360.088995
607.921333	18182.542077
608.270899	18254.945649
608.620411	18447.517726
608.969870	18194.310651
609.319276	18215.246563
609.668627	18245.354854
610.017926	18368.936220
610.367171	18490.193614
610.716362	18517.872069
611.065500	18353.394343
611.414585	18476.756418
611.763616	18459.770251
612.112594	18411.934742
612.461518	18376.631541
612.810389	18568.878464
613.159207	18425.371937
613.507971	18327.601279
613.856682	18612.938148
614.205340	18549.762408
614.553945	18684.401545
614.902496	18432.003575
615.250994	18666.623916
615.599439	18602.119832
615.947830	18591.727494
616.296169	18640.851017
616.644454	18609.185009
616.992686	18577.161080
617.340864	18790.172515
617.688990	18549.853149
618.037063	18729.028360
618.385082	18576.982119
618.733048	18855.669706
619.080961	18716.395228
619.428821	18752.505013
619.776628	18647.528026
620.124382	18574.466583
620.472083	18607.496223
620.819731	18625.840982
621.167326	18321.730855
621.514868	18371.774390
621.862357	18127.918655
622.209793	18133.501732
622.557176	17973.218246
622.904506	17797.579405
623.251783	17711.589923
623.599007	17480.982340
623.946179	17418.887928
624.293297	17365.466821
624.640363	17122.347094
624.987376	17136.921070
625.334336	16928.197136
625.681243	16772.758198
626.028097	16782.651463
626.374899	16714.989096
626.721647	16584.453458
627.068343	16413.018939
627.414987	16345.429669
627.761577	16319.303889
628.108115	16362.874582
628.454600	16081.184987
628.801032	16176.606468
629.147412	16104.422186
629.493739	16130.127029
629.840014	15936.738286
630.186236	16041.674944
630.532405	15805.275076
630.878521	16000.922256
631.224585	15887.229114
631.570597	15715.776951
631.916556	15746.787609
632.262462	15732.551390
632.608316	15643.895138
632.954117	15586.042857
633.299866	15579.867443
633.645562	15507.791546
633.991206	15265.337252
634.336797	15136.167767
634.682336	15099.163177
635.027823	14989.031609
635.373257	14875.482140
635.718639	14761.617598
636.063968	14723.564448
636.409245	14480.903466
636.754470	14498.189583
637.099642	14353.745402
637.444762	14124.299805
637.789829	14162.143747
