Dividing Wavelength (nm)	Counts (n)	Blue Motor Position (mm): 35.400000	Red Motor Position (mm): 0.000000	
326.493990	2129.605195
326.888308	2129.605195
327.282561	2129.605195
327.676750	2098.430700
328.070874	2097.823241
328.464933	2100.172419
328.858929	2107.056114
329.252859	2116.989708
329.646726	2128.854063
330.040528	2142.563481
330.434265	2158.869093
330.827938	2174.756290
331.221547	2194.802438
331.615091	2211.632330
332.008571	2230.662686
332.401986	2249.700603
332.795338	2267.546288
333.188625	2288.688887
333.581847	2309.823925
333.975006	2325.189362
334.368100	2346.057218
334.761129	2362.740917
335.154095	2378.872609
335.546996	2398.535630
335.939833	2423.259969
336.332606	2440.210848
336.725315	2453.486727
337.117960	2462.160032
337.510540	2468.864767
337.903056	2482.284318
338.295508	2487.151552
338.687896	2497.606906
339.080220	2505.677793
339.472480	2511.086951
339.864676	2515.316479
340.256807	2518.361336
340.648875	2520.924763
341.040879	2526.107069
341.432818	2531.014632
341.824694	2529.280475
342.216506	2528.599919
342.608253	2532.037986
342.999937	2529.731658
343.391557	2527.266534
343.783113	2527.382481
344.174605	2527.997502
344.566033	2527.256452
344.957397	2524.198992
345.348697	2523.523477
345.739934	2521.219670
346.131106	2518.817560
346.522215	2519.742612
346.913260	2515.472755
347.304241	2515.074504
347.695159	2511.626354
348.086012	2511.079389
348.476802	2510.761797
348.867528	2506.900273
349.258191	2506.111332
349.648789	2507.396826
350.039324	2502.196876
350.429796	2506.282731
350.820203	2500.671927
351.210548	2501.647390
351.600828	2497.778305
351.991045	2499.532626
352.381198	2499.411639
352.771288	2497.417862
353.161314	2497.765702
353.551276	2494.960300
353.941175	2498.262256
354.331010	2496.845691
354.720782	2496.886021
355.110490	2497.669920
355.500135	2494.453664
355.889717	2496.785198
356.279235	2494.337717
356.668689	2497.884169
357.058080	2493.977275
357.447408	2497.662358
357.836672	2496.447440
358.225873	2496.346617
358.615010	2494.105824
359.004084	2500.528254
359.393095	2499.318377
359.782043	2501.042452
360.170927	2500.669407
360.559748	2503.119407
360.948505	2500.450116
361.337199	2503.384068
361.725830	2501.604541
362.114398	2504.646877
362.502903	2500.142606
362.891344	2506.272649
363.279722	2502.322905
363.668037	2506.126456
364.056289	2503.731908
364.444478	2508.195849
364.832603	2505.498832
365.220665	2509.715757
365.608665	2506.875067
365.996601	2508.228617
366.384474	2506.738956
366.772284	2508.720129
367.160031	2506.746518
367.547715	2508.329440
367.935336	2506.252484
368.322893	2509.178874
368.710388	2509.425891
369.097820	2513.504184
369.485189	2510.844976
369.872495	2511.732219
370.259738	2510.144255
370.646918	2511.238186
371.034035	2514.608197
371.421090	2513.811695
371.808081	2511.583505
372.195010	2512.153155
372.581875	2514.714061
372.968678	2516.397807
373.355418	2515.039216
373.742096	2512.339678
374.128710	2510.282887
374.515262	2516.299504
374.901751	2517.448887
375.288177	2516.019720
375.674540	2511.704492
376.060841	2516.501150
376.447079	2514.494771
376.833254	2515.755059
377.219367	2510.275325
377.605417	2514.247754
377.991404	2512.211128
378.377329	2515.981911
378.763191	2511.490243
379.148991	2518.177334
379.534727	2517.519463
379.920402	2518.623476
380.306013	2517.423681
380.691563	2514.880419
381.077049	2519.029289
381.462474	2517.516943
381.847835	2518.013496
382.233134	2520.219001
382.618371	2520.481141
383.003545	2523.097500
383.388657	2518.860410
383.773706	2521.176820
384.158693	2521.607839
384.543618	2524.871986
384.928480	2522.253107
385.313280	2520.624814
385.698017	2521.721265
386.082692	2523.137829
386.467305	2523.208405
386.851856	2524.871986
387.236344	2525.194620
387.620770	2526.790145
388.005133	2524.322500
388.389435	2523.692356
388.773674	2529.129241
389.157851	2524.425844
389.541965	2524.738396
389.926018	2526.472552
390.310008	2526.734692
390.693936	2524.448529
391.077802	2526.863242
391.461606	2527.596730
391.845348	2528.468849
392.229027	2530.392050
392.612645	2530.495393
392.996200	2528.650331
393.379694	2531.896834
393.763125	2529.066226
394.146494	2529.867770
394.529801	2534.926567
394.913047	2534.372041
395.296230	2534.177956
395.679351	2531.985054
396.062410	2535.455889
396.445408	2533.502442
396.828343	2532.635363
397.211217	2529.162008
397.594028	2530.772657
397.976778	2531.669982
398.359466	2534.823224
398.742092	2529.751823
399.124656	2535.365148
399.507158	2538.470499
399.889598	2537.031249
400.271977	2541.011240
400.654294	2539.808925
401.036549	2540.933102
401.418742	2542.510983
401.800874	2547.836962
402.182944	2549.203115
402.564952	2551.204453
402.946898	2557.533622
403.328783	2560.797769
403.710606	2562.776422
404.092367	2576.480799
404.474067	2581.398444
404.855705	2590.895978
405.237282	2597.036103
405.618797	2612.237703
406.000250	2624.023921
406.381642	2639.636374
406.762972	2652.992911
407.144240	2670.054696
407.525447	2682.932324
407.906593	2701.561908
408.287677	2723.977398
408.668700	2735.193966
409.049661	2761.052564
409.430560	2786.195319
409.811399	2800.091260
410.192176	2840.990141
410.572891	2858.024200
410.953545	2897.803945
411.334138	2904.740573
411.714669	2946.519135
412.095139	2954.960547
412.475547	3014.194105
412.855894	3041.386089
413.236180	3074.982858
413.616405	3096.495983
413.996568	3152.462872
414.376670	3170.802590
414.756711	3191.501568
415.136691	3235.994792
415.516609	3299.011735
415.896466	3346.688448
416.276262	3400.754823
416.655997	3435.231274
417.035670	3543.114487
417.415283	3627.044657
417.794834	3644.532420
418.174324	3667.739372
418.553753	3672.722552
418.933121	3801.224084
419.312428	3884.365314
419.691674	3904.766864
420.070859	4015.478164
420.449983	4017.416488
420.829045	4128.755412
421.208047	4120.767703
421.586988	4213.247671
421.965867	4265.400928
422.344686	4397.514447
422.723444	4348.385882
423.102141	4270.547946
423.480777	4512.135162
423.859352	4401.070981
424.237866	4628.605980
424.616319	4660.798788
424.994712	4785.600114
425.373044	4733.656064
425.751314	4886.771030
426.129524	4770.083442
426.507673	4962.786589
426.885762	5061.893153
427.263789	5050.422008
427.641756	4980.914578
428.019662	5113.348210
428.397508	5149.190814
428.775292	5136.633300
429.153016	5256.290128
429.530679	5218.073140
429.908282	5318.752544
430.285824	5228.326847
430.663305	5502.840359
431.040726	5281.672337
431.418086	5301.751253
431.795385	5424.125263
432.172624	5454.231033
432.549802	5461.429801
432.926920	5492.891642
433.303977	5516.101115
433.680974	5571.611780
434.057910	5601.238641
434.434786	5619.550633
434.811601	5601.825936
435.188355	5833.595504
435.565050	5721.467640
435.941683	5714.233584
436.318257	5932.475217
436.694770	5926.191418
437.071222	5965.235155
437.447614	5902.702162
437.823946	5822.376417
438.200218	5985.127548
438.576429	5855.547209
438.952580	5955.435152
439.328670	6005.125805
439.704700	5917.956693
440.080670	5905.285753
440.456580	6175.337844
440.832429	6060.253343
441.208218	5912.648358
441.583947	6064.039250
441.959616	6074.245066
442.335224	6003.285784
442.710773	6134.489375
443.086261	6166.125136
443.461689	5962.606193
443.837057	6113.417352
444.212365	6264.389827
444.587612	6159.798488
444.962800	6311.627959
445.337927	6293.116842
445.712995	5909.956382
446.088002	6482.936449
446.462949	6310.798689
446.837837	6245.485500
447.212664	6420.073261
447.587431	6560.013171
447.962139	7099.855213
448.336786	8026.696553
448.711374	7765.703416
449.085901	6843.981367
449.460369	6768.714419
449.834776	6695.655497
450.209124	7088.696619
450.583412	7242.698827
450.957640	7391.037300
451.331808	7154.103069
451.705917	6705.664708
452.079965	6631.829448
452.453954	6844.059505
452.827883	6722.396298
453.201752	6812.189330
453.575562	6614.293795
453.949311	6819.125958
454.323001	6703.862496
454.696632	6782.688498
455.070202	6919.538181
455.443713	7076.186995
455.817164	7174.565113
456.190556	7257.436641
456.563888	7330.672003
456.937160	7370.970987
457.310373	7036.770213
457.683526	7052.324694
458.056619	6948.779394
458.429653	6933.797084
458.802628	6871.309462
459.175542	6978.010524
459.548398	7338.853796
459.921194	7496.407498
460.293930	7492.898855
460.666607	8024.052468
461.039224	8329.311977
461.411782	8459.794683
461.784280	8474.769430
462.156719	8368.567442
462.529099	8242.122701
462.901419	7834.709250
463.273680	7730.107828
463.645882	7741.967143
464.018024	7608.273222
464.390106	7773.040815
464.762130	8160.874424
465.134094	8627.665106
465.505999	9648.687803
465.877845	10869.680470
466.249631	11514.060920
466.621358	11131.359205
466.993026	10501.235139
467.364634	10245.527651
467.736184	9892.442715
468.107674	9550.854130
468.479105	9586.520294
468.850477	9348.915590
469.221790	9119.165003
469.593043	8797.930077
469.964238	8653.823653
470.335373	8669.872167
470.706449	8720.863438
471.077467	8707.902631
471.448425	10016.795378
471.819324	11082.001267
472.190164	11103.244690
472.560945	9855.196150
472.931667	9074.321419
473.302330	8940.012478
473.672934	8585.936955
474.043479	8942.374258
474.413965	8877.902942
474.784393	8766.165767
475.154761	8920.117564
475.525070	9006.820369
475.895321	8830.914347
476.265513	9014.266153
476.635645	9180.447790
477.005719	9180.132718
477.375734	9298.564545
477.745691	9529.270430
478.115588	9662.936624
478.485427	9907.798070
478.855207	10444.068454
479.224928	11261.471386
479.594591	11877.646579
479.964194	11695.711337
480.333739	11628.543003
480.703226	11549.837988
481.072653	11645.176290
481.442022	11875.519212
481.811333	12069.613717
482.180584	11874.422761
482.549777	11585.678072
482.918912	11402.558158
483.287988	11424.585480
483.657005	11439.320773
484.025964	11119.020981
484.394864	11251.240364
484.763706	11226.639533
485.132489	10980.018725
485.501213	10944.105545
485.869879	11029.490088
486.238487	10867.530418
486.607036	10978.342542
486.975527	10757.575291
487.343959	10944.239136
487.712333	10987.474592
488.080648	10922.103429
488.448905	10965.951385
488.817104	10907.269834
489.185244	11173.961996
489.553326	11329.816829
489.921350	11864.317768
490.289315	12920.084098
490.657222	13266.819700
491.025070	13169.727077
491.392861	13055.040827
491.760593	12669.485819
492.128267	12314.558342
492.495883	11992.930206
492.863440	11653.010243
493.230939	11317.292082
493.598380	11255.522824
493.965763	11124.157917
494.333088	11026.324244
494.700354	10946.409352
495.067563	11001.375573
495.434713	10829.066414
495.801805	10962.258740
496.168839	10890.828111
496.535815	10824.849489
496.902733	10818.548047
497.269593	10753.348284
497.636395	10852.520383
498.003139	10843.652993
498.369825	10713.538292
498.736453	10870.482014
499.103023	10790.360435
499.469535	10827.793523
499.835989	10815.455299
500.202385	10775.499114
500.568723	10634.142639
500.935003	10853.909221
501.301226	10656.243058
501.667390	10916.792574
502.033497	11009.874959
502.399546	10873.242046
502.765537	10771.927456
503.131470	10855.040960
503.497345	11023.780982
503.863163	10632.645417
504.228923	10942.247880
504.594625	11008.239104
504.960269	10755.495815
505.325856	10981.425207
505.691385	10771.796386
506.056856	10931.222877
506.422270	10948.856833
506.787625	10838.717703
507.152924	10954.208018
507.518164	10941.005236
507.883347	10860.563544
508.248472	10778.722932
508.613540	11016.872080
508.978550	10900.365974
509.343503	10867.696776
509.708398	10989.622123
510.073236	11102.463311
510.438016	11109.253745
510.802738	11054.491691
511.167403	11109.150402
511.532010	11004.682570
511.896561	11231.423588
512.261053	11315.318470
512.625488	11172.845380
512.989866	11156.811991
513.354186	11144.929991
513.718449	11049.873994
514.082655	11241.578992
514.446803	11138.467232
514.810894	11263.520615
515.174927	11122.149017
515.538904	11150.848306
515.902822	11300.777262
516.266684	11185.934736
516.630488	11127.719492
516.994235	11187.467247
517.357925	11250.864798
517.721558	11334.361429
518.085133	11353.366579
518.448651	11359.398320
518.812112	11246.345403
519.175516	11262.681263
519.538863	11376.681916
519.902152	11299.002776
520.265385	11457.650408
520.628560	11372.223015
520.991678	11342.729744
521.354739	11411.067626
521.717743	11349.399191
522.080690	11319.628657
522.443580	11459.490429
522.806413	11416.260014
523.169189	11445.602050
523.531908	11499.083652
523.894569	11326.058649
524.257174	11329.307672
524.619722	11440.671802
524.982213	11392.483412
525.344647	11441.448140
525.707025	11391.495346
526.069345	11485.936322
526.431608	11407.548901
526.793815	11511.855415
527.155964	11300.210132
527.518057	11354.788184
527.880093	11301.997221
528.242072	11377.639735
528.603995	11278.560897
528.965860	11201.534587
529.327669	11256.062227
529.689421	11196.163238
530.051117	11167.186685
530.412755	11275.082501
530.774337	11163.887250
531.135862	11147.135496
531.497331	11176.999291
531.858743	11028.648216
532.220098	11191.593432
532.581396	11059.994110
532.942638	11044.994157
533.303824	11007.924032
533.664953	11023.057576
534.026025	10937.403331
534.387040	11031.579647
534.747999	11036.479648
535.108902	11093.558113
535.469748	10854.567091
535.830537	10960.496857
536.191270	10936.185892
536.551947	10962.654471
536.912567	10954.177771
537.273131	10880.508869
537.633638	10863.968843
537.994089	10843.983189
538.354483	10799.003493
538.714821	10946.459764
539.075103	10955.715323
539.435328	10921.097719
539.795497	10742.683723
540.155609	10898.989739
540.515665	10988.152627
540.875665	10725.848789
541.235609	10792.999479
541.595496	10788.724581
541.955328	10941.272417
542.315102	10826.056846
542.674821	10782.370206
543.034483	10774.967272
543.394090	10778.806111
543.753640	10708.527385
544.113134	10927.086610
544.472571	10788.497729
544.831953	10923.673749
545.191278	10741.310008
545.550548	10761.386403
545.909761	10905.845708
546.268918	10879.949301
546.628019	10960.232196
546.987064	10823.690024
547.346053	10741.536860
547.704986	10847.824548
548.063863	10829.625982
548.422684	10823.037194
548.781449	10736.631818
549.140158	10844.076450
549.498811	10717.034332
549.857408	10578.437889
550.215949	10808.054885
550.574434	10650.428087
550.932864	10754.653943
551.291237	10817.842285
551.649555	10767.919739
552.007817	10774.495924
552.366022	10733.526467
552.724173	10735.132074
553.082267	10712.063754
553.440305	10850.902172
553.798288	10651.385906
554.156215	10812.586882
554.514086	10784.598396
554.871902	10636.476693
555.229661	10672.810810
555.587365	10648.005812
555.945014	10542.623012
556.302606	10667.273102
556.660143	10565.109078
557.017625	10716.593231
557.375050	10611.631367
557.732421	10750.399209
558.089735	10654.788685
558.446994	10665.238997
558.804197	10698.979439
559.161345	10694.492812
559.518437	10544.478156
559.875474	10636.799327
560.232455	10668.556076
560.589381	10615.954156
560.946251	10613.400812
561.303065	10720.792512
561.659825	10656.185084
562.016528	10595.177041
562.373177	10468.402104
562.729770	10585.377038
563.086307	10501.404017
563.442789	10590.216545
563.799216	10471.693977
564.155587	10517.528148
564.511904	10474.418721
564.868164	10458.418098
565.224370	10476.709925
565.580520	10398.829139
565.936615	10408.954297
566.292654	10280.984607
566.648638	10412.548640
567.004567	10365.877637
567.360441	10347.134627
567.716260	10254.097612
568.072023	10353.965391
568.427732	10306.283637
568.783385	10214.353156
569.138982	10278.423700
569.494525	10300.592174
569.850013	10175.695067
570.205445	10259.564744
570.560823	10145.811107
570.916145	10068.517616
571.271412	10138.249377
571.626625	10082.277445
571.981782	10062.523684
572.336884	10040.498883
572.691931	10041.739007
573.046923	9984.262291
573.401860	9944.474984
573.756743	9884.719667
574.111570	9924.582591
574.466342	9910.663966
574.821059	9930.957130
575.175722	9827.578188
575.530330	9837.789046
575.884882	9830.532305
576.239380	9759.076469
576.593823	9738.309436
576.948211	9749.117670
577.302544	9627.404052
577.656823	9643.991968
578.011047	9652.014965
578.365216	9621.473134
578.719330	9543.375579
579.073389	9553.858658
579.427394	9505.327470
579.781344	9485.026743
580.135239	9429.052292
580.489080	9447.588614
580.842866	9338.291358
581.196597	9352.162093
581.550273	9389.151559
581.903895	9358.864307
582.257463	9423.242362
582.610975	9295.686046
582.964434	9327.684770
583.317837	9246.388603
583.671186	9225.906395
584.024481	9228.726920
584.377721	9143.990165
584.730906	9128.188668
585.084037	9149.016196
585.437113	9085.623686
585.790135	9114.592677
586.143103	9002.590841
586.496016	8984.777924
586.848874	9040.538127
587.201679	9024.610601
587.554428	8911.285462
587.907124	8958.626938
588.259765	8926.887834
588.612352	8935.432589
588.964884	8808.778640
589.317362	8824.423861
589.669786	8828.144233
590.022155	8868.554122
590.374470	8891.569510
590.726731	8827.519130
591.078937	8675.982045
591.431090	8793.617370
591.783188	8663.232967
592.135232	8656.142584
592.487222	8655.313314
592.839157	8712.989155
593.191038	8643.108681
593.542866	8585.422757
593.894639	8486.510278
594.246358	8537.599851
594.598022	8557.167090
594.949633	8455.678581
595.301190	8425.580372
595.652692	8457.299312
596.004141	8570.727794
596.355535	8342.771858
596.706876	8326.307450
597.058162	8255.753981
597.409395	8331.774581
597.760573	8395.761947
598.111698	8308.439080
598.462768	8294.336452
598.813785	8257.016790
599.164748	8228.874549
599.515657	8213.526756
599.866511	8126.483673
600.217312	8253.493023
600.568060	8109.099254
600.918753	8214.955923
601.269392	8186.183537
601.619978	8098.860670
601.970510	8157.839650
602.320988	8156.667582
602.671412	8214.837456
603.021783	8146.721385
603.372100	8124.779763
603.722363	8129.974672
604.072572	8100.204138
604.422728	8118.574102
604.772830	8042.603914
605.122878	8046.909059
605.472872	8041.751959
605.822813	8072.253460
606.172701	8021.194134
606.522534	8091.815658
606.872314	8091.989578
607.222041	8063.517141
607.571714	8120.116696
607.921333	8078.930469
608.270899	8083.389369
608.620411	8173.978904
608.969870	8073.554078
609.319276	8070.584838
609.668627	8087.276099
610.017926	8123.547201
610.367171	8165.363572
610.716362	8145.831621
611.065500	8133.682441
611.414585	8164.420876
611.763616	8147.565778
612.112594	8134.390723
612.461518	8149.965367
612.810389	8207.467289
613.159207	8144.160479
613.507971	8099.710105
613.856682	8217.796613
614.205340	8172.779109
614.553945	8252.409175
614.902496	8148.064852
615.250994	8206.902680
615.599439	8179.178854
615.947830	8194.501441
616.296169	8168.249633
616.644454	8182.828649
616.992686	8182.115326
617.340864	8244.136642
617.688990	8143.217783
618.037063	8238.183039
618.385082	8187.380811
618.733048	8270.035570
619.080961	8202.017802
619.428821	8226.941266
619.776628	8227.805824
620.124382	8177.288421
620.472083	8161.318046
620.819731	8192.232922
621.167326	8080.641940
621.514868	8090.134433
621.862357	7976.587484
622.209793	7994.586924
622.557176	7932.822707
622.904506	7903.032008
623.251783	7840.665373
623.599007	7790.379864
623.946179	7792.945811
624.293297	7748.480313
624.640363	7665.649115
624.987376	7650.215622
625.334336	7599.909948
625.681243	7548.961527
626.028097	7538.619599
626.374899	7513.509612
626.721647	7509.428798
627.068343	7438.920700
627.414987	7408.867861
627.761577	7371.086934
628.108115	7405.507932
628.454600	7295.641025
628.801032	7346.304621
629.147412	7306.746687
629.493739	7294.499204
629.840014	7232.485450
630.186236	7287.519726
630.532405	7172.231058
630.878521	7223.681075
631.224585	7181.622728
631.570597	7103.729339
631.916556	7138.528424
632.262462	7133.225131
632.608316	7094.778771
632.954117	7072.106181
633.299866	7059.157978
633.645562	7051.576082
633.991206	6974.002807
634.336797	6915.550628
634.682336	6870.714606
635.027823	6838.388207
635.373257	6832.253123
635.718639	6761.548419
636.063968	6774.209277
636.409245	6669.980901
636.754470	6668.221538
637.099642	6626.276618
637.444762	6575.267702
637.789829	6574.965233
638.134845	6519.678899
638.479808	6506.075345
638.824719	6515.225039
639.169577	6440.016065
639.514383	6457.846626
639.859137	6387.099073
640.203839	6396.768006
640.548489	6379.202106
