Dividing Wavelength (nm)	Counts (n)	Blue Motor Position (mm): 12.100000	Red Motor Position (mm): 0.000000	
326.493990	2138.802781
326.888308	2138.802781
327.282561	2138.802781
327.676750	2104.744745
328.070874	2103.499580
328.464933	2107.368666
328.858929	2114.932917
329.252859	2121.854421
329.646726	2135.916720
330.040528	2148.328041
330.434265	2163.612819
330.827938	2182.081086
331.221547	2200.292255
331.615091	2218.805892
332.008571	2239.419170
332.401986	2256.269227
332.795338	2277.552978
333.188625	2297.246246
333.581847	2314.670994
333.975006	2334.286124
334.368100	2350.591736
334.761129	2368.850795
335.154095	2384.506098
335.546996	2406.500653
335.939833	2422.521440
336.332606	2439.742021
336.725315	2452.415482
337.117960	2458.326235
337.510540	2466.374437
337.903056	2481.608804
338.295508	2486.130719
338.687896	2497.848881
339.080220	2505.536641
339.472480	2511.661643
339.864676	2514.280522
340.256807	2519.475431
340.648875	2520.229083
341.040879	2523.621780
341.432818	2528.236956
341.824694	2524.957686
342.216506	2527.155629
342.608253	2526.701925
342.999937	2526.207892
343.391557	2528.846936
343.783113	2525.779394
344.174605	2524.687984
344.566033	2524.027593
344.957397	2522.764784
345.348697	2519.936697
345.739934	2519.535925
346.131106	2515.581140
346.522215	2514.683814
346.913260	2514.666170
347.304241	2515.059380
347.695159	2509.282218
348.086012	2508.566374
348.476802	2505.239213
348.867528	2505.342556
349.258191	2502.522031
349.648789	2500.649242
350.039324	2500.276197
350.429796	2499.459530
350.820203	2499.419200
351.210548	2497.213696
351.600828	2495.804693
351.991045	2496.553304
352.381198	2494.075577
352.771288	2494.607419
353.161314	2493.490803
353.551276	2497.397698
353.941175	2495.076246
354.331010	2493.601709
354.720782	2495.386277
355.110490	2493.889055
355.500135	2494.741010
355.889717	2494.662872
356.279235	2495.182111
356.668689	2494.967862
357.058080	2493.818478
357.447408	2494.582213
357.836672	2489.175576
358.225873	2495.661020
358.615010	2490.773622
359.004084	2498.615136
359.393095	2496.162615
359.782043	2498.242091
360.170927	2496.207985
360.559748	2497.858963
360.948505	2499.391474
361.337199	2498.731083
361.725830	2499.119252
362.114398	2502.181753
362.502903	2500.442555
362.891344	2503.931033
363.279722	2502.816938
363.668037	2504.614109
364.056289	2501.995230
364.444478	2505.329953
364.832603	2505.929851
365.220665	2505.660149
365.608665	2501.639829
365.996601	2505.145951
366.384474	2505.191322
366.772284	2506.927999
367.160031	2507.220386
367.547715	2506.544871
367.935336	2507.749707
368.322893	2506.938081
368.710388	2505.687875
369.097820	2506.328102
369.485189	2505.418173
369.872495	2506.953205
370.259738	2506.305417
370.646918	2508.833555
371.034035	2509.226765
371.421090	2512.014523
371.808081	2509.350273
372.195010	2511.112157
372.581875	2510.257681
372.968678	2512.190964
373.355418	2509.042763
373.742096	2511.442352
374.128710	2511.210459
374.515262	2510.839934
374.901751	2513.559637
375.288177	2511.396982
375.674540	2511.470079
376.060841	2512.684997
376.447079	2514.255316
376.833254	2513.352950
377.219367	2507.681652
377.605417	2509.950171
377.991404	2508.042094
378.377329	2510.413957
378.763191	2508.455469
379.148991	2513.904956
379.534727	2512.430418
379.920402	2512.805984
380.306013	2512.836231
380.691563	2515.203053
381.077049	2512.775737
381.462474	2513.516787
381.847835	2514.061232
382.233134	2517.269926
382.618371	2515.593743
383.003545	2515.432426
383.388657	2515.576098
383.773706	2514.063752
384.158693	2516.266737
384.543618	2518.240348
384.928480	2514.653567
385.313280	2516.712879
385.698017	2516.289422
386.082692	2516.135667
386.467305	2516.072652
386.851856	2518.580626
387.236344	2519.394773
387.620770	2520.324865
388.005133	2517.385873
388.389435	2515.298835
388.773674	2520.612211
389.157851	2514.643485
389.541965	2521.711183
389.926018	2516.841428
390.310008	2520.100534
390.693936	2519.586336
391.077802	2519.699762
391.461606	2518.691532
391.845348	2521.454084
392.229027	2521.411234
392.612645	2522.132119
392.996200	2521.280164
393.379694	2519.634227
393.763125	2521.310411
394.146494	2520.017355
394.529801	2521.786800
394.913047	2521.741430
395.296230	2524.935001
395.679351	2520.609691
396.062410	2522.611029
396.445408	2520.949968
396.828343	2523.836029
397.211217	2516.483506
397.594028	2523.097500
397.976778	2518.172293
398.359466	2525.360978
398.742092	2517.539628
399.124656	2523.583971
399.507158	2525.552542
399.889598	2523.795700
400.271977	2525.519774
400.654294	2527.349713
401.036549	2524.506503
401.418742	2525.671009
401.800874	2524.113293
402.182944	2527.901720
402.564952	2524.072963
402.946898	2528.622605
403.328783	2528.206709
403.710606	2526.573376
404.092367	2525.494569
404.474067	2527.334590
404.855705	2526.109589
405.237282	2528.375588
405.618797	2527.994981
406.000250	2525.769312
406.381642	2526.754857
406.762972	2527.574045
407.144240	2527.591689
407.525447	2532.083357
407.906593	2527.321987
408.287677	2529.035979
408.668700	2526.212933
409.049661	2528.060516
409.430560	2528.325177
409.811399	2530.054292
410.192176	2526.888448
410.572891	2530.439941
410.953545	2527.745444
411.334138	2527.803417
411.714669	2528.887265
412.095139	2531.571680
412.475547	2528.267203
412.855894	2529.872811
413.236180	2529.035979
413.616405	2530.137471
413.996568	2530.573531
414.376670	2531.664941
414.756711	2528.599919
415.136691	2530.354241
415.516609	2529.351051
415.896466	2531.430527
416.276262	2532.584952
416.655997	2526.971627
417.035670	2526.623787
417.415283	2529.340969
417.794834	2527.599250
418.174324	2530.155115
418.553753	2531.765764
418.933121	2531.750641
419.312428	2532.287523
419.691674	2531.997657
420.070859	2533.053779
420.449983	2531.117976
420.829045	2534.883718
421.208047	2534.130065
421.586988	2532.131248
421.965867	2530.628984
422.344686	2532.015301
422.723444	2536.358255
423.102141	2532.317770
423.480777	2533.157122
423.859352	2534.228368
424.237866	2533.026052
424.616319	2533.802390
424.994712	2533.194931
425.373044	2532.456402
425.751314	2535.173584
426.129524	2534.205683
426.507673	2533.202493
426.885762	2532.544622
427.263789	2536.736342
427.641756	2533.890610
428.019662	2535.528985
428.397508	2532.910106
428.775292	2536.108718
429.153016	2536.055786
429.530679	2537.179963
429.908282	2535.171063
430.285824	2534.303985
430.663305	2532.642925
431.040726	2536.423790
431.418086	2534.803059
431.795385	2535.753317
432.172624	2535.476053
432.549802	2535.007226
432.926920	2537.152237
433.303977	2538.231044
433.680974	2538.720036
434.057910	2537.479912
434.434786	2535.032432
434.811601	2537.127031
435.188355	2537.905889
435.565050	2538.039480
435.941683	2537.230375
436.318257	2534.798018
436.694770	2532.504293
437.071222	2536.138965
437.447614	2533.268028
437.823946	2533.729293
438.200218	2537.782381
438.576429	2538.893956
438.952580	2538.956970
439.328670	2538.016795
439.704700	2539.022505
440.080670	2535.881866
440.456580	2535.362627
440.832429	2538.803215
441.208218	2536.075951
441.583947	2539.277083
441.959616	2539.453524
442.335224	2537.449665
442.710773	2538.198276
443.086261	2538.750283
443.461689	2538.183153
443.837057	2540.265149
444.212365	2540.073586
444.587612	2538.415046
444.962800	2539.244316
445.337927	2539.705581
445.712995	2541.550644
446.088002	2538.568801
446.462949	2542.087527
446.837837	2542.032074
447.212664	2539.829090
447.587431	2541.016281
447.962139	2539.352701
448.336786	2543.085675
448.711374	2541.263298
449.085901	2540.411343
449.460369	2541.374203
449.834776	2539.997968
450.209124	2539.566950
450.583412	2539.755993
450.957640	2540.676003
451.331808	2540.643236
451.705917	2539.246836
452.079965	2541.139790
452.453954	2538.853626
452.827883	2542.178267
453.201752	2541.969059
453.575562	2541.023843
453.949311	2540.691127
454.323001	2538.286497
454.696632	2541.187681
455.070202	2540.935623
455.443713	2542.253885
455.817164	2540.386137
456.190556	2537.235416
456.563888	2540.882691
456.937160	2538.457896
457.310373	2539.824048
457.683526	2542.503422
458.056619	2541.538041
458.429653	2542.079965
458.802628	2541.674152
459.175542	2539.221631
459.548398	2542.125335
459.921194	2543.156251
460.293930	2542.616848
460.666607	2541.694317
461.039224	2543.728422
461.411782	2542.992414
461.784280	2545.195398
462.156719	2543.534338
462.529099	2542.513504
462.901419	2544.071221
463.273680	2544.449307
463.645882	2543.720860
464.018024	2543.534338
464.390106	2541.260777
464.762130	2544.960984
465.134094	2542.694986
465.505999	2542.931920
465.877845	2544.146838
466.249631	2544.608103
466.621358	2544.267826
466.993026	2547.287477
467.364634	2546.012065
467.736184	2542.460572
468.107674	2543.695655
468.479105	2543.657846
468.850477	2543.229348
469.221790	2546.001982
469.593043	2544.903011
469.964238	2543.516694
470.335373	2543.138607
470.706449	2544.280428
471.077467	2545.444935
471.448425	2547.917621
471.819324	2547.448794
472.190164	2545.392003
472.560945	2546.128011
472.931667	2546.916952
473.302330	2544.862682
473.672934	2547.705892
474.043479	2543.078113
474.413965	2544.655994
474.784393	2541.558205
475.154761	2542.667259
475.525070	2541.419574
475.895321	2544.111550
476.265513	2543.834286
476.635645	2546.276725
477.005719	2544.030891
477.375734	2545.039122
477.745691	2547.315203
478.115588	2548.681356
478.485427	2546.548948
478.855207	2549.187992
479.224928	2545.069369
479.594591	2549.271171
479.964194	2547.685728
480.333739	2548.235214
480.703226	2544.073741
481.072653	2549.727395
481.442022	2546.337219
481.811333	2549.034237
482.180584	2548.910728
482.549777	2549.513146
482.918912	2547.847045
483.287988	2549.026675
483.657005	2547.748742
484.025964	2549.545914
484.394864	2548.411654
484.763706	2546.778320
485.132489	2549.997097
485.501213	2550.536500
485.869879	2549.397200
486.238487	2546.460728
486.607036	2546.072559
486.975527	2545.104657
487.343959	2548.830070
487.712333	2550.607077
488.080648	2545.918803
488.448905	2547.234545
488.817104	2546.599359
489.185244	2546.680018
489.553326	2548.436860
489.921350	2548.288146
490.289315	2549.281253
490.657222	2550.677653
491.025070	2549.656819
491.392861	2551.721172
491.760593	2549.467776
492.128267	2550.274360
492.495883	2547.410985
492.863440	2549.409802
493.230939	2552.449618
493.598380	2550.685214
493.965763	2546.294369
494.333088	2548.648588
494.700354	2546.561551
495.067563	2548.139432
495.434713	2545.364277
495.801805	2553.422561
496.168839	2547.267312
496.535815	2551.194371
496.902733	2549.024154
497.269593	2548.565409
497.636395	2549.671942
498.003139	2547.300080
498.369825	2551.942982
498.736453	2551.839639
499.103023	2549.611449
499.469535	2549.477858
499.835989	2551.927859
500.202385	2551.154042
500.568723	2550.788558
500.935003	2549.757642
501.301226	2551.703528
501.667390	2553.054557
502.033497	2550.203784
502.399546	2549.971891
502.765537	2550.546583
503.131470	2550.430636
503.497345	2551.517005
503.863163	2549.316541
504.228923	2551.181768
504.594625	2550.322251
504.960269	2550.786038
505.325856	2551.819474
505.691385	2550.445760
506.056856	2552.426933
506.422270	2551.302756
506.787625	2551.171686
507.152924	2551.501881
507.518164	2552.507592
507.883347	2552.409289
508.248472	2552.850390
508.613540	2553.651933
508.978550	2550.670091
509.343503	2555.582695
509.708398	2554.970195
510.073236	2553.246121
510.438016	2551.280071
510.802738	2551.320400
511.167403	2553.233518
511.532010	2552.091696
511.896561	2553.823333
512.261053	2555.376008
512.625488	2553.117571
512.989866	2547.549617
513.354186	2550.660009
513.718449	2547.257230
514.082655	2551.572457
514.446803	2552.237890
514.810894	2554.009855
515.174927	2552.510112
515.538904	2552.437015
515.902822	2553.130174
516.266684	2551.436346
516.630488	2553.919115
516.994235	2556.802655
517.357925	2554.750905
517.721558	2555.418858
518.085133	2555.799465
518.448651	2554.748384
518.812112	2557.271482
519.175516	2556.512788
519.538863	2553.929197
519.902152	2554.753426
520.265385	2555.098745
520.628560	2556.411965
520.991678	2556.981616
521.354739	2556.275854
521.717743	2556.280895
522.080690	2558.980433
522.443580	2558.007490
522.806413	2559.088818
523.169189	2558.279713
523.531908	2559.255176
523.894569	2559.824826
524.257174	2559.882800
524.619722	2559.514795
524.982213	2557.274003
525.344647	2558.831719
525.707025	2561.407749
526.069345	2559.726524
526.431608	2564.094684
526.793815	2560.701987
527.155964	2560.550752
527.518057	2560.485217
527.880093	2559.950855
528.242072	2562.657955
528.603995	2561.725341
528.965860	2563.764488
529.327669	2561.750547
529.689421	2561.637121
530.051117	2564.185424
530.412755	2564.392112
530.774337	2564.253480
531.135862	2563.436813
531.497331	2562.446226
531.858743	2561.536298
532.220098	2561.506051
532.581396	2560.384394
532.942638	2562.408418
533.303824	2567.951166
533.664953	2565.607030
534.026025	2566.131310
534.387040	2568.291444
534.747999	2565.226423
535.108902	2567.154664
535.469748	2567.676423
535.830537	2567.459654
536.191270	2566.829510
536.551947	2568.750189
536.912567	2567.134499
537.273131	2568.412432
537.633638	2566.917730
537.994089	2568.525858
538.354483	2570.156671
538.714821	2570.282700
539.075103	2569.831517
539.435328	2567.283213
539.795497	2566.350600
540.155609	2571.432083
540.515665	2569.748338
540.875665	2570.741445
541.235609	2568.606516
541.595496	2570.776733
541.955328	2570.723801
542.315102	2572.644481
542.674821	2571.071641
543.034483	2571.134655
543.394090	2568.508214
543.753640	2569.637432
544.113134	2570.587690
544.472571	2572.561302
544.831953	2572.029460
545.191278	2571.492577
545.550548	2571.585838
545.909761	2572.011816
546.268918	2570.202042
546.628019	2573.420818
546.987064	2573.887125
547.346053	2572.490725
547.704986	2574.285376
548.063863	2573.199007
548.422684	2572.576425
548.781449	2573.438462
549.140158	2573.355283
549.498811	2575.031467
549.857408	2571.888308
550.215949	2571.704305
550.574434	2570.668348
550.932864	2573.168761
551.291237	2570.985941
551.649555	2572.473081
552.007817	2573.506518
552.366022	2577.093299
552.724173	2571.469892
553.082267	2574.968453
553.440305	2573.375448
553.798288	2573.526683
554.156215	2575.676735
554.514086	2575.283525
554.871902	2572.989800
555.229661	2575.293607
555.587365	2577.171437
555.945014	2572.568863
556.302606	2574.335788
556.660143	2573.781261
557.017625	2575.722105
557.375050	2572.682289
557.732421	2573.945098
558.089735	2574.323185
558.446994	2573.693041
558.804197	2574.562640
559.161345	2576.052301
559.518437	2574.870150
559.875474	2575.601117
560.232455	2573.677917
560.589381	2576.891653
560.946251	2577.552044
561.303065	2574.313103
561.659825	2574.844944
562.016528	2575.906107
562.373177	2574.862588
562.729770	2573.204049
563.086307	2572.152968
563.442789	2573.909810
563.799216	2575.013823
564.155587	2572.687330
564.511904	2575.220510
564.868164	2574.918041
565.224370	2577.657908
565.580520	2574.272773
565.936615	2578.436766
566.292654	2573.294789
566.648638	2577.952816
567.004567	2574.214800
567.360441	2578.708989
567.716260	2574.960891
568.072023	2575.676735
568.427732	2572.939388
568.783385	2572.949470
569.138982	2573.700602
569.494525	2572.611713
569.850013	2574.827300
570.205445	2577.274780
570.560823	2577.610017
570.916145	2578.663618
571.271412	2581.282498
571.626625	2581.721078
571.981782	2578.066242
572.336884	2579.074472
572.691931	2578.136818
573.046923	2579.896180
573.401860	2578.766962
573.756743	2581.191757
574.111570	2581.577405
574.466342	2581.610173
574.821059	2581.476582
575.175722	2580.904411
575.530330	2584.849114
575.884882	2581.821901
576.239380	2582.394072
576.593823	2582.028588
576.948211	2583.445153
577.302544	2581.716037
577.656823	2585.474217
578.011047	2585.229721
578.365216	2585.620411
578.719330	2584.997828
579.073389	2585.456573
579.427394	2584.027406
579.781344	2587.536049
580.135239	2586.348857
580.489080	2588.168714
580.842866	2590.220463
581.196597	2588.894640
581.550273	2590.038982
581.903895	2591.790783
582.257463	2591.994950
582.610975	2594.830599
582.964434	2595.611978
583.317837	2597.265476
583.671186	2594.734817
584.024481	2595.470825
584.377721	2598.520723
584.730906	2596.587441
585.084037	2600.905189
585.437113	2600.325456
585.790135	2603.216558
586.143103	2602.054572
586.496016	2603.077926
586.848874	2599.768409
587.201679	2603.055241
587.554428	2604.938112
587.907124	2607.496498
588.259765	2607.730911
588.612352	2615.423712
588.964884	2613.571088
589.317362	2616.837756
589.669786	2618.352622
590.022155	2618.647530
590.374470	2622.440998
590.726731	2622.967799
591.078937	2623.353447
591.431090	2625.115330
591.783188	2621.868827
592.135232	2630.458953
592.487222	2628.434930
592.839157	2632.752678
593.191038	2633.967597
593.542866	2634.007926
593.894639	2636.215951
594.246358	2640.818525
594.598022	2642.245171
594.949633	2643.336581
595.301190	2644.639719
595.652692	2647.971922
596.004141	2652.314876
596.355535	2649.756490
596.706876	2652.680360
597.058162	2656.151194
597.409395	2657.383756
597.760573	2663.549087
598.111698	2663.748213
598.462768	2667.322391
598.813785	2665.547905
599.164748	2670.871363
599.515657	2672.330777
599.866511	2677.581139
600.217312	2678.599452
600.568060	2678.435615
600.918753	2685.820905
601.269392	2689.740402
601.619978	2689.420289
601.970510	2698.625436
602.320988	2700.117617
602.671412	2707.394523
603.021783	2706.111549
603.372100	2711.223279
603.722363	2714.852910
604.072572	2720.841801
604.422728	2724.501678
604.772830	2726.210630
605.122878	2729.275651
605.472872	2731.710528
605.822813	2736.988617
606.172701	2742.733011
606.522534	2752.517891
606.872314	2757.924528
607.222041	2764.576331
607.571714	2773.547064
607.921333	2776.390275
608.270899	2779.808177
608.620411	2785.411420
608.969870	2793.293264
609.319276	2800.164357
609.668627	2808.673824
610.017926	2819.807212
610.367171	2831.699294
610.716362	2833.637618
611.065500	2844.823938
611.414585	2851.052284
611.763616	2854.422295
612.112594	2863.662730
612.461518	2874.637322
612.810389	2883.146790
613.159207	2888.213150
613.507971	2894.948131
613.856682	2913.754156
614.205340	2916.703231
614.553945	2929.611105
614.902496	2930.815941
615.250994	2948.114660
615.599439	2954.781586
615.947830	2967.462609
616.296169	2975.427632
616.644454	2988.370794
616.992686	2998.972341
617.340864	3018.786596
617.688990	3022.748943
618.037063	3040.594628
618.385082	3048.451266
618.733048	3071.446489
619.080961	3076.747262
619.428821	3088.331834
619.776628	3100.980089
620.124382	3111.009464
620.472083	3117.378962
620.819731	3128.777011
621.167326	3128.812299
621.514868	3137.097436
621.862357	3135.912764
622.209793	3144.712098
622.557176	3152.437667
622.904506	3154.698624
623.251783	3153.191319
623.599007	3162.817402
623.946179	3171.984741
624.293297	3177.696368
624.640363	3181.484795
624.987376	3192.633307
625.334336	3192.746733
625.681243	3203.257539
626.028097	3211.656101
626.374899	3218.544838
626.721647	3232.697877
627.068343	3233.239801
627.414987	3239.574011
627.761577	3245.462079
628.108115	3265.125099
628.454600	3259.111003
628.801032	3285.771145
629.147412	3284.626803
629.493739	3299.115079
629.840014	3302.348979
630.186236	3325.694563
630.532405	3317.656443
630.878521	3335.802076
631.224585	3346.232223
631.570597	3341.160823
631.916556	3366.245604
632.262462	3372.688199
632.608316	3380.905280
632.954117	3389.457597
633.299866	3395.887589
633.645562	3409.627254
633.991206	3406.481574
634.336797	3407.593148
634.682336	3410.257398
635.027823	3414.199580
635.373257	3420.064963
635.718639	3419.162596
636.063968	3432.685491
636.409245	3421.597473
636.754470	3431.712549
637.099642	3434.016356
637.444762	3436.370575
637.789829	3447.395578
638.134845	3446.455403
638.479808	3454.677525
638.824719	3463.822178
639.169577	3460.033751
639.514383	3480.024447
639.859137	3469.710246
640.203839	3483.729695
640.548489	3495.049606
640.893086	3499.019514
641.237632	3501.240143
641.582125	3516.366125
641.926566	3520.948533
642.270955	3540.210782
642.615292	3545.519117
642.959576	3569.358734
643.303809	3578.490784
643.647990	3592.482507
643.992118	3598.511727
644.336195	3595.444184
