Dividing Wavelength (nm)	Counts (n)	Blue Motor Position (mm): 28.000000	Red Motor Position (mm): 0.000000	
326.493990	2127.833230
326.888308	2127.833230
327.282561	2127.833230
327.676750	2098.423138
328.070874	2098.781060
328.464933	2102.781216
328.858929	2106.335229
329.252859	2119.185130
329.646726	2132.723149
330.040528	2140.090795
330.434265	2160.409166
330.827938	2176.709737
331.221547	2193.058199
331.615091	2214.525953
332.008571	2232.248129
332.401986	2251.888464
332.795338	2269.063675
333.188625	2290.097890
333.581847	2307.709161
333.975006	2329.766729
334.368100	2345.810202
334.761129	2364.336442
335.154095	2378.696169
335.546996	2401.608213
335.939833	2425.387336
336.332606	2439.429470
336.725315	2453.017900
337.117960	2460.095680
337.510540	2468.393419
337.903056	2481.334061
338.295508	2486.884371
338.687896	2495.981133
339.080220	2505.965139
339.472480	2513.335306
339.864676	2515.974350
340.256807	2521.196985
340.648875	2523.525998
341.040879	2524.544311
341.432818	2528.730989
341.824694	2528.352903
342.216506	2529.197296
342.608253	2531.231402
342.999937	2526.926256
343.391557	2530.160157
343.783113	2526.762419
344.174605	2524.582120
344.566033	2524.965248
344.957397	2522.142201
345.348697	2521.620442
345.739934	2517.456449
346.131106	2519.465349
346.522215	2519.543487
346.913260	2515.818074
347.304241	2514.182219
347.695159	2512.284225
348.086012	2509.582167
348.476802	2507.394306
348.867528	2503.595796
349.258191	2505.113184
349.648789	2506.068482
350.039324	2501.594458
350.429796	2503.202586
350.820203	2499.091525
351.210548	2499.706546
351.600828	2498.839468
351.991045	2496.893582
352.381198	2497.319560
352.771288	2495.734117
353.161314	2498.252173
353.551276	2496.528099
353.941175	2496.341576
354.331010	2495.479539
354.720782	2496.076915
355.110490	2495.492142
355.500135	2496.812924
355.889717	2494.559528
356.279235	2495.920640
356.668689	2498.708398
357.058080	2497.979951
357.447408	2496.618839
357.836672	2493.125320
358.225873	2496.142450
358.615010	2494.176400
359.004084	2498.945332
359.393095	2500.669407
359.782043	2501.297030
360.170927	2500.293841
360.559748	2501.319715
360.948505	2501.155878
361.337199	2501.667555
361.725830	2502.678306
362.114398	2504.737618
362.502903	2503.883142
362.891344	2502.942967
363.279722	2504.518327
363.668037	2505.788698
364.056289	2503.384068
364.444478	2506.749038
364.832603	2506.885149
365.220665	2508.629388
365.608665	2505.350118
365.996601	2507.124604
366.384474	2507.180057
366.772284	2509.201559
367.160031	2507.684172
367.547715	2508.107629
367.935336	2507.953874
368.322893	2510.401354
368.710388	2509.065448
369.097820	2510.570233
369.485189	2507.888339
369.872495	2511.429749
370.259738	2507.487567
370.646918	2507.522855
371.034035	2508.662156
371.421090	2512.710202
371.808081	2513.289935
372.195010	2509.214162
372.581875	2512.372445
372.968678	2510.411436
373.355418	2513.985614
373.742096	2513.375635
374.128710	2512.735408
374.515262	2512.357322
374.901751	2515.518125
375.288177	2514.512415
375.674540	2512.410254
376.060841	2515.560975
376.447079	2513.683145
376.833254	2515.898732
377.219367	2509.924965
377.605417	2511.815398
377.991404	2510.361025
378.377329	2513.489061
378.763191	2508.878926
379.148991	2516.491068
379.534727	2515.122395
379.920402	2517.496778
380.306013	2519.735050
380.691563	2517.786644
381.077049	2517.118692
381.462474	2516.680111
381.847835	2516.491068
382.233134	2516.473424
382.618371	2518.202540
383.003545	2519.624145
383.388657	2517.985770
383.773706	2518.295801
384.158693	2520.740761
384.543618	2520.493744
384.928480	2520.720596
385.313280	2522.260668
385.698017	2520.183713
386.082692	2519.908970
386.467305	2520.115658
386.851856	2522.926101
387.236344	2520.438291
387.620770	2522.769825
388.005133	2520.032478
388.389435	2523.301667
388.773674	2518.719258
389.157851	2523.034486
389.541965	2523.142870
389.926018	2521.287726
390.310008	2521.353261
390.693936	2523.677233
391.077802	2522.053981
391.461606	2525.262676
391.845348	2524.226718
392.229027	2525.081194
392.612645	2524.597243
392.996200	2523.291584
393.379694	2523.929290
393.763125	2524.410721
394.146494	2524.667819
394.529801	2527.321987
394.913047	2526.215454
395.296230	2526.671678
395.679351	2525.900382
396.062410	2526.906092
396.445408	2525.633200
396.828343	2527.170752
397.211217	2521.002901
397.594028	2524.093128
397.976778	2521.199506
398.359466	2528.413397
398.742092	2523.599095
399.124656	2529.640918
399.507158	2527.569003
399.889598	2527.198479
400.271977	2529.217461
400.654294	2530.182842
401.036549	2530.749972
401.418742	2526.654034
401.800874	2528.221833
402.182944	2529.162008
402.564952	2528.441123
402.946898	2531.299457
403.328783	2528.743592
403.710606	2530.490352
404.092367	2531.722914
404.474067	2530.366844
404.855705	2529.918181
405.237282	2531.329704
405.618797	2529.353572
406.000250	2532.869777
406.381642	2530.697039
406.762972	2529.514889
407.144240	2531.339787
407.525447	2535.294572
407.906593	2530.939015
408.287677	2530.906247
408.668700	2531.198634
409.049661	2534.135106
409.430560	2535.042514
409.811399	2533.807431
410.192176	2533.759540
410.572891	2535.448327
410.953545	2534.422452
411.334138	2537.109387
411.714669	2536.264994
412.095139	2535.158461
412.475547	2535.896990
412.855894	2535.337422
413.236180	2534.583769
413.616405	2536.547298
413.996568	2535.760878
414.376670	2538.173071
414.756711	2538.294058
415.136691	2538.165509
415.516609	2534.326670
415.896466	2538.765406
416.276262	2537.502597
416.655997	2534.974458
417.035670	2533.716691
417.415283	2538.205838
417.794834	2533.076464
418.174324	2536.842206
418.553753	2538.440252
418.933121	2540.668442
419.312428	2536.824562
419.691674	2540.980993
420.070859	2539.733308
420.449983	2539.118287
420.829045	2541.893442
421.208047	2544.441745
421.586988	2541.240613
421.965867	2543.206663
422.344686	2543.993083
422.723444	2542.803370
423.102141	2543.481406
423.480777	2544.295552
423.859352	2543.105840
424.237866	2541.671631
424.616319	2542.720191
424.994712	2544.449307
425.373044	2544.298073
425.751314	2545.422250
426.129524	2542.639533
426.507673	2544.502239
426.885762	2547.458876
427.263789	2545.570964
427.641756	2545.316386
428.019662	2546.054915
428.397508	2545.558361
428.775292	2550.899463
429.153016	2550.284443
429.530679	2548.948537
429.908282	2548.953578
430.285824	2545.603731
430.663305	2550.430636
431.040726	2551.912735
431.418086	2552.600853
431.795385	2552.331151
432.172624	2553.329300
432.549802	2556.520350
432.926920	2559.265258
433.303977	2559.366081
433.680974	2562.040413
434.057910	2564.349262
434.434786	2567.696588
434.811601	2568.873697
435.188355	2575.333936
435.565050	2577.277301
435.941683	2582.227714
436.318257	2588.236769
436.694770	2592.395721
437.071222	2595.808582
437.447614	2601.144644
437.823946	2609.641509
438.200218	2620.477469
438.576429	2629.080198
438.952580	2638.292907
439.328670	2648.264309
439.704700	2654.585916
440.080670	2663.594458
440.456580	2686.904753
440.832429	2692.371884
441.208218	2700.528471
441.583947	2719.286605
441.959616	2733.333780
442.335224	2743.847106
442.710773	2767.147319
443.086261	2784.892181
443.461689	2787.228756
443.837057	2814.665236
444.212365	2845.464165
444.587612	2855.649816
444.962800	2889.049981
445.337927	2908.246695
445.712995	2896.437792
446.088002	2974.946202
446.462949	2983.417861
446.837837	3000.310767
447.212664	3040.897097
447.587431	3094.779470
447.962139	3207.986141
448.336786	3380.648181
448.711374	3373.141903
449.085901	3266.725666
449.460369	3285.977832
449.834776	3312.983293
450.209124	3428.702980
450.583412	3512.338243
450.957640	3570.543405
451.331808	3566.255904
451.705917	3516.706403
452.079965	3541.213972
452.453954	3632.975575
452.827883	3645.785147
453.201752	3714.778378
453.575562	3704.431410
453.949311	3817.146569
454.323001	3825.479596
454.696632	3891.506109
455.070202	3996.561234
455.443713	4094.609156
455.817164	4181.765665
456.190556	4268.561731
456.563888	4357.515411
456.937160	4421.580915
457.310373	4349.573073
457.683526	4415.735697
458.056619	4435.113892
458.429653	4485.906038
458.802628	4505.977392
459.175542	4604.879789
459.548398	4834.421168
459.921194	4972.173218
460.293930	5028.036764
460.666607	5357.960118
461.039224	5577.704015
461.411782	5712.053285
461.784280	5797.178209
462.156719	5808.712369
462.529099	5811.807638
462.901419	5655.975490
463.273680	5658.438093
463.645882	5722.256581
464.018024	5719.819183
464.390106	5877.123347
464.762130	6179.748854
465.134094	6539.846035
465.505999	7252.607215
465.877845	8123.774053
466.249631	8638.685068
466.621358	8501.870673
466.993026	8181.742281
467.364634	8094.258097
467.736184	7919.894668
468.107674	7746.534428
468.479105	7851.241714
468.850477	7726.485759
469.221790	7620.734954
469.593043	7435.205369
469.964238	7390.868421
470.335373	7455.173380
470.706449	7552.646610
471.077467	7588.337979
471.448425	8706.876756
471.819324	9636.604157
472.190164	9709.320281
472.560945	8735.991940
472.931667	8130.370402
473.302330	8051.884678
473.672934	7792.419010
474.043479	8147.593505
474.413965	8132.676730
474.784393	8067.852533
475.154761	8244.862568
475.525070	8361.613171
475.895321	8236.277483
476.265513	8434.137730
476.635645	8614.094320
477.005719	8646.854258
477.375734	8785.649826
477.745691	9028.267958
478.115588	9187.954068
478.485427	9441.531668
478.855207	9961.816554
479.224928	10753.867523
479.594591	11366.062725
479.964194	11228.837476
480.333739	11205.272603
480.703226	11160.189564
481.072653	11266.855338
481.442022	11510.960610
481.811333	11714.542567
482.180584	11548.313039
482.549777	11285.920982
482.918912	11141.181893
483.287988	11174.423262
483.657005	11202.741943
484.025964	10909.606409
484.394864	11056.495550
484.763706	11035.675584
485.132489	10813.869856
485.501213	10787.582759
485.869879	10867.777435
486.238487	10720.580784
486.607036	10838.947076
486.975527	10634.155242
487.343959	10823.412760
487.712333	10874.802283
488.080648	10813.655607
488.448905	10862.849707
488.817104	10812.712911
489.185244	11076.042624
489.553326	11236.149670
489.921350	11777.448605
490.289315	12814.996205
490.657222	13158.523113
491.025070	13069.120770
491.392861	12939.958847
491.760593	12573.867734
492.128267	12238.429357
492.495883	11914.116807
492.863440	11579.598440
493.230939	11252.142730
493.598380	11182.516834
493.965763	11061.009903
494.333088	10958.709768
494.700354	10884.587162
495.067563	10944.350041
495.434713	10775.720924
495.801805	10906.906871
496.168839	10830.223359
496.535815	10767.455953
496.902733	10766.425037
497.269593	10701.981447
497.636395	10807.762498
498.003139	10791.083841
498.369825	10663.525004
498.736453	10818.961422
499.103023	10747.964331
499.469535	10779.637901
499.835989	10768.864955
500.202385	10729.501105
500.568723	10588.321071
500.935003	10810.414145
501.301226	10616.503642
501.667390	10869.491427
502.033497	10964.202105
502.399546	10830.306538
502.765537	10734.932949
503.131470	10807.419700
503.497345	10981.609209
503.863163	10599.003276
504.228923	10902.387477
504.594625	10968.348454
504.960269	10717.356966
505.325856	10937.967940
505.691385	10740.337066
506.056856	10891.309541
506.422270	10913.137737
506.787625	10799.772269
507.152924	10917.140413
507.518164	10899.624924
507.883347	10823.682462
508.248472	10745.685730
508.613540	10981.069806
508.978550	10863.913390
509.343503	10835.350213
509.708398	10952.914962
510.073236	11067.926366
510.438016	11072.488610
510.802738	11014.038952
511.167403	11076.178735
511.532010	10976.474794
511.896561	11201.912673
512.261053	11269.048240
512.625488	11139.329269
512.989866	11120.475354
513.354186	11111.635690
513.718449	11008.433189
514.082655	11203.921573
514.446803	11105.367016
514.810894	11230.586757
515.174927	11090.382186
515.538904	11110.009918
515.902822	11266.489854
516.266684	11152.761423
516.630488	11094.641961
516.994235	11154.740076
517.357925	11208.352747
517.721558	11293.596138
518.085133	11318.214613
518.448651	11325.554533
518.812112	11221.679038
519.175516	11228.691283
519.538863	11344.032883
519.902152	11259.820408
520.265385	11420.270252
520.628560	11335.861172
520.991678	11310.511730
521.354739	11379.651155
521.717743	11317.287041
522.080690	11289.467433
522.443580	11420.948287
522.806413	11375.948428
523.169189	11411.617112
523.531908	11464.879423
523.894569	11286.543564
524.257174	11289.094388
524.619722	11408.521843
524.982213	11359.718433
525.344647	11409.338510
525.707025	11362.317148
526.069345	11453.743514
526.431608	11368.280833
526.793815	11485.069244
527.155964	11270.570668
527.518057	11322.615541
527.880093	11273.784404
528.242072	11341.653458
528.603995	11242.897254
528.965860	11173.825885
529.327669	11217.991434
529.689421	11162.110243
530.051117	11139.344392
530.412755	11236.540359
530.774337	11134.560337
531.135862	11105.190575
531.497331	11135.770214
531.858743	10988.828142
532.220098	11155.571867
532.581396	11032.053515
532.942638	11004.826243
533.303824	10966.311828
533.664953	10985.906793
534.026025	10899.461087
534.387040	11003.379432
534.747999	11000.926911
535.108902	11059.215252
535.469748	10814.608385
535.830537	10917.808366
536.191270	10896.592670
536.551947	10924.470251
536.912567	10925.181054
537.273131	10849.266318
537.633638	10830.372073
537.994089	10821.245064
538.354483	10768.935531
538.714821	10913.326780
539.075103	10914.375340
539.435328	10884.070444
539.795497	10711.541995
540.155609	10864.709893
540.515665	10953.726587
540.875665	10695.329644
541.235609	10759.228790
541.595496	10753.910372
541.955328	10913.326780
542.315102	10798.816971
542.674821	10747.490463
543.034483	10745.199258
543.394090	10740.425286
543.753640	10679.351707
544.113134	10897.704245
544.472571	10755.180743
544.831953	10899.768597
545.191278	10709.744823
545.550548	10729.702752
545.909761	10866.713751
546.268918	10840.900523
546.628019	10922.292473
546.987064	10786.047728
547.346053	10716.666328
547.704986	10807.127313
548.063863	10796.528287
548.422684	10783.227202
548.781449	10710.712725
549.140158	10809.932715
549.498811	10689.323109
549.857408	10546.207272
550.215949	10767.637434
550.574434	10619.208221
550.932864	10721.485671
551.291237	10779.332911
551.649555	10730.123688
552.007817	10738.887734
552.366022	10712.361182
552.724173	10695.133039
553.082267	10679.472695
553.440305	10822.807822
553.798288	10614.129258
554.156215	10774.125399
554.514086	10749.708571
554.871902	10601.604512
555.229661	10637.656323
555.587365	10606.456622
555.945014	10513.301140
556.302606	10630.596187
556.660143	10537.440706
557.017625	10678.958497
557.375050	10575.768598
557.732421	10712.005781
558.089735	10622.200146
558.446994	10628.035281
558.804197	10663.630869
559.161345	10660.628862
559.518437	10507.337455
559.875474	10599.207443
560.232455	10629.892947
560.589381	10577.364123
560.946251	10577.026366
561.303065	10678.469505
561.659825	10616.188570
562.016528	10553.726153
562.373177	10434.339027
562.729770	10539.910871
563.086307	10457.939189
563.442789	10547.684330
563.799216	10427.140259
564.155587	10475.832764
564.511904	10436.723493
564.868164	10426.351319
565.224370	10438.445047
565.580520	10369.890396
565.936615	10362.686587
566.292654	10242.923895
566.648638	10368.383091
567.004567	10329.480507
567.360441	10309.202465
567.716260	10225.771369
568.072023	10319.725874
568.427732	10265.553635
568.783385	10178.397126
569.138982	10248.554864
569.494525	10267.496999
569.850013	10139.096290
570.205445	10222.338343
570.560823	10118.593918
570.916145	10030.121668
571.271412	10105.980951
571.626625	10051.344925
571.981782	10030.683756
572.336884	9997.162604
572.691931	10008.749696
573.046923	9953.891860
573.401860	9908.592051
573.756743	9841.320374
574.111570	9888.389627
574.466342	9872.585610
574.821059	9896.052181
575.175722	9792.640472
575.530330	9795.977716
575.884882	9787.480851
576.239380	9717.330674
576.593823	9694.332931
576.948211	9712.982679
577.302544	9592.582281
577.656823	9602.838509
578.011047	9612.202452
578.365216	9585.207073
578.719330	9511.079427
579.073389	9521.108802
579.427394	9467.559145
579.781344	9444.261453
580.135239	9396.065502
580.489080	9403.972551
580.842866	9304.971852
581.196597	9309.440834
581.550273	9361.263896
581.903895	9316.251433
582.257463	9378.474395
582.610975	9262.626159
582.964434	9288.671281
583.317837	9214.369714
583.671186	9196.143422
584.024481	9187.104633
584.377721	9109.264177
584.730906	9080.852234
585.084037	9114.950598
585.437113	9050.179333
585.790135	9075.117921
586.143103	8975.189649
586.496016	8943.722767
586.848874	8999.891303
587.201679	8992.125406
587.554428	8876.864464
587.907124	8925.859438
588.259765	8893.248214
588.612352	8902.765912
588.964884	8775.607848
589.317362	8787.144528
589.669786	8789.218963
590.022155	8834.359975
590.374470	8855.358902
590.726731	8794.141650
591.078937	8647.086151
591.431090	8753.464580
591.783188	8631.072926
592.135232	8621.540104
592.487222	8624.043037
592.839157	8676.299638
593.191038	8607.031663
593.542866	8552.793889
593.894639	8452.759753
594.246358	8506.793360
594.598022	8516.396758
594.949633	8418.295904
595.301190	8397.022235
595.652692	8423.634486
596.004141	8531.104325
596.355535	8312.096437
596.706876	8298.127400
597.058162	8225.270124
597.409395	8300.264849
597.760573	8360.403294
598.111698	8274.174357
598.462768	8253.828260
598.813785	8223.518323
599.164748	8196.046555
599.515657	8181.412085
599.866511	8096.372861
600.217312	8218.376346
600.568060	8082.625634
600.918753	8183.950306
601.269392	8150.499730
601.619978	8059.922798
601.970510	8130.735886
602.320988	8120.734237
602.671412	8181.800254
603.021783	8123.839588
603.372100	8089.332890
603.722363	8091.291378
604.072572	8066.473777
604.422728	8082.207219
604.772830	8012.251127
605.122878	8021.922580
605.472872	8011.237855
605.822813	8042.445118
606.172701	7984.746591
606.522534	8060.706697
606.872314	8058.944814
607.222041	8031.394908
607.571714	8080.064728
607.921333	8045.139614
608.270899	8050.979791
608.620411	8135.245198
608.969870	8044.524594
609.319276	8042.049387
609.668627	8053.949031
610.017926	8083.583454
610.367171	8135.557750
610.716362	8115.113350
611.065500	8099.258922
611.414585	8132.959035
611.763616	8117.475131
612.112594	8100.622554
612.461518	8116.902960
612.810389	8173.779778
613.159207	8116.832384
613.507971	8065.934374
613.856682	8184.325872
614.205340	8138.927761
614.553945	8214.086324
614.902496	8111.995397
615.250994	8166.825507
615.599439	8149.990573
615.947830	8163.200917
616.296169	8133.780743
616.644454	8149.730954
616.992686	8146.481930
617.340864	8206.522072
617.688990	8109.109336
618.037063	8200.767595
618.385082	8149.297415
618.733048	8233.361176
619.080961	8170.649222
619.428821	8186.836367
619.776628	8195.250053
620.124382	8143.661405
620.472083	8129.727655
620.819731	8155.087180
621.167326	8050.926859
621.514868	8057.170328
621.862357	7950.060932
622.209793	7962.686502
622.557176	7895.676965
622.904506	7861.881069
623.251783	7805.321844
623.599007	7758.943228
623.946179	7758.507168
624.293297	7717.499903
624.640363	7636.654918
624.987376	7625.413145
625.334336	7564.921820
625.681243	7512.486258
626.028097	7505.942840
626.374899	7487.582958
626.721647	7473.376986
627.068343	7405.296204
627.414987	7380.753346
627.761577	7334.740214
628.108115	7369.599793
628.454600	7261.429235
628.801032	7314.721792
629.147412	7275.811647
629.493739	7266.432580
629.840014	7203.476130
630.186236	7258.792711
630.532405	7139.463558
630.878521	7196.302568
631.224585	7154.791187
631.570597	7076.524753
631.916556	7113.370546
632.262462	7110.250072
632.608316	7067.241468
632.954117	7043.018724
633.299866	7032.470109
633.645562	7023.411156
633.991206	6945.875689
634.336797	6886.836216
634.682336	6846.204516
635.027823	6811.302087
635.373257	6804.887219
635.718639	6735.652012
636.063968	6751.370330
636.409245	6648.555997
636.754470	6641.238762
637.099642	6600.556651
637.444762	6543.364760
637.789829	6549.966151
638.134845	6499.930179
638.479808	6481.129195
638.824719	6487.826368
639.169577	6411.042033
639.514383	6436.373832
639.859137	6361.212748
640.203839	6374.032402
640.548489	6362.276432
