Dividing Wavelength (nm)	Counts (n)	Blue Motor Position (mm): 3.400000	Red Motor Position (mm): 0.000000	
326.493990	2145.799902
326.888308	2145.799902
327.282561	2145.799902
327.676750	2112.119953
328.070874	2111.010899
328.464933	2112.167844
328.858929	2121.327621
329.252859	2129.491769
329.646726	2140.383182
330.040528	2153.280974
330.434265	2168.986689
330.827938	2188.455625
331.221547	2205.303162
331.615091	2224.744371
332.008571	2247.606004
332.401986	2264.302306
332.795338	2283.738474
333.188625	2302.778912
333.581847	2320.163331
333.975006	2340.653101
334.368100	2358.478621
334.761129	2375.895808
335.154095	2393.330638
335.546996	2410.397465
335.939833	2423.393559
336.332606	2439.056424
336.725315	2454.532767
337.117960	2464.249591
337.510540	2467.990127
337.903056	2482.586788
338.295508	2486.775987
338.687896	2495.313181
339.080220	2506.474295
339.472480	2514.068793
339.864676	2515.689524
340.256807	2519.757736
340.648875	2523.785618
341.040879	2525.686133
341.432818	2526.951462
341.824694	2526.956503
342.216506	2529.630835
342.608253	2529.126720
342.999937	2530.578572
343.391557	2529.955990
343.783113	2529.582944
344.174605	2525.940711
344.566033	2525.476925
344.957397	2525.449198
345.348697	2525.214785
345.739934	2520.090452
346.131106	2515.790348
346.522215	2518.036182
346.913260	2513.063083
347.304241	2513.584843
347.695159	2511.097033
348.086012	2508.573936
348.476802	2508.488236
348.867528	2506.118894
349.258191	2505.455982
349.648789	2505.715602
350.039324	2499.358707
350.429796	2502.302740
350.820203	2501.710405
351.210548	2499.129334
351.600828	2500.278717
351.991045	2496.114724
352.381198	2497.475836
352.771288	2496.369302
353.161314	2496.916268
353.551276	2492.447285
353.941175	2494.448623
354.331010	2496.704539
354.720782	2498.269817
355.110490	2497.085146
355.500135	2495.804693
355.889717	2494.607419
356.279235	2496.780156
356.668689	2498.751248
357.058080	2494.897285
357.447408	2494.859477
357.836672	2493.599188
358.225873	2495.613129
358.615010	2496.233191
359.004084	2499.935919
359.393095	2499.099087
359.782043	2500.021618
360.170927	2499.426762
360.559748	2498.602533
360.948505	2503.245436
361.337199	2501.932216
361.725830	2503.507576
362.114398	2502.970693
362.502903	2503.976403
362.891344	2504.989675
363.279722	2504.747700
363.668037	2503.447082
364.056289	2506.872546
364.444478	2503.227792
364.832603	2506.902793
365.220665	2505.546723
365.608665	2507.643843
365.996601	2508.911693
366.384474	2506.315499
366.772284	2510.691220
367.160031	2507.527896
367.547715	2507.837927
367.935336	2507.916065
368.322893	2509.493946
368.710388	2508.972187
369.097820	2512.901766
369.485189	2509.932527
369.872495	2510.323216
370.259738	2509.682990
370.646918	2510.265243
371.034035	2507.406909
371.421090	2510.943278
371.808081	2511.147445
372.195010	2510.071158
372.581875	2512.800943
372.968678	2513.738598
373.355418	2512.009482
373.742096	2513.650378
374.128710	2512.616941
374.515262	2514.862775
374.901751	2515.059380
375.288177	2514.046108
375.674540	2512.206087
376.060841	2514.124246
376.447079	2512.881602
376.833254	2513.272291
377.219367	2509.864471
377.605417	2514.255316
377.991404	2511.759945
378.377329	2511.860768
378.763191	2511.681807
379.148991	2515.288753
379.534727	2513.572240
379.920402	2514.240193
380.306013	2515.354288
380.691563	2513.854544
381.077049	2514.283042
381.462474	2517.804288
381.847835	2515.951664
382.233134	2518.159690
382.618371	2516.319669
383.003545	2517.577437
383.388657	2517.131294
383.773706	2515.351767
384.158693	2519.573733
384.543618	2517.176665
384.928480	2518.802437
385.313280	2518.159690
385.698017	2519.593898
386.082692	2519.057015
386.467305	2518.575585
386.851856	2521.323014
387.236344	2520.120699
387.620770	2520.960051
388.005133	2521.295287
388.389435	2521.123888
388.773674	2520.657582
389.157851	2520.929804
389.541965	2519.863600
389.926018	2522.064063
390.310008	2520.022396
390.693936	2521.635565
391.077802	2522.893333
391.461606	2523.226049
391.845348	2518.782272
392.229027	2523.026924
392.612645	2521.398631
392.996200	2523.102541
393.379694	2521.325534
393.763125	2524.209074
394.146494	2523.231091
394.529801	2523.508354
394.913047	2524.531708
395.296230	2524.992974
395.679351	2522.623632
396.062410	2522.931142
396.445408	2527.077491
396.828343	2525.804600
397.211217	2521.227232
397.594028	2521.007942
397.976778	2522.411903
398.359466	2523.243693
398.742092	2522.053981
399.124656	2524.380474
399.507158	2526.149919
399.889598	2527.334590
400.271977	2524.725793
400.654294	2527.505989
401.036549	2524.279651
401.418742	2527.110258
401.800874	2526.124713
402.182944	2529.275434
402.564952	2526.039013
402.946898	2526.918695
403.328783	2527.221164
403.710606	2530.434899
404.092367	2528.766277
404.474067	2527.788294
404.855705	2528.020187
405.237282	2528.108407
405.618797	2528.299971
406.000250	2526.888448
406.381642	2527.911802
406.762972	2526.611184
407.144240	2531.634694
407.525447	2528.962883
407.906593	2528.045393
408.287677	2528.650331
408.668700	2529.356093
409.049661	2530.775177
409.430560	2528.794004
409.811399	2532.499252
410.192176	2532.358100
410.572891	2530.931453
410.953545	2528.095804
411.334138	2530.475229
411.714669	2533.121834
412.095139	2531.249046
412.475547	2530.737369
412.855894	2530.243336
413.236180	2530.815507
413.616405	2532.128727
413.996568	2531.801052
414.376670	2532.279962
414.756711	2535.332380
415.136691	2531.238963
415.516609	2533.429345
415.896466	2531.796011
416.276262	2536.756506
416.655997	2529.837523
417.035670	2530.099663
417.415283	2533.474715
417.794834	2526.280989
418.174324	2532.118645
418.553753	2531.919519
418.933121	2535.095446
419.312428	2530.545805
419.691674	2531.337266
420.070859	2534.840868
420.449983	2535.249201
420.829045	2534.167874
421.208047	2531.778367
421.586988	2535.468492
421.965867	2534.586290
422.344686	2532.579910
422.723444	2535.208872
423.102141	2534.946732
423.480777	2537.668955
423.859352	2534.803059
424.237866	2535.929757
424.616319	2537.200128
424.994712	2534.301464
425.373044	2537.154758
425.751314	2535.095446
426.129524	2534.361958
426.507673	2536.529654
426.885762	2537.784902
427.263789	2538.238606
427.641756	2538.609130
428.019662	2534.119983
428.397508	2536.877494
428.775292	2534.535878
429.153016	2538.102494
429.530679	2537.391692
429.908282	2535.662576
430.285824	2537.001002
430.663305	2538.115097
431.040726	2537.991589
431.418086	2535.279448
431.795385	2537.391692
432.172624	2538.379758
432.549802	2539.113246
432.926920	2539.037628
433.303977	2539.781199
433.680974	2539.481250
434.057910	2538.974614
434.434786	2538.588966
434.811601	2541.099460
435.188355	2536.968235
435.565050	2539.597197
435.941683	2539.115766
436.318257	2538.528472
436.694770	2537.676517
437.071222	2536.839685
437.447614	2537.580735
437.823946	2536.396064
438.200218	2539.629964
438.576429	2539.025026
438.952580	2539.453524
439.328670	2537.626105
439.704700	2540.849923
440.080670	2539.725746
440.456580	2539.188863
440.832429	2539.655170
441.208218	2539.710623
441.583947	2541.437218
441.959616	2542.415202
442.335224	2539.372865
442.710773	2539.907228
443.086261	2543.453679
443.461689	2539.501415
443.837057	2542.435366
444.212365	2543.239430
444.587612	2541.666590
444.962800	2541.865716
445.337927	2540.532331
445.712995	2541.018802
446.088002	2542.793288
446.462949	2538.435211
446.837837	2539.216589
447.212664	2540.799512
447.587431	2544.827394
447.962139	2545.177754
448.336786	2543.075593
448.711374	2540.978473
449.085901	2540.544933
449.460369	2541.533000
449.834776	2541.331353
450.209124	2540.980993
450.583412	2542.949564
450.957640	2542.180788
451.331808	2543.776313
451.705917	2539.569470
452.079965	2545.765048
452.453954	2540.860006
452.827883	2546.047353
453.201752	2543.897301
453.575562	2544.330840
453.949311	2541.757331
454.323001	2542.994934
454.696632	2543.746066
455.070202	2544.857641
455.443713	2543.325130
455.817164	2543.136087
456.190556	2536.307844
456.563888	2541.147351
456.937160	2538.031918
457.310373	2545.243289
457.683526	2542.702547
458.056619	2545.429812
458.429653	2543.289842
458.802628	2542.354708
459.175542	2542.669780
459.548398	2546.223793
459.921194	2545.593649
460.293930	2547.305121
460.666607	2543.269677
461.039224	2545.848227
461.411782	2545.079451
461.784280	2546.082641
462.156719	2545.223124
462.529099	2543.594832
462.901419	2546.508618
463.273680	2545.303783
463.645882	2546.869061
464.018024	2547.083310
464.390106	2544.456869
464.762130	2546.468289
465.134094	2545.276056
465.505999	2545.336550
465.877845	2544.933258
466.249631	2548.492313
466.621358	2545.659184
466.993026	2548.388969
467.364634	2550.034906
467.736184	2547.652960
468.107674	2545.754966
468.479105	2546.163299
468.850477	2544.073741
469.221790	2543.753628
469.593043	2544.998793
469.964238	2547.940306
470.335373	2546.705223
470.706449	2547.922662
471.077467	2546.521221
471.448425	2545.505429
471.819324	2546.561551
472.190164	2546.795964
472.560945	2544.719009
472.931667	2547.564740
473.302330	2546.632127
473.672934	2544.933258
474.043479	2549.722354
474.413965	2546.029709
474.784393	2543.277239
475.154761	2543.637681
475.525070	2541.336395
475.895321	2545.129863
476.265513	2539.781199
476.635645	2546.160779
477.005719	2545.308824
477.375734	2547.400903
477.745691	2547.073228
478.115588	2549.886192
478.485427	2546.490974
478.855207	2546.256561
479.224928	2549.606408
479.594591	2550.717982
479.964194	2547.224462
480.333739	2548.512477
480.703226	2545.913762
481.072653	2547.153886
481.442022	2545.850748
481.811333	2548.477189
482.180584	2549.225800
482.549777	2549.858465
482.918912	2547.408464
483.287988	2550.838970
483.657005	2549.578681
484.025964	2544.267826
484.394864	2545.107178
484.763706	2548.762014
485.132489	2548.376366
485.501213	2548.341078
485.869879	2548.177240
486.238487	2546.352343
486.607036	2547.852086
486.975527	2548.933413
487.343959	2549.409803
487.712333	2548.114226
488.080648	2547.259750
488.448905	2546.896787
488.817104	2551.267468
489.185244	2548.262940
489.553326	2549.150183
489.921350	2549.248486
490.289315	2548.893084
490.657222	2550.970040
491.025070	2550.274360
491.392861	2550.571788
491.760593	2550.206305
492.128267	2550.299566
492.495883	2549.639175
492.863440	2546.831252
493.230939	2550.183620
493.598380	2550.317210
493.965763	2545.167672
494.333088	2548.164638
494.700354	2544.466951
495.067563	2546.105326
495.434713	2543.350336
495.801805	2548.257899
496.168839	2552.144628
496.535815	2547.655481
496.902733	2549.177909
497.269593	2548.525080
497.636395	2552.986501
498.003139	2548.693959
498.369825	2547.592467
498.736453	2549.558517
499.103023	2552.096738
499.469535	2549.719833
499.835989	2551.345606
500.202385	2550.803682
500.568723	2551.494320
500.935003	2548.830070
501.301226	2549.709751
501.667390	2550.846531
502.033497	2551.877447
502.399546	2551.874927
502.765537	2550.649926
503.131470	2550.435677
503.497345	2550.506253
503.863163	2552.920966
504.228923	2550.526418
504.594625	2550.904505
504.960269	2551.219577
505.325856	2550.344937
505.691385	2551.940462
506.056856	2551.469114
506.422270	2552.603373
506.787625	2549.377035
507.152924	2547.194215
507.518164	2551.821995
507.883347	2551.098589
508.248472	2548.310831
508.613540	2547.249668
508.978550	2552.623538
509.343503	2550.980122
509.708398	2552.721841
510.073236	2550.639844
510.438016	2552.782334
510.802738	2549.906356
511.167403	2551.373332
511.532010	2552.903322
511.896561	2550.997766
512.261053	2552.159752
512.625488	2551.040616
512.989866	2548.104144
513.354186	2548.388969
513.718449	2544.908052
514.082655	2548.557847
514.446803	2554.791234
514.810894	2552.540359
515.174927	2550.702858
515.538904	2553.258723
515.902822	2548.502395
516.266684	2552.011038
516.630488	2552.558003
516.994235	2551.713610
517.357925	2549.611449
517.721558	2550.639844
518.085133	2550.720502
518.448651	2551.441388
518.812112	2554.834084
519.175516	2552.036244
519.538863	2551.806871
519.902152	2552.696635
520.265385	2553.959444
520.628560	2551.199412
520.991678	2549.815615
521.354739	2552.144628
521.717743	2550.856614
522.080690	2553.964485
522.443580	2554.483724
522.806413	2551.605225
523.169189	2551.643034
523.531908	2553.586398
523.894569	2550.355019
524.257174	2549.868548
524.619722	2550.697817
524.982213	2555.169321
525.344647	2552.744526
525.707025	2551.940462
526.069345	2551.731254
526.431608	2556.590926
526.793815	2552.109340
527.155964	2553.949362
527.518057	2552.832746
527.880093	2553.299053
528.242072	2554.511450
528.603995	2551.885009
528.965860	2551.456511
529.327669	2554.730740
529.689421	2551.701007
530.051117	2553.767880
530.412755	2552.053888
530.774337	2553.256203
531.135862	2552.111861
531.497331	2549.316541
531.858743	2548.141952
532.220098	2552.038764
532.581396	2547.748742
532.942638	2551.141439
533.303824	2553.110009
533.664953	2552.742005
534.026025	2549.377035
534.387040	2553.793086
534.747999	2551.925338
535.108902	2550.985163
535.469748	2551.441387
535.830537	2550.964998
536.191270	2552.363919
536.551947	2554.145967
536.912567	2555.186965
537.273131	2551.300235
537.633638	2550.075235
537.994089	2552.142108
538.354483	2552.290822
538.714821	2553.094886
539.075103	2553.634289
539.435328	2553.596481
539.795497	2552.268137
540.155609	2552.298384
540.515665	2552.492468
540.875665	2549.099772
541.235609	2553.387273
541.595496	2554.627397
541.955328	2553.067160
542.315102	2549.858465
542.674821	2551.227138
543.034483	2551.559855
543.394090	2554.002294
543.753640	2556.059084
544.113134	2550.609597
544.472571	2552.464742
544.831953	2554.481203
545.191278	2554.372818
545.550548	2553.659495
545.909761	2553.757798
546.268918	2553.906512
546.628019	2553.500699
546.987064	2553.667057
547.346053	2555.305432
547.704986	2552.805020
548.063863	2555.834753
548.422684	2550.783517
548.781449	2551.269988
549.140158	2552.638662
549.498811	2555.040771
549.857408	2553.394835
550.215949	2550.375183
550.574434	2548.779658
550.932864	2549.467776
551.291237	2550.349978
551.649555	2554.355174
552.007817	2552.953734
552.366022	2553.646892
552.724173	2552.966337
553.082267	2554.818961
553.440305	2552.618497
553.798288	2553.725030
554.156215	2549.656819
554.514086	2553.911553
554.871902	2551.600184
555.229661	2551.396017
555.587365	2552.215205
555.945014	2552.779814
556.302606	2554.196378
556.660143	2552.479865
557.017625	2551.706048
557.375050	2555.292829
557.732421	2553.210832
558.089735	2553.223435
558.446994	2552.139587
558.804197	2556.308622
559.161345	2553.304094
559.518437	2554.781152
559.875474	2552.207643
560.232455	2554.266954
560.589381	2553.674619
560.946251	2556.716955
561.303065	2552.900802
561.659825	2554.934907
562.016528	2553.384752
562.373177	2551.713610
562.729770	2553.372149
563.086307	2553.631769
563.442789	2551.864844
563.799216	2554.851728
564.155587	2555.060936
564.511904	2553.351985
564.868164	2555.421378
565.224370	2553.649413
565.580520	2555.895247
565.936615	2550.975081
566.292654	2554.728220
566.648638	2553.089845
567.004567	2553.011707
567.360441	2553.772921
567.716260	2554.415668
568.072023	2552.255534
568.427732	2549.152704
568.783385	2552.752087
569.138982	2548.767055
569.494525	2553.097407
569.850013	2546.685059
570.205445	2555.378529
570.560823	2551.080945
570.916145	2554.786193
571.271412	2551.958106
571.626625	2551.814433
571.981782	2552.288301
572.336884	2553.656975
572.691931	2551.232180
573.046923	2554.392983
573.401860	2554.067829
573.756743	2551.917777
574.111570	2551.559855
574.466342	2555.227294
574.821059	2553.803168
575.175722	2555.116389
575.530330	2554.271995
575.884882	2553.601522
576.239380	2554.335010
576.593823	2554.322407
576.948211	2554.720658
577.302544	2551.637993
577.656823	2552.212684
578.011047	2555.786862
578.365216	2553.344423
578.719330	2553.460370
579.073389	2551.653116
579.427394	2552.615976
579.781344	2551.401058
580.135239	2550.995245
580.489080	2552.868034
580.842866	2553.649413
581.196597	2555.081101
581.550273	2555.496996
581.903895	2555.315514
582.257463	2554.937428
582.610975	2553.581357
582.964434	2554.521533
583.317837	2556.129661
583.671186	2557.064795
584.024481	2552.386604
584.377721	2555.159238
584.730906	2551.595143
585.084037	2552.684032
585.437113	2553.649413
585.790135	2556.744681
586.143103	2557.001780
586.496016	2553.271326
586.848874	2551.348126
587.201679	2552.822664
587.554428	2548.401572
587.907124	2552.605894
588.259765	2549.170348
588.612352	2553.873744
588.964884	2554.405586
589.317362	2555.575134
589.669786	2553.392314
590.022155	2553.967006
590.374470	2550.944834
590.726731	2550.065153
591.078937	2554.208981
591.431090	2554.277037
591.783188	2552.565565
592.135232	2553.810730
592.487222	2555.073539
592.839157	2553.046995
593.191038	2554.904660
593.542866	2553.508261
593.894639	2555.857438
594.246358	2552.936090
594.598022	2552.994063
594.949633	2554.171172
595.301190	2554.070349
595.652692	2554.022458
596.004141	2555.650751
596.355535	2555.570092
596.706876	2553.863662
597.058162	2554.148487
597.409395	2552.585729
597.760573	2556.016235
598.111698	2555.902809
598.462768	2556.308622
598.813785	2555.512119
599.164748	2555.658313
599.515657	2553.273847
599.866511	2553.838456
600.217312	2554.846687
600.568060	2552.444577
600.918753	2555.068498
601.269392	2554.647561
601.619978	2553.195709
601.970510	2552.343754
602.320988	2551.146480
602.671412	2552.081614
603.021783	2554.014897
603.372100	2555.093703
603.722363	2555.307953
604.072572	2553.044474
604.422728	2553.982129
604.772830	2549.931562
605.122878	2548.353681
605.472872	2554.478683
605.822813	2548.540203
606.172701	2554.360216
606.522534	2553.752757
606.872314	2555.706204
607.222041	2555.557490
607.571714	2552.643703
607.921333	2555.854918
608.270899	2553.674619
608.620411	2554.655123
608.969870	2558.398180
609.319276	2556.152346
609.668627	2557.631924
610.017926	2558.514126
610.367171	2559.928170
610.716362	2558.156204
611.065500	2558.148643
611.414585	2558.098231
611.763616	2558.640155
612.112594	2554.758467
612.461518	2555.565051
612.810389	2556.149825
613.159207	2555.781821
613.507971	2555.512119
613.856682	2557.788200
614.205340	2554.135884
614.553945	2556.200237
614.902496	2554.944989
615.250994	2554.292160
615.599439	2555.433981
615.947830	2556.159908
616.296169	2552.794937
616.644454	2555.050854
616.992686	2553.871224
617.340864	2555.439023
617.688990	2553.465411
618.037063	2554.357695
618.385082	2552.845349
618.733048	2553.977088
619.080961	2552.079093
619.428821	2553.490617
619.776628	2554.753426
620.124382	2555.897767
620.472083	2556.233004
620.819731	2555.895247
621.167326	2555.796944
621.514868	2558.703170
621.862357	2556.638817
622.209793	2554.561862
622.557176	2553.818292
622.904506	2548.696479
623.251783	2550.990204
623.599007	2551.706048
623.946179	2550.183620
624.293297	2550.632282
624.640363	2556.212840
624.987376	2551.673281
625.334336	2555.398693
625.681243	2554.193858
626.028097	2553.478014
626.374899	2553.372149
626.721647	2554.448436
627.068343	2556.525391
627.414987	2552.668908
627.761577	2555.484393
628.108115	2554.766028
628.454600	2555.565051
628.801032	2555.083621
629.147412	2553.757798
629.493739	2557.032027
629.840014	2555.512119
630.186236	2552.527756
630.532405	2555.847356
630.878521	2554.960113
631.224585	2555.340720
631.570597	2553.596481
631.916556	2556.016235
632.262462	2554.967675
632.608316	2554.461039
632.954117	2552.605894
633.299866	2554.531615
633.645562	2553.989691
633.991206	2554.458518
634.336797	2554.128323
634.682336	2554.400545
635.027823	2553.195709
635.373257	2555.312994
635.718639	2554.266954
636.063968	2554.576985
636.409245	2550.181099
636.754470	2554.503888
637.099642	2555.416337
637.444762	2556.454815
637.789829	2555.522202
638.134845	2553.480534
638.479808	2553.367108
638.824719	2555.547407
639.169577	2552.414330
639.514383	2557.062274
639.859137	2550.879299
640.203839	2552.802499
640.548489	2554.556821
640.893086	2551.330482
641.237632	2550.060111
641.582125	2549.903836
641.926566	2549.245965
642.270955	2553.382232
642.615292	2552.807540
642.959576	2551.998435
643.303809	2555.499516
643.647990	2555.885165
643.992118	2555.083621
644.336195	2554.221584
