Dividing Wavelength (nm)	Counts (n)	Blue Motor Position (mm): 22.100000	Red Motor Position (mm): 0.000000	
326.493990	2132.261883
326.888308	2132.261883
327.282561	2132.261883
327.676750	2102.997985
328.070874	2100.933633
328.464933	2102.811463
328.858929	2111.139449
329.252859	2119.061622
329.646726	2129.244753
330.040528	2143.518780
330.434265	2160.966213
330.827938	2176.162772
331.221547	2194.925946
331.615091	2212.413709
332.008571	2232.711915
332.401986	2249.536766
332.795338	2274.344284
333.188625	2293.664506
333.581847	2312.578915
333.975006	2328.587099
334.368100	2350.107785
334.761129	2362.574559
335.154095	2380.402599
335.546996	2399.906823
335.939833	2424.704259
336.332606	2439.333688
336.725315	2451.150152
337.117960	2459.881431
337.510540	2468.501804
337.903056	2481.366828
338.295508	2487.378404
338.687896	2497.659838
339.080220	2505.314830
339.472480	2510.514780
339.864676	2514.061232
340.256807	2518.184896
340.648875	2523.861235
341.040879	2526.217974
341.432818	2529.993798
341.824694	2530.442461
342.216506	2533.237781
342.608253	2531.032276
342.999937	2527.737882
343.391557	2529.361134
343.783113	2526.401976
344.174605	2527.712676
344.566033	2525.802079
344.957397	2523.223529
345.348697	2521.756553
345.739934	2516.871675
346.131106	2519.049453
346.522215	2514.986283
346.913260	2512.256499
347.304241	2513.252127
347.695159	2511.293638
348.086012	2510.018226
348.476802	2506.968328
348.867528	2505.650067
349.258191	2505.687875
349.648789	2506.181908
350.039324	2503.036228
350.429796	2500.238388
350.820203	2498.489108
351.210548	2496.500372
351.600828	2497.480877
351.991045	2499.651093
352.381198	2495.197234
352.771288	2497.901813
353.161314	2495.134220
353.551276	2498.060609
353.941175	2494.713283
354.331010	2491.915443
354.720782	2495.754282
355.110490	2494.201606
355.500135	2494.602378
355.889717	2496.535660
356.279235	2495.151864
356.668689	2496.535660
357.058080	2494.884683
357.447408	2495.010711
357.836672	2493.636997
358.225873	2494.912409
358.615010	2489.924187
359.004084	2499.000785
359.393095	2497.972389
359.782043	2500.208141
360.170927	2501.148316
360.559748	2499.875425
360.948505	2499.830054
361.337199	2500.097236
361.725830	2503.623523
362.114398	2502.988337
362.502903	2501.725528
362.891344	2500.747544
363.279722	2502.723677
363.668037	2503.792401
364.056289	2502.418687
364.444478	2505.367762
364.832603	2507.512773
365.220665	2505.980262
365.608665	2505.491270
365.996601	2509.667866
366.384474	2505.382885
366.772284	2506.277690
367.160031	2507.616117
367.547715	2507.968997
367.935336	2508.175685
368.322893	2508.190808
368.710388	2508.382372
369.097820	2510.759276
369.485189	2508.150479
369.872495	2510.471930
370.259738	2510.108967
370.646918	2508.566374
371.034035	2511.674245
371.421090	2509.715757
371.808081	2507.835407
372.195010	2512.082579
372.581875	2508.576456
372.968678	2512.241375
373.355418	2510.081241
373.742096	2511.923783
374.128710	2511.192815
374.515262	2510.103926
374.901751	2514.696417
375.288177	2512.768176
375.674540	2513.736077
376.060841	2513.645337
376.447079	2514.741788
376.833254	2512.768176
377.219367	2509.511590
377.605417	2513.103412
377.991404	2508.836076
378.377329	2509.504029
378.763191	2509.088133
379.148991	2514.988804
379.534727	2515.608866
379.920402	2515.016530
380.306013	2516.347395
380.691563	2517.597601
381.077049	2513.438649
381.462474	2518.056346
381.847835	2516.584329
382.233134	2515.964267
382.618371	2514.396468
383.003545	2519.777900
383.388657	2517.461490
383.773706	2516.733043
384.158693	2518.084072
384.543618	2517.781603
384.928480	2516.017199
385.313280	2517.234638
385.698017	2517.592560
386.082692	2518.081552
386.467305	2519.094824
386.851856	2520.644979
387.236344	2520.408044
387.620770	2518.472241
388.005133	2517.128774
388.389435	2520.748322
388.773674	2518.366377
389.157851	2519.097344
389.541965	2517.779083
389.926018	2518.963754
390.310008	2520.466018
390.693936	2522.275792
391.077802	2519.452746
391.461606	2521.018024
391.845348	2523.319311
392.229027	2521.698580
392.612645	2520.581964
392.996200	2525.091276
393.379694	2523.919208
393.763125	2524.440968
394.146494	2523.720082
394.529801	2524.501461
394.913047	2523.858714
395.296230	2523.019362
395.679351	2524.627490
396.062410	2524.430885
396.445408	2522.106913
396.828343	2526.341482
397.211217	2522.290915
397.594028	2520.428209
397.976778	2522.154804
398.359466	2522.696728
398.742092	2520.599608
399.124656	2523.193282
399.507158	2524.992974
399.889598	2526.457429
400.271977	2526.379291
400.654294	2529.305681
401.036549	2525.761750
401.418742	2528.121010
401.800874	2526.608664
402.182944	2526.941380
402.564952	2526.439785
402.946898	2527.223684
403.328783	2529.013294
403.710606	2527.982378
404.092367	2529.373737
404.474067	2528.141174
404.855705	2527.705115
405.237282	2526.883407
405.618797	2530.263500
406.000250	2529.953469
406.381642	2528.746113
406.762972	2526.961544
407.144240	2529.177132
407.525447	2529.943387
407.906593	2530.540764
408.287677	2528.380629
408.668700	2530.281144
409.049661	2528.146216
409.430560	2530.376926
409.811399	2530.107224
410.192176	2531.521268
410.572891	2530.785260
410.953545	2530.092101
411.334138	2530.220650
411.714669	2531.107893
412.095139	2530.497914
412.475547	2530.001360
412.855894	2531.390198
413.236180	2528.920033
413.616405	2533.457071
413.996568	2531.460774
414.376670	2533.562935
414.756711	2531.846422
415.136691	2529.983716
415.516609	2534.344314
415.896466	2534.548481
416.276262	2531.632173
416.655997	2531.390198
417.035670	2527.523633
417.415283	2532.101001
417.794834	2528.254600
418.174324	2533.212575
418.553753	2533.560415
418.933121	2533.260466
419.312428	2535.957483
419.691674	2533.094108
420.070859	2536.365817
420.449983	2534.775333
420.829045	2535.571835
421.208047	2534.334232
421.586988	2535.493697
421.965867	2533.963707
422.344686	2534.409849
422.723444	2535.740714
423.102141	2536.741383
423.480777	2537.358924
423.859352	2537.227854
424.237866	2537.318595
424.616319	2535.231557
424.994712	2537.459747
425.373044	2537.547968
425.751314	2537.989068
426.129524	2533.099149
426.507673	2535.914634
426.885762	2535.803728
427.263789	2540.313040
427.641756	2536.857329
428.019662	2537.003523
428.397508	2539.077958
428.775292	2537.880684
429.153016	2538.193235
429.530679	2539.294727
429.908282	2538.036959
430.285824	2540.131559
430.663305	2539.481250
431.040726	2537.580735
431.418086	2537.923533
431.795385	2540.136600
432.172624	2541.729605
432.549802	2537.593338
432.926920	2539.834131
433.303977	2542.334543
433.680974	2540.270191
434.057910	2539.103163
434.434786	2543.529297
434.811601	2543.100798
435.188355	2542.427804
435.565050	2542.082485
435.941683	2541.149872
436.318257	2537.530323
436.694770	2537.797505
437.071222	2537.454706
437.447614	2537.268183
437.823946	2539.753472
438.200218	2541.129707
438.576429	2541.767413
438.952580	2542.339584
439.328670	2541.878319
439.704700	2542.435366
440.080670	2543.060469
440.456580	2540.721374
440.832429	2543.592311
441.208218	2540.227341
441.583947	2544.834955
441.959616	2541.976621
442.335224	2541.699358
442.710773	2542.808412
443.086261	2541.953936
443.461689	2542.286652
443.837057	2543.050387
444.212365	2544.230017
444.587612	2543.773793
444.962800	2542.420243
445.337927	2542.994934
445.712995	2544.381252
446.088002	2545.747404
446.462949	2545.399565
446.837837	2544.313196
447.212664	2544.028371
447.587431	2545.639019
447.962139	2543.138607
448.336786	2546.518701
448.711374	2545.190357
449.085901	2546.052394
449.460369	2542.188350
449.834776	2545.490305
450.209124	2545.875954
450.583412	2550.959957
450.957640	2543.252033
451.331808	2545.921324
451.705917	2545.880995
452.079965	2544.829914
452.453954	2545.134904
452.827883	2545.202960
453.201752	2545.596170
453.575562	2548.888043
453.949311	2547.675646
454.323001	2548.676315
454.696632	2547.753783
455.070202	2549.344267
455.443713	2548.898125
455.817164	2545.059287
456.190556	2545.772610
456.563888	2547.562220
456.937160	2544.310675
457.310373	2550.254196
457.683526	2548.404092
458.056619	2550.866696
458.429653	2550.566747
458.802628	2550.702858
459.175542	2552.048847
459.548398	2551.136398
459.921194	2551.138918
460.293930	2553.389793
460.666607	2554.256872
461.039224	2552.550441
461.411782	2553.167983
461.784280	2553.765359
462.156719	2554.929866
462.529099	2552.895760
462.901419	2552.754608
463.273680	2554.206460
463.645882	2552.099258
464.018024	2556.472459
464.390106	2557.596636
464.762130	2556.283416
465.134094	2558.705690
465.505999	2560.931360
465.877845	2560.593602
466.249631	2564.992009
466.621358	2559.358520
466.993026	2563.819941
467.364634	2567.230281
467.736184	2563.583007
468.107674	2568.712381
468.479105	2567.696588
468.850477	2567.671382
469.221790	2566.990827
469.593043	2570.968297
469.964238	2571.600962
470.335373	2575.102043
470.706449	2576.992476
471.077467	2577.741087
471.448425	2588.125864
471.819324	2594.545773
472.190164	2601.656321
472.560945	2597.517534
472.931667	2595.836309
473.302330	2595.448140
473.672934	2599.559201
474.043479	2609.906169
474.413965	2611.917590
474.784393	2611.055552
475.154761	2619.585185
475.525070	2625.443005
475.895321	2629.264200
476.265513	2636.314254
476.635645	2648.997797
477.005719	2658.719662
477.375734	2670.407577
477.745691	2679.453928
478.115588	2693.445650
478.485427	2707.376879
478.855207	2731.715570
479.224928	2767.850560
479.594591	2796.849798
479.964194	2804.393885
480.333739	2808.613330
480.703226	2824.866010
481.072653	2848.836697
481.442022	2879.257540
481.811333	2903.618916
482.180584	2916.544434
482.549777	2924.282605
482.918912	2935.295006
483.287988	2962.852473
483.657005	2984.912563
484.025964	2991.662668
484.394864	3019.502440
484.763706	3042.056562
485.132489	3049.903118
485.501213	3076.066707
485.869879	3100.710387
486.238487	3125.795169
486.607036	3154.050836
486.975527	3171.757889
487.343959	3209.327088
487.712333	3250.835949
488.080648	3270.488887
488.448905	3313.994045
488.817104	3338.607478
489.185244	3397.672157
489.553326	3457.850931
489.921350	3561.197106
490.289315	3736.104980
490.657222	3813.030467
491.025070	3861.012169
491.392861	3888.630130
491.760593	3893.963671
492.128267	3889.151890
492.495883	3887.689955
492.863440	3889.187178
493.230939	3889.643402
493.598380	3936.584106
493.965763	3971.965445
494.333088	3993.060153
494.700354	4039.131258
495.067563	4088.106068
495.434713	4118.945326
495.801805	4198.872820
496.168839	4239.801948
496.535815	4290.952016
496.902733	4338.739634
497.269593	4391.223087
497.636395	4463.016679
498.003139	4533.733985
498.369825	4554.354825
498.736453	4656.745701
499.103023	4692.389179
499.469535	4770.690901
499.835989	4823.554961
500.202385	4884.878077
500.568723	4903.442126
500.935003	5024.339078
501.301226	5059.012134
501.667390	5182.653993
502.033497	5287.043687
502.399546	5304.995236
502.765537	5343.935628
503.131470	5439.185710
503.497345	5572.085649
503.863163	5506.661554
504.228923	5686.560170
504.594625	5772.950424
504.960269	5754.189770
505.325856	5905.535290
505.691385	5909.422020
506.056856	6037.706783
506.422270	6123.650894
506.787625	6135.600949
507.152924	6268.266474
507.518164	6327.752090
507.883347	6369.182812
508.248472	6404.677577
508.613540	6576.409524
508.978550	6607.762980
509.343503	6662.174674
509.708398	6792.538913
510.073236	6918.091370
510.438016	6992.604665
510.802738	7043.394290
511.167403	7135.939792
511.532010	7169.221490
511.896561	7349.016762
512.261053	7466.105122
512.625488	7472.628375
512.989866	7533.281018
513.354186	7598.609330
513.718449	7619.973740
514.082655	7791.161243
514.446803	7806.937533
514.810894	7953.945141
515.174927	7944.679501
515.538904	8027.024228
515.902822	8192.490021
516.266684	8184.270419
516.630488	8220.228970
516.994235	8312.169534
517.357925	8435.766023
517.721558	8555.417810
518.085133	8636.419070
518.448651	8697.611116
518.812112	8682.235596
519.175516	8765.664172
519.538863	8915.567923
519.902152	8902.886900
520.265385	9094.644831
520.628560	9077.323426
520.991678	9133.345769
521.354739	9230.929904
521.717743	9232.361592
522.080690	9276.726267
522.443580	9442.607954
522.806413	9464.267272
523.169189	9537.903406
523.531908	9640.702615
523.894569	9548.870436
524.257174	9603.735834
524.619722	9752.381817
524.982213	9744.905786
525.344647	9852.897384
525.707025	9853.260347
526.069345	9982.833124
526.431608	9964.195978
526.793815	10099.424930
527.155964	9967.545825
527.518057	10045.282938
527.880093	10049.152023
528.242072	10141.042176
528.603995	10105.597823
528.965860	10079.300644
529.327669	10159.802830
529.689421	10139.466815
530.051117	10160.012038
530.412755	10286.076172
530.774337	10219.439680
531.135862	10236.551877
531.497331	10285.599783
531.858743	10187.629999
532.220098	10364.723213
532.581396	10278.859760
532.942638	10290.119177
533.303824	10281.158526
533.664953	10327.091000
534.026025	10277.385223
534.387040	10389.888653
534.747999	10414.706253
535.108902	10487.997069
535.469748	10284.614237
535.830537	10402.821733
536.191270	10408.823227
536.551947	10444.007960
536.912567	10467.187186
537.273131	10411.351366
537.633638	10410.832127
537.994089	10417.783878
538.354483	10383.302386
538.714821	10538.189317
539.075103	10567.816178
539.435328	10547.371779
539.795497	10392.237831
540.155609	10556.866792
540.515665	10651.217027
540.875665	10410.242312
541.235609	10500.625159
541.595496	10501.688842
541.955328	10662.564665
542.315102	10565.293081
542.674821	10527.824705
543.034483	10533.629593
543.394090	10546.033352
543.753640	10487.140072
544.113134	10709.948990
544.472571	10576.630636
544.831953	10722.287214
545.191278	10549.352952
545.550548	10583.065668
545.909761	10717.946781
546.268918	10700.096055
546.628019	10789.190888
546.987064	10660.449901
547.346053	10587.098592
547.704986	10693.265292
548.063863	10685.602738
548.422684	10675.921202
548.781449	10603.535274
549.140158	10707.161232
549.498811	10584.671276
549.857408	10451.045411
550.215949	10682.734321
550.574434	10535.923318
550.932864	10635.879317
551.291237	10700.421209
551.649555	10648.083950
552.007817	10671.996663
552.366022	10629.547628
552.724173	10628.791454
553.082267	10613.514238
553.440305	10749.854764
553.798288	10552.864116
554.156215	10713.971831
554.514086	10686.749600
554.871902	10540.162929
555.229661	10578.740358
555.587365	10554.847810
555.945014	10455.889960
556.302606	10579.373023
556.660143	10477.153547
557.017625	10625.116453
557.375050	10528.172544
557.732421	10662.831846
558.089735	10582.044835
558.446994	10582.415360
558.804197	10619.578746
559.161345	10622.646288
559.518437	10470.355551
559.875474	10561.018182
560.232455	10597.579150
560.589381	10542.449092
560.946251	10537.957424
561.303065	10642.848712
561.659825	10585.417367
562.016528	10517.381954
562.373177	10394.042564
562.729770	10513.369196
563.086307	10433.492113
563.442789	10516.335915
563.799216	10402.209233
564.155587	10448.827303
564.511904	10407.346169
564.868164	10390.478468
565.224370	10417.269680
565.580520	10338.587351
565.936615	10338.725983
566.292654	10213.085305
566.648638	10346.171767
567.004567	10304.486466
567.360441	10287.754876
567.716260	10192.585453
568.072023	10295.193099
568.427732	10244.562270
568.783385	10150.658177
569.138982	10225.799095
569.494525	10239.448019
569.850013	10119.473599
570.205445	10198.652482
570.560823	10096.286812
570.916145	10013.017033
571.271412	10088.810781
571.626625	10027.543118
571.981782	10008.792546
572.336884	9982.407147
572.691931	9991.551800
573.046923	9936.220095
573.401860	9892.092355
573.756743	9825.632303
574.111570	9875.194407
574.466342	9857.444504
574.821059	9886.322754
575.175722	9764.074773
575.530330	9782.059090
575.884882	9774.300754
576.239380	9705.148726
576.593823	9684.449748
576.948211	9694.554741
577.302544	9579.218182
577.656823	9596.254762
578.011047	9599.949928
578.365216	9565.128157
578.719330	9490.382969
579.073389	9505.957614
579.427394	9458.790058
579.781344	9431.711500
580.135239	9379.827945
580.489080	9386.202484
580.842866	9291.577506
581.196597	9299.686202
581.550273	9341.661369
581.903895	9303.114186
582.257463	9373.380309
582.610975	9249.821628
582.964434	9278.669631
583.317837	9199.783135
583.671186	9176.021657
584.024481	9180.641874
584.377721	9097.843443
584.730906	9073.855112
585.084037	9104.946429
585.437113	9041.011995
585.790135	9058.179644
586.143103	8960.756826
586.496016	8933.280017
586.848874	8994.482145
587.201679	8982.206935
587.554428	8870.260552
587.907124	8917.009693
588.259765	8886.520794
588.612352	8884.670691
588.964884	8770.077702
589.317362	8781.904249
589.669786	8775.567519
590.022155	8821.976381
590.374470	8841.659566
590.726731	8777.652036
591.078937	8634.916806
591.431090	8747.185822
591.783188	8621.172100
592.135232	8609.910162
592.487222	8608.826314
592.839157	8659.641145
593.191038	8592.392153
593.542866	8541.179071
593.894639	8439.614944
594.246358	8491.755598
594.598022	8518.877006
594.949633	8412.778362
595.301190	8387.663333
595.652692	8411.961695
596.004141	8519.398765
596.355535	8297.323336
596.706876	8283.359339
597.058162	8215.586067
597.409395	8295.478273
597.760573	8352.949948
598.111698	8263.633304
598.462768	8252.598219
598.813785	8214.724030
599.164748	8181.154986
599.515657	8176.436466
599.866511	8087.429854
600.217312	8212.553813
600.568060	8066.103253
600.918753	8173.867998
601.269392	8135.071278
601.619978	8057.427427
601.970510	8115.607383
602.320988	8119.161397
602.671412	8170.578646
603.021783	8107.528934
603.372100	8086.008249
603.722363	8086.676202
604.072572	8058.458343
604.422728	8069.327071
604.772830	8003.701330
605.122878	8010.897577
605.472872	8004.074375
605.822813	8033.497070
606.172701	7977.580591
606.522534	8051.783855
606.872314	8047.556848
607.222041	8016.871344
607.571714	8077.713030
607.921333	8036.917492
608.270899	8038.888584
608.620411	8130.914847
608.969870	8027.699743
609.319276	8026.656224
609.668627	8046.568782
610.017926	8076.649347
610.367171	8125.107438
610.716362	8099.543747
611.065500	8096.282120
611.414585	8122.460832
611.763616	8111.529090
612.112594	8088.228877
612.461518	8105.890559
612.810389	8164.473808
613.159207	8108.645550
613.507971	8050.054739
613.856682	8174.205756
614.205340	8130.433417
614.553945	8205.254222
614.902496	8104.305117
615.250994	8159.367119
615.599439	8135.436762
615.947830	8156.201275
616.296169	8128.353941
616.644454	8143.411867
616.992686	8138.784088
617.340864	8194.050258
617.688990	8101.194725
618.037063	8186.901902
618.385082	8134.927606
618.733048	8221.852221
619.080961	8165.615630
619.428821	8181.548196
619.776628	8179.718258
620.124382	8135.666135
620.472083	8114.168134
620.819731	8150.088876
621.167326	8041.522587
621.514868	8050.962147
621.862357	7939.655991
622.209793	7952.458001
622.557176	7885.035089
622.904506	7858.228753
623.251783	7794.584186
623.599007	7748.654233
623.946179	7750.587516
624.293297	7709.587812
624.640363	7626.993547
624.987376	7614.189016
625.334336	7563.694299
625.681243	7511.626741
626.028097	7500.193404
626.374899	7473.422357
626.721647	7467.826676
627.068343	7402.969711
627.414987	7368.992334
627.761577	7332.716191
628.108115	7366.295317
628.454600	7256.274655
628.801032	7309.496637
629.147412	7269.913497
629.493739	7258.575942
629.840014	7191.107659
630.186236	7253.945642
630.532405	7135.695296
630.878521	7190.848040
631.224585	7145.530587
631.570597	7066.107208
631.916556	7101.365038
632.262462	7097.407732
632.608316	7059.379788
632.954117	7037.841459
633.299866	7023.506938
633.645562	7014.720207
633.991206	6938.941582
634.336797	6883.451081
634.682336	6836.671694
635.027823	6805.983670
635.373257	6789.690661
635.718639	6730.631023
636.063968	6740.983032
636.409245	6638.801364
636.754470	6637.878833
637.099642	6594.048521
637.444762	6537.138935
637.789829	6548.441202
638.134845	6487.176059
638.479808	6474.169882
638.824719	6479.576520
639.169577	6406.298308
639.514383	6427.811432
639.859137	6354.681933
640.203839	6363.284662
640.548489	6350.729669
640.893086	6330.809549
641.237632	6301.517925
641.582125	6320.631460
641.926566	6289.809845
642.270955	6300.912987
642.615292	6301.006248
