Dividing Wavelength (nm)	Counts (n)	Blue Motor Position (mm): 13.800000	Red Motor Position (mm): 0.000000	
326.493990	2137.925620
326.888308	2137.925620
327.282561	2137.925620
327.676750	2105.052256
328.070874	2102.456061
328.464933	2106.597369
328.858929	2112.026692
329.252859	2119.414503
329.646726	2135.543675
330.040528	2145.583133
330.434265	2161.687098
330.827938	2180.795592
331.221547	2196.249249
331.615091	2216.892774
332.008571	2236.399519
332.401986	2256.735534
332.795338	2274.840838
333.188625	2296.611061
333.581847	2311.858030
333.975006	2331.773109
334.368100	2348.446725
334.761129	2368.528161
335.154095	2383.734802
335.546996	2407.309758
335.939833	2419.640420
336.332606	2437.009716
336.725315	2448.763166
337.117960	2459.949486
337.510540	2469.179839
337.903056	2475.796353
338.295508	2486.670122
338.687896	2497.334683
339.080220	2503.000940
339.472480	2509.514111
339.864676	2513.985614
340.256807	2520.768487
340.648875	2521.247397
341.040879	2525.020700
341.432818	2526.389373
341.824694	2526.217974
342.216506	2527.753006
342.608253	2530.228212
342.999937	2527.611853
343.391557	2525.101359
343.783113	2523.982222
344.174605	2524.738396
344.566033	2522.376615
344.957397	2520.334948
345.348697	2520.587005
345.739934	2515.651716
346.131106	2519.238497
346.522215	2512.165758
346.913260	2511.873371
347.304241	2508.664677
347.695159	2510.648371
348.086012	2510.164420
348.476802	2507.606034
348.867528	2504.593945
349.258191	2503.273163
349.648789	2502.464057
350.039324	2498.768892
350.429796	2499.010867
350.820203	2496.651607
351.210548	2494.995588
351.600828	2495.197234
351.991045	2495.865187
352.381198	2493.934425
352.771288	2495.482059
353.161314	2491.814620
353.551276	2494.183962
353.941175	2490.120792
354.331010	2490.687922
354.720782	2493.029538
355.110490	2493.533653
355.500135	2492.444764
355.889717	2495.197234
356.279235	2493.581544
356.668689	2497.291833
357.058080	2496.797800
357.447408	2492.946359
357.836672	2492.291009
358.225873	2494.337717
358.615010	2491.698673
359.004084	2494.007522
359.393095	2496.470125
359.782043	2499.028511
360.170927	2498.226968
360.559748	2496.177738
360.948505	2499.814931
361.337199	2499.305774
361.725830	2499.764519
362.114398	2501.523882
362.502903	2499.784684
362.891344	2499.406598
363.279722	2500.225785
363.668037	2502.519510
364.056289	2503.459685
364.444478	2504.858605
364.832603	2502.133862
365.220665	2503.207627
365.608665	2503.358862
365.996601	2505.019922
366.384474	2504.052021
366.772284	2506.769203
367.160031	2505.340036
367.547715	2505.062772
367.935336	2505.115704
368.322893	2507.162413
368.710388	2506.960767
369.097820	2511.336488
369.485189	2504.994717
369.872495	2507.101919
370.259738	2506.222238
370.646918	2512.193484
371.034035	2507.207783
371.421090	2508.039573
371.808081	2510.683659
372.195010	2508.183246
372.581875	2507.817763
372.968678	2509.400685
373.355418	2508.712567
373.742096	2512.138032
374.128710	2510.139214
374.515262	2509.957733
374.901751	2512.387569
375.288177	2512.957219
375.674540	2511.333968
376.060841	2512.150634
376.447079	2512.803464
376.833254	2513.814215
377.219367	2508.016888
377.605417	2510.368587
377.991404	2505.967659
378.377329	2509.889677
378.763191	2509.574605
379.148991	2514.698938
379.534727	2510.534945
379.920402	2512.962260
380.306013	2513.017713
380.691563	2513.849503
381.077049	2513.751201
381.462474	2515.528208
381.847835	2515.238341
382.233134	2516.075173
382.618371	2515.064421
383.003545	2517.597601
383.388657	2514.998886
383.773706	2513.211797
384.158693	2513.418485
384.543618	2518.600791
384.928480	2516.813702
385.313280	2516.937210
385.698017	2515.838238
386.082692	2517.834535
386.467305	2516.198681
386.851856	2519.021727
387.236344	2514.575429
387.620770	2520.617252
388.005133	2515.752539
388.389435	2518.888137
388.773674	2517.332941
389.157851	2516.334792
389.541965	2518.184896
389.926018	2520.919722
390.310008	2520.589526
390.693936	2518.121881
391.077802	2517.819412
391.461606	2518.394103
391.845348	2518.124402
392.229027	2520.594567
392.612645	2522.003570
392.996200	2521.355781
393.379694	2519.762777
393.763125	2520.420647
394.146494	2522.709331
394.529801	2519.082221
394.913047	2522.495082
395.296230	2522.873169
395.679351	2518.941069
396.062410	2521.885103
396.445408	2523.659589
396.828343	2522.313601
397.211217	2517.196829
397.594028	2521.043230
397.976778	2519.712365
398.359466	2518.789834
398.742092	2515.641633
399.124656	2524.808972
399.507158	2521.141532
399.889598	2524.859383
400.271977	2524.471214
400.654294	2524.370391
401.036549	2524.705628
401.418742	2525.280320
401.800874	2525.199661
402.182944	2523.919208
402.564952	2524.451050
402.946898	2524.408200
403.328783	2523.130268
403.710606	2523.931811
404.092367	2525.653365
404.474067	2527.170752
404.855705	2526.681760
405.237282	2524.690505
405.618797	2522.941224
406.000250	2526.525485
406.381642	2524.630011
406.762972	2526.903571
407.144240	2525.146729
407.525447	2528.083201
407.906593	2526.412059
408.287677	2526.447347
408.668700	2526.071781
409.049661	2525.797038
409.430560	2527.001874
409.811399	2525.746626
410.192176	2529.729138
410.572891	2527.402645
410.953545	2528.685619
411.334138	2527.085053
411.714669	2529.033459
412.095139	2529.343490
412.475547	2529.096473
412.855894	2526.643952
413.236180	2530.722245
413.616405	2530.881042
413.996568	2527.901720
414.376670	2531.334745
414.756711	2532.937832
415.136691	2530.326515
415.516609	2528.569673
415.896466	2528.335259
416.276262	2530.369364
416.655997	2527.004394
417.035670	2526.797707
417.415283	2527.226205
417.794834	2526.727131
418.174324	2530.208048
418.553753	2530.623943
418.933121	2528.267203
419.312428	2527.937008
419.691674	2531.906916
420.070859	2529.799714
420.449983	2530.117307
420.829045	2532.085877
421.208047	2532.221988
421.586988	2531.160826
421.965867	2530.790301
422.344686	2530.535722
422.723444	2535.899510
423.102141	2531.929602
423.480777	2531.072605
423.859352	2532.905065
424.237866	2535.166022
424.616319	2533.530168
424.994712	2533.893131
425.373044	2532.731145
425.751314	2533.767102
426.129524	2534.556043
426.507673	2533.757020
426.885762	2530.623943
427.263789	2535.627288
427.641756	2533.610826
428.019662	2535.229037
428.397508	2534.087215
428.775292	2535.420601
429.153016	2534.326670
429.530679	2538.127700
429.908282	2537.610982
430.285824	2535.796167
430.663305	2534.835827
431.040726	2535.599562
431.418086	2536.159130
431.795385	2532.738707
432.172624	2536.038142
432.549802	2537.565612
432.926920	2536.237268
433.303977	2536.753986
433.680974	2537.661393
434.057910	2539.113246
434.434786	2533.888090
434.811601	2534.765251
435.188355	2533.595703
435.565050	2535.072761
435.941683	2536.179294
436.318257	2532.521937
436.694770	2532.451361
437.071222	2532.529499
437.447614	2530.669313
437.823946	2532.179139
438.200218	2537.794984
438.576429	2536.701054
438.952580	2538.583925
439.328670	2537.399253
439.704700	2538.856147
440.080670	2535.947401
440.456580	2536.900179
440.832429	2538.346990
441.208218	2537.374048
441.583947	2536.955632
441.959616	2535.186187
442.335224	2538.495704
442.710773	2536.600231
443.086261	2537.784902
443.461689	2538.974614
443.837057	2537.661393
444.212365	2540.018133
444.587612	2539.924872
444.962800	2537.540406
445.337927	2539.934954
445.712995	2541.444779
446.088002	2538.634336
446.462949	2542.745397
446.837837	2536.383461
447.212664	2540.436549
447.587431	2538.339429
447.962139	2540.053421
448.336786	2539.773637
448.711374	2537.903369
449.085901	2539.939995
449.460369	2537.535365
449.834776	2540.408822
450.209124	2540.862526
450.583412	2540.567619
450.957640	2542.528627
451.331808	2540.804553
451.705917	2540.091230
452.079965	2541.953936
452.453954	2539.950077
452.827883	2543.879657
453.201752	2540.156765
453.575562	2538.732639
453.949311	2541.999306
454.323001	2544.240099
454.696632	2541.535520
455.070202	2543.206663
455.443713	2543.128525
455.817164	2540.323123
456.190556	2537.464788
456.563888	2538.934285
456.937160	2538.717515
457.310373	2542.689944
457.683526	2542.329502
458.056619	2542.994934
458.429653	2542.213555
458.802628	2541.162475
459.175542	2541.253216
459.548398	2540.673483
459.921194	2542.216076
460.293930	2541.255736
460.666607	2542.140459
461.039224	2542.271529
461.411782	2542.054759
461.784280	2544.923176
462.156719	2540.968390
462.529099	2543.846889
462.901419	2545.903680
463.273680	2543.672969
463.645882	2542.871426
464.018024	2543.360418
464.390106	2539.803884
464.762130	2546.251520
465.134094	2543.219266
465.505999	2544.151879
465.877845	2543.960315
466.249631	2544.766900
466.621358	2544.484595
466.993026	2548.971222
467.364634	2551.587581
467.736184	2544.293031
468.107674	2542.974770
468.479105	2545.276056
468.850477	2544.845038
469.221790	2546.639688
469.593043	2544.373690
469.964238	2545.283618
470.335373	2545.770089
470.706449	2546.354863
471.077467	2545.734801
471.448425	2549.520708
471.819324	2544.303114
472.190164	2545.936447
472.560945	2546.480892
472.931667	2546.662374
473.302330	2545.646581
473.672934	2545.276056
474.043479	2547.373176
474.413965	2548.378887
474.784393	2543.171375
475.154761	2543.302445
475.525070	2542.168185
475.895321	2544.275387
476.265513	2541.495191
476.635645	2547.209339
477.005719	2547.075748
477.375734	2547.935265
477.745691	2546.342260
478.115588	2547.219421
478.485427	2545.427291
478.855207	2545.369318
479.224928	2545.825542
479.594591	2548.288146
479.964194	2546.342260
480.333739	2548.918290
480.703226	2546.649771
481.072653	2547.259750
481.442022	2549.651778
481.811333	2549.331665
482.180584	2549.124977
482.549777	2549.402241
482.918912	2550.574309
483.287988	2550.075235
483.657005	2549.639175
484.025964	2547.421067
484.394864	2549.490461
484.763706	2549.119936
485.132489	2548.512477
485.501213	2550.397869
485.869879	2548.565409
486.238487	2549.581202
486.607036	2548.502395
486.975527	2551.035575
487.343959	2549.248486
487.712333	2547.942827
488.080648	2550.420554
488.448905	2549.414844
488.817104	2548.580533
489.185244	2549.361912
489.553326	2549.112374
489.921350	2552.169834
490.289315	2550.854093
490.657222	2550.080276
491.025070	2551.416182
491.392861	2551.108671
491.760593	2549.185471
492.128267	2549.959288
492.495883	2549.896274
492.863440	2550.234031
493.230939	2549.566078
493.598380	2551.015410
493.965763	2547.537014
494.333088	2550.723023
494.700354	2546.080120
495.067563	2550.168496
495.434713	2544.577857
495.801805	2549.165307
496.168839	2547.683207
496.535815	2552.351316
496.902733	2551.859803
497.269593	2555.859959
497.636395	2550.360060
498.003139	2552.532797
498.369825	2550.239072
498.736453	2550.360060
499.103023	2550.801161
499.469535	2551.728733
499.835989	2548.890564
500.202385	2550.869217
500.568723	2551.678322
500.935003	2551.897612
501.301226	2548.872920
501.667390	2552.149670
502.033497	2550.833928
502.399546	2551.995914
502.765537	2551.176727
503.131470	2548.157076
503.497345	2553.621687
503.863163	2553.546069
504.228923	2552.517674
504.594625	2551.852242
504.960269	2552.237890
505.325856	2551.413661
505.691385	2551.020451
506.056856	2553.997253
506.422270	2550.193702
506.787625	2553.122612
507.152924	2550.841490
507.518164	2553.069680
507.883347	2552.111861
508.248472	2551.819474
508.613540	2552.986501
508.978550	2552.747046
509.343503	2554.292160
509.708398	2555.665874
510.073236	2555.849877
510.438016	2553.654454
510.802738	2554.191337
511.167403	2553.752757
511.532010	2555.267623
511.896561	2558.209137
512.261053	2557.609239
512.625488	2551.096068
512.989866	2550.886861
513.354186	2554.750905
513.718449	2549.251006
514.082655	2557.004301
514.446803	2554.423230
514.810894	2558.027655
515.174927	2556.253169
515.538904	2557.621842
515.902822	2558.292316
516.266684	2557.528581
516.630488	2558.383056
516.994235	2557.664692
517.357925	2559.633263
517.721558	2561.725341
518.085133	2559.779456
518.448651	2560.207954
518.812112	2561.110321
519.175516	2560.346586
519.538863	2558.602347
519.902152	2561.279199
520.265385	2563.860270
520.628560	2562.486556
520.991678	2559.219888
521.354739	2561.324570
521.717743	2562.509241
522.080690	2562.380691
522.443580	2562.504200
522.806413	2565.377657
523.169189	2563.794735
523.531908	2565.475960
523.894569	2562.572255
524.257174	2566.290106
524.619722	2564.999571
524.982213	2567.870508
525.344647	2566.065775
525.707025	2566.804304
526.069345	2564.997050
526.431608	2565.871690
526.793815	2566.189283
527.155964	2569.145920
527.518057	2569.115673
527.880093	2568.616599
528.242072	2566.718604
528.603995	2569.599624
528.965860	2569.055179
529.327669	2568.351938
529.689421	2572.175653
530.051117	2570.499470
530.412755	2568.382185
530.774337	2568.407391
531.135862	2568.692216
531.497331	2571.071641
531.858743	2566.700960
532.220098	2569.990313
532.581396	2564.114848
532.942638	2567.928481
533.303824	2571.041394
533.664953	2571.185067
534.026025	2568.790518
534.387040	2573.027608
534.747999	2573.352763
535.108902	2572.505849
535.469748	2574.776889
535.830537	2572.891497
536.191270	2572.175653
536.551947	2573.146075
536.912567	2573.831672
537.273131	2576.654718
537.633638	2574.562640
537.994089	2573.819069
538.354483	2572.707495
538.714821	2575.578432
539.075103	2576.611869
539.435328	2576.889132
539.795497	2578.073803
540.155609	2577.549523
540.515665	2577.889801
540.875665	2577.186560
541.235609	2575.981724
541.595496	2581.864751
541.955328	2577.577250
542.315102	2581.463979
542.674821	2580.259143
543.034483	2581.489185
543.394090	2578.620768
543.753640	2580.891808
544.113134	2581.940368
544.472571	2581.668146
544.831953	2582.298290
545.191278	2580.659915
545.550548	2581.952971
545.909761	2581.607652
546.268918	2582.426840
546.628019	2584.597056
546.987064	2583.243507
547.346053	2583.987077
547.704986	2585.295256
548.063863	2587.664598
548.422684	2585.232242
548.781449	2586.076635
549.140158	2589.650813
549.498811	2588.952613
549.857408	2586.139649
550.215949	2587.878847
550.574434	2584.239134
550.932864	2589.852459
551.291237	2586.802561
551.649555	2592.930084
552.007817	2591.715166
552.366022	2591.377408
552.724173	2592.362954
553.082267	2591.924373
553.440305	2594.145002
553.798288	2596.683223
554.156215	2597.144488
554.514086	2602.256218
554.871902	2598.465271
555.229661	2601.429469
555.587365	2600.965683
555.945014	2600.514500
556.302606	2603.045159
556.660143	2605.621188
557.017625	2608.025819
557.375050	2608.802157
557.732421	2610.654781
558.089735	2609.515480
558.446994	2611.695779
558.804197	2615.625358
559.161345	2616.920935
559.518437	2614.750718
559.875474	2622.259517
560.232455	2621.725154
560.589381	2621.730196
560.946251	2630.733696
561.303065	2625.458129
561.659825	2629.980044
562.016528	2630.471556
562.373177	2629.591875
562.729770	2635.774850
563.086307	2635.288379
563.442789	2638.373565
563.799216	2643.926396
564.155587	2642.277939
564.511904	2648.009731
564.868164	2648.904535
565.224370	2652.332520
565.580520	2658.278561
565.936615	2657.240083
566.292654	2661.840136
566.648638	2666.508245
567.004567	2668.297854
567.360441	2673.470078
567.716260	2674.080058
568.072023	2676.731705
568.427732	2680.721778
568.783385	2679.922755
569.138982	2687.784434
569.494525	2692.109744
569.850013	2689.269054
570.205445	2703.127186
570.560823	2704.677341
570.916145	2710.313351
571.271412	2717.116388
571.626625	2721.855073
571.981782	2720.894733
572.336884	2729.752040
572.691931	2730.714901
573.046923	2740.182187
573.401860	2742.342322
573.756743	2749.699886
574.111570	2756.165166
574.466342	2759.136926
574.821059	2766.587751
575.175722	2772.422887
575.530330	2775.104781
575.884882	2784.647685
576.239380	2789.555248
576.593823	2792.043058
576.948211	2800.388688
577.302544	2796.751495
577.656823	2813.871254
578.011047	2820.457521
578.365216	2829.700477
578.719330	2830.872545
579.073389	2842.454596
579.427394	2844.155986
579.781344	2856.136288
580.135239	2860.464118
580.489080	2868.499717
580.842866	2877.833414
581.196597	2887.938407
581.550273	2897.564490
581.903895	2908.385327
582.257463	2921.083993
582.610975	2927.372833
582.964434	2934.188473
583.317837	2945.694906
583.671186	2951.144394
584.024481	2965.063019
584.377721	2971.251036
584.730906	2978.437201
585.084037	2992.345744
585.437113	2996.996208
585.790135	3014.725947
586.143103	3020.568644
586.496016	3030.557690
586.848874	3045.318189
587.201679	3053.686504
587.554428	3060.602967
587.907124	3078.272211
588.259765	3086.259920
588.612352	3108.990482
588.964884	3103.813217
589.317362	3126.269037
589.669786	3136.406797
590.022155	3155.641320
590.374470	3170.971469
590.726731	3175.959691
591.078937	3178.366842
591.431090	3206.367931
591.783188	3202.455995
592.135232	3221.244376
592.487222	3229.161508
592.839157	3255.677977
593.191038	3262.412958
593.542866	3266.816406
593.894639	3274.166409
594.246358	3293.791621
594.598022	3312.358190
594.949633	3314.954384
595.301190	3327.519460
595.652692	3345.158458
596.004141	3380.459138
596.355535	3362.033720
596.706876	3375.468395
597.058162	3382.954509
597.409395	3406.960483
597.760573	3437.633384
598.111698	3438.437448
598.462768	3455.458904
598.813785	3463.681026
599.164748	3479.482523
599.515657	3485.675580
599.866511	3500.297447
600.217312	3529.057229
600.568060	3525.598998
600.918753	3559.626786
601.269392	3572.930391
601.619978	3576.524734
601.970510	3606.943056
602.320988	3615.762555
602.671412	3651.479130
603.021783	3652.247906
603.372100	3667.920853
603.722363	3689.509595
604.072572	3701.867983
604.422728	3723.363463
604.772830	3722.382959
605.122878	3747.629057
605.472872	3760.289915
605.822813	3790.166313
606.172701	3794.957930
606.522534	3838.576514
606.872314	3855.015717
607.222041	3869.171277
607.571714	3903.559507
607.921333	3913.493101
608.270899	3936.689971
608.620411	3972.802276
608.969870	3977.742607
609.319276	3995.457222
609.668627	4021.162065
610.017926	4049.057290
610.367171	4094.836008
610.716362	4103.564766
611.065500	4124.573774
611.414585	4156.607787
611.763616	4168.585568
612.112594	4185.256664
612.461518	4209.832289
612.810389	4247.507352
613.159207	4250.998351
613.507971	4255.469855
613.856682	4317.609638
614.205340	4324.309331
614.553945	4368.275754
614.902496	4362.909446
615.250994	4403.062236
615.599439	4410.833175
615.947830	4443.809883
616.296169	4456.831183
616.644454	4483.203980
616.992686	4499.781814
617.340864	4551.698137
617.688990	4539.692629
618.037063	4586.560236
618.385082	4599.084983
618.733048	4657.365763
619.080961	4650.184639
619.428821	4679.083053
619.776628	4705.833936
620.124382	4712.768043
620.472083	4731.206064
620.819731	4761.011886
621.167326	4743.866922
621.514868	4761.042133
621.862357	4744.761726
622.209793	4767.530098
622.557176	4766.058081
622.904506	4771.376498
623.251783	4762.660343
623.599007	4766.582361
623.946179	4785.315288
624.293297	4796.708296
624.640363	4774.723824
624.987376	4792.173778
625.334336	4781.536944
625.681243	4792.277122
626.028097	4805.167352
626.374899	4812.237571
626.721647	4831.688863
627.068343	4817.644208
627.414987	4823.368438
627.761577	4823.076051
628.108115	4855.500753
628.454600	4823.439014
628.801032	4875.965317
629.147412	4867.518864
629.493739	4882.864136
629.840014	4870.994739
630.186236	4921.275208
630.532405	4878.775760
630.878521	4922.747225
631.224585	4920.171195
631.570597	4893.780755
631.916556	4928.136218
632.262462	4941.807827
632.608316	4941.633908
632.954117	4949.845947
633.299866	4951.895176
633.645562	4971.412003
633.991206	4945.760092
634.336797	4936.519657
634.682336	4926.069345
635.027823	4926.437349
635.373257	4931.475983
635.718639	4915.929064
636.063968	4933.943627
636.409245	4890.400661
636.754470	4910.779525
637.099642	4897.627155
637.444762	4882.332294
637.789829	4907.248197
638.134845	4883.627871
638.479808	4895.136825
638.824719	4906.857508
639.169577	4878.926995
639.514383	4907.845574
639.859137	4876.645873
640.203839	4893.047267
640.548489	4898.209408
640.893086	4898.620262
641.237632	4895.887957
641.582125	4922.311165
641.926566	4919.052059
642.270955	4939.778763
642.615292	4954.682934
642.959576	4979.775278
643.303809	4979.498014
643.647990	5002.830995
643.992118	5002.931818
644.336195	4982.971369
