Dividing Wavelength (nm)	Counts (n)	Blue Motor Position (mm): 20.900000	Red Motor Position (mm): 0.000000	
326.493990	2134.197687
326.888308	2134.197687
327.282561	2134.197687
327.676750	2100.648808
328.070874	2099.985896
328.464933	2101.339446
328.858929	2110.521908
329.252859	2118.459204
329.646726	2130.028652
330.040528	2142.934006
330.434265	2162.660041
330.827938	2176.452638
331.221547	2195.377130
331.615091	2214.551158
332.008571	2233.576473
332.401986	2253.993146
332.795338	2272.516866
333.188625	2290.188631
333.581847	2310.373411
333.975006	2328.342603
334.368100	2347.567044
334.761129	2365.039683
335.154095	2381.665408
335.546996	2403.584345
335.939833	2424.449681
336.332606	2436.767740
336.725315	2451.681994
337.117960	2461.933180
337.510540	2469.048769
337.903056	2478.687455
338.295508	2484.537714
338.687896	2496.633963
339.080220	2506.330622
339.472480	2509.037722
339.864676	2513.584843
340.256807	2521.446522
340.648875	2519.067098
341.040879	2525.504651
341.432818	2526.170083
341.824694	2528.289888
342.216506	2528.098325
342.608253	2529.530012
342.999937	2527.790814
343.391557	2524.322500
343.783113	2530.505476
344.174605	2527.437933
344.566033	2521.857376
344.957397	2522.621111
345.348697	2520.642458
345.739934	2518.104237
346.131106	2515.750018
346.522215	2515.576098
346.913260	2514.305728
347.304241	2511.563340
347.695159	2511.243227
348.086012	2509.274656
348.476802	2503.978924
348.867528	2506.867505
349.258191	2502.930364
349.648789	2503.605879
350.039324	2499.610764
350.429796	2502.663183
350.820203	2499.572956
351.210548	2497.284272
351.600828	2498.083295
351.991045	2497.296875
352.381198	2494.652789
352.771288	2494.352841
353.161314	2493.984837
353.551276	2491.484424
353.941175	2495.779487
354.331010	2491.537356
354.720782	2493.148005
355.110490	2491.781852
355.500135	2493.105155
355.889717	2492.686739
356.279235	2495.600526
356.668689	2494.060454
357.058080	2495.439209
357.447408	2495.204796
357.836672	2492.464929
358.225873	2491.781852
358.615010	2492.071719
359.004084	2498.007677
359.393095	2496.918788
359.782043	2500.409787
360.170927	2499.467091
360.559748	2498.332832
360.948505	2499.867863
361.337199	2500.719818
361.725830	2504.354490
362.114398	2501.428100
362.502903	2501.536485
362.891344	2502.935405
363.279722	2499.802328
363.668037	2503.754593
364.056289	2503.270642
364.444478	2505.965139
364.832603	2504.220899
365.220665	2506.398678
365.608665	2503.452123
365.996601	2504.548574
366.384474	2506.065962
366.772284	2509.549399
367.160031	2505.445900
367.547715	2506.282731
367.935336	2506.103770
368.322893	2506.174347
368.710388	2506.302896
369.097820	2509.584687
369.485189	2509.725839
369.872495	2508.894049
370.259738	2507.694254
370.646918	2508.944461
371.034035	2510.716426
371.421090	2508.677279
371.808081	2511.167609
372.195010	2507.782475
372.581875	2508.016888
372.968678	2510.335819
373.355418	2510.361025
373.742096	2512.306910
374.128710	2510.930675
374.515262	2513.337826
374.901751	2510.711385
375.288177	2512.533762
375.674540	2508.578977
376.060841	2513.438649
376.447079	2512.735408
376.833254	2510.421519
377.219367	2510.973525
377.605417	2511.459996
377.991404	2509.332629
378.377329	2510.776920
378.763191	2508.382372
379.148991	2513.388238
379.534727	2514.797240
379.920402	2514.830008
380.306013	2515.192971
380.691563	2516.327230
381.077049	2513.882271
381.462474	2514.774555
381.847835	2516.491068
382.233134	2515.465193
382.618371	2515.092148
383.003545	2517.993332
383.388657	2516.274298
383.773706	2516.836387
384.158693	2515.112312
384.543618	2515.354288
384.928480	2517.027951
385.313280	2517.937879
385.698017	2518.257992
386.082692	2518.787313
386.467305	2518.338651
386.851856	2518.716737
387.236344	2515.417302
387.620770	2519.651871
388.005133	2518.482324
388.389435	2519.392252
388.773674	2518.424350
389.157851	2517.292611
389.541965	2519.845956
389.926018	2520.783610
390.310008	2516.874196
390.693936	2521.297808
391.077802	2520.460977
391.461606	2520.329907
391.845348	2520.584485
392.229027	2519.034330
392.612645	2522.268230
392.996200	2522.001049
393.379694	2522.623632
393.763125	2522.162366
394.146494	2521.343178
394.529801	2522.779907
394.913047	2522.313601
395.296230	2523.047088
395.679351	2522.691687
396.062410	2521.990967
396.445408	2523.412572
396.828343	2523.195803
397.211217	2519.495596
397.594028	2520.914680
397.976778	2521.227232
398.359466	2522.154804
398.742092	2519.770338
399.124656	2523.248735
399.507158	2525.310567
399.889598	2524.072963
400.271977	2526.538088
400.654294	2523.142870
401.036549	2524.415762
401.418742	2524.206554
401.800874	2528.138654
402.182944	2525.416431
402.564952	2525.902902
402.946898	2528.360465
403.328783	2526.066740
403.710606	2526.152439
404.092367	2524.118334
404.474067	2527.231246
404.855705	2526.280989
405.237282	2526.162522
405.618797	2527.190917
406.000250	2528.428520
406.381642	2529.603109
406.762972	2526.129754
407.144240	2528.078160
407.525447	2530.240815
407.906593	2528.108407
408.287677	2528.161339
408.668700	2529.719056
409.049661	2531.440610
409.430560	2528.093283
409.811399	2528.171421
410.192176	2529.550177
410.572891	2530.112266
410.953545	2527.238808
411.334138	2526.873324
411.714669	2529.459436
412.095139	2528.373068
412.475547	2529.401463
412.855894	2530.094622
413.236180	2535.012267
413.616405	2532.900024
413.996568	2531.148223
414.376670	2531.254087
414.756711	2530.344159
415.136691	2532.582431
415.516609	2530.470187
415.896466	2535.183666
416.276262	2529.567821
416.655997	2530.853315
417.035670	2530.036648
417.415283	2531.082688
417.794834	2529.169570
418.174324	2528.799045
418.553753	2531.425486
418.933121	2531.861546
419.312428	2531.571680
419.691674	2531.909437
420.070859	2532.148892
420.449983	2532.317770
420.829045	2531.498583
421.208047	2532.232071
421.586988	2534.238450
421.965867	2533.109232
422.344686	2534.334232
422.723444	2538.173071
423.102141	2532.504293
423.480777	2533.570497
423.859352	2537.820190
424.237866	2537.142155
424.616319	2536.738862
424.994712	2535.564273
425.373044	2534.182997
425.751314	2536.897659
426.129524	2531.980013
426.507673	2537.048893
426.885762	2536.023018
427.263789	2540.852444
427.641756	2534.485467
428.019662	2537.152237
428.397508	2534.127545
428.775292	2535.801208
429.153016	2536.852288
429.530679	2536.378420
429.908282	2535.014788
430.285824	2536.569984
430.663305	2537.086702
431.040726	2535.178625
431.418086	2536.940508
431.795385	2537.805066
432.172624	2539.002340
432.549802	2536.718698
432.926920	2537.618544
433.303977	2538.384799
433.680974	2539.380427
434.057910	2538.803215
434.434786	2537.772299
434.811601	2538.702392
435.188355	2537.205169
435.565050	2541.401930
435.941683	2537.038811
436.318257	2540.020653
436.694770	2534.303985
437.071222	2535.539068
437.447614	2535.617206
437.823946	2537.220293
438.200218	2535.407998
438.576429	2543.292362
438.952580	2538.505787
439.328670	2541.298586
439.704700	2539.503935
440.080670	2540.794471
440.456580	2537.487474
440.832429	2541.361600
441.208218	2539.511497
441.583947	2541.086857
441.959616	2541.729605
442.335224	2543.756148
442.710773	2541.943854
443.086261	2542.911755
443.461689	2538.568801
443.837057	2540.464275
444.212365	2542.969728
444.587612	2540.764224
444.962800	2541.432177
445.337927	2543.778834
445.712995	2541.177598
446.088002	2545.644061
446.462949	2540.035777
446.837837	2544.121632
447.212664	2542.057280
447.587431	2544.882846
447.962139	2541.953936
448.336786	2545.833104
448.711374	2545.328988
449.085901	2541.908566
449.460369	2542.014430
449.834776	2543.665408
450.209124	2545.127342
450.583412	2545.460058
450.957640	2544.749256
451.331808	2545.860830
451.705917	2544.754297
452.079965	2546.470810
452.453954	2545.966694
452.827883	2543.678011
453.201752	2544.608103
453.575562	2544.197249
453.949311	2545.465100
454.323001	2545.109698
454.696632	2544.661036
455.070202	2546.422919
455.443713	2543.869574
455.817164	2546.208670
456.190556	2542.440407
456.563888	2544.900490
456.937160	2541.757331
457.310373	2548.404092
457.683526	2546.324616
458.056619	2547.199257
458.429653	2547.917621
458.802628	2549.132539
459.175542	2548.056253
459.548398	2548.295707
459.921194	2547.400903
460.293930	2547.705892
460.666607	2548.227652
461.039224	2550.357539
461.411782	2550.004659
461.784280	2549.608928
462.156719	2546.576674
462.529099	2550.554144
462.901419	2549.503064
463.273680	2545.359235
463.645882	2547.698331
464.018024	2552.008517
464.390106	2549.336706
464.762130	2550.786037
465.134094	2551.242262
465.505999	2551.585060
465.877845	2554.133364
466.249631	2554.365257
466.621358	2553.548590
466.993026	2555.320555
467.364634	2557.926832
467.736184	2553.541028
468.107674	2553.372149
468.479105	2552.540359
468.850477	2554.390463
469.221790	2552.933569
469.593043	2553.127653
469.964238	2552.179917
470.335373	2555.244938
470.706449	2552.830225
471.077467	2553.036913
471.448425	2555.207129
471.819324	2557.510937
472.190164	2560.729713
472.560945	2558.627552
472.931667	2556.835422
473.302330	2555.789383
473.672934	2555.678477
474.043479	2555.522202
474.413965	2558.766184
474.784393	2555.045813
475.154761	2556.482541
475.525070	2554.289639
475.895321	2558.357851
476.265513	2554.345092
476.635645	2562.431103
477.005719	2563.283058
477.375734	2564.964283
477.745691	2565.188614
478.115588	2567.764644
478.485427	2569.917216
478.855207	2573.851837
479.224928	2579.684452
479.594591	2582.787282
479.964194	2582.918352
480.333739	2583.051943
480.703226	2586.366501
481.072653	2593.764395
481.442022	2599.828903
481.811333	2604.013060
482.180584	2606.687393
482.549777	2611.063114
482.918912	2611.597476
483.287988	2617.712396
483.657005	2623.678602
484.025964	2627.484673
484.394864	2633.256794
484.763706	2637.965232
485.132489	2643.581077
485.501213	2649.184319
485.869879	2656.093221
486.238487	2664.012873
486.607036	2670.256342
486.975527	2678.906962
487.343959	2686.070442
487.712333	2698.070909
488.080648	2706.139276
488.448905	2716.108157
488.817104	2728.801783
489.185244	2743.811818
489.553326	2761.735641
489.921350	2791.128088
490.289315	2840.475943
490.657222	2860.781711
491.025070	2877.321737
491.392861	2890.547204
491.760593	2892.959396
492.128267	2899.507855
492.495883	2902.396436
492.863440	2904.022208
493.230939	2914.749783
493.598380	2930.495828
493.965763	2943.297838
494.333088	2953.480968
494.700354	2972.723053
495.067563	2996.918071
495.434713	3007.176819
495.801805	3038.885676
496.168839	3059.803944
496.535815	3083.484764
496.902733	3102.038731
497.269593	3127.032772
497.636395	3154.386073
498.003139	3190.841177
498.369825	3207.751727
498.736453	3252.686052
499.103023	3268.976541
499.469535	3306.414670
499.835989	3334.052796
500.202385	3362.636138
500.568723	3383.715723
500.935003	3434.802776
501.301226	3470.816779
501.667390	3519.249665
502.033497	3573.437027
502.399546	3593.122733
502.765537	3619.273719
503.131470	3667.618384
503.497345	3732.800503
503.863163	3721.669636
504.228923	3806.466884
504.594625	3852.787527
504.960269	3864.530894
505.325856	3940.422945
505.691385	3963.619814
506.056856	4027.763456
506.422270	4086.974328
506.787625	4106.138275
507.152924	4184.689534
507.518164	4224.333168
507.883347	4265.257255
508.248472	4300.215136
508.613540	4400.680291
508.978550	4436.374181
509.343503	4480.786746
509.708398	4568.049119
510.073236	4648.102642
510.438016	4704.876117
510.802738	4755.020474
511.167403	4827.779448
511.532010	4866.777814
511.896561	4970.678515
512.261053	5057.053645
512.625488	5086.824179
512.989866	5143.630422
513.354186	5207.902613
513.718449	5241.970730
514.082655	5355.701682
514.446803	5392.723915
514.810894	5494.409030
515.174927	5523.980438
515.538904	5585.606023
515.902822	5711.405497
516.266684	5730.186316
516.630488	5784.192197
516.994235	5863.124063
517.357925	5960.138548
517.721558	6061.359876
518.085133	6137.302338
518.448651	6207.545776
518.812112	6227.806173
519.175516	6306.014634
519.538863	6428.136586
519.902152	6456.167922
520.265385	6606.006138
520.628560	6617.961234
520.991678	6700.852927
521.354739	6786.161853
521.717743	6818.120248
522.080690	6878.130143
522.443580	7028.842999
522.806413	7074.006696
523.169189	7155.685992
523.531908	7248.909529
523.894569	7228.334060
524.257174	7302.749052
524.619722	7434.270235
524.982213	7462.198228
525.344647	7572.423057
525.707025	7605.603931
526.069345	7733.366934
526.431608	7760.632015
526.793815	7883.046354
527.155964	7833.171698
527.518057	7911.622134
527.880093	7958.104093
528.242072	8056.129330
528.603995	8068.815393
528.965860	8079.248061
529.327669	8173.353801
529.689421	8204.689613
530.051117	8249.147549
530.412755	8378.564050
530.774337	8354.505144
531.135862	8407.066734
531.497331	8471.734656
531.858743	8444.393958
532.220098	8601.309954
532.581396	8575.529493
532.942638	8617.151780
533.303824	8638.332188
533.664953	8712.868168
534.026025	8703.784008
534.387040	8824.789345
534.747999	8878.013847
535.108902	8971.580183
535.469748	8839.045728
535.830537	8969.851067
536.191270	9000.095470
536.551947	9059.749964
536.912567	9108.714691
537.273131	9098.392929
537.633638	9116.664591
537.994089	9168.253239
538.354483	9161.732506
538.714821	9318.948451
539.075103	9366.524340
539.435328	9382.454386
539.795497	9282.442935
540.155609	9447.891084
540.515665	9563.635976
540.875665	9379.366679
541.235609	9481.276125
541.595496	9508.349642
541.955328	9686.955202
542.315102	9611.408470
542.674821	9611.980641
543.034483	9641.483994
543.394090	9681.490591
543.753640	9654.346498
544.113134	9876.963852
544.472571	9779.281414
544.831953	9942.324932
545.191278	9796.786821
545.550548	9856.358136
545.909761	9995.289815
546.268918	10006.168625
546.628019	10104.486249
546.987064	10014.567187
547.346053	9968.100352
547.704986	10081.080171
548.063863	10095.336554
548.422684	10108.867011
548.781449	10061.006297
549.140158	10167.309108
549.498811	10080.170243
549.857408	9974.071599
550.215949	10204.565755
550.574434	10083.502446
550.932864	10198.355054
551.291237	10266.471125
551.649555	10242.283668
552.007817	10268.812741
552.366022	10253.195246
552.724173	10261.694631
553.082267	10261.689590
553.440305	10411.225337
553.798288	10234.623635
554.156215	10403.083873
554.514086	10392.285722
554.871902	10259.589950
555.229661	10302.205344
555.587365	10293.375763
555.945014	10209.012053
556.302606	10338.093318
556.660143	10246.578732
557.017625	10410.517055
557.375050	10316.607920
557.732421	10461.120157
558.089735	10386.221214
558.446994	10397.813347
558.804197	10437.005797
559.161345	10453.422315
559.518437	10308.534512
559.875474	10413.130893
560.232455	10440.711046
560.589381	10406.405994
560.946251	10405.506148
561.303065	10516.961018
561.659825	10464.235590
562.016528	10403.378781
562.373177	10286.197160
562.729770	10403.214943
563.086307	10330.327420
563.442789	10423.344271
563.799216	10311.176077
564.155587	10365.917967
564.511904	10319.761162
564.868164	10316.307972
565.224370	10327.484210
565.580520	10265.150342
565.936615	10275.714080
566.292654	10148.530810
566.648638	10278.632908
567.004567	10238.646476
567.360441	10229.514426
567.716260	10141.329522
568.072023	10235.500796
568.427732	10189.762407
568.783385	10103.538512
569.138982	10175.188431
569.494525	10196.562924
569.850013	10072.180014
570.205445	10151.895780
570.560823	10055.632427
570.916145	9976.095622
571.271412	10051.105471
571.626625	9998.385084
571.981782	9978.202824
572.336884	9952.505543
572.691931	9958.980905
573.046923	9903.437472
573.401860	9862.236121
573.756743	9795.962592
574.111570	9849.056024
574.466342	9822.463938
574.821059	9853.842600
575.175722	9749.256302
575.530330	9760.709803
575.884882	9756.865923
576.239380	9686.362866
576.593823	9661.283126
576.948211	9679.766517
577.302544	9561.763187
577.656823	9578.068799
578.011047	9577.100898
578.365216	9546.508656
578.719330	9477.560795
579.073389	9494.577209
579.427394	9439.121997
579.781344	9417.480323
580.135239	9368.354279
580.489080	9377.859374
580.842866	9280.320609
581.196597	9287.854614
581.550273	9324.453391
581.903895	9296.590933
582.257463	9364.041572
582.610975	9237.654804
582.964434	9267.964741
583.317837	9190.940952
583.671186	9171.214917
584.024481	9168.911109
584.377721	9083.705527
584.730906	9071.687416
585.084037	9095.791693
585.437113	9036.747179
585.790135	9051.989108
586.143103	8954.132750
586.496016	8929.226929
586.848874	8985.201381
587.201679	8971.222261
587.554428	8862.318215
587.907124	8910.962829
588.259765	8878.976707
588.612352	8881.419147
588.964884	8759.662678
589.317362	8773.508207
589.669786	8768.479656
590.022155	8826.823450
590.374470	8833.951642
590.726731	8775.018033
591.078937	8632.988564
591.431090	8734.855160
591.783188	8613.128939
592.135232	8611.636757
592.487222	8608.218855
592.839157	8667.550715
593.191038	8589.576668
593.542866	8535.941312
593.894639	8440.295500
594.246358	8493.323397
594.598022	8506.954677
594.949633	8403.663955
595.301190	8384.525215
595.652692	8408.959688
596.004141	8518.700566
596.355535	8294.573386
596.706876	8280.720295
597.058162	8217.859628
597.409395	8287.074670
597.760573	8351.142694
598.111698	8261.609281
598.462768	8246.626972
598.813785	8211.175058
599.164748	8179.950151
599.515657	8178.725150
599.866511	8084.173269
600.217312	8208.452834
600.568060	8066.070485
600.918753	8168.111001
601.269392	8138.083368
601.619978	8058.365082
601.970510	8114.032023
602.320988	8110.631765
602.671412	8173.295827
603.021783	8111.463555
603.372100	8082.532373
603.722363	8086.114113
604.072572	8056.325935
604.422728	8071.036022
604.772830	7999.771750
605.122878	8010.209459
605.472872	7999.960794
605.822813	8031.599075
606.172701	7974.321485
606.522534	8049.154893
606.872314	8049.338896
607.222041	8022.867797
607.571714	8079.658915
607.921333	8033.905403
608.270899	8042.288842
608.620411	8132.331411
608.969870	8034.706947
609.319276	8027.087242
609.668627	8039.866568
610.017926	8076.278822
610.367171	8127.139023
610.716362	8098.641380
611.065500	8095.281451
611.414585	8117.351623
611.763616	8107.806198
612.112594	8091.956810
612.461518	8109.621013
612.810389	8167.369951
613.159207	8107.042463
613.507971	8055.247128
613.856682	8177.119543
614.205340	8131.272769
614.553945	8204.835807
614.902496	8101.920651
615.250994	8153.834453
615.599439	8142.428842
615.947830	8155.056933
616.296169	8131.050958
616.644454	8139.890622
616.992686	8139.429356
617.340864	8193.508334
617.688990	8099.004343
618.037063	8189.888785
618.385082	8139.230230
618.733048	8223.475473
619.080961	8161.171852
619.428821	8181.969133
619.776628	8184.759411
620.124382	8140.523286
620.472083	8116.355995
620.819731	8147.217939
621.167326	8047.138432
621.514868	8051.826705
621.862357	7941.120446
622.209793	7957.418496
622.557176	7889.592292
622.904506	7861.787808
623.251783	7803.043242
623.599007	7747.197340
623.946179	7752.641786
624.293297	7715.543935
624.640363	7627.311140
624.987376	7617.342258
625.334336	7557.912095
625.681243	7510.676484
626.028097	7499.754824
626.374899	7478.334961
626.721647	7473.482851
627.068343	7403.897283
627.414987	7376.347378
627.761577	7324.564645
628.108115	7361.750717
628.454600	7259.468226
628.801032	7311.858417
629.147412	7274.332068
629.493739	7259.528720
629.840014	7195.160747
630.186236	7252.556804
630.532405	7134.119935
630.878521	7189.577669
631.224585	7144.744167
631.570597	7070.137611
631.916556	7106.101202
632.262462	7097.397650
632.608316	7061.169398
632.954117	7038.534617
633.299866	7021.845877
633.645562	7016.966041
633.991206	6937.093999
634.336797	6877.978908
634.682336	6840.563465
635.027823	6806.328989
635.373257	6798.749614
635.718639	6727.760086
636.063968	6744.201809
636.409245	6638.521580
636.754470	6636.900849
637.099642	6594.469457
637.444762	6538.457197
637.789829	6544.771242
638.134845	6485.046172
638.479808	6477.809596
638.824719	6476.408155
639.169577	6405.345530
639.514383	6431.105826
639.859137	6361.961360
640.203839	6365.228027
640.548489	6355.856522
640.893086	6328.488098
641.237632	6304.262833
641.582125	6322.249670
641.926566	6292.209434
642.270955	6306.460776
642.615292	6302.473224
642.959576	6317.334545
643.303809	6303.617566
