Dividing Wavelength (nm)	Counts (n)	Blue Motor Position (mm): 2.100000	Red Motor Position (mm): 0.000000	
326.493990	2144.453914
326.888308	2144.453914
327.282561	2144.453914
327.676750	2113.886878
328.070874	2108.742380
328.464933	2112.707248
328.858929	2119.134719
329.252859	2130.701646
329.646726	2141.847638
330.040528	2153.187713
330.434265	2172.439880
330.827938	2189.506706
331.221547	2207.123018
331.615091	2223.015256
332.008571	2243.683986
332.401986	2264.650145
332.795338	2282.901643
333.188625	2303.976186
333.581847	2322.484783
333.975006	2340.678307
334.368100	2360.479959
334.761129	2377.433360
335.154095	2393.819630
335.546996	2409.341343
335.939833	2424.061512
336.332606	2439.830241
336.725315	2451.555965
337.117960	2460.206585
337.510540	2471.748307
337.903056	2479.985552
338.295508	2487.907726
338.687896	2494.882162
339.080220	2503.298368
339.472480	2511.472599
339.864676	2515.712210
340.256807	2520.276974
340.648875	2519.351923
341.040879	2526.149919
341.432818	2525.827285
341.824694	2527.064888
342.216506	2527.107738
342.608253	2525.749147
342.999937	2528.000022
343.391557	2529.010773
343.783113	2528.030269
344.174605	2527.188396
344.566033	2523.508354
344.957397	2522.865607
345.348697	2522.850483
345.739934	2520.244207
346.131106	2516.249093
346.522215	2515.432426
346.913260	2514.991325
347.304241	2513.594925
347.695159	2511.253309
348.086012	2510.965963
348.476802	2507.101919
348.867528	2507.449758
349.258191	2505.256857
349.648789	2504.624192
350.039324	2503.467247
350.429796	2502.670745
350.820203	2498.925167
351.210548	2498.872235
351.600828	2498.630260
351.991045	2495.172028
352.381198	2497.944663
352.771288	2497.584220
353.161314	2494.960300
353.551276	2496.376864
353.941175	2496.003819
354.331010	2496.462564
354.720782	2495.540033
355.110490	2496.563387
355.500135	2492.427120
355.889717	2495.671102
356.279235	2496.671772
356.668689	2495.368633
357.058080	2496.848212
357.447408	2495.655979
357.836672	2493.957110
358.225873	2494.415855
358.615010	2490.924856
359.004084	2498.915085
359.393095	2497.979951
359.782043	2499.940960
360.170927	2501.352483
360.559748	2501.438182
360.948505	2499.716628
361.337199	2501.584376
361.725830	2502.756444
362.114398	2501.455827
362.502903	2501.443224
362.891344	2503.452123
363.279722	2500.971876
363.668037	2505.871877
364.056289	2504.301558
364.444478	2503.689058
364.832603	2503.283245
365.220665	2507.437156
365.608665	2507.386744
365.996601	2505.239213
366.384474	2509.209121
366.772284	2508.546209
367.160031	2505.027484
367.547715	2506.121414
367.935336	2508.195849
368.322893	2508.601662
368.710388	2507.442197
369.097820	2511.517970
369.485189	2510.703823
369.872495	2508.266425
370.259738	2509.095695
370.646918	2508.382372
371.034035	2510.877743
371.421090	2510.025788
371.808081	2509.204080
372.195010	2510.618124
372.581875	2509.327588
372.968678	2511.462517
373.355418	2511.238186
373.742096	2513.635254
374.128710	2511.434791
374.515262	2513.524349
374.901751	2512.674914
375.288177	2513.700789
375.674540	2512.521159
376.060841	2511.384379
376.447079	2513.113495
376.833254	2512.027126
377.219367	2510.025788
377.605417	2512.006962
377.991404	2509.168792
378.377329	2511.530572
378.763191	2510.149296
379.148991	2514.741787
379.534727	2513.625172
379.920402	2513.506705
380.306013	2516.377642
380.691563	2515.427384
381.077049	2514.414113
381.462474	2516.191119
381.847835	2517.632889
382.233134	2517.151459
382.618371	2514.928310
383.003545	2516.581809
383.388657	2515.719771
383.773706	2518.028620
384.158693	2519.936697
384.543618	2517.995852
384.928480	2516.838907
385.313280	2518.106758
385.698017	2518.678929
386.082692	2519.798065
386.467305	2516.917045
386.851856	2516.541479
387.236344	2518.608352
387.620770	2522.469876
388.005133	2518.855369
388.389435	2518.847807
388.773674	2519.848476
389.157851	2519.349402
389.541965	2519.533404
389.926018	2518.666326
390.310008	2519.414937
390.693936	2519.946779
391.077802	2521.980884
391.461606	2521.759074
391.845348	2518.404186
392.229027	2524.690505
392.612645	2521.501975
392.996200	2522.842922
393.379694	2519.992149
393.763125	2521.645648
394.146494	2524.824095
394.529801	2522.074146
394.913047	2523.626821
395.296230	2523.399969
395.679351	2525.320649
396.062410	2522.364012
396.445408	2523.037006
396.828343	2523.105062
397.211217	2522.059022
397.594028	2522.941224
397.976778	2520.072808
398.359466	2523.140350
398.742092	2520.219001
399.124656	2525.728982
399.507158	2524.012469
399.889598	2525.688653
400.271977	2527.039682
400.654294	2526.311236
401.036549	2526.591020
401.418742	2524.758560
401.800874	2525.350896
402.182944	2525.726462
402.564952	2524.705628
402.946898	2527.543798
403.328783	2526.712007
403.710606	2526.563293
404.092367	2525.698735
404.474067	2527.606812
404.855705	2524.211595
405.237282	2526.291071
405.618797	2528.983047
406.000250	2530.346679
406.381642	2526.548170
406.762972	2526.906092
407.144240	2528.849457
407.525447	2531.163346
407.906593	2526.938859
408.287677	2530.397091
408.668700	2529.272913
409.049661	2529.610671
409.430560	2529.736700
409.811399	2530.863398
410.192176	2529.346010
410.572891	2531.175949
410.953545	2530.187883
411.334138	2531.758202
411.714669	2529.719056
412.095139	2531.307019
412.475547	2531.107893
412.855894	2532.158974
413.236180	2530.928933
413.616405	2532.073274
413.996568	2531.163346
414.376670	2533.487318
414.756711	2530.266021
415.136691	2533.043697
415.516609	2528.279806
415.896466	2531.609488
416.276262	2534.614016
416.655997	2528.652852
417.035670	2529.167049
417.415283	2531.606968
417.794834	2526.490197
418.174324	2530.933974
418.553753	2532.804242
418.933121	2532.411032
419.312428	2531.344828
419.691674	2534.921526
420.070859	2536.254912
420.449983	2533.678882
420.829045	2532.337935
421.208047	2532.499252
421.586988	2533.855322
421.965867	2535.602082
422.344686	2535.057638
422.723444	2536.302803
423.102141	2535.849099
423.480777	2534.172915
423.859352	2533.320960
424.237866	2535.425642
424.616319	2534.316588
424.994712	2536.421270
425.373044	2535.738193
425.751314	2535.042514
426.129524	2534.293903
426.507673	2535.329860
426.885762	2535.133255
427.263789	2537.190046
427.641756	2539.781199
428.019662	2538.094933
428.397508	2534.800539
428.775292	2534.475384
429.153016	2537.280786
429.530679	2535.292051
429.908282	2538.377237
430.285824	2535.733152
430.663305	2536.242309
431.040726	2537.366486
431.418086	2535.992772
431.795385	2540.411343
432.172624	2536.343132
432.549802	2538.094933
432.926920	2538.173071
433.303977	2540.015612
433.680974	2539.945036
434.057910	2541.522917
434.434786	2536.950591
434.811601	2539.582073
435.188355	2539.546785
435.565050	2537.023688
435.941683	2536.955632
436.318257	2535.491177
436.694770	2536.547298
437.071222	2536.111239
437.447614	2534.235929
437.823946	2533.807431
438.200218	2538.407484
438.576429	2538.755324
438.952580	2539.206507
439.328670	2541.913607
439.704700	2540.582742
440.080670	2540.716333
440.456580	2538.346990
440.832429	2537.767258
441.208218	2538.478060
441.583947	2544.459389
441.959616	2539.803884
442.335224	2541.293545
442.710773	2539.879501
443.086261	2542.626930
443.461689	2539.819007
443.837057	2539.902186
444.212365	2539.118287
444.587612	2539.977804
444.962800	2539.277083
445.337927	2542.306817
445.712995	2541.734646
446.088002	2539.156096
446.462949	2540.633154
446.837837	2539.685417
447.212664	2542.001827
447.587431	2543.299924
447.962139	2543.012578
448.336786	2542.468134
448.711374	2540.043339
449.085901	2542.195911
449.460369	2542.389996
449.834776	2540.718853
450.209124	2540.807073
450.583412	2544.484595
450.957640	2542.810932
451.331808	2543.993083
451.705917	2541.883360
452.079965	2543.158772
452.453954	2542.284132
452.827883	2542.059800
453.201752	2542.621889
453.575562	2540.643236
453.949311	2542.316899
454.323001	2541.956457
454.696632	2538.568801
455.070202	2543.693134
455.443713	2543.955274
455.817164	2541.946374
456.190556	2540.444110
456.563888	2540.159285
456.937160	2538.694830
457.310373	2542.546272
457.683526	2542.498381
458.056619	2541.533000
458.429653	2545.931406
458.802628	2544.580377
459.175542	2543.161292
459.548398	2544.325799
459.921194	2544.527445
460.293930	2542.863864
460.666607	2546.685059
461.039224	2541.694317
461.411782	2542.962167
461.784280	2545.044163
462.156719	2543.660367
462.529099	2541.341436
462.901419	2543.375541
463.273680	2544.774462
463.645882	2546.385110
464.018024	2543.735984
464.390106	2546.072559
464.762130	2543.065510
465.134094	2545.903680
465.505999	2544.174564
465.877845	2547.552137
466.249631	2542.521066
466.621358	2545.785213
466.993026	2545.490305
467.364634	2547.279915
467.736184	2546.813608
468.107674	2545.951571
468.479105	2546.932075
468.850477	2547.199257
469.221790	2547.663043
469.593043	2545.996941
469.964238	2544.040974
470.335373	2545.691952
470.706449	2544.761859
471.077467	2544.582898
471.448425	2544.103988
471.819324	2546.843855
472.190164	2546.758156
472.560945	2547.025337
472.931667	2545.679349
473.302330	2543.297403
473.672934	2546.480892
474.043479	2546.579195
474.413965	2543.877136
474.784393	2542.397557
475.154761	2541.608617
475.525070	2541.028884
475.895321	2544.119112
476.265513	2545.281097
476.635645	2549.422405
477.005719	2547.635316
477.375734	2548.356201
477.745691	2548.981304
478.115588	2546.052394
478.485427	2547.032898
478.855207	2548.267981
479.224928	2545.986859
479.594591	2548.308310
479.964194	2545.490305
480.333739	2548.608259
480.703226	2547.010213
481.072653	2546.387631
481.442022	2548.946016
481.811333	2549.170348
482.180584	2547.831921
482.549777	2549.568599
482.918912	2546.397713
483.287988	2550.702858
483.657005	2547.476520
484.025964	2548.386448
484.394864	2547.973074
484.763706	2550.077755
485.132489	2547.736139
485.501213	2551.091027
485.869879	2546.551468
486.238487	2546.957281
486.607036	2549.077086
486.975527	2546.133053
487.343959	2549.175389
487.712333	2546.473330
488.080648	2549.916438
488.448905	2547.617672
488.817104	2551.693445
489.185244	2546.448125
489.553326	2549.830739
489.921350	2548.613300
490.289315	2547.806716
490.657222	2549.314021
491.025070	2551.206974
491.392861	2550.901984
491.760593	2548.888043
492.128267	2547.423588
492.495883	2551.728733
492.863440	2548.983825
493.230939	2550.102961
493.598380	2548.336037
493.965763	2546.153217
494.333088	2546.561551
494.700354	2547.721016
495.067563	2547.441232
495.434713	2546.246478
495.801805	2549.369473
496.168839	2550.760832
496.535815	2549.190512
496.902733	2546.687579
497.269593	2551.494320
497.636395	2548.404092
498.003139	2549.583722
498.369825	2551.017931
498.736453	2550.271840
499.103023	2549.934082
499.469535	2549.422405
499.835989	2549.858465
500.202385	2548.260419
500.568723	2548.106664
500.935003	2548.454504
501.301226	2549.767724
501.667390	2551.751418
502.033497	2550.266799
502.399546	2552.989022
502.765537	2550.163455
503.131470	2552.076573
503.497345	2548.300749
503.863163	2551.554813
504.228923	2549.550955
504.594625	2550.677653
504.960269	2550.642365
505.325856	2550.085317
505.691385	2550.808723
506.056856	2552.041285
506.422270	2549.067004
506.787625	2550.201264
507.152924	2550.907025
507.518164	2552.489948
507.883347	2550.712941
508.248472	2551.756460
508.613540	2549.966850
508.978550	2549.530790
509.343503	2550.566747
509.708398	2551.761501
510.073236	2552.873075
510.438016	2550.536500
510.802738	2547.209339
511.167403	2551.690925
511.532010	2547.088351
511.896561	2551.968188
512.261053	2551.655637
512.625488	2547.025337
512.989866	2547.179092
513.354186	2548.499874
513.718449	2544.275387
514.082655	2551.143959
514.446803	2550.460883
514.810894	2550.165976
515.174927	2551.111192
515.538904	2551.413661
515.902822	2549.934082
516.266684	2551.562375
516.630488	2548.900646
516.994235	2548.436860
517.357925	2552.109340
517.721558	2551.635472
518.085133	2553.687222
518.448651	2549.734957
518.812112	2552.673950
519.175516	2552.232849
519.538863	2550.637323
519.902152	2554.266954
520.265385	2550.990204
520.628560	2551.022972
520.991678	2552.789896
521.354739	2551.111192
521.717743	2552.575647
522.080690	2553.256203
522.443580	2551.932900
522.806413	2550.755791
523.169189	2549.157745
523.531908	2551.660678
523.894569	2551.509443
524.257174	2551.547252
524.619722	2551.683363
524.982213	2553.828374
525.344647	2551.466593
525.707025	2552.071532
526.069345	2551.244783
526.431608	2550.904505
526.793815	2550.964998
527.155964	2552.273178
527.518057	2552.043805
527.880093	2553.616645
528.242072	2551.985832
528.603995	2553.104968
528.965860	2552.431974
529.327669	2553.016748
529.689421	2551.070863
530.051117	2554.193858
530.412755	2552.502550
530.774337	2553.788045
531.135862	2552.774773
531.497331	2552.648744
531.858743	2548.179761
532.220098	2549.976932
532.581396	2550.740667
532.942638	2548.177240
533.303824	2552.542880
533.664953	2552.174875
534.026025	2551.678322
534.387040	2552.016079
534.747999	2554.829043
535.108902	2554.040102
535.469748	2550.959957
535.830537	2550.586912
536.191270	2554.115720
536.551947	2556.054043
536.912567	2553.404917
537.273131	2551.269988
537.633638	2552.636141
537.994089	2554.995401
538.354483	2550.299566
538.714821	2551.171686
539.075103	2550.196222
539.435328	2551.716130
539.795497	2553.180586
540.155609	2550.299566
540.515665	2551.829556
540.875665	2555.015566
541.235609	2554.166131
541.595496	2553.659495
541.955328	2553.306614
542.315102	2552.812581
542.674821	2553.931717
543.034483	2555.988508
543.394090	2555.343241
543.753640	2552.802499
544.113134	2553.268806
544.472571	2554.072870
544.831953	2552.149670
545.191278	2552.827705
545.550548	2549.719833
545.909761	2551.441388
546.268918	2551.668239
546.628019	2553.039433
546.987064	2549.634134
547.346053	2551.277550
547.704986	2553.225956
548.063863	2551.234700
548.422684	2550.821326
548.781449	2552.346275
549.140158	2554.367777
549.498811	2552.578168
549.857408	2552.366439
550.215949	2550.286963
550.574434	2546.886705
550.932864	2548.943496
551.291237	2548.454504
551.649555	2554.176213
552.007817	2551.779145
552.366022	2553.510781
552.724173	2554.057746
553.082267	2551.315359
553.440305	2551.890050
553.798288	2551.713610
554.156215	2552.845349
554.514086	2552.817623
554.871902	2555.121430
555.229661	2549.707231
555.587365	2551.327962
555.945014	2553.160421
556.302606	2552.394166
556.660143	2555.156718
557.017625	2552.343754
557.375050	2552.752087
557.732421	2553.046995
558.089735	2554.546738
558.446994	2555.355843
558.804197	2554.887016
559.161345	2552.323589
559.518437	2555.134033
559.875474	2553.205791
560.232455	2554.428271
560.589381	2551.824515
560.946251	2553.394835
561.303065	2552.555482
561.659825	2553.909032
562.016528	2553.372149
562.373177	2550.818805
562.729770	2549.457693
563.086307	2553.462890
563.442789	2552.333672
563.799216	2552.744526
564.155587	2554.912222
564.511904	2552.036244
564.868164	2554.050185
565.224370	2554.650082
565.580520	2552.474824
565.936615	2552.648744
566.292654	2552.726882
566.648638	2553.722510
567.004567	2554.962633
567.360441	2552.134546
567.716260	2553.805689
568.072023	2552.792417
568.427732	2548.497354
568.783385	2549.939124
569.138982	2549.576161
569.494525	2550.912066
569.850013	2547.121119
570.205445	2553.770401
570.560823	2555.088662
570.916145	2553.525905
571.271412	2556.144784
571.626625	2553.334341
571.981782	2553.442726
572.336884	2553.273847
572.691931	2553.495658
573.046923	2553.757798
573.401860	2554.559341
573.756743	2552.890719
574.111570	2553.871224
574.466342	2551.673281
574.821059	2554.135884
575.175722	2550.549103
575.530330	2553.467931
575.884882	2554.082952
576.239380	2554.834084
576.593823	2553.203271
576.948211	2553.767880
577.302544	2552.280740
577.656823	2555.582695
578.011047	2555.320555
578.365216	2553.230997
578.719330	2551.784186
579.073389	2554.120761
579.427394	2550.249155
579.781344	2551.179248
580.135239	2554.884496
580.489080	2551.544731
580.842866	2553.533466
581.196597	2559.852553
581.550273	2554.206460
581.903895	2552.106820
582.257463	2551.441387
582.610975	2553.052036
582.964434	2552.689073
583.317837	2555.199568
583.671186	2554.294681
584.024481	2553.117571
584.377721	2555.136553
584.730906	2551.834598
585.084037	2557.450443
585.437113	2552.673950
585.790135	2553.440205
586.143103	2553.392314
586.496016	2557.752912
586.848874	2549.674463
587.201679	2552.963816
587.554428	2549.235883
587.907124	2550.120605
588.259765	2548.237734
588.612352	2555.582695
588.964884	2551.874927
589.317362	2554.962633
589.669786	2553.702345
590.022155	2554.108158
590.374470	2552.608415
590.726731	2555.161759
591.078937	2553.331820
591.431090	2553.427602
591.783188	2552.381563
592.135232	2552.474824
592.487222	2552.719320
592.839157	2556.931204
593.191038	2553.377191
593.542866	2554.067829
593.894639	2554.463559
594.246358	2552.585729
594.598022	2555.386090
594.949633	2554.917263
595.301190	2550.997766
595.652692	2553.160421
596.004141	2554.062788
596.355535	2555.315514
596.706876	2557.417675
597.058162	2555.144115
597.409395	2553.344423
597.760573	2554.614794
598.111698	2554.382901
598.462768	2553.079762
598.813785	2551.670760
599.164748	2556.911039
599.515657	2554.173693
599.866511	2554.266954
600.217312	2554.617314
600.568060	2555.050854
600.918753	2552.124464
601.269392	2555.015566
601.619978	2554.309804
601.970510	2553.314176
602.320988	2551.269988
602.671412	2554.760987
603.021783	2552.255534
603.372100	2553.462890
603.722363	2552.852911
604.072572	2555.413817
604.422728	2556.245607
604.772830	2551.154042
605.122878	2552.396686
605.472872	2551.106151
605.822813	2547.521890
606.172701	2552.772252
606.522534	2552.694114
606.872314	2552.474824
607.222041	2555.875082
607.571714	2555.688560
607.921333	2552.341233
608.270899	2555.769218
608.620411	2553.122612
608.969870	2557.261400
609.319276	2555.300391
609.668627	2559.202244
610.017926	2559.837429
610.367171	2562.622667
610.716362	2560.996895
611.065500	2561.410269
611.414585	2558.463715
611.763616	2557.137891
612.112594	2555.023127
612.461518	2557.931873
612.810389	2555.323076
613.159207	2554.103117
613.507971	2555.055895
613.856682	2556.255689
614.205340	2555.713765
614.553945	2554.697973
614.902496	2553.961964
615.250994	2555.199568
615.599439	2554.471121
615.947830	2554.695452
616.296169	2555.491955
616.644454	2555.426420
616.992686	2554.080432
617.340864	2556.253169
617.688990	2552.492468
618.037063	2554.355174
618.385082	2554.735782
618.733048	2555.224773
619.080961	2555.219732
619.428821	2553.714948
619.776628	2555.965823
620.124382	2555.680998
620.472083	2557.216029
620.819731	2554.536656
621.167326	2552.767211
621.514868	2553.021789
621.862357	2553.089845
622.209793	2552.850390
622.557176	2553.530946
622.904506	2554.080432
623.251783	2548.883002
623.599007	2552.666388
623.946179	2551.091027
624.293297	2553.488096
624.640363	2549.966850
624.987376	2554.947510
625.334336	2551.958106
625.681243	2551.587581
626.028097	2552.638662
626.374899	2554.473642
626.721647	2554.738302
627.068343	2553.215874
627.414987	2552.749567
627.761577	2553.185627
628.108115	2552.298384
628.454600	2555.277706
628.801032	2554.851728
629.147412	2553.883827
629.493739	2554.574465
629.840014	2553.735113
630.186236	2552.744526
630.532405	2553.624207
630.878521	2558.214178
631.224585	2553.195709
631.570597	2550.556665
631.916556	2553.936759
632.262462	2551.955585
632.608316	2552.668908
632.954117	2552.469783
633.299866	2554.808878
633.645562	2550.430636
633.991206	2554.196378
634.336797	2555.214691
634.682336	2551.748898
635.027823	2553.566234
635.373257	2554.090514
635.718639	2550.884340
636.063968	2553.961964
636.409245	2554.380380
636.754470	2551.587581
637.099642	2554.193857
637.444762	2553.488096
637.789829	2552.996583
638.134845	2549.944165
638.479808	2551.769062
638.824719	2553.266285
639.169577	2553.629248
639.514383	2552.973898
639.859137	2554.302242
640.203839	2551.035575
640.548489	2551.529608
640.893086	2550.450801
641.237632	2549.709751
641.582125	2552.026161
641.926566	2548.512477
642.270955	2552.389124
642.615292	2552.910884
642.959576	2554.781152
643.303809	2554.924825
643.647990	2553.331820
643.992118	2553.961964
644.336195	2552.913404
