Dividing Wavelength (nm)	Counts (n)	Blue Motor Position (mm): 20.500000	Red Motor Position (mm): 0.000000	
326.493990	2133.459158
326.888308	2133.459158
327.282561	2133.459158
327.676750	2100.311050
328.070874	2099.759044
328.464933	2104.487646
328.858929	2108.807915
329.252859	2117.503906
329.646726	2129.912706
330.040528	2142.767648
330.434265	2159.501758
330.827938	2177.370128
331.221547	2195.198169
331.615091	2214.094934
332.008571	2234.214179
332.401986	2253.007600
332.795338	2274.971908
333.188625	2292.331121
333.581847	2310.733853
333.975006	2329.005515
334.368100	2349.442353
334.761129	2363.446678
335.154095	2380.425284
335.546996	2401.734242
335.939833	2422.745771
336.332606	2438.791764
336.725315	2450.194854
337.117960	2458.482511
337.510540	2468.045579
337.903056	2480.797178
338.295508	2486.516367
338.687896	2494.889724
339.080220	2504.551095
339.472480	2507.762310
339.864676	2513.975532
340.256807	2520.534073
340.648875	2521.897705
341.040879	2524.556914
341.432818	2526.601102
341.824694	2528.085722
342.216506	2529.076308
342.608253	2528.468849
342.999937	2526.016328
343.391557	2529.416586
343.783113	2525.018180
344.174605	2525.824764
344.566033	2525.401307
344.957397	2524.468694
345.348697	2521.741430
345.739934	2520.511388
346.131106	2517.809330
346.522215	2517.968126
346.913260	2513.494102
347.304241	2512.117867
347.695159	2508.468072
348.086012	2510.073679
348.476802	2508.594100
348.867528	2504.316681
349.258191	2503.653770
349.648789	2502.000271
350.039324	2499.951042
350.429796	2500.203100
350.820203	2499.053717
351.210548	2498.151350
351.600828	2495.378716
351.991045	2497.889210
352.381198	2496.039107
352.771288	2495.875269
353.161314	2493.659682
353.551276	2493.586585
353.941175	2495.154384
354.331010	2496.081957
354.720782	2493.228663
355.110490	2496.497852
355.500135	2493.924343
355.889717	2493.763026
356.279235	2497.737976
356.668689	2494.536843
357.058080	2497.110352
357.447408	2493.563900
357.836672	2492.041472
358.225873	2493.798314
358.615010	2494.221771
359.004084	2496.512975
359.393095	2497.732934
359.782043	2499.696464
360.170927	2499.378871
360.559748	2499.348624
360.948505	2501.193687
361.337199	2500.248470
361.725830	2502.398522
362.114398	2503.600838
362.502903	2502.600168
362.891344	2502.683348
363.279722	2500.966835
363.668037	2502.481701
364.056289	2504.389778
364.444478	2504.833400
364.832603	2506.456651
365.220665	2502.123779
365.608665	2505.448420
365.996601	2505.574449
366.384474	2505.418173
366.772284	2507.333812
367.160031	2508.626868
367.547715	2505.992865
367.935336	2508.117711
368.322893	2506.134017
368.710388	2507.603514
369.097820	2512.886643
369.485189	2508.221055
369.872495	2510.063597
370.259738	2509.476302
370.646918	2507.543020
371.034035	2509.811539
371.421090	2511.641478
371.808081	2510.623165
372.195010	2509.942609
372.581875	2510.955881
372.968678	2510.358504
373.355418	2510.789523
373.742096	2506.781806
374.128710	2512.490912
374.515262	2510.827332
374.901751	2513.955367
375.288177	2512.546365
375.674540	2511.041581
376.060841	2512.763135
376.447079	2513.854544
376.833254	2511.540655
377.219367	2510.895387
377.605417	2510.923113
377.991404	2510.277846
378.377329	2512.369925
378.763191	2510.487054
379.148991	2511.863289
379.534727	2512.959740
379.920402	2512.987466
380.306013	2516.221366
380.691563	2512.556447
381.077049	2513.055522
381.462474	2516.223887
381.847835	2515.969308
382.233134	2515.550893
382.618371	2516.715399
383.003545	2515.961747
383.388657	2515.535769
383.773706	2517.769000
384.158693	2516.420492
384.543618	2516.556603
384.928480	2515.008969
385.313280	2517.784124
385.698017	2520.594567
386.082692	2520.282016
386.467305	2519.964423
386.851856	2517.796727
387.236344	2517.428722
387.620770	2520.282016
388.005133	2520.536594
388.389435	2518.752025
388.773674	2518.159690
389.157851	2519.160359
389.541965	2520.332427
389.926018	2517.216994
390.310008	2519.503157
390.693936	2521.338137
391.077802	2519.384690
391.461606	2521.612880
391.845348	2521.035668
392.229027	2520.617252
392.612645	2521.822088
392.996200	2523.024403
393.379694	2521.915349
393.763125	2524.546832
394.146494	2523.364681
394.529801	2522.810154
394.913047	2519.591378
395.296230	2522.648837
395.679351	2521.539783
396.062410	2523.783097
396.445408	2523.972140
396.828343	2524.108251
397.211217	2519.387211
397.594028	2522.084228
397.976778	2520.362674
398.359466	2522.477438
398.742092	2519.331758
399.124656	2525.303005
399.507158	2525.668488
399.889598	2524.617408
400.271977	2527.100176
400.654294	2524.072963
401.036549	2526.795186
401.418742	2527.299302
401.800874	2529.260311
402.182944	2527.596730
402.564952	2528.292409
402.946898	2526.810310
403.328783	2528.007584
403.710606	2527.236287
404.092367	2526.258303
404.474067	2525.595392
404.855705	2526.659075
405.237282	2528.357944
405.618797	2524.700587
406.000250	2527.329549
406.381642	2528.088242
406.762972	2529.106555
407.144240	2528.607481
407.525447	2530.281144
407.906593	2528.133613
408.287677	2529.961031
408.668700	2529.693850
409.049661	2532.133768
409.430560	2530.276103
409.811399	2530.495393
410.192176	2528.375588
410.572891	2528.471370
410.953545	2528.138654
411.334138	2530.200486
411.714669	2528.105886
412.095139	2530.702081
412.475547	2528.957841
412.855894	2529.915661
413.236180	2530.681916
413.616405	2531.488501
413.996568	2530.510517
414.376670	2528.194107
414.756711	2528.579755
415.136691	2531.758202
415.516609	2531.125538
415.896466	2530.024045
416.276262	2532.716022
416.655997	2529.567821
417.035670	2527.954652
417.415283	2532.108563
417.794834	2528.388191
418.174324	2531.193593
418.553753	2532.063192
418.933121	2532.695857
419.312428	2534.659386
419.691674	2535.816331
420.070859	2536.080992
420.449983	2534.094777
420.829045	2530.999509
421.208047	2535.271887
421.586988	2534.525796
421.965867	2533.885569
422.344686	2534.157792
422.723444	2535.879346
423.102141	2535.881866
423.480777	2536.489325
423.859352	2535.128214
424.237866	2534.346835
424.616319	2536.930426
424.994712	2535.740714
425.373044	2533.867925
425.751314	2535.324819
426.129524	2532.630322
426.507673	2534.109901
426.885762	2535.105528
427.263789	2535.057637
427.641756	2535.350024
428.019662	2535.985210
428.397508	2538.273894
428.775292	2538.926723
429.153016	2538.823379
429.530679	2540.255067
429.908282	2540.174409
430.285824	2538.657021
430.663305	2535.155940
431.040726	2536.469161
431.418086	2537.172402
431.795385	2541.157434
432.172624	2536.133924
432.549802	2540.098791
432.926920	2537.573173
433.303977	2539.932433
433.680974	2536.869932
434.057910	2536.212062
434.434786	2539.193904
434.811601	2539.340098
435.188355	2538.626774
435.565050	2540.824718
435.941683	2540.086188
436.318257	2536.060827
436.694770	2535.927237
437.071222	2537.593338
437.447614	2535.004705
437.823946	2540.192053
438.200218	2538.283976
438.576429	2538.271373
438.952580	2539.357742
439.328670	2541.119625
439.704700	2540.118956
440.080670	2542.261446
440.456580	2542.170706
440.832429	2538.122659
441.208218	2540.706250
441.583947	2541.303627
441.959616	2537.467309
442.335224	2542.838658
442.710773	2540.113915
443.086261	2539.037628
443.461689	2540.741538
443.837057	2539.468647
444.212365	2542.354708
444.587612	2542.001827
444.962800	2540.386137
445.337927	2544.519883
445.712995	2539.503935
446.088002	2542.521066
446.462949	2543.730943
446.837837	2543.534338
447.212664	2544.358566
447.587431	2542.750438
447.962139	2541.868236
448.336786	2544.411498
448.711374	2544.681200
449.085901	2545.328988
449.460369	2543.536858
449.834776	2542.712630
450.209124	2541.013761
450.583412	2544.966025
450.957640	2544.129194
451.331808	2543.173895
451.705917	2546.095244
452.079965	2546.024668
452.453954	2544.033412
452.827883	2546.175902
453.201752	2543.862013
453.575562	2544.091385
453.949311	2545.785213
454.323001	2545.523073
454.696632	2545.230686
455.070202	2546.440563
455.443713	2544.903011
455.817164	2542.947043
456.190556	2541.394368
456.563888	2543.299924
456.937160	2538.956970
457.310373	2545.533155
457.683526	2548.693959
458.056619	2544.282949
458.429653	2545.807898
458.802628	2546.899308
459.175542	2546.422919
459.548398	2547.216901
459.921194	2547.400903
460.293930	2545.676828
460.666607	2547.388300
461.039224	2548.943496
461.411782	2549.412323
461.784280	2550.685214
462.156719	2548.295707
462.529099	2549.485420
462.901419	2549.724875
463.273680	2546.901828
463.645882	2550.657488
464.018024	2547.169010
464.390106	2549.729916
464.762130	2551.610266
465.134094	2550.463404
465.505999	2550.571788
465.877845	2553.369629
466.249631	2551.915256
466.621358	2552.610935
466.993026	2553.435164
467.364634	2557.515978
467.736184	2553.367108
468.107674	2554.909701
468.479105	2550.526418
468.850477	2552.200081
469.221790	2551.917777
469.593043	2552.109340
469.964238	2556.167469
470.335373	2550.649926
470.706449	2553.251162
471.077467	2556.406924
471.448425	2555.464228
471.819324	2554.249310
472.190164	2558.214178
472.560945	2553.783003
472.931667	2553.329300
473.302330	2556.175031
473.672934	2552.774773
474.043479	2553.334341
474.413965	2557.281564
474.784393	2551.290153
475.154761	2553.435164
475.525070	2552.714279
475.895321	2553.213353
476.265513	2552.242931
476.635645	2554.773590
477.005719	2557.299208
477.375734	2559.441699
477.745691	2557.725186
478.115588	2560.593602
478.485427	2561.362378
478.855207	2563.998902
479.224928	2565.556618
479.594591	2567.792370
479.964194	2567.631053
480.333739	2568.278841
480.703226	2571.464851
481.072653	2572.699933
481.442022	2572.518452
481.811333	2575.540623
482.180584	2578.535069
482.549777	2579.712178
482.918912	2579.772672
483.287988	2586.152252
483.657005	2586.787438
484.025964	2588.670309
484.394864	2592.451174
484.763706	2595.586772
485.132489	2596.862184
485.501213	2600.307812
485.869879	2606.813421
486.238487	2610.019595
486.607036	2613.979422
486.975527	2617.530914
487.343959	2623.353447
487.712333	2631.066412
488.080648	2635.205200
488.448905	2643.576036
488.817104	2650.111892
489.185244	2655.536173
489.553326	2667.576969
489.921350	2689.085052
490.289315	2715.198229
490.657222	2725.943448
491.025070	2736.043400
491.392861	2746.309710
491.760593	2748.202663
492.128267	2752.399424
492.495883	2755.325814
492.863440	2759.691453
493.230939	2764.790580
493.598380	2777.249792
493.965763	2783.190792
494.333088	2791.664971
494.700354	2805.603762
495.067563	2818.967860
495.434713	2831.071671
495.801805	2852.368025
496.168839	2867.216744
496.535815	2885.150649
496.902733	2896.732700
497.269593	2916.378076
497.636395	2934.188473
498.003139	2960.084880
498.369825	2965.988071
498.736453	3001.603823
499.103023	3015.098992
499.469535	3040.009854
499.835989	3057.956361
500.202385	3084.976946
500.568723	3097.998246
500.935003	3130.072588
501.301226	3157.940086
501.667390	3193.293698
502.033497	3233.196951
502.399546	3244.370669
502.765537	3266.902106
503.131470	3301.517189
503.497345	3348.833459
503.863163	3342.025381
504.228923	3399.345820
504.594625	3438.780246
504.960269	3447.330043
505.325856	3505.885566
505.691385	3523.118750
506.056856	3576.406267
506.422270	3619.830766
506.787625	3637.898262
507.152924	3694.490255
507.518164	3723.247517
507.883347	3760.073146
508.248472	3791.035913
508.613540	3865.682798
508.978550	3898.210843
509.343503	3934.184517
509.708398	3999.003673
510.073236	4063.343920
510.438016	4107.985858
510.802738	4152.436232
511.167403	4215.228844
511.532010	4249.329729
511.896561	4333.819468
512.261053	4412.733690
512.625488	4435.431485
512.989866	4484.983507
513.354186	4535.304305
513.718449	4571.656065
514.082655	4663.064787
514.446803	4703.199933
514.810894	4788.876864
515.174927	4821.737625
515.538904	4873.447261
515.902822	4978.454495
516.266684	5000.817054
516.630488	5054.011309
516.994235	5114.159836
517.357925	5207.053178
517.721558	5288.687103
518.085133	5360.379872
518.448651	5421.788688
518.812112	5444.012615
519.175516	5519.907186
519.538863	5621.219255
519.902152	5651.377957
520.265385	5788.099091
520.628560	5804.906298
520.991678	5883.938987
521.354739	5958.926151
521.717743	6002.796792
522.080690	6058.365431
522.443580	6190.103384
522.806413	6234.609211
523.169189	6310.463453
523.531908	6401.481485
523.894569	6391.351287
524.257174	6460.694878
524.619722	6583.671306
524.982213	6611.132991
525.344647	6713.150822
525.707025	6745.754484
526.069345	6862.366455
526.431608	6904.029071
526.793815	7020.096597
527.155964	6980.964640
527.518057	7062.689306
527.880093	7112.475741
528.242072	7204.754062
528.603995	7235.217755
528.965860	7257.847495
529.327669	7341.772624
529.689421	7377.627831
530.051117	7429.977693
530.412755	7563.848054
530.774337	7547.600415
531.135862	7613.982329
531.497331	7678.350302
531.858743	7660.045872
532.220098	7814.942886
532.581396	7800.079044
532.942638	7846.966816
533.303824	7882.973257
533.664953	7955.182745
534.026025	7962.137016
534.387040	8083.217970
534.747999	8137.513717
535.108902	8241.217814
535.469748	8132.853171
535.830537	8251.587467
536.191270	8299.531361
536.551947	8368.239767
536.912567	8414.462107
537.273131	8418.137108
537.633638	8448.477293
537.994089	8497.918409
538.354483	8510.911983
538.714821	8662.466712
539.075103	8721.531391
539.435328	8745.693641
539.795497	8654.161411
540.155609	8835.716046
540.515665	8938.101880
540.875665	8788.722410
541.235609	8888.517091
541.595496	8930.744316
541.955328	9100.517775
542.315102	9050.504488
542.674821	9051.903408
543.034483	9092.797248
543.394090	9142.172829
543.753640	9124.778328
544.113134	9343.539199
544.472571	9262.328731
544.831953	9423.348226
545.191278	9305.488570
545.550548	9364.046613
545.909761	9509.214200
546.268918	9527.919401
546.628019	9628.621490
546.987064	9557.163134
547.346053	9512.339715
547.704986	9642.862750
548.063863	9663.279423
548.422684	9686.735912
548.781449	9646.865426
549.140158	9764.972099
549.498811	9688.197846
549.857408	9584.473585
550.215949	9819.290532
550.574434	9714.817659
550.932864	9833.766205
551.291237	9912.188915
551.649555	9891.721830
552.007817	9925.280791
552.366022	9920.900028
552.724173	9940.205127
553.082267	9949.039749
553.440305	10096.632131
553.798288	9927.766080
554.156215	10094.421585
554.514086	10100.228994
554.871902	9984.889915
555.229661	10034.167194
555.587365	10029.088231
555.945014	9955.053846
556.302606	10087.311038
556.660143	10004.986475
557.017625	10171.367237
557.375050	10089.541748
557.732421	10229.133819
558.089735	10164.644858
558.446994	10183.753352
558.804197	10235.319314
559.161345	10252.194577
559.518437	10111.228792
559.875474	10220.644516
560.232455	10255.693138
560.589381	10225.176513
560.946251	10241.487166
561.303065	10350.802067
561.659825	10299.034458
562.016528	10242.384492
562.373177	10139.955807
562.729770	10263.559858
563.086307	10188.562613
563.442789	10294.338623
563.799216	10183.002220
564.155587	10240.604964
564.511904	10202.332524
564.868164	10200.822699
565.224370	10224.647192
565.580520	10160.836266
565.936615	10175.566518
566.292654	10052.975739
566.648638	10191.181492
567.004567	10146.385799
567.360441	10140.177618
567.716260	10059.385566
568.072023	10158.943313
568.427732	10120.451583
568.783385	10035.931598
569.138982	10108.317526
569.494525	10126.483323
569.850013	10015.522486
570.205445	10091.885885
570.560823	9999.622687
570.916145	9921.845245
571.271412	9993.424588
571.626625	9943.071023
571.981782	9924.239793
572.336884	9902.867821
572.691931	9908.549202
573.046923	9863.756029
573.401860	9822.398403
573.756743	9762.789279
574.111570	9804.222523
574.466342	9792.706007
574.821059	9819.207353
575.175722	9719.510973
575.530330	9729.603363
575.884882	9727.440708
576.239380	9654.888422
576.593823	9638.270259
576.948211	9647.344336
577.302544	9529.734216
577.656823	9558.413341
578.011047	9551.562413
578.365216	9529.857725
578.719330	9458.069173
579.073389	9469.290782
579.427394	9420.409233
579.781344	9399.322087
580.135239	9346.185805
580.489080	9353.785344
580.842866	9260.009800
581.196597	9270.255946
581.550273	9309.791195
581.903895	9277.807594
582.257463	9347.337708
582.610975	9219.597391
582.964434	9250.482020
583.317837	9169.679885
583.671186	9154.828646
584.024481	9152.260178
584.377721	9079.145803
584.730906	9049.352584
585.084037	9078.263601
585.437113	9021.164972
585.790135	9040.512921
586.143103	8936.884442
586.496016	8914.252182
586.848874	8972.270821
587.201679	8956.910425
587.554428	8851.184826
587.907124	8895.121003
588.259765	8864.475828
588.612352	8868.014718
588.964884	8745.494515
589.317362	8765.976723
589.669786	8763.635108
590.022155	8809.817118
590.374470	8825.812699
590.726731	8762.223584
591.078937	8621.887944
591.431090	8730.386177
591.783188	8606.303217
592.135232	8591.431813
592.487222	8598.771733
592.839157	8647.975915
593.191038	8576.295748
593.542866	8524.598716
593.894639	8429.882997
594.246358	8487.195875
594.598022	8495.115527
594.949633	8396.926453
595.301190	8375.042804
595.652692	8403.084223
596.004141	8507.299996
596.355535	8289.877551
596.706876	8271.464737
597.058162	8205.133235
597.409395	8282.663660
597.760573	8343.429729
598.111698	8250.526304
598.462768	8238.863595
598.813785	8204.543420
599.164748	8175.090478
599.515657	8165.643356
599.866511	8076.304027
600.217312	8205.783543
600.568060	8062.087974
600.918753	8164.756113
601.269392	8129.856205
601.619978	8046.873771
601.970510	8112.822146
602.320988	8103.344777
602.671412	8165.038418
603.021783	8098.364117
603.372100	8070.146258
603.722363	8079.278308
604.072572	8050.672281
604.422728	8063.542347
604.772830	7989.422262
605.122878	8003.371134
605.472872	7993.987026
605.822813	8023.689505
606.172701	7973.943399
606.522534	8041.106691
606.872314	8041.628451
607.222041	8009.861620
607.571714	8064.482522
607.921333	8024.349896
608.270899	8032.090588
608.620411	8122.811192
608.969870	8026.593209
609.319276	8024.120523
609.668627	8035.957153
610.017926	8065.770537
610.367171	8112.975901
610.716362	8094.505113
611.065500	8084.556396
611.414585	8112.441539
611.763616	8097.824713
612.112594	8081.161179
612.461518	8097.597861
612.810389	8157.776635
613.159207	8097.043334
613.507971	8044.685911
613.856682	8167.367431
614.205340	8119.181562
614.553945	8197.700053
614.902496	8098.432172
615.250994	8151.817992
615.599439	8132.210424
615.947830	8145.579564
616.296169	8122.843960
616.644454	8134.325188
616.992686	8134.042883
617.340864	8187.337962
617.688990	8091.472859
618.037063	8185.341665
618.385082	8130.720763
618.733048	8215.399544
619.080961	8152.599370
619.428821	8174.954367
619.776628	8174.046959
620.124382	8130.219168
620.472083	8114.299204
620.819731	8137.629664
621.167326	8029.322994
621.514868	8044.217083
621.862357	7935.807070
622.209793	7948.745191
622.557176	7885.188844
622.904506	7854.798248
623.251783	7787.498844
623.599007	7741.299190
623.946179	7746.325220
624.293297	7701.645474
624.640363	7618.899974
624.987376	7601.941533
625.334336	7550.662916
625.681243	7500.309351
626.028097	7492.656879
626.374899	7472.698951
626.721647	7463.559339
627.068343	7390.364306
627.414987	7366.648198
627.761577	7323.342166
628.108115	7357.327104
628.454600	7248.544045
628.801032	7301.241747
629.147412	7261.686333
629.493739	7252.481187
629.840014	7188.725714
630.186236	7245.267295
630.532405	7125.733976
630.878521	7179.928900
631.224585	7135.738146
631.570597	7060.793832
631.916556	7094.498987
632.262462	7090.801300
632.608316	7051.041720
632.954117	7028.815273
633.299866	7019.542070
633.645562	7008.224680
633.991206	6930.051507
634.336797	6877.076542
634.682336	6830.065262
635.027823	6798.731970
635.373257	6790.098994
635.718639	6725.133644
636.063968	6738.545634
636.409245	6631.239633
636.754470	6629.500435
637.099642	6584.498055
637.444762	6530.106526
637.789829	6540.771087
638.134845	6478.827909
638.479808	6466.852648
638.824719	6472.660057
639.169577	6400.914355
639.514383	6422.548467
639.859137	6354.066913
640.203839	6364.706268
640.548489	6347.329411
640.893086	6321.932077
641.237632	6291.377644
641.582125	6313.714997
641.926566	6280.639986
642.270955	6296.854858
642.615292	6294.861081
642.959576	6308.446991
643.303809	6299.647657
643.647990	6305.727288
