Dividing Wavelength (nm)	Counts (n)	Blue Motor Position (mm): 42.800000	Red Motor Position (mm): 0.000000	
326.493990	2131.195679
326.888308	2131.195679
327.282561	2131.195679
327.676750	2096.613364
328.070874	2095.655545
328.464933	2098.639908
328.858929	2104.195259
329.252859	2115.389142
329.646726	2126.882972
330.040528	2139.737915
330.434265	2154.185862
330.827938	2172.797802
331.221547	2190.918229
331.615091	2209.797350
332.008571	2229.926678
332.401986	2248.168093
332.795338	2267.934457
333.188625	2287.070677
333.581847	2304.306382
333.975006	2323.591316
334.368100	2343.350118
334.761129	2361.871318
335.154095	2374.595190
335.546996	2398.883469
335.939833	2423.474218
336.332606	2439.948708
336.725315	2451.518157
337.117960	2460.377984
337.510540	2469.152113
337.903056	2480.950933
338.295508	2486.546614
338.687896	2497.808552
339.080220	2505.226610
339.472480	2509.481343
339.864676	2515.084586
340.256807	2522.767304
340.648875	2523.185720
341.040879	2523.987264
341.432818	2530.026566
341.824694	2530.374406
342.216506	2529.540095
342.608253	2531.075126
342.999937	2530.019004
343.391557	2530.628984
343.783113	2527.253931
344.174605	2525.481966
344.566033	2526.475073
344.957397	2522.124557
345.348697	2520.521470
345.739934	2521.607839
346.131106	2519.180523
346.522215	2517.201871
346.913260	2516.932169
347.304241	2513.501664
347.695159	2510.739111
348.086012	2509.372959
348.476802	2505.680313
348.867528	2508.309275
349.258191	2507.054028
349.648789	2504.394819
350.039324	2500.009015
350.429796	2502.711074
350.820203	2498.252173
351.210548	2501.102946
351.600828	2499.870384
351.991045	2499.641011
352.381198	2496.923829
352.771288	2497.291833
353.161314	2494.030207
353.551276	2499.517503
353.941175	2495.971051
354.331010	2495.711432
354.720782	2496.439878
355.110490	2496.669251
355.500135	2497.858963
355.889717	2496.351658
356.279235	2496.207985
356.668689	2497.112872
357.058080	2498.242091
357.447408	2493.183293
357.836672	2495.204796
358.225873	2495.950887
358.615010	2495.857625
359.004084	2500.208141
359.393095	2499.457009
359.782043	2501.420538
360.170927	2500.041783
360.559748	2502.829541
360.948505	2500.321567
361.337199	2503.308451
361.725830	2503.663852
362.114398	2505.390447
362.502903	2504.682165
362.891344	2505.380365
363.279722	2505.773575
363.668037	2506.428925
364.056289	2508.200890
364.444478	2507.608555
364.832603	2508.551251
365.220665	2510.232475
365.608665	2506.814573
365.996601	2509.773730
366.384474	2511.470079
366.772284	2508.198370
367.160031	2509.725839
367.547715	2509.020078
367.935336	2513.229441
368.322893	2511.707013
368.710388	2509.047804
369.097820	2515.404699
369.485189	2512.551406
369.872495	2515.964267
370.259738	2513.380676
370.646918	2513.400841
371.034035	2513.027795
371.421090	2517.731192
371.808081	2517.224556
372.195010	2516.304545
372.581875	2512.987466
372.968678	2519.901408
373.355418	2513.700789
373.742096	2519.830832
374.128710	2518.633558
374.515262	2518.971316
374.901751	2519.172962
375.288177	2521.451563
375.674540	2519.752694
376.060841	2520.289577
376.447079	2518.343692
376.833254	2520.314783
377.219367	2518.371418
377.605417	2519.903929
377.991404	2520.705473
378.377329	2521.600277
378.763191	2520.120699
379.148991	2527.435413
379.534727	2530.117307
379.920402	2532.816845
380.306013	2534.392205
380.691563	2539.496373
381.077049	2542.788247
381.462474	2550.909546
381.847835	2556.820299
382.233134	2565.097873
382.618371	2573.829152
383.003545	2587.450349
383.388657	2598.586258
383.773706	2612.698968
384.158693	2624.691873
384.543618	2643.205511
384.928480	2657.890392
385.313280	2680.489885
385.698017	2693.612008
386.082692	2719.987325
386.467305	2733.679099
386.851856	2762.388470
387.236344	2784.012500
387.620770	2812.812612
388.005133	2842.250429
388.389435	2870.667414
388.773674	2900.024573
389.157851	2933.772578
389.541965	2965.257104
389.926018	2975.473002
390.310008	3031.162629
390.693936	3064.469532
391.077802	3112.264712
391.461606	3134.402939
391.845348	3194.059953
392.229027	3219.555589
392.612645	3252.212184
392.996200	3324.651044
393.379694	3376.784136
393.763125	3446.604117
394.146494	3454.213739
394.529801	3528.016231
394.913047	3592.144749
395.296230	3596.238166
395.679351	3660.051612
396.062410	3712.963563
396.445408	3722.524111
396.828343	3774.571504
397.211217	3819.052125
397.594028	3781.465282
397.976778	3858.476469
398.359466	3903.599837
398.742092	3947.717495
399.124656	3903.609919
399.507158	3991.222652
399.889598	4030.783107
400.271977	4105.251032
400.654294	4092.680915
401.036549	4116.996920
401.418742	4101.563428
401.800874	4207.326835
402.182944	4240.805138
402.564952	4314.653001
402.946898	4309.952125
403.328783	4319.147189
403.710606	4245.629522
404.092367	4438.889717
404.474067	4409.020880
404.855705	4422.906738
405.237282	4358.324517
405.618797	4472.821723
406.000250	4506.776415
406.381642	4590.535186
406.762972	4559.131318
407.144240	4572.765119
407.525447	4571.872835
407.906593	4633.387514
408.287677	4677.190100
408.668700	4608.658134
409.049661	4661.897760
409.430560	4703.164645
409.811399	4629.223521
410.192176	4791.223521
410.572891	4732.940221
410.953545	4831.532587
411.334138	4714.635791
411.714669	4784.894352
412.095139	4680.958363
412.475547	4821.294003
412.855894	4802.651817
413.236180	4813.757478
413.616405	4767.845170
413.996568	4850.951112
414.376670	4794.913645
414.756711	4752.704064
415.136691	4782.840082
415.516609	4855.906566
415.896466	4896.074480
416.276262	4933.207619
416.655997	4909.965379
417.035670	5093.707875
417.415283	5184.128531
417.794834	5129.517711
418.174324	5084.263273
418.553753	4991.589222
418.933121	5176.188714
419.312428	5241.743878
419.691674	5181.915464
420.070859	5308.123272
420.449983	5224.566147
420.829045	5333.462631
421.208047	5242.888220
421.586988	5312.917409
421.965867	5325.492567
422.344686	5460.129183
422.723444	5315.831196
423.102141	5131.720696
423.480777	5431.918887
423.859352	5201.084452
424.237866	5459.826714
424.616319	5448.559735
424.994712	5558.388834
425.373044	5437.030617
425.751314	5579.980096
426.129524	5384.254777
426.507673	5574.424744
426.885762	5662.130739
427.263789	5588.149285
427.641756	5474.622501
428.019662	5591.705819
428.397508	5601.616728
428.775292	5548.488007
429.153016	5645.275641
429.530679	5575.009518
429.908282	5657.208052
430.285824	5527.141242
430.663305	5798.166275
431.040726	5542.698242
431.418086	5538.287233
431.795385	5644.287575
432.172624	5658.790974
432.549802	5647.460981
432.926920	5664.598383
433.303977	5669.984856
433.680974	5711.067740
434.057910	5729.722529
434.434786	5737.596812
434.811601	5702.822932
435.188355	5933.312048
435.565050	5807.777235
435.941683	5793.689731
436.318257	6005.057750
436.694770	5990.133414
437.071222	6023.979721
437.447614	5954.053876
437.823946	5869.788468
438.200218	6022.149782
438.576429	5889.721191
438.952580	5984.782229
439.328670	6032.572367
439.704700	5941.453512
440.080670	5922.536582
440.456580	6194.030443
440.832429	6081.297640
441.208218	5925.720070
441.583947	6080.344862
441.959616	6083.107414
442.335224	6011.200396
442.710773	6149.023021
443.086261	6174.296846
443.461689	5970.997194
443.837057	6119.267611
444.212365	6276.155880
444.587612	6163.032388
444.962800	6320.470143
445.337927	6299.748480
445.712995	5911.345220
446.088002	6487.261759
446.462949	6316.086860
446.837837	6249.299133
447.212664	6425.842861
447.587431	6564.144396
447.962139	7107.800071
448.336786	8030.132099
448.711374	7775.581557
449.085901	6841.564134
449.460369	6769.394975
449.834776	6704.843000
450.209124	7094.551919
450.583412	7245.743684
450.957640	7391.876652
451.331808	7148.552759
451.705917	6706.554472
452.079965	6633.041846
452.453954	6845.138312
452.827883	6724.745476
453.201752	6811.990205
453.575562	6611.634586
453.949311	6815.052706
454.323001	6701.412495
454.696632	6774.988135
455.070202	6917.743530
455.443713	7071.773465
455.817164	7176.085021
456.190556	7251.193172
456.563888	7331.196283
456.937160	7372.609362
457.310373	7025.788060
457.683526	7055.266207
458.056619	6947.312418
458.429653	6936.564678
458.802628	6865.915427
459.175542	6981.221739
459.548398	7331.420615
459.921194	7491.968762
460.293930	7497.244329
460.666607	8023.215636
461.039224	8338.998554
461.411782	8459.124209
461.784280	8474.071231
462.156719	8364.030404
462.529099	8243.259481
462.901419	7826.885379
463.273680	7725.001139
463.645882	7738.365238
464.018024	7604.915814
464.390106	7779.102803
464.762130	8162.172522
465.134094	8628.433882
465.505999	9649.645622
465.877845	10881.635567
466.249631	11517.468740
466.621358	11134.043619
466.993026	10502.452577
467.364634	10258.674980
467.736184	9889.133198
468.107674	9561.332169
468.479105	9582.245395
468.850477	9351.060601
469.221790	9118.388665
469.593043	8795.772463
469.964238	8659.573089
470.335373	8672.279318
470.706449	8726.925425
471.077467	8712.069145
471.448425	10020.122539
471.819324	11094.715057
472.190164	11112.046544
472.560945	9863.783755
472.931667	9070.454854
473.302330	8940.614896
473.672934	8590.239580
474.043479	8946.205535
474.413965	8888.023058
474.784393	8770.433103
475.154761	8924.357174
475.525070	9010.187860
475.895321	8842.393054
476.265513	9013.399075
476.635645	9189.607566
477.005719	9189.756280
477.375734	9299.066140
477.745691	9536.842243
478.115588	9674.702678
478.485427	9918.286190
478.855207	10456.250402
479.224928	11278.218099
479.594591	11894.693241
479.964194	11709.324973
480.333739	11641.435754
480.703226	11556.545244
481.072653	11650.010757
481.442022	11894.637788
481.811333	12077.679564
482.180584	11890.473795
482.549777	11589.998341
482.918912	11414.072154
483.287988	11438.710793
483.657005	11451.774943
484.025964	11137.700976
484.394864	11266.000862
484.763706	11232.043650
485.132489	10988.291259
485.501213	10955.501073
485.869879	11033.366736
486.238487	10872.531243
486.607036	10985.077523
486.975527	10765.694069
487.343959	10952.254570
487.712333	11002.729123
488.080648	10935.694380
488.448905	10977.104938
488.817104	10914.796277
489.185244	11185.927175
489.553326	11337.403765
489.921350	11882.080274
490.289315	12938.615379
490.657222	13274.575516
491.025070	13185.571424
491.392861	13057.788256
491.760593	12673.632168
492.128267	12327.788850
492.495883	12001.535455
492.863440	11659.591469
493.230939	11330.799854
493.598380	11262.708989
493.965763	11127.999276
494.333088	11031.758608
494.700354	10946.069075
495.067563	11009.958138
495.434713	10843.030411
495.801805	10968.348454
496.168839	10892.312731
496.535815	10824.453759
496.902733	10825.877885
497.269593	10759.944633
497.636395	10860.533297
498.003139	10854.635147
498.369825	10717.896369
498.736453	10875.450071
499.103023	10800.868720
499.469535	10833.237969
499.835989	10818.162399
500.202385	10784.328695
500.568723	10632.645417
500.935003	10859.111691
501.301226	10665.952320
501.667390	10920.182750
502.033497	11026.840962
502.399546	10873.199196
502.765537	10781.656883
503.131470	10860.361898
503.497345	11026.104954
503.863163	10641.913578
504.228923	10952.864550
504.594625	11018.681855
504.960269	10766.404872
505.325856	10991.729326
505.691385	10778.238981
506.056856	10930.665829
506.422270	10955.062493
506.787625	10844.131903
507.152924	10962.702362
507.518164	10947.626791
507.883347	10868.465552
508.248472	10784.918510
508.613540	11022.659325
508.978550	10900.925542
509.343503	10878.341173
509.708398	10995.608493
510.073236	11109.039496
510.438016	11120.417380
510.802738	11063.492671
511.167403	11119.182298
511.532010	11013.673468
511.896561	11246.484035
512.261053	11321.637557
512.625488	11189.589573
512.989866	11169.442602
513.354186	11161.666622
513.718449	11060.241127
514.082655	11249.591907
514.446803	11147.506021
514.810894	11269.665781
515.174927	11137.043106
515.538904	11158.886425
515.902822	11311.265383
516.266684	11198.698938
516.630488	11139.785493
516.994235	11192.904132
517.357925	11250.544685
517.721558	11343.569097
518.085133	11360.129287
518.448651	11369.309228
518.812112	11249.949828
519.175516	11261.171437
519.538863	11383.618543
519.902152	11309.190948
520.265385	11464.690379
520.628560	11377.022193
520.991678	11353.618637
521.354739	11418.465519
521.717743	11352.635612
522.080690	11330.799854
522.443580	11459.535800
522.806413	11425.860892
523.169189	11449.997937
523.531908	11503.623211
523.894569	11329.368166
524.257174	11335.132726
524.619722	11456.979935
524.982213	11397.842159
525.344647	11453.625047
525.707025	11406.684343
526.069345	11495.454021
526.431608	11409.628377
526.793815	11526.482323
527.155964	11312.757564
527.518057	11364.673887
527.880093	11311.640949
528.242072	11380.896320
528.603995	11286.994747
528.965860	11210.200330
529.327669	11267.152766
529.689421	11210.535567
530.051117	11176.154898
530.412755	11281.487287
530.774337	11170.644917
531.135862	11155.423153
531.497331	11176.679178
531.858743	11025.300890
532.220098	11194.262722
532.581396	11064.538711
532.942638	11049.528675
533.303824	11008.286995
533.664953	11022.639160
534.026025	10935.870820
534.387040	11036.489731
534.747999	11045.490711
535.108902	11099.073135
535.469748	10857.135559
535.830537	10961.895777
536.191270	10945.496904
536.551947	10964.852414
536.912567	10954.208017
537.273131	10889.179653
537.633638	10867.346416
537.994089	10856.298727
538.354483	10805.166304
538.714821	10955.697678
539.075103	10961.220263
539.435328	10921.143089
539.795497	10749.093550
540.155609	10904.935780
540.515665	10993.319810
540.875665	10731.512526
541.235609	10797.176075
541.595496	10794.312700
541.955328	10949.194590
542.315102	10833.300984
542.674821	10785.130238
543.034483	10784.096802
543.394090	10787.328181
543.753640	10713.946625
544.113134	10933.937538
544.472571	10793.163317
544.831953	10935.134812
545.191278	10735.840356
545.550548	10773.238156
545.909761	10909.389639
546.268918	10877.214475
546.628019	10962.785541
546.987064	10831.317290
547.346053	10741.443599
547.704986	10848.671462
548.063863	10832.612866
548.422684	10828.103554
548.781449	10740.357230
549.140158	10847.121307
549.498811	10720.177491
549.857408	10585.450134
550.215949	10811.460185
550.574434	10663.696404
550.932864	10761.996383
551.291237	10824.599952
551.649555	10765.361353
552.007817	10786.544282
552.366022	10741.859494
552.724173	10736.420089
553.082267	10725.755528
553.440305	10857.831238
553.798288	10657.195836
554.156215	10810.386419
554.514086	10790.932606
554.871902	10635.740685
555.229661	10672.382312
555.587365	10645.855760
555.945014	10546.013188
556.302606	10672.468011
556.660143	10568.244676
557.017625	10721.667152
557.375050	10619.437593
557.732421	10747.409804
558.089735	10658.330095
558.446994	10663.446867
558.804197	10701.305932
559.161345	10700.547238
559.518437	10550.121728
559.875474	10636.574996
560.232455	10667.101703
560.589381	10618.510021
560.946251	10616.798549
561.303065	10727.126722
561.659825	10656.104426
562.016528	10586.957439
562.373177	10467.701383
562.729770	10583.393343
563.086307	10500.857052
563.442789	10598.554614
563.799216	10464.301125
564.155587	10525.067193
564.511904	10475.298402
564.868164	10471.041148
565.224370	10478.323094
565.580520	10404.475232
565.936615	10414.040821
566.292654	10280.808166
566.648638	10406.158977
567.004567	10368.425941
567.360441	10352.347180
567.716260	10263.227142
568.072023	10357.476554
568.427732	10304.521754
568.783385	10213.549092
569.138982	10285.960225
569.494525	10304.594851
569.850013	10176.383185
570.205445	10261.130022
570.560823	10152.432663
570.916145	10077.858874
571.271412	10141.873966
571.626625	10084.102343
571.981782	10065.271113
572.336884	10036.755826
572.691931	10043.969717
573.046923	9995.526749
573.401860	9947.270304
573.756743	9882.143638
574.111570	9923.629813
574.466342	9909.386033
574.821059	9936.615826
575.175722	9833.572120
575.530330	9834.923150
575.884882	9829.236728
576.239380	9756.790306
576.593823	9737.162574
576.948211	9747.396116
577.302544	9630.290112
577.656823	9641.965424
578.011047	9645.776537
578.365216	9621.319379
578.719330	9543.665445
579.073389	9554.405623
579.427394	9507.069189
579.781344	9485.777875
580.135239	9433.657386
580.489080	9441.219117
580.842866	9343.123304
581.196597	9353.104788
581.550273	9389.703565
581.903895	9359.002938
582.257463	9424.638762
582.610975	9298.773753
582.964434	9327.795676
583.317837	9249.856917
583.671186	9227.900171
584.024481	9227.524605
584.377721	9150.180702
584.730906	9126.648596
585.084037	9158.382659
585.437113	9083.791227
585.790135	9109.294424
586.143103	9009.109053
586.496016	8983.772214
586.848874	9034.695429
587.201679	9026.233853
587.554428	8911.025843
587.907124	8961.389491
588.259765	8932.034852
588.612352	8932.249101
588.964884	8811.498343
589.317362	8826.233635
589.669786	8822.861103
590.022155	8871.336839
590.374470	8888.862410
590.726731	8831.589861
591.078937	8675.755193
591.431090	8791.187534
591.783188	8662.766660
592.135232	8656.550917
592.487222	8653.226277
592.839157	8705.233340
593.191038	8637.374368
593.542866	8585.495854
593.894639	8489.857604
594.246358	8536.884008
594.598022	8556.189106
594.949633	8457.080022
595.301190	8427.259076
595.652692	8456.961554
596.004141	8568.378616
596.355535	8341.456117
596.706876	8322.367788
597.058162	8257.321780
597.409395	8338.461672
597.760573	8399.368892
598.111698	8303.014798
598.462768	8294.545660
598.813785	8254.919670
599.164748	8223.788024
599.515657	8212.084986
599.866511	8126.917212
600.217312	8249.777693
600.568060	8113.535469
600.918753	8218.482210
601.269392	8184.174637
601.619978	8096.473684
601.970510	8158.028693
602.320988	8159.881317
602.671412	8208.500725
603.021783	8147.477558
603.372100	8121.820606
603.722363	8126.990309
604.072572	8100.284796
604.422728	8109.613452
604.772830	8044.393524
605.122878	8041.260447
605.472872	8041.026033
605.822813	8074.411074
606.172701	8015.427054
606.522534	8084.987415
606.872314	8090.865400
607.222041	8060.903302
607.571714	8117.424719
607.921333	8075.804953
608.270899	8076.452742
608.620411	8173.956219
608.969870	8072.356804
609.319276	8065.712563
609.668627	8085.254596
610.017926	8118.294318
610.367171	8163.687388
610.716362	8144.841035
611.065500	8130.277141
611.414585	8153.552148
611.763616	8144.899008
612.112594	8128.681616
612.461518	8150.177096
612.810389	8202.685754
613.159207	8151.785224
613.507971	8094.532840
613.856682	8211.487609
614.205340	8167.458171
614.553945	8252.162159
614.902496	8143.989080
615.250994	8202.968059
615.599439	8182.687497
615.947830	8199.998819
616.296169	8170.127462
616.644454	8186.521295
616.992686	8182.984925
617.340864	8238.951815
617.688990	8141.077813
618.037063	8231.241370
618.385082	8178.768000
618.733048	8261.488293
619.080961	8202.242133
619.428821	8223.878765
619.776628	8225.295329
620.124382	8176.471754
620.472083	8158.663878
620.819731	8190.135802
621.167326	8082.895336
621.514868	8094.394208
621.862357	7977.005900
622.209793	7997.551122
622.557176	7924.585461
622.904506	7901.449086
623.251783	7834.227820
623.599007	7786.104965
623.946179	7792.189638
624.293297	7748.457628
624.640363	7665.578538
624.987376	7649.499778
625.334336	7599.173939
625.681243	7544.416926
626.028097	7533.770009
626.374899	7509.315372
626.721647	7504.107860
627.068343	7437.514218
627.414987	7406.420381
627.761577	7360.745007
628.108115	7399.060296
628.454600	7294.360572
628.801032	7340.678694
629.147412	7304.556306
629.493739	7290.572145
629.840014	7229.521251
630.186236	7284.253059
630.532405	7168.193094
630.878521	7215.590023
631.224585	7174.701224
631.570597	7105.100533
631.916556	7135.450800
632.262462	7129.499718
632.608316	7090.488749
632.954117	7070.303969
633.299866	7058.605971
633.645562	7047.402007
633.991206	6966.501570
634.336797	6910.494351
634.682336	6870.336519
635.027823	6836.827970
635.373257	6830.161044
635.718639	6756.900475
636.063968	6772.361694
636.409245	6664.382699
636.754470	6666.626013
637.099642	6624.144209
637.444762	6571.360808
637.789829	6579.812302
638.134845	6516.351737
638.479808	6503.665674
638.824719	6509.311766
639.169577	6437.863492
639.514383	6456.583817
639.859137	6383.797117
640.203839	6392.165433
640.548489	6380.018773
