Dividing Wavelength (nm)	Counts (n)	Blue Motor Position (mm): 16.800000	Red Motor Position (mm): 0.000000	
326.493990	2135.566360
326.888308	2135.566360
327.282561	2135.566360
327.676750	2104.003696
328.070874	2101.047059
328.464933	2102.456061
328.858929	2108.800353
329.252859	2119.152363
329.646726	2130.540329
330.040528	2144.985756
330.434265	2160.736841
330.827938	2179.840293
331.221547	2196.599609
331.615091	2218.518546
332.008571	2235.963459
332.401986	2256.843918
332.795338	2273.888060
333.188625	2291.655606
333.581847	2313.501447
333.975006	2329.650783
334.368100	2347.330109
334.761129	2365.253932
335.154095	2385.300080
335.546996	2400.710888
335.939833	2420.933476
336.332606	2437.045004
336.725315	2449.980605
337.117960	2458.384208
337.510540	2467.138172
337.903056	2477.159986
338.295508	2486.791110
338.687896	2492.265803
339.080220	2502.151506
339.472480	2507.779954
339.864676	2515.573578
340.256807	2519.039371
340.648875	2520.758405
341.040879	2523.130268
341.432818	2524.536749
341.824694	2523.800741
342.216506	2526.303674
342.608253	2529.083870
342.999937	2526.071781
343.391557	2525.728982
343.783113	2523.132788
344.174605	2524.766122
344.566033	2523.006759
344.957397	2520.060205
345.348697	2517.746315
345.739934	2517.663136
346.131106	2515.881088
346.522215	2515.059380
346.913260	2513.781448
347.304241	2511.858247
347.695159	2508.768020
348.086012	2509.544358
348.476802	2506.272649
348.867528	2503.915910
349.258191	2501.382730
349.648789	2502.958090
350.039324	2499.603203
350.429796	2500.248470
350.820203	2497.632111
351.210548	2496.727224
351.600828	2496.089518
351.991045	2496.117245
352.381198	2492.858139
352.771288	2494.977944
353.161314	2494.493993
353.551276	2493.296719
353.941175	2493.034579
354.331010	2493.253869
354.720782	2495.693788
355.110490	2493.314363
355.500135	2492.432161
355.889717	2494.877121
356.279235	2492.674137
356.668689	2496.911226
357.058080	2494.085660
357.447408	2490.720689
357.836672	2492.417038
358.225873	2494.037769
358.615010	2492.520381
359.004084	2496.470125
359.393095	2497.773264
359.782043	2498.342914
360.170927	2496.999447
360.559748	2497.470794
360.948505	2499.472133
361.337199	2500.102277
361.725830	2499.837616
362.114398	2503.240395
362.502903	2500.767709
362.891344	2501.022287
363.279722	2501.014726
363.668037	2501.241578
364.056289	2501.037411
364.444478	2502.106135
364.832603	2504.288955
365.220665	2503.222751
365.608665	2505.014881
365.996601	2504.346928
366.384474	2504.775426
366.772284	2503.258039
367.160031	2505.987824
367.547715	2506.088647
367.935336	2503.754593
368.322893	2507.323730
368.710388	2509.062928
369.097820	2508.916734
369.485189	2504.969511
369.872495	2507.371621
370.259738	2508.500839
370.646918	2508.405057
371.034035	2505.403050
371.421090	2508.447907
371.808081	2508.163082
372.195010	2508.619306
372.581875	2510.126611
372.968678	2508.405057
373.355418	2507.951353
373.742096	2511.560819
374.128710	2509.103257
374.515262	2509.725839
374.901751	2511.770027
375.288177	2509.080572
375.674540	2511.817918
376.060841	2510.381189
376.447079	2511.838083
376.833254	2513.277332
377.219367	2506.325581
377.605417	2507.963956
377.991404	2508.836076
378.377329	2509.569564
378.763191	2506.323061
379.148991	2512.044770
379.534727	2513.844462
379.920402	2513.330264
380.306013	2514.497292
380.691563	2513.761283
381.077049	2512.586694
381.462474	2513.710872
381.847835	2512.160717
382.233134	2515.104751
382.618371	2514.086437
383.003545	2515.883609
383.388657	2516.012158
383.773706	2515.800430
384.158693	2516.775893
384.543618	2516.223887
384.928480	2515.122395
385.313280	2516.662467
385.698017	2514.580471
386.082692	2516.067611
386.467305	2515.258506
386.851856	2518.900739
387.236344	2517.554751
387.620770	2518.431912
388.005133	2517.380832
388.389435	2518.419309
388.773674	2518.860410
389.157851	2517.973167
389.541965	2518.542818
389.926018	2519.004083
390.310008	2518.507529
390.693936	2518.028620
391.077802	2517.680780
391.461606	2519.067098
391.845348	2518.928466
392.229027	2520.879392
392.612645	2519.109947
392.996200	2519.094824
393.379694	2521.370905
393.763125	2519.964423
394.146494	2520.435771
394.529801	2522.626152
394.913047	2522.409383
395.296230	2522.598426
395.679351	2520.481141
396.062410	2522.243024
396.445408	2521.103724
396.828343	2523.785617
397.211217	2519.543487
397.594028	2519.853518
397.976778	2517.448887
398.359466	2522.323683
398.742092	2515.702127
399.124656	2522.190092
399.507158	2524.708149
399.889598	2525.416431
400.271977	2520.841584
400.654294	2525.141688
401.036549	2525.101359
401.418742	2524.428365
401.800874	2523.563807
402.182944	2524.188910
402.564952	2523.828467
402.946898	2527.059847
403.328783	2526.228057
403.710606	2524.025072
404.092367	2525.272758
404.474067	2526.187727
404.855705	2527.349713
405.237282	2525.766791
405.618797	2527.843746
406.000250	2524.771163
406.381642	2528.315094
406.762972	2526.195289
407.144240	2527.102697
407.525447	2527.798376
407.906593	2526.414579
408.287677	2525.572707
408.668700	2524.945083
409.049661	2529.368695
409.430560	2528.514220
409.811399	2529.381298
410.192176	2528.763757
410.572891	2528.546987
410.953545	2528.930115
411.334138	2528.967924
411.714669	2527.027079
412.095139	2532.398429
412.475547	2529.971113
412.855894	2532.544622
413.236180	2529.920702
413.616405	2530.356762
413.996568	2528.670496
414.376670	2528.730989
414.756711	2530.253418
415.136691	2527.483304
415.516609	2530.772657
415.896466	2530.192924
416.276262	2532.965559
416.655997	2527.349713
417.035670	2525.285361
417.415283	2527.992460
417.794834	2525.232429
418.174324	2531.773326
418.553753	2529.903058
418.933121	2531.377595
419.312428	2530.389529
419.691674	2530.500434
420.070859	2529.078829
420.449983	2531.128058
420.829045	2529.222502
421.208047	2531.750641
421.586988	2532.718542
421.965867	2532.718542
422.344686	2532.274921
422.723444	2531.672503
423.102141	2531.745599
423.480777	2534.356917
423.859352	2533.663758
424.237866	2535.781043
424.616319	2532.209386
424.994712	2529.620753
425.373044	2531.932122
425.751314	2532.269879
426.129524	2531.904396
426.507673	2532.837009
426.885762	2532.726104
427.263789	2534.243491
427.641756	2535.808769
428.019662	2533.736855
428.397508	2535.554191
428.775292	2533.504962
429.153016	2535.697864
429.530679	2535.770961
429.908282	2535.103008
430.285824	2534.266176
430.663305	2533.285672
431.040726	2533.429345
431.418086	2531.097811
431.795385	2534.137627
432.172624	2534.561084
432.549802	2534.044366
432.926920	2535.090405
433.303977	2536.028060
433.680974	2536.736342
434.057910	2532.600075
434.434786	2537.429500
434.811601	2534.835827
435.188355	2536.282638
435.565050	2538.725077
435.941683	2536.343132
436.318257	2535.375230
436.694770	2532.499252
437.071222	2533.729293
437.447614	2533.053779
437.823946	2533.013450
438.200218	2535.644932
438.576429	2537.742052
438.952580	2536.174253
439.328670	2536.834644
439.704700	2538.435211
440.080670	2536.885056
440.456580	2539.771116
440.832429	2538.959491
441.208218	2536.491846
441.583947	2538.457896
441.959616	2538.034439
442.335224	2540.192053
442.710773	2538.508307
443.086261	2535.912113
443.461689	2538.117618
443.837057	2539.622402
444.212365	2541.044008
444.587612	2540.010571
444.962800	2540.812115
445.337927	2540.189532
445.712995	2538.430169
446.088002	2540.504604
446.462949	2536.512010
446.837837	2539.375386
447.212664	2540.071065
447.587431	2540.897814
447.962139	2539.070396
448.336786	2540.776827
448.711374	2544.035932
449.085901	2542.435366
449.460369	2540.423946
449.834776	2540.209697
450.209124	2540.950746
450.583412	2541.583411
450.957640	2540.544933
451.331808	2541.008720
451.705917	2540.113915
452.079965	2544.361087
452.453954	2540.358411
452.827883	2540.824718
453.201752	2543.025181
453.575562	2541.071734
453.949311	2543.002496
454.323001	2544.376210
454.696632	2543.557023
455.070202	2539.922351
455.443713	2541.583411
455.817164	2539.425797
456.190556	2540.517207
456.563888	2540.126518
456.937160	2539.438400
457.310373	2542.170706
457.683526	2541.270860
458.056619	2543.030222
458.429653	2543.294883
458.802628	2541.936292
459.175542	2544.459389
459.548398	2542.311858
459.921194	2542.876467
460.293930	2543.322609
460.666607	2541.911086
461.039224	2541.371683
461.411782	2545.460058
461.784280	2546.344781
462.156719	2542.541230
462.529099	2544.663556
462.901419	2541.427135
463.273680	2544.966025
463.645882	2544.461910
464.018024	2546.743032
464.390106	2542.551313
464.762130	2543.504091
465.134094	2547.201777
465.505999	2545.727240
465.877845	2543.635161
466.249631	2547.186654
466.621358	2545.691952
466.993026	2550.375183
467.364634	2548.139432
467.736184	2546.553989
468.107674	2544.832435
468.479105	2547.347971
468.850477	2545.709596
469.221790	2547.191695
469.593043	2544.794626
469.964238	2545.724719
470.335373	2546.821170
470.706449	2546.639688
471.077467	2544.953422
471.448425	2547.617672
471.819324	2547.698331
472.190164	2547.060625
472.560945	2546.901828
472.931667	2546.770758
473.302330	2546.997610
473.672934	2548.338557
474.043479	2545.616334
474.413965	2547.395862
474.784393	2545.742363
475.154761	2544.013247
475.525070	2546.438042
475.895321	2545.676828
476.265513	2544.419060
476.635645	2548.867878
477.005719	2548.280584
477.375734	2550.314690
477.745691	2547.670604
478.115588	2551.065822
478.485427	2550.533980
478.855207	2548.499874
479.224928	2549.079607
479.594591	2551.322920
479.964194	2548.474668
480.333739	2550.586912
480.703226	2548.172199
481.072653	2549.306459
481.442022	2549.818136
481.811333	2549.003990
482.180584	2551.040616
482.549777	2550.334854
482.918912	2550.450801
483.287988	2551.736295
483.657005	2552.305945
484.025964	2550.395348
484.394864	2549.389638
484.763706	2550.939793
485.132489	2548.583053
485.501213	2552.429454
485.869879	2551.819474
486.238487	2550.130687
486.607036	2553.629248
486.975527	2551.360729
487.343959	2550.077755
487.712333	2553.074721
488.080648	2551.998435
488.448905	2551.620348
488.817104	2550.990204
489.185244	2551.907694
489.553326	2551.537169
489.921350	2551.635472
490.289315	2557.871379
490.657222	2555.136553
491.025070	2553.359547
491.392861	2556.777449
491.760593	2554.478683
492.128267	2553.046995
492.495883	2554.486244
492.863440	2556.429609
493.230939	2552.822664
493.598380	2553.379711
493.965763	2550.276881
494.333088	2550.748229
494.700354	2550.728064
495.067563	2555.597819
495.434713	2550.791079
495.801805	2555.118909
496.168839	2555.993549
496.535815	2557.503375
496.902733	2552.641182
497.269593	2556.258210
497.636395	2556.583364
498.003139	2554.458518
498.369825	2555.083621
498.736453	2557.926832
499.103023	2552.124464
499.469535	2558.864487
499.835989	2557.011863
500.202385	2556.827860
500.568723	2558.962789
500.935003	2557.815927
501.301226	2555.287788
501.667390	2558.927501
502.033497	2559.613098
502.399546	2557.657130
502.765537	2558.249466
503.131470	2560.404559
503.497345	2555.655792
503.863163	2558.062943
504.228923	2559.572769
504.594625	2559.139229
504.960269	2557.969682
505.325856	2559.683674
505.691385	2559.108983
506.056856	2558.569579
506.422270	2561.621998
506.787625	2561.740465
507.152924	2560.628890
507.518164	2559.363561
507.883347	2560.570917
508.248472	2562.852039
508.613540	2563.767009
508.978550	2563.010836
509.343503	2562.259704
509.708398	2565.170970
510.073236	2563.882955
510.438016	2565.065106
510.802738	2567.023594
511.167403	2568.225909
511.532010	2565.564180
511.896561	2566.824468
512.261053	2568.447720
512.625488	2566.653069
512.989866	2564.644169
513.354186	2568.291444
513.718449	2563.814900
514.082655	2569.229099
514.446803	2573.017526
514.810894	2573.534244
515.174927	2577.272260
515.538904	2575.228072
515.902822	2576.705130
516.266684	2576.690007
516.630488	2580.821232
516.994235	2579.291242
517.357925	2584.178641
517.721558	2584.627303
518.085133	2584.034968
518.448651	2587.001687
518.812112	2587.223497
519.175516	2590.666606
519.538863	2594.676843
519.902152	2595.218767
520.265385	2598.099787
520.628560	2601.648759
520.991678	2602.997268
521.354739	2607.642691
521.717743	2605.444748
522.080690	2609.671756
522.443580	2614.919597
522.806413	2619.232304
523.169189	2622.057871
523.531908	2624.754888
523.894569	2629.107924
524.257174	2632.931639
524.619722	2635.926085
524.982213	2642.356077
525.344647	2645.811787
525.707025	2648.511325
526.069345	2656.138591
526.431608	2659.959786
526.793815	2666.533450
527.155964	2670.024449
527.518057	2673.275994
527.880093	2679.166582
528.242072	2687.814681
528.603995	2693.402800
528.965860	2698.005374
529.327669	2702.597865
529.689421	2712.352498
530.051117	2715.135215
530.412755	2725.709035
530.774337	2732.073492
531.135862	2741.127404
531.497331	2745.109915
531.858743	2750.614855
532.220098	2768.420211
532.581396	2768.596651
532.942638	2777.332971
533.303824	2787.904270
533.664953	2800.524799
534.026025	2808.255408
534.387040	2820.386945
534.747999	2832.246260
535.108902	2845.386027
535.469748	2845.244875
535.830537	2862.452853
536.191270	2875.615306
536.551947	2886.199209
536.912567	2902.247722
537.273131	2911.036974
537.633638	2923.405445
537.994089	2937.102260
538.354483	2952.192954
538.714821	2969.980665
539.075103	2985.739312
539.435328	3002.498628
539.795497	3007.083557
540.155609	3035.470295
540.515665	3050.422357
540.875665	3056.078532
541.235609	3079.247675
541.595496	3096.415324
541.955328	3125.081845
542.315102	3135.096097
542.674821	3151.333654
543.034483	3166.784791
543.394090	3189.154911
543.753640	3204.938763
544.113134	3248.012902
544.472571	3253.157400
544.831953	3287.986732
545.191278	3297.264976
545.550548	3315.907163
545.909761	3347.870598
546.268918	3371.095194
546.628019	3402.728435
546.987064	3417.569592
547.346053	3430.656427
547.704986	3473.097901
548.063863	3487.661795
548.422684	3513.701875
548.781449	3534.020245
549.140158	3575.771082
549.498811	3589.818257
549.857408	3591.373453
550.215949	3656.159841
550.574434	3660.865758
550.932864	3712.167061
551.291237	3738.103797
551.649555	3776.744241
552.007817	3803.686688
552.366022	3825.862724
552.724173	3861.932180
553.082267	3884.229203
553.440305	3955.730409
553.798288	3942.283131
554.156215	4007.009026
554.514086	4037.785270
554.871902	4045.268863
555.229661	4087.261674
555.587365	4115.845017
555.945014	4126.386069
556.302606	4199.374415
556.660143	4199.437430
557.017625	4280.468937
557.375050	4288.635606
557.732421	4354.594063
558.089735	4377.296899
558.446994	4411.561622
558.804197	4459.644147
559.161345	4502.698122
559.518437	4494.307121
559.875474	4561.858582
560.232455	4608.600161
560.589381	4626.702944
560.946251	4685.964228
561.303065	4729.018203
561.659825	4761.490795
562.016528	4778.900420
562.373177	4775.243063
562.729770	4862.051732
563.086307	4867.483576
563.442789	4931.405406
563.799216	4951.895176
564.155587	4999.370243
564.511904	5027.492319
564.868164	5063.743257
565.224370	5101.614925
565.580520	5136.719000
565.936615	5152.399509
566.292654	5174.847767
566.648638	5246.154888
567.004567	5273.215802
567.360441	5308.284588
567.716260	5318.805477
568.072023	5385.880549
568.427732	5423.192649
568.783385	5411.247635
569.138982	5494.706458
569.494525	5533.430081
569.850013	5526.488412
570.205445	5612.666937
570.560823	5597.954330
570.916145	5618.265138
571.271412	5685.592269
571.626625	5705.593047
571.981782	5732.366615
572.336884	5772.113592
572.691931	5798.128467
573.046923	5827.725081
573.401860	5846.866342
573.756743	5860.530389
574.111570	5921.591365
574.466342	5944.425272
574.821059	6003.661350
575.175722	5989.357076
575.530330	6040.499582
575.884882	6068.551082
576.239380	6082.923412
576.593823	6101.729436
576.948211	6154.404453
577.302544	6116.313494
577.656823	6176.371281
578.011047	6209.776487
578.365216	6237.003759
578.719330	6230.813222
579.073389	6282.255676
579.427394	6286.197858
579.781344	6308.973792
580.135239	6323.134393
580.489080	6353.058682
580.842866	6342.129460
581.196597	6378.473659
581.550273	6430.972235
581.903895	6457.234126
582.257463	6520.684609
582.610975	6498.432956
582.964434	6530.499736
583.317837	6526.076123
583.671186	6541.859976
584.024481	6577.367343
584.377721	6560.844961
584.730906	6579.560245
585.084037	6633.500591
585.437113	6618.493076
585.790135	6672.788823
586.143103	6638.302290
586.496016	6647.076418
586.848874	6722.083746
587.201679	6733.794347
587.554428	6700.437032
587.907124	6764.109325
588.259765	6768.036384
588.612352	6808.728578
588.964884	6736.390541
589.317362	6787.512882
589.669786	6818.669733
590.022155	6868.183947
590.374470	6914.693632
590.726731	6895.181846
591.078937	6831.486867
591.431090	6935.228772
591.783188	6868.531786
592.135232	6897.296610
592.487222	6908.838332
592.839157	6983.681822
593.191038	6953.432379
593.542866	6944.751512
593.894639	6895.746455
594.246358	6956.721732
594.598022	6994.633729
594.949633	6942.296470
595.301190	6950.168232
595.652692	6989.184242
596.004141	7107.812674
596.355535	6956.406659
596.706876	6967.340922
597.058162	6942.266223
597.409395	7022.629777
597.760573	7091.554953
598.111698	7043.008641
598.462768	7055.364509
598.813785	7042.272633
599.164748	7048.926956
599.515657	7054.472225
599.866511	7012.015628
600.217312	7124.929912
600.568060	7034.894904
600.918753	7136.048177
601.269392	7129.633308
601.619978	7079.814106
601.970510	7149.634086
602.320988	7160.086919
602.671412	7226.473874
603.021783	7191.614295
603.372100	7185.161618
603.722363	7208.139197
604.072572	7203.251799
604.422728	7229.201138
604.772830	7180.412851
605.122878	7207.667849
605.472872	7218.886937
605.822813	7260.163905
606.172701	7224.328863
606.522534	7311.815567
606.872314	7321.494583
607.222041	7311.220711
607.571714	7376.664970
607.921333	7353.135385
608.270899	7372.412757
608.620411	7465.873229
608.969870	7391.869090
609.319276	7398.268835
609.668627	7426.683299
610.017926	7467.683003
610.367171	7522.518154
610.716362	7515.737802
611.065500	7520.902464
611.414585	7555.842702
611.763616	7556.661889
612.112594	7546.975312
612.461518	7570.003303
612.810389	7644.546845
613.159207	7594.871315
613.507971	7555.867907
613.856682	7682.254675
614.205340	7646.906105
614.553945	7736.653767
614.902496	7650.260993
615.250994	7709.239972
615.599439	7701.645474
615.947830	7719.193730
616.296169	7704.496246
616.644454	7725.510296
616.992686	7730.155719
617.340864	7792.025800
617.688990	7707.233593
618.037063	7800.419322
618.385082	7756.503310
618.733048	7845.048657
619.080961	7794.730379
619.428821	7824.137950
619.776628	7832.102973
620.124382	7798.584342
620.472083	7787.047661
620.819731	7815.310890
621.167326	7729.475163
621.514868	7750.093483
621.862357	7648.151270
622.209793	7670.130700
622.557176	7621.022300
622.904506	7593.837878
623.251783	7540.187398
623.599007	7505.557192
623.946179	7513.517174
624.293297	7479.595250
624.640363	7413.881289
624.987376	7397.137096
625.334336	7353.478183
625.681243	7317.557442
626.028097	7306.056049
626.374899	7289.967207
626.721647	7287.847401
627.068343	7229.652321
627.414987	7201.973866
627.761577	7162.791498
628.108115	7203.453445
628.454600	7100.445028
628.801032	7158.251939
629.147412	7124.463605
629.493739	7118.623428
629.840014	7059.147895
630.186236	7113.554548
630.532405	7007.173599
630.878521	7061.832310
631.224585	7017.197934
631.570597	6951.917512
631.916556	6981.622511
632.262462	6980.200906
632.608316	6947.219157
632.954117	6924.475991
633.299866	6918.411483
633.645562	6912.346975
633.991206	6834.461148
634.336797	6788.178314
634.682336	6749.268168
635.027823	6718.229784
635.373257	6712.503033
635.718639	6646.776470
636.063968	6660.821124
636.409245	6562.097688
636.754470	6558.793212
637.099642	6526.887749
637.444762	6469.015303
637.789829	6481.381253
638.134845	6424.270021
638.479808	6415.440440
638.824719	6415.689977
639.169577	6348.637590
639.514383	6374.750767
639.859137	6299.249406
640.203839	6315.607950
640.548489	6303.529345
640.893086	6275.833246
641.237632	6252.202838
641.582125	6271.447442
641.926566	6245.016673
642.270955	6256.830617
642.615292	6252.570842
642.959576	6270.290497
643.303809	6258.980669
643.647990	6272.480879
643.992118	6261.594507
644.336195	6207.379418
