Dividing Wavelength (nm)	Counts (n)	Blue Motor Position (mm): 22.200000	Red Motor Position (mm): 0.000000	
326.493990	2134.338839
326.888308	2134.338839
327.282561	2134.338839
327.676750	2102.569487
328.070874	2099.050762
328.464933	2102.352718
328.858929	2109.811105
329.252859	2120.820985
329.646726	2129.189300
330.040528	2144.504326
330.434265	2160.220123
330.827938	2177.735612
331.221547	2195.016687
331.615091	2215.171220
332.008571	2234.549416
332.401986	2254.159504
332.795338	2271.173398
333.188625	2293.992181
333.581847	2310.713688
333.975006	2330.984168
334.368100	2345.013699
334.761129	2364.631349
335.154095	2382.678680
335.546996	2404.022926
335.939833	2424.046389
336.332606	2439.157247
336.725315	2455.120061
337.117960	2459.886472
337.510540	2470.263687
337.903056	2480.845069
338.295508	2488.926039
338.687896	2495.744199
339.080220	2505.622340
339.472480	2511.346570
339.864676	2515.566016
340.256807	2516.601973
340.648875	2522.220339
341.040879	2524.433406
341.432818	2526.419620
341.824694	2527.924405
342.216506	2527.294261
342.608253	2528.715866
342.999937	2526.434744
343.391557	2527.218643
343.783113	2527.455578
344.174605	2525.192099
344.566033	2522.568179
344.957397	2523.563807
345.348697	2521.549866
345.739934	2519.702283
346.131106	2520.352592
346.522215	2518.041223
346.913260	2515.225738
347.304241	2513.229441
347.695159	2509.708195
348.086012	2511.505367
348.476802	2507.822804
348.867528	2505.932371
349.258191	2503.250477
349.648789	2504.772906
350.039324	2500.813079
350.429796	2499.719149
350.820203	2499.552791
351.210548	2499.073881
351.600828	2498.801659
351.991045	2497.216216
352.381198	2497.064982
352.771288	2494.894765
353.161314	2496.507934
353.551276	2498.274858
353.941175	2496.770074
354.331010	2497.490959
354.720782	2498.239570
355.110490	2497.110352
355.500135	2495.708911
355.889717	2496.051710
356.279235	2494.428458
356.668689	2496.081957
357.058080	2496.991885
357.447408	2494.751092
357.836672	2494.869559
358.225873	2495.845022
358.615010	2492.394352
359.004084	2500.394664
359.393095	2496.724704
359.782043	2498.673110
360.170927	2499.116731
360.559748	2498.922647
360.948505	2499.225116
361.337199	2501.319715
361.725830	2499.814931
362.114398	2502.958090
362.502903	2503.749552
362.891344	2502.746362
363.279722	2505.629902
363.668037	2504.704850
364.056289	2503.928512
364.444478	2506.567557
364.832603	2504.606548
365.220665	2506.068482
365.608665	2507.462361
365.996601	2507.444717
366.384474	2506.615447
366.772284	2506.781806
367.160031	2505.022443
367.547715	2507.147289
367.935336	2508.284069
368.322893	2508.894049
368.710388	2508.773061
369.097820	2512.248937
369.485189	2508.778102
369.872495	2507.162413
370.259738	2509.163751
370.646918	2512.629544
371.034035	2508.342043
371.421090	2509.993021
371.808081	2510.857578
372.195010	2511.268433
372.581875	2510.744153
372.968678	2510.030829
373.355418	2511.051663
373.742096	2511.212980
374.128710	2512.972343
374.515262	2511.366735
374.901751	2512.150634
375.288177	2515.429905
375.674540	2510.330778
376.060841	2512.997548
376.447079	2511.356653
376.833254	2512.274143
377.219367	2510.451766
377.605417	2511.777589
377.991404	2509.214162
378.377329	2511.686848
378.763191	2509.637619
379.148991	2515.046777
379.534727	2515.429905
379.920402	2516.017199
380.306013	2514.872857
380.691563	2517.761439
381.077049	2515.445028
381.462474	2518.333610
381.847835	2516.226407
382.233134	2515.394617
382.618371	2514.822446
383.003545	2516.969978
383.388657	2516.296983
383.773706	2517.448887
384.158693	2519.162879
384.543618	2518.444515
384.928480	2516.649864
385.313280	2517.222035
385.698017	2518.086593
386.082692	2519.021727
386.467305	2519.145235
386.851856	2519.624145
387.236344	2521.214629
387.620770	2518.212622
388.005133	2520.927283
388.389435	2522.454753
388.773674	2518.951151
389.157851	2519.379649
389.541965	2519.873682
389.926018	2517.705986
390.310008	2518.754546
390.693936	2519.886285
391.077802	2519.858559
391.461606	2523.982222
391.845348	2519.266223
392.229027	2523.329393
392.612645	2522.275792
392.996200	2523.001718
393.379694	2523.226049
393.763125	2525.476925
394.146494	2525.013138
394.529801	2525.449198
394.913047	2523.906605
395.296230	2522.149763
395.679351	2523.500792
396.062410	2523.047088
396.445408	2523.694877
396.828343	2525.194620
397.211217	2520.367715
397.594028	2522.154804
397.976778	2518.772190
398.359466	2521.464166
398.742092	2520.360153
399.124656	2521.849814
399.507158	2525.446678
399.889598	2523.914167
400.271977	2523.919208
400.654294	2526.144878
401.036549	2524.032634
401.418742	2527.221164
401.800874	2524.874507
402.182944	2527.382481
402.564952	2528.945238
402.946898	2526.928777
403.328783	2528.373068
403.710606	2527.503468
404.092367	2526.185207
404.474067	2526.371729
404.855705	2528.236956
405.237282	2529.822399
405.618797	2529.623274
406.000250	2525.499610
406.381642	2528.567152
406.762972	2530.762574
407.144240	2528.078160
407.525447	2531.548994
407.906593	2529.953469
408.287677	2531.894313
408.668700	2528.519261
409.049661	2533.424304
409.430560	2526.986750
409.811399	2531.007070
410.192176	2530.840712
410.572891	2531.034797
410.953545	2528.400794
411.334138	2532.395908
411.714669	2531.821217
412.095139	2530.755013
412.475547	2530.888603
412.855894	2529.993798
413.236180	2532.128727
413.616405	2533.923378
413.996568	2530.921371
414.376670	2532.388347
414.756711	2531.213758
415.136691	2532.237112
415.516609	2535.435724
415.896466	2533.605785
416.276262	2534.019160
416.655997	2530.069416
417.035670	2529.459436
417.415283	2535.551671
417.794834	2529.104035
418.174324	2533.353728
418.553753	2534.664427
418.933121	2533.714170
419.312428	2532.181659
419.691674	2533.494880
420.070859	2535.367668
420.449983	2532.453882
420.829045	2535.367668
421.208047	2535.113090
421.586988	2534.886238
421.965867	2535.130734
422.344686	2535.937319
422.723444	2536.116280
423.102141	2536.282638
423.480777	2537.182484
423.859352	2538.283976
424.237866	2540.134079
424.616319	2535.864222
424.994712	2534.598892
425.373044	2539.564429
425.751314	2537.464788
426.129524	2535.450848
426.507673	2537.784902
426.885762	2535.463450
427.263789	2536.196938
427.641756	2535.234078
428.019662	2537.479912
428.397508	2539.546785
428.775292	2540.338246
429.153016	2538.944367
429.530679	2539.750952
429.908282	2536.428831
430.285824	2538.765406
430.663305	2538.188194
431.040726	2538.987217
431.418086	2538.077289
431.795385	2539.748431
432.172624	2539.501415
432.549802	2541.059131
432.926920	2540.416384
433.303977	2539.249357
433.680974	2540.353370
434.057910	2540.003009
434.434786	2539.763555
434.811601	2539.854295
435.188355	2542.586601
435.565050	2541.457382
435.941683	2539.496373
436.318257	2538.271373
436.694770	2536.660724
437.071222	2538.067206
437.447614	2540.123997
437.823946	2537.951260
438.200218	2540.169368
438.576429	2543.874616
438.952580	2542.561395
439.328670	2544.605583
439.704700	2541.964018
440.080670	2544.424101
440.456580	2543.569626
440.832429	2542.165664
441.208218	2539.997968
441.583947	2543.131045
441.959616	2544.214893
442.335224	2541.643905
442.710773	2544.154400
443.086261	2543.131045
443.461689	2543.047866
443.837057	2544.169523
444.212365	2541.865716
444.587612	2543.468803
444.962800	2545.689431
445.337927	2544.167003
445.712995	2544.212373
446.088002	2544.471992
446.462949	2544.179605
446.837837	2546.659853
447.212664	2541.737166
447.587431	2547.325285
447.962139	2543.075593
448.336786	2546.450645
448.711374	2545.684390
449.085901	2548.328475
449.460369	2546.125491
449.834776	2544.325799
450.209124	2547.398382
450.583412	2546.904349
450.957640	2545.505429
451.331808	2543.998124
451.705917	2545.790254
452.079965	2547.647919
452.453954	2549.140101
452.827883	2549.213197
453.201752	2547.211859
453.575562	2549.566078
453.949311	2544.928217
454.323001	2547.358053
454.696632	2549.162786
455.070202	2547.393341
455.443713	2547.917621
455.817164	2544.431663
456.190556	2546.836293
456.563888	2551.524567
456.937160	2544.923176
457.310373	2549.871068
457.683526	2551.028013
458.056619	2550.438198
458.429653	2549.419885
458.802628	2552.580688
459.175542	2550.828887
459.548398	2552.394166
459.921194	2552.437015
460.293930	2553.465411
460.666607	2552.371480
461.039224	2554.876934
461.411782	2553.780483
461.784280	2555.988508
462.156719	2556.318704
462.529099	2552.986501
462.901419	2552.658826
463.273680	2555.103786
463.645882	2557.160577
464.018024	2554.007335
464.390106	2552.817622
464.762130	2559.769374
465.134094	2560.691905
465.505999	2562.201730
465.877845	2564.669375
466.249631	2565.775908
466.621358	2564.624005
466.993026	2568.977041
467.364634	2573.425859
467.736184	2566.532082
468.107674	2567.321022
468.479105	2569.869325
468.850477	2571.464851
469.221790	2572.833524
469.593043	2572.301682
469.964238	2574.328226
470.335373	2576.841241
470.706449	2581.118660
471.077467	2585.343147
471.448425	2598.104828
471.819324	2606.382403
472.190164	2610.493464
472.560945	2603.173708
472.931667	2605.064141
473.302330	2610.138062
473.672934	2607.977928
474.043479	2617.548558
474.413965	2621.634414
474.784393	2626.090794
475.154761	2635.452216
475.525070	2642.943371
475.895321	2650.353867
476.265513	2653.010555
476.635645	2669.318688
477.005719	2675.771365
477.375734	2686.463652
477.745691	2703.598534
478.115588	2719.505895
478.485427	2733.081722
478.855207	2759.210023
479.224928	2802.831127
479.594591	2836.737928
479.964194	2845.174299
480.333739	2853.666122
480.703226	2871.368134
481.072653	2891.915877
481.442022	2930.314346
481.811333	2961.778708
482.180584	2970.386478
482.549777	2980.181440
482.918912	2990.266268
483.287988	3019.013448
483.657005	3045.129145
484.025964	3050.361863
484.394864	3080.790268
484.763706	3109.151799
485.132489	3113.683797
485.501213	3140.084319
485.869879	3168.390398
486.238487	3195.146322
486.607036	3226.386352
486.975527	3249.142121
487.343959	3287.356588
487.712333	3328.094152
488.080648	3354.532483
488.448905	3401.064854
488.817104	3432.393104
489.185244	3493.323010
489.553326	3558.815161
489.921350	3672.069723
490.289315	3857.127960
490.657222	3947.001651
491.025070	3996.006707
491.392861	4025.074000
491.760593	4025.268085
492.128267	4014.855582
492.495883	4019.889174
492.863440	4019.029657
493.230939	4019.075027
493.598380	4060.185637
493.965763	4094.188220
494.333088	4119.184781
494.700354	4171.688398
495.067563	4225.124629
495.434713	4259.732150
495.801805	4341.842464
496.168839	4385.062797
496.535815	4436.507772
496.902733	4479.607116
497.269593	4542.223288
497.636395	4613.217858
498.003139	4687.920196
498.369825	4705.932239
498.736453	4820.878108
499.103023	4854.779868
499.469535	4934.225932
499.835989	4985.996061
500.202385	5050.056524
500.568723	5072.431685
500.935003	5198.208474
501.301226	5228.447835
501.667390	5357.075396
502.033497	5465.941634
502.399546	5486.189428
502.765537	5522.026991
503.131470	5624.927023
503.497345	5757.451396
503.863163	5686.159398
504.228923	5876.924222
504.594625	5965.038550
504.960269	5940.097441
505.325856	6102.268840
505.691385	6097.041163
506.056856	6223.231326
506.422270	6315.413866
506.787625	6330.353325
507.152924	6465.307534
507.518164	6519.013467
507.883347	6566.511218
508.248472	6589.259425
508.613540	6776.003928
508.978550	6796.317257
509.343503	6853.115938
509.708398	6986.635938
510.073236	7118.182327
510.438016	7197.091509
510.802738	7242.842500
511.167403	7344.641041
511.532010	7366.438990
511.896561	7551.393883
512.261053	7678.458687
512.625488	7671.176740
512.989866	7735.166626
513.354186	7798.942263
513.718449	7810.849469
514.082655	7994.561718
514.446803	8002.912389
514.810894	8153.398393
515.174927	8136.805435
515.538904	8219.205616
515.902822	8390.163745
516.266684	8377.943988
516.630488	8405.153616
516.994235	8506.291765
517.357925	8623.727965
517.721558	8742.875636
518.085133	8820.872368
518.448651	8885.983911
518.812112	8858.018110
519.175516	8939.896531
519.538863	9087.047812
519.902152	9081.152183
520.265385	9267.407694
520.628560	9246.186957
520.991678	9302.337849
521.354739	9398.328980
521.717743	9398.563393
522.080690	9437.375237
522.443580	9603.282130
522.806413	9623.197209
523.169189	9695.512561
523.531908	9791.254154
523.894569	9694.332931
524.257174	9755.832487
524.619722	9900.518643
524.982213	9897.433457
525.344647	9995.325103
525.707025	9990.614145
526.069345	10120.648188
526.431608	10097.012738
526.793815	10223.371780
527.155964	10084.684596
527.518057	10169.169294
527.880093	10171.977216
528.242072	10260.126833
528.603995	10222.739115
528.965860	10180.705974
529.327669	10267.330641
529.689421	10248.128886
530.051117	10263.552297
530.412755	10392.323530
530.774337	10314.946860
531.135862	10337.369912
531.497331	10382.536130
531.858743	10275.741807
532.220098	10449.422159
532.581396	10354.441780
532.942638	10377.893228
533.303824	10362.961330
533.664953	10402.289892
534.026025	10339.202372
534.387040	10452.502304
534.747999	10481.473816
535.108902	10557.522142
535.469748	10353.282314
535.830537	10474.822013
536.191270	10470.234563
536.551947	10509.709318
536.912567	10519.302634
537.273131	10470.557197
537.633638	10468.971754
537.994089	10477.100615
538.354483	10439.511251
538.714821	10593.261402
539.075103	10615.313930
539.435328	10596.815416
539.795497	10442.094842
540.155609	10603.626014
540.515665	10696.582371
540.875665	10456.560433
541.235609	10534.872238
541.595496	10531.517350
541.955328	10699.153359
542.315102	10592.921124
542.674821	10549.983096
543.034483	10561.824767
543.394090	10571.632332
543.753640	10520.421770
544.113134	10738.741540
544.472571	10605.337486
544.831953	10756.292318
545.191278	10566.626466
545.550548	10604.263720
545.909761	10739.575851
546.268918	10722.017513
546.628019	10805.788887
546.987064	10680.400267
547.346053	10612.374937
547.704986	10706.732734
548.063863	10698.702176
548.422684	10693.313183
548.781449	10618.643612
549.140158	10722.682945
549.498811	10607.255645
549.857408	10468.936466
550.215949	10696.194202
550.574434	10555.495598
550.932864	10651.552264
551.291237	10709.427231
551.649555	10656.258181
552.007817	10679.525627
552.366022	10642.914247
552.724173	10644.406428
553.082267	10626.943872
553.440305	10767.334965
553.798288	10569.142002
554.156215	10719.678417
554.514086	10702.546056
554.871902	10554.832686
555.229661	10591.738974
555.587365	10564.950282
555.945014	10462.186361
556.302606	10593.659653
556.660143	10484.606893
557.017625	10639.440892
557.375050	10541.380367
557.732421	10669.828967
558.089735	10587.418705
558.446994	10590.811401
558.804197	10624.544282
559.161345	10629.469490
559.518437	10484.304423
559.875474	10567.942207
560.232455	10596.278533
560.589381	10547.681810
560.946251	10549.408405
561.303065	10656.177523
561.659825	10590.430794
562.016528	10519.766420
562.373177	10397.037009
562.729770	10513.868270
563.086307	10438.928998
563.442789	10519.423622
563.799216	10407.900696
564.155587	10459.678387
564.511904	10408.906406
564.868164	10400.558255
565.224370	10412.853629
565.580520	10344.220840
565.936615	10347.212765
566.292654	10220.674763
566.648638	10349.695533
567.004567	10307.266662
567.360441	10294.305856
567.716260	10205.367299
568.072023	10298.058995
568.427732	10244.789122
568.783385	10158.209825
569.138982	10229.574920
569.494525	10243.987578
569.850013	10125.671698
570.205445	10204.505262
570.560823	10094.444270
570.916145	10021.750832
571.271412	10085.344988
571.626625	10039.057113
571.981782	10015.446869
572.336884	9982.891097
572.691931	9988.040636
573.046923	9941.626733
573.401860	9895.545545
573.756743	9836.490948
574.111570	9882.163802
574.466342	9856.968115
574.821059	9887.860306
575.175722	9774.232698
575.530330	9785.540007
575.884882	9782.936251
576.239380	9711.175426
576.593823	9681.185601
576.948211	9703.878355
577.302544	9581.111136
577.656823	9598.762736
578.011047	9597.807437
578.365216	9573.899765
578.719330	9495.792127
579.073389	9508.314354
579.427394	9462.155028
579.781344	9438.499414
580.135239	9384.922031
580.489080	9393.040809
580.842866	9297.387436
581.196597	9304.319022
581.550273	9339.864198
581.903895	9308.074682
582.257463	9380.712667
582.610975	9251.359180
582.964434	9282.841186
583.317837	9205.852685
583.671186	9179.817646
584.024481	9182.554992
584.377721	9098.372764
584.730906	9077.305782
585.084037	9110.869784
585.437113	9045.286893
585.790135	9064.634842
586.143103	8967.615316
586.496016	8940.617416
586.848874	8995.931477
587.201679	8984.321699
587.554428	8873.086119
587.907124	8911.771934
588.259765	8890.694870
588.612352	8895.141167
588.964884	8766.490921
589.317362	8787.338613
589.669786	8783.393910
590.022155	8828.648348
590.374470	8838.798711
590.726731	8783.754352
591.078937	8640.136921
591.431090	8748.904856
591.783188	8623.727965
592.135232	8618.868293
592.487222	8603.727187
592.839157	8665.355293
593.191038	8596.480528
593.542866	8549.980925
593.894639	8449.533414
594.246358	8501.169953
594.598022	8512.983897
594.949633	8408.236282
595.301190	8384.300883
595.652692	8419.031913
596.004141	8531.182462
596.355535	8305.134603
596.706876	8288.529043
597.058162	8221.806851
597.409395	8299.906927
597.760573	8359.261472
598.111698	8268.303933
598.462768	8248.298114
598.813785	8220.430616
599.164748	8187.257303
599.515657	8181.364194
599.866511	8086.741737
600.217312	8211.890901
600.568060	8072.699602
600.918753	8173.973863
601.269392	8146.396231
601.619978	8058.717962
601.970510	8125.591389
602.320988	8119.902447
602.671412	8176.731374
603.021783	8110.888863
603.372100	8082.224863
603.722363	8090.661234
604.072572	8059.786687
604.422728	8077.282011
604.772830	8003.476998
605.122878	8011.174840
605.472872	8008.114860
605.822813	8031.876339
606.172701	7982.210891
606.522534	8059.905154
606.872314	8056.288126
607.222041	8027.828292
607.571714	8078.365859
607.921333	8039.715333
608.270899	8047.513998
608.620411	8131.895352
608.969870	8041.527628
609.319276	8031.392388
609.668627	8052.902991
610.017926	8084.344668
610.367171	8130.115824
610.716362	8112.660829
611.065500	8097.691123
611.414585	8126.493755
611.763616	8115.118392
612.112594	8091.104855
612.461518	8112.045808
612.810389	8172.325405
613.159207	8107.901980
613.507971	8062.637459
613.856682	8180.121550
614.205340	8137.705281
614.553945	8210.252526
614.902496	8103.785878
615.250994	8162.182604
615.599439	8142.388513
615.947830	8161.497007
616.296169	8131.807131
616.644454	8141.622258
616.992686	8139.033625
617.340864	8200.896145
617.688990	8106.903831
618.037063	8194.544291
618.385082	8144.513360
618.733048	8229.726504
619.080961	8167.160743
619.428821	8186.906943
619.776628	8185.051798
620.124382	8137.939695
620.472083	8124.338662
620.819731	8150.683732
621.167326	8052.744195
621.514868	8051.385604
621.862357	7944.838297
622.209793	7956.972354
622.557176	7890.799648
622.904506	7866.733180
623.251783	7801.200700
623.599007	7754.423834
623.946179	7759.875842
624.293297	7718.349337
624.640363	7627.875749
624.987376	7621.065150
625.334336	7570.572953
625.681243	7515.636979
626.028097	7503.311358
626.374899	7481.823440
626.721647	7472.013354
627.068343	7406.400216
627.414987	7379.694704
627.761577	7331.564287
628.108115	7370.421501
628.454600	7262.611385
628.801032	7313.837070
629.147412	7272.542458
629.493739	7262.860922
629.840014	7197.441869
630.186236	7254.633759
630.532405	7137.883157
630.878521	7188.670261
631.224585	7151.433778
631.570597	7072.083496
631.916556	7104.044412
632.262462	7101.498629
632.608316	7060.632515
632.954117	7039.396655
633.299866	7029.120262
633.645562	7017.409662
633.991206	6944.809485
634.336797	6886.329580
634.682336	6841.284350
635.027823	6805.834956
635.373257	6804.239431
635.718639	6733.701085
636.063968	6744.950420
636.409245	6646.521891
636.754470	6634.571836
637.099642	6593.297389
637.444762	6540.045160
637.789829	6550.235853
638.134845	6492.176884
638.479808	6481.154401
638.824719	6482.754968
639.169577	6413.912971
639.514383	6432.083810
639.859137	6362.770465
640.203839	6370.337237
640.548489	6357.933478
640.893086	6334.464386
641.237632	6303.110930
641.582125	6320.200441
641.926566	6291.712881
642.270955	6307.852135
642.615292	6301.724612
