Dividing Wavelength (nm)	Counts (n)	Blue Motor Position (mm): 17.200000	Red Motor Position (mm): 0.000000	
326.493990	2134.666514
326.888308	2134.666514
327.282561	2134.666514
327.676750	2102.740887
328.070874	2101.838520
328.464933	2103.292893
328.858929	2112.861003
329.252859	2121.632611
329.646726	2131.447737
330.040528	2146.177989
330.434265	2161.891265
330.827938	2180.430108
331.221547	2196.193797
331.615091	2216.403782
332.008571	2234.262070
332.401986	2256.884248
332.795338	2276.277567
333.188625	2293.689712
333.581847	2313.375418
333.975006	2329.754127
334.368100	2345.946313
334.761129	2370.632843
335.154095	2381.158772
335.546996	2403.644839
335.939833	2424.255597
336.332606	2439.076589
336.725315	2451.661829
337.117960	2457.587706
337.510540	2469.719243
337.903056	2479.705768
338.295508	2485.677015
338.687896	2495.512306
339.080220	2504.687206
339.472480	2510.779441
339.864676	2512.901766
340.256807	2520.292098
340.648875	2522.999198
341.040879	2524.382994
341.432818	2525.930628
341.824694	2529.058664
342.216506	2525.623118
342.608253	2531.102852
342.999937	2525.950793
343.391557	2525.038344
343.783113	2526.293592
344.174605	2527.077491
344.566033	2528.375588
344.957397	2522.679084
345.348697	2520.087931
345.739934	2520.622293
346.131106	2516.566685
346.522215	2516.342354
346.913260	2512.410254
347.304241	2510.774399
347.695159	2507.548061
348.086012	2509.251971
348.476802	2506.292814
348.867528	2506.615448
349.258191	2502.171670
349.648789	2502.874911
350.039324	2499.819972
350.429796	2502.877432
350.820203	2497.483397
351.210548	2501.697802
351.600828	2498.695795
351.991045	2496.943994
352.381198	2493.339569
352.771288	2495.313181
353.161314	2493.647079
353.551276	2494.942656
353.941175	2494.955259
354.331010	2493.571462
354.720782	2493.684888
355.110490	2494.967862
355.500135	2492.926194
355.889717	2493.642038
356.279235	2495.293016
356.668689	2494.209168
357.058080	2495.603047
357.447408	2493.853767
357.836672	2491.935608
358.225873	2493.339569
358.615010	2493.087511
359.004084	2493.863849
359.393095	2497.380054
359.782043	2500.334170
360.170927	2499.119252
360.559748	2500.195538
360.948505	2500.538337
361.337199	2498.678151
361.725830	2499.378871
362.114398	2502.499345
362.502903	2504.127638
362.891344	2501.738131
363.279722	2500.450116
363.668037	2501.639829
364.056289	2503.668893
364.444478	2503.580673
364.832603	2503.953718
365.220665	2504.961949
365.608665	2505.287103
365.996601	2504.997237
366.384474	2505.075375
366.772284	2504.183091
367.160031	2505.458503
367.547715	2505.904645
367.935336	2505.546723
368.322893	2505.017402
368.710388	2509.987979
369.097820	2509.675428
369.485189	2507.926148
369.872495	2508.011847
370.259738	2508.352125
370.646918	2509.395644
371.034035	2511.286077
371.421090	2509.052845
371.808081	2507.719460
372.195010	2509.594769
372.581875	2507.747187
372.968678	2507.842968
373.355418	2510.802126
373.742096	2510.618124
374.128710	2511.767507
374.515262	2509.975377
374.901751	2512.629544
375.288177	2512.919410
375.674540	2510.184584
376.060841	2510.920593
376.447079	2512.947137
376.833254	2512.175840
377.219367	2508.125273
377.605417	2508.715088
377.991404	2507.248112
378.377329	2511.018895
378.763191	2507.855571
379.148991	2515.492919
379.534727	2514.459483
379.920402	2516.286901
380.306013	2515.341685
380.691563	2515.503002
381.077049	2515.485358
381.462474	2515.482837
381.847835	2513.022754
382.233134	2517.484175
382.618371	2515.961747
383.003545	2515.692045
383.388657	2518.494927
383.773706	2517.353105
384.158693	2517.443846
384.543618	2517.108609
384.928480	2517.796727
385.313280	2515.031654
385.698017	2515.104751
386.082692	2517.842097
386.467305	2520.191275
386.851856	2518.545338
387.236344	2518.381501
387.620770	2520.075328
388.005133	2516.168434
388.389435	2520.347551
388.773674	2519.321676
389.157851	2518.449556
389.541965	2517.345543
389.926018	2518.091634
390.310008	2519.175482
390.693936	2518.356295
391.077802	2519.795544
391.461606	2520.463497
391.845348	2520.932324
392.229027	2519.311593
392.612645	2520.493744
392.996200	2521.781759
393.379694	2522.295957
393.763125	2519.661954
394.146494	2522.495082
394.529801	2522.517767
394.913047	2523.377284
395.296230	2520.967612
395.679351	2519.336799
396.062410	2524.146060
396.445408	2521.285205
396.828343	2524.892151
397.211217	2520.377797
397.594028	2518.542818
397.976778	2519.561131
398.359466	2522.971471
398.742092	2520.743281
399.124656	2522.323683
399.507158	2524.277130
399.889598	2523.543642
400.271977	2521.968282
400.654294	2525.093797
401.036549	2525.955834
401.418742	2526.497758
401.800874	2525.774353
402.182944	2524.322500
402.564952	2528.539426
402.946898	2523.929290
403.328783	2524.312418
403.710606	2524.730834
404.092367	2524.771163
404.474067	2526.759898
404.855705	2527.584127
405.237282	2526.888448
405.618797	2526.981709
406.000250	2523.646986
406.381642	2529.225022
406.762972	2526.265865
407.144240	2526.976668
407.525447	2528.713345
407.906593	2531.627132
408.287677	2530.465146
408.668700	2525.625639
409.049661	2531.102852
409.430560	2526.608664
409.811399	2528.892306
410.192176	2529.822399
410.572891	2527.715197
410.953545	2527.422810
411.334138	2530.129910
411.714669	2532.080836
412.095139	2531.468336
412.475547	2530.104704
412.855894	2529.759385
413.236180	2530.180321
413.616405	2531.677544
413.996568	2528.395753
414.376670	2529.383819
414.756711	2529.976154
415.136691	2531.944725
415.516609	2532.032945
415.896466	2531.307019
416.276262	2531.085208
416.655997	2530.185362
417.035670	2524.133457
417.415283	2530.805424
417.794834	2526.525485
418.174324	2533.492359
418.553753	2531.435568
418.933121	2532.930271
419.312428	2532.975641
419.691674	2533.502442
420.070859	2530.966741
420.449983	2532.930271
420.829045	2532.186700
421.208047	2534.750127
421.586988	2533.767102
421.965867	2532.786598
422.344686	2533.948584
422.723444	2536.249870
423.102141	2535.965045
423.480777	2533.159643
423.859352	2535.279448
424.237866	2532.963038
424.616319	2534.462781
424.994712	2531.947246
425.373044	2534.394726
425.751314	2536.247350
426.129524	2537.500077
426.507673	2532.456402
426.885762	2534.268697
427.263789	2533.212575
427.641756	2534.931609
428.019662	2537.202648
428.397508	2537.250539
428.775292	2537.147196
429.153016	2535.569315
429.530679	2536.292720
429.908282	2534.808100
430.285824	2534.747607
430.663305	2537.696682
431.040726	2536.136444
431.418086	2536.953111
431.795385	2536.302803
432.172624	2538.415046
432.549802	2537.537885
432.926920	2535.319777
433.303977	2537.202648
433.680974	2532.736186
434.057910	2538.019315
434.434786	2536.106198
434.811601	2538.994779
435.188355	2537.764737
435.565050	2535.350024
435.941683	2537.459747
436.318257	2535.826413
436.694770	2533.885569
437.071222	2534.366999
437.447614	2531.601927
437.823946	2535.725590
438.200218	2536.753986
438.576429	2539.839172
438.952580	2537.411856
439.328670	2538.500746
439.704700	2538.732639
440.080670	2537.492515
440.456580	2539.758513
440.832429	2541.593493
441.208218	2539.254398
441.583947	2539.725746
441.959616	2536.494366
442.335224	2539.332536
442.710773	2540.759182
443.086261	2541.913607
443.461689	2539.962680
443.837057	2538.694830
444.212365	2539.120808
444.587612	2540.799512
444.962800	2539.277083
445.337927	2540.849923
445.712995	2538.513348
446.088002	2542.747918
446.462949	2541.545602
446.837837	2541.255736
447.212664	2542.105171
447.587431	2541.318751
447.962139	2541.384286
448.336786	2541.568288
448.711374	2540.895294
449.085901	2544.696324
449.460369	2540.728936
449.834776	2541.666590
450.209124	2540.018133
450.583412	2542.831097
450.957640	2543.922507
451.331808	2544.023330
451.705917	2544.230017
452.079965	2543.315047
452.453954	2543.070552
452.827883	2544.235058
453.201752	2544.414019
453.575562	2543.090716
453.949311	2541.404450
454.323001	2542.392516
454.696632	2543.514173
455.070202	2545.636499
455.443713	2544.056097
455.817164	2540.071065
456.190556	2538.510828
456.563888	2540.880170
456.937160	2541.079296
457.310373	2544.391334
457.683526	2543.007537
458.056619	2539.713143
458.429653	2545.056766
458.802628	2544.421581
459.175542	2545.165151
459.548398	2544.726571
459.921194	2544.056097
460.293930	2542.952084
460.666607	2544.592980
461.039224	2546.826211
461.411782	2546.795964
461.784280	2546.932075
462.156719	2546.707744
462.529099	2547.683207
462.901419	2544.850079
463.273680	2544.202291
463.645882	2544.870243
464.018024	2545.918803
464.390106	2544.666077
464.762130	2543.912424
465.134094	2548.262940
465.505999	2546.380069
465.877845	2547.632796
466.249631	2547.884853
466.621358	2548.514998
466.993026	2547.776469
467.364634	2549.298897
467.736184	2546.617003
468.107674	2545.704554
468.479105	2550.486089
468.850477	2546.934596
469.221790	2547.912580
469.593043	2548.194884
469.964238	2547.295038
470.335373	2547.786551
470.706449	2546.185985
471.077467	2549.745039
471.448425	2549.150183
471.819324	2551.564896
472.190164	2548.333516
472.560945	2549.503064
472.931667	2550.516336
473.302330	2546.685059
473.672934	2549.568599
474.043479	2544.063659
474.413965	2550.072714
474.784393	2546.344781
475.154761	2547.105995
475.525070	2543.804039
475.895321	2546.566592
476.265513	2545.833104
476.635645	2547.453835
477.005719	2548.172199
477.375734	2550.531459
477.745691	2549.061963
478.115588	2550.791079
478.485427	2550.274360
478.855207	2551.673281
479.224928	2551.751418
479.594591	2551.249824
479.964194	2552.074052
480.333739	2552.331151
480.703226	2551.776624
481.072653	2552.189999
481.442022	2551.660678
481.811333	2555.260062
482.180584	2552.240410
482.549777	2552.552962
482.918912	2552.182437
483.287988	2551.441387
483.657005	2551.204453
484.025964	2549.719833
484.394864	2554.783672
484.763706	2552.915925
485.132489	2553.775442
485.501213	2553.546069
485.869879	2552.678991
486.238487	2552.132026
486.607036	2552.900802
486.975527	2553.046995
487.343959	2553.599001
487.712333	2551.118754
488.080648	2553.533466
488.448905	2553.651933
488.817104	2553.432643
489.185244	2555.612942
489.553326	2555.088662
489.921350	2554.982798
490.289315	2555.360885
490.657222	2555.491955
491.025070	2556.593447
491.392861	2558.937583
491.760593	2555.776780
492.128267	2556.321224
492.495883	2554.725699
492.863440	2556.447253
493.230939	2554.859290
493.598380	2555.081101
493.965763	2549.739998
494.333088	2553.258723
494.700354	2549.523228
495.067563	2557.891544
495.434713	2555.355843
495.801805	2555.736451
496.168839	2559.628221
496.535815	2556.941286
496.902733	2557.034548
497.269593	2556.361554
497.636395	2556.187634
498.003139	2557.899106
498.369825	2556.979095
498.736453	2559.015721
499.103023	2557.752912
499.469535	2559.673592
499.835989	2557.914229
500.202385	2558.194013
500.568723	2561.221226
500.935003	2559.630742
501.301226	2562.116031
501.667390	2557.415155
502.033497	2560.752399
502.399546	2561.064950
502.765537	2559.169476
503.131470	2561.758109
503.497345	2562.141237
503.863163	2559.376164
504.228923	2563.953531
504.594625	2562.884807
504.960269	2564.634087
505.325856	2563.588048
505.691385	2562.592420
506.056856	2565.813717
506.422270	2563.207441
506.787625	2565.579303
507.152924	2564.077040
507.518164	2565.864129
507.883347	2569.564336
508.248472	2565.107956
508.613540	2569.869325
508.978550	2569.256825
509.343503	2570.227247
509.708398	2569.002247
510.073236	2570.310426
510.438016	2572.982238
510.802738	2574.204718
511.167403	2574.403843
511.532010	2574.595407
511.896561	2578.197312
512.261053	2581.264854
512.625488	2575.669173
512.989866	2577.355439
513.354186	2576.707651
513.718449	2579.709658
514.082655	2584.287025
514.446803	2585.191912
514.810894	2592.078129
515.174927	2592.425968
515.538904	2594.515527
515.902822	2597.860332
516.266684	2595.904364
516.630488	2599.261773
516.994235	2602.646908
517.357925	2605.366610
517.721558	2610.213680
518.085133	2615.194340
518.448651	2619.063425
518.812112	2620.220370
519.175516	2620.951337
519.538863	2630.025414
519.902152	2634.819552
520.265385	2635.772330
520.628560	2641.231899
520.991678	2643.157620
521.354739	2647.810605
521.717743	2655.788231
522.080690	2659.309477
522.443580	2668.171825
522.806413	2672.716426
523.169189	2679.194308
523.531908	2686.110771
523.894569	2689.884075
524.257174	2696.326670
524.619722	2704.561394
524.982213	2710.121787
525.344647	2723.085114
525.707025	2726.949159
526.069345	2737.049110
526.431608	2744.565471
526.793815	2751.618045
527.155964	2760.732451
527.518057	2769.652773
527.880093	2777.791716
528.242072	2790.666823
528.603995	2797.144705
528.965860	2804.630819
529.327669	2816.079279
529.689421	2825.019766
530.051117	2836.400170
530.412755	2855.601925
530.774337	2860.486803
531.135862	2877.755276
531.497331	2885.609394
531.858743	2894.048285
532.220098	2912.519073
532.581396	2922.291350
532.942638	2933.631425
533.303824	2952.376956
533.664953	2975.278918
534.026025	2979.027016
534.387040	3002.128103
534.747999	3020.293901
535.108902	3038.989020
535.469748	3041.915410
535.830537	3065.167732
536.191270	3080.820515
536.551947	3103.508227
536.912567	3123.665281
537.273131	3135.103659
537.633638	3153.622338
537.994089	3176.415915
538.354483	3192.320755
538.714821	3219.868141
539.075103	3242.079464
539.435328	3264.875562
539.795497	3269.755399
540.155609	3310.495484
540.515665	3336.389371
540.875665	3340.979341
541.235609	3372.337839
541.595496	3397.994791
541.955328	3439.271759
542.315102	3452.681228
542.674821	3476.477995
543.034483	3500.534381
543.394090	3528.961448
543.753640	3554.429357
544.113134	3608.800722
544.472571	3619.997124
544.831953	3668.059485
545.191278	3672.510824
545.550548	3706.301678
545.909761	3751.576281
546.268918	3783.416208
546.628019	3827.919515
546.987064	3845.147658
547.346053	3859.046119
547.704986	3915.166764
548.063863	3943.026701
548.422684	3968.285402
548.781449	3997.970237
549.140158	4043.340621
549.498811	4059.356367
549.857408	4063.210329
550.215949	4151.044873
550.574434	4155.420595
550.932864	4217.356211
551.291237	4253.561778
551.649555	4300.729334
552.007817	4334.517668
552.366022	4360.252758
552.724173	4403.480652
553.082267	4428.305814
553.440305	4520.044732
553.798288	4495.075897
554.156215	4582.464299
554.514086	4612.605358
554.871902	4616.605513
555.229661	4667.329603
555.587365	4701.450653
555.945014	4706.693453
556.302606	4793.797030
556.660143	4791.165547
557.017625	4891.048449
557.375050	4896.656733
557.732421	4973.065502
558.089735	5001.585830
558.446994	5035.926170
558.804197	5086.395681
559.161345	5134.203464
559.518437	5119.379951
559.875474	5197.409451
560.232455	5252.352987
560.589381	5273.629176
560.946251	5336.184854
561.303065	5386.258636
561.659825	5426.411426
562.016528	5438.784938
562.373177	5428.904277
562.729770	5531.665677
563.086307	5538.501482
563.442789	5612.624087
563.799216	5629.474144
564.155587	5681.879459
564.511904	5718.400098
564.868164	5756.498618
565.224370	5790.385254
565.580520	5825.592673
565.936615	5843.534139
566.292654	5852.262897
566.648638	5946.398883
567.004567	5973.817719
567.360441	6009.118399
567.716260	6017.441344
568.072023	6101.686587
568.427732	6126.040401
568.783385	6114.019769
569.138982	6204.054777
569.494525	6246.433237
569.850013	6228.690896
570.205445	6324.452654
570.560823	6304.870292
570.916145	6315.353372
571.271412	6387.343569
571.626625	6408.047588
571.981782	6430.402585
572.336884	6467.041691
572.691931	6494.883984
573.046923	6525.350197
573.401860	6540.899636
573.756743	6548.776439
574.111570	6614.248424
574.466342	6631.995807
574.821059	6694.395209
575.175722	6667.924110
575.530330	6718.318004
575.884882	6744.050574
576.239380	6753.510299
576.593823	6766.574450
576.948211	6821.883469
577.302544	6784.021883
577.656823	6836.873340
578.011047	6868.219235
578.365216	6888.076340
578.719330	6883.292285
579.073389	6928.816424
579.427394	6926.691578
579.781344	6946.785617
580.135239	6948.088756
580.489080	6982.862635
580.842866	6963.660880
581.196597	6999.410222
581.550273	7049.577265
581.903895	7075.332520
582.257463	7137.313506
582.610975	7097.410253
582.964434	7136.653115
583.317837	7126.026363
583.671186	7132.103474
584.024481	7169.511356
584.377721	7138.780482
584.730906	7155.633059
585.084037	7207.561985
585.437113	7185.111207
585.790135	7234.562405
586.143103	7188.720673
586.496016	7195.107815
586.848874	7265.782271
587.201679	7278.095289
587.554428	7235.028712
587.907124	7293.284286
588.259765	7291.976106
588.612352	7327.738052
588.964884	7248.763336
589.317362	7292.023997
589.669786	7317.265055
590.022155	7367.048969
590.374470	7416.482524
590.726731	7388.506641
591.078937	7305.463713
591.431090	7424.939060
591.783188	7344.396545
592.135232	7369.022581
592.487222	7377.988273
592.839157	7445.718696
593.191038	7420.192813
593.542866	7392.408494
593.894639	7337.845565
594.246358	7402.682365
594.598022	7435.359125
594.949633	7371.790175
595.301190	7373.544496
595.652692	7416.870693
596.004141	7538.579270
596.355535	7360.989503
596.706876	7367.074175
597.058162	7329.275604
597.409395	7409.132522
597.760573	7481.430230
598.111698	7420.051661
598.462768	7425.362517
598.813785	7410.977584
599.164748	7408.734271
599.515657	7416.555621
599.866511	7358.889862
600.217312	7480.283367
600.568060	7369.466203
600.918753	7480.162379
601.269392	7464.549926
601.619978	7401.646408
601.970510	7471.148796
602.320988	7484.490210
602.671412	7549.851290
603.021783	7504.024681
603.372100	7494.892631
603.722363	7515.722679
604.072572	7502.908066
604.422728	7527.143413
604.772830	7469.391954
605.122878	7494.663258
605.472872	7499.288517
605.822813	7536.711523
606.172701	7497.917323
606.522534	7583.148111
606.872314	7591.796211
607.222041	7572.473468
607.571714	7635.641646
607.921333	7605.079651
608.270899	7622.718648
608.620411	7714.419758
608.969870	7635.624002
609.319276	7636.997717
609.668627	7667.847058
610.017926	7706.056483
610.367171	7754.867455
610.716362	7744.389417
611.065500	7753.090449
611.414585	7779.664891
611.763616	7776.007534
612.112594	7766.283148
612.461518	7786.266282
612.810389	7854.457970
613.159207	7806.067934
613.507971	7763.442458
613.856682	7876.386989
614.205340	7846.929007
614.553945	7923.483969
614.902496	7836.385434
615.250994	7892.027169
615.599439	7880.346816
615.947830	7899.609065
616.296169	7876.172740
616.644454	7899.553612
616.992686	7907.495950
617.340864	7961.693395
617.688990	7871.305506
618.037063	7965.620454
618.385082	7919.861900
618.733048	8011.013523
619.080961	7954.693753
619.428821	7976.305179
619.776628	7983.539235
620.124382	7944.714789
620.472083	7929.936646
620.819731	7966.646328
621.167326	7866.566822
621.514868	7879.923359
621.862357	7778.896115
622.209793	7793.956562
622.557176	7738.251812
622.904506	7716.322793
623.251783	7657.754668
623.599007	7617.362423
623.946179	7621.206302
624.293297	7586.099707
624.640363	7507.742532
624.987376	7500.589135
625.334336	7448.771114
625.681243	7400.660863
626.028097	7400.605410
626.374899	7378.028602
626.721647	7373.486523
627.068343	7309.650392
627.414987	7283.665764
627.761577	7240.833601
628.108115	7285.258769
628.454600	7180.367481
628.801032	7231.167188
629.147412	7195.430448
629.493739	7181.584919
629.840014	7118.464632
630.186236	7183.523243
630.532405	7066.137455
630.878521	7121.577545
631.224585	7081.034065
631.570597	7003.710327
631.916556	7036.462703
632.262462	7038.428753
632.608316	6998.500294
632.954117	6982.217367
633.299866	6967.320757
633.645562	6964.457382
633.991206	6888.177163
634.336797	6831.527196
634.682336	6789.912471
635.027823	6759.922647
635.373257	6754.279075
635.718639	6686.382295
636.063968	6698.317227
636.409245	6596.387616
636.754470	6595.699499
637.099642	6555.312295
637.444762	6501.346743
637.789829	6513.942066
638.134845	6458.358303
638.479808	6437.525735
638.824719	6450.915040
639.169577	6377.949379
639.514383	6401.116002
639.859137	6326.993396
640.203839	6338.577967
640.548489	6327.794939
640.893086	6305.931455
641.237632	6274.779645
641.582125	6299.665301
641.926566	6266.295383
642.270955	6280.395490
642.615292	6276.455829
642.959576	6290.445031
643.303809	6280.007322
643.647990	6288.897396
643.992118	6276.254182
644.336195	6224.138734
