Dividing Wavelength (nm)	Counts (n)	Blue Motor Position (mm): 6.100000	Red Motor Position (mm): 0.000000	
326.493990	2142.752525
326.888308	2142.752525
327.282561	2142.752525
327.676750	2111.109202
328.070874	2110.458893
328.464933	2111.610797
328.858929	2118.554986
329.252859	2129.529578
329.646726	2141.081382
330.040528	2149.232928
330.434265	2171.958449
330.827938	2187.734740
331.221547	2205.681248
331.615091	2226.473487
332.008571	2244.571229
332.401986	2261.718714
332.795338	2281.285953
333.188625	2300.041566
333.581847	2320.669967
333.975006	2339.745693
334.368100	2357.195648
334.761129	2376.770448
335.154095	2391.861142
335.546996	2411.226734
335.939833	2421.729978
336.332606	2437.619695
336.725315	2452.435647
337.117960	2460.589713
337.510540	2470.064562
337.903056	2480.156952
338.295508	2488.747078
338.687896	2495.726555
339.080220	2502.617812
339.472480	2509.816580
339.864676	2513.521828
340.256807	2519.114988
340.648875	2520.347551
341.040879	2525.512213
341.432818	2527.826102
341.824694	2527.193438
342.216506	2525.522295
342.608253	2529.164529
342.999937	2527.531195
343.391557	2526.376771
343.783113	2526.258303
344.174605	2523.682274
344.566033	2523.896523
344.957397	2522.018693
345.348697	2521.159176
345.739934	2520.302180
346.131106	2516.186078
346.522215	2516.145749
346.913260	2511.369256
347.304241	2513.421005
347.695159	2508.339522
348.086012	2509.650222
348.476802	2506.078565
348.867528	2506.610406
349.258191	2504.238543
349.648789	2502.441372
350.039324	2499.197390
350.429796	2504.147803
350.820203	2499.479694
351.210548	2498.287461
351.600828	2494.544405
351.991045	2493.397542
352.381198	2495.136740
352.771288	2495.424086
353.161314	2493.959631
353.551276	2494.937615
353.941175	2495.298057
354.331010	2493.516009
354.720782	2492.512820
355.110490	2495.847543
355.500135	2493.868890
355.889717	2493.710094
356.279235	2493.084991
356.668689	2492.391832
357.058080	2496.165136
357.447408	2493.848725
357.836672	2492.338900
358.225873	2495.166987
358.615010	2492.419558
359.004084	2496.530619
359.393095	2496.951556
359.782043	2497.526247
360.170927	2496.424755
360.559748	2500.989520
360.948505	2496.621360
361.337199	2501.735611
361.725830	2498.973058
362.114398	2501.307113
362.502903	2502.892555
362.891344	2501.113028
363.279722	2501.586897
363.668037	2502.685868
364.056289	2500.745024
364.444478	2504.266270
364.832603	2503.215189
365.220665	2503.472288
365.608665	2505.055210
365.996601	2506.358349
366.384474	2505.965139
366.772284	2505.861795
367.160031	2505.445900
367.547715	2505.823986
367.935336	2506.053359
368.322893	2507.837927
368.710388	2507.590911
369.097820	2512.798423
369.485189	2506.867505
369.872495	2508.984790
370.259738	2507.419512
370.646918	2508.082423
371.034035	2507.921106
371.421090	2509.045284
371.808081	2508.324399
372.195010	2511.891015
372.581875	2507.737104
372.968678	2511.525531
373.355418	2510.413957
373.742096	2513.262209
374.128710	2510.804646
374.515262	2513.773886
374.901751	2508.833555
375.288177	2511.422188
375.674540	2509.854389
376.060841	2513.186592
376.447079	2510.988648
376.833254	2512.659791
377.219367	2508.057218
377.605417	2510.403875
377.991404	2510.335819
378.377329	2510.698782
378.763191	2508.150479
379.148991	2514.537621
379.534727	2513.892353
379.920402	2512.805984
380.306013	2514.865296
380.691563	2514.025944
381.077049	2513.300017
381.462474	2514.673732
381.847835	2514.199863
382.233134	2517.365708
382.618371	2513.897394
383.003545	2518.683970
383.388657	2516.309586
383.773706	2515.729854
384.158693	2515.961747
384.543618	2514.182219
384.928480	2514.361180
385.313280	2513.839421
385.698017	2517.020389
386.082692	2518.762108
386.467305	2517.960564
386.851856	2518.656243
387.236344	2515.097189
387.620770	2517.469052
388.005133	2518.946110
388.389435	2518.668846
388.773674	2521.418796
389.157851	2518.094155
389.541965	2518.943589
389.926018	2518.278157
390.310008	2519.364526
390.693936	2520.841584
391.077802	2519.845956
391.461606	2521.340658
391.845348	2520.488703
392.229027	2521.940555
392.612645	2517.884947
392.996200	2520.405524
393.379694	2519.218332
393.763125	2519.971985
394.146494	2520.960051
394.529801	2520.773528
394.913047	2520.397962
395.296230	2524.703108
395.679351	2520.884433
396.062410	2525.055988
396.445408	2519.924094
396.828343	2522.217819
397.211217	2517.166583
397.594028	2520.289577
397.976778	2519.616583
398.359466	2521.559948
398.742092	2518.822602
399.124656	2524.945083
399.507158	2523.672192
399.889598	2525.658406
400.271977	2526.328880
400.654294	2526.094466
401.036549	2523.573889
401.418742	2525.484486
401.800874	2523.203364
402.182944	2525.265196
402.564952	2525.844929
402.946898	2525.444157
403.328783	2524.536749
403.710606	2525.938190
404.092367	2525.038344
404.474067	2524.619928
404.855705	2524.766122
405.237282	2524.254445
405.618797	2527.080012
406.000250	2526.190248
406.381642	2526.515402
406.762972	2527.511030
407.144240	2526.974147
407.525447	2527.780732
407.906593	2524.236801
408.287677	2527.619415
408.668700	2528.539426
409.049661	2528.499096
409.430560	2526.628828
409.811399	2528.095804
410.192176	2527.228726
410.572891	2529.845084
410.953545	2529.335928
411.334138	2527.626977
411.714669	2529.719056
412.095139	2530.510517
412.475547	2529.623274
412.855894	2530.318953
413.236180	2531.836340
413.616405	2530.026566
413.996568	2528.824251
414.376670	2527.788294
414.756711	2529.910619
415.136691	2531.044879
415.516609	2530.707122
415.896466	2532.312729
416.276262	2532.411032
416.655997	2529.035979
417.035670	2527.168232
417.415283	2531.916999
417.794834	2526.946421
418.174324	2529.247708
418.553753	2530.417255
418.933121	2530.361803
419.312428	2530.094622
419.691674	2531.793490
420.070859	2533.099149
420.449983	2530.760054
420.829045	2532.287523
421.208047	2532.010260
421.586988	2530.412214
421.965867	2535.367668
422.344686	2530.439941
422.723444	2535.549150
423.102141	2534.687113
423.480777	2532.773995
423.859352	2533.593182
424.237866	2532.678213
424.616319	2533.966228
424.994712	2535.103008
425.373044	2534.936650
425.751314	2534.273738
426.129524	2533.101670
426.507673	2533.691485
426.885762	2535.133255
427.263789	2535.017308
427.641756	2533.315919
428.019662	2535.251722
428.397508	2536.779192
428.775292	2535.216434
429.153016	2535.715508
429.530679	2535.508821
429.908282	2536.028060
430.285824	2533.880528
430.663305	2533.232740
431.040726	2534.520755
431.418086	2536.461599
431.795385	2536.607792
432.172624	2536.501928
432.549802	2537.089223
432.926920	2536.736342
433.303977	2538.823379
433.680974	2536.451517
434.057910	2538.407484
434.434786	2534.903882
434.811601	2537.237937
435.188355	2536.333049
435.565050	2537.686599
435.941683	2538.097453
436.318257	2536.328008
436.694770	2532.708460
437.071222	2534.646783
437.447614	2534.823224
437.823946	2534.888759
438.200218	2537.742052
438.576429	2536.839685
438.952580	2536.554860
439.328670	2536.597710
439.704700	2539.148534
440.080670	2536.897659
440.456580	2536.748945
440.832429	2539.347659
441.208218	2537.810108
441.583947	2539.070396
441.959616	2539.856816
442.335224	2539.740869
442.710773	2538.485622
443.086261	2540.938143
443.461689	2538.515869
443.837057	2537.222813
444.212365	2540.592824
444.587612	2540.101312
444.962800	2538.283976
445.337927	2539.791281
445.712995	2537.084181
446.088002	2539.670293
446.462949	2540.469316
446.837837	2539.607279
447.212664	2537.623585
447.587431	2539.824048
447.962139	2537.278266
448.336786	2542.949564
448.711374	2540.716333
449.085901	2542.059800
449.460369	2538.034439
449.834776	2542.780685
450.209124	2542.924358
450.583412	2540.686086
450.957640	2542.516025
451.331808	2538.430169
451.705917	2540.993596
452.079965	2541.076775
452.453954	2540.401261
452.827883	2543.007537
453.201752	2541.878319
453.575562	2542.339584
453.949311	2541.928730
454.323001	2538.951929
454.696632	2540.824717
455.070202	2541.943854
455.443713	2541.028884
455.817164	2539.980324
456.190556	2538.830941
456.563888	2539.085519
456.937160	2535.256763
457.310373	2542.004348
457.683526	2541.381765
458.056619	2544.262784
458.429653	2542.024512
458.802628	2542.354708
459.175542	2543.420912
459.548398	2540.764224
459.921194	2540.313040
460.293930	2543.365459
460.666607	2543.357897
461.039224	2542.407640
461.411782	2542.747918
461.784280	2541.873278
462.156719	2544.335881
462.529099	2542.629451
462.901419	2543.249513
463.273680	2541.911086
463.645882	2540.640715
464.018024	2542.674821
464.390106	2542.881508
464.762130	2542.432846
465.134094	2543.660367
465.505999	2545.855789
465.877845	2543.476364
466.249631	2544.187167
466.621358	2543.514173
466.993026	2546.574153
467.364634	2546.301931
467.736184	2544.834955
468.107674	2544.053577
468.479105	2544.260264
468.850477	2544.560213
469.221790	2543.995603
469.593043	2541.858154
469.964238	2543.869574
470.335373	2545.543238
470.706449	2545.886036
471.077467	2543.710778
471.448425	2542.637012
471.819324	2546.359904
472.190164	2544.386293
472.560945	2546.551468
472.931667	2548.013403
473.302330	2543.284801
473.672934	2545.031560
474.043479	2544.683721
474.413965	2545.160110
474.784393	2540.507125
475.154761	2542.085006
475.525070	2539.982845
475.895321	2543.730943
476.265513	2542.848741
476.635645	2545.757487
477.005719	2545.230686
477.375734	2543.667928
477.745691	2546.369987
478.115588	2548.262940
478.485427	2543.967877
478.855207	2548.535162
479.224928	2544.091385
479.594591	2544.782023
479.964194	2545.535676
480.333739	2547.360573
480.703226	2546.299411
481.072653	2543.680531
481.442022	2542.826056
481.811333	2546.803526
482.180584	2546.969884
482.549777	2546.947199
482.918912	2543.698175
483.287988	2544.182126
483.657005	2544.290511
484.025964	2547.726057
484.394864	2544.439225
484.763706	2548.552806
485.132489	2546.259081
485.501213	2547.761345
485.869879	2544.343443
486.238487	2545.981818
486.607036	2546.748073
486.975527	2545.926365
487.343959	2548.794782
487.712333	2547.514329
488.080648	2548.152035
488.448905	2546.324616
488.817104	2546.579195
489.185244	2547.501726
489.553326	2548.492312
489.921350	2544.577857
490.289315	2546.601880
490.657222	2547.710934
491.025070	2547.360573
491.392861	2550.828887
491.760593	2548.242775
492.128267	2548.872920
492.495883	2546.785882
492.863440	2545.528114
493.230939	2549.099772
493.598380	2549.588763
493.965763	2543.206663
494.333088	2547.284956
494.700354	2545.404606
495.067563	2547.053063
495.434713	2542.974770
495.801805	2547.970553
496.168839	2548.769576
496.535815	2550.662529
496.902733	2547.166489
497.269593	2549.296377
497.636395	2547.627755
498.003139	2549.543393
498.369825	2549.561037
498.736453	2547.027857
499.103023	2548.005841
499.469535	2550.332334
499.835989	2548.083979
500.202385	2548.136911
500.568723	2547.673125
500.935003	2546.541386
501.301226	2548.217570
501.667390	2548.167158
502.033497	2548.462066
502.399546	2546.735470
502.765537	2548.651109
503.131470	2548.721685
503.497345	2550.607077
503.863163	2550.702858
504.228923	2548.013403
504.594625	2548.399051
504.960269	2547.927703
505.325856	2548.290666
505.691385	2547.915100
506.056856	2551.491799
506.422270	2547.902497
506.787625	2548.560368
507.152924	2545.938968
507.518164	2550.884340
507.883347	2549.949206
508.248472	2551.116233
508.613540	2549.903836
508.978550	2549.926521
509.343503	2545.828063
509.708398	2550.546583
510.073236	2549.815615
510.438016	2549.215718
510.802738	2549.508105
511.167403	2548.870399
511.532010	2549.003990
511.896561	2547.899977
512.261053	2548.814946
512.625488	2548.767055
512.989866	2544.222455
513.354186	2544.678680
513.718449	2543.433515
514.082655	2549.361912
514.446803	2550.939793
514.810894	2547.773948
515.174927	2549.031716
515.538904	2549.349309
515.902822	2550.811243
516.266684	2547.713454
516.630488	2550.397869
516.994235	2550.080276
517.357925	2551.564896
517.721558	2549.671942
518.085133	2550.763352
518.448651	2550.546583
518.812112	2551.569937
519.175516	2551.229659
519.538863	2549.341747
519.902152	2548.399051
520.265385	2548.373845
520.628560	2551.227138
520.991678	2549.808054
521.354739	2547.438711
521.717743	2548.993907
522.080690	2552.242931
522.443580	2550.874258
522.806413	2552.673950
523.169189	2548.472148
523.531908	2549.117416
523.894569	2551.189330
524.257174	2552.177396
524.619722	2550.738147
524.982213	2550.037426
525.344647	2550.723023
525.707025	2552.154711
526.069345	2550.624721
526.431608	2550.294525
526.793815	2551.910215
527.155964	2553.225956
527.518057	2550.768393
527.880093	2552.421892
528.242072	2549.485420
528.603995	2552.497509
528.965860	2551.527087
529.327669	2552.182437
529.689421	2551.237221
530.051117	2552.331151
530.412755	2552.016079
530.774337	2550.168496
531.135862	2550.884340
531.497331	2551.365770
531.858743	2547.171530
532.220098	2550.632282
532.581396	2546.702703
532.942638	2547.489123
533.303824	2547.917621
533.664953	2551.438867
534.026025	2548.693959
534.387040	2551.711089
534.747999	2549.606408
535.108902	2553.369629
535.469748	2551.065822
535.830537	2553.064639
536.191270	2552.336192
536.551947	2550.405430
536.912567	2551.814433
537.273131	2550.274360
537.633638	2550.551624
537.994089	2553.407437
538.354483	2549.608928
538.714821	2551.111192
539.075103	2553.294012
539.435328	2552.381563
539.795497	2551.295194
540.155609	2553.672098
540.515665	2552.149670
540.875665	2553.914073
541.235609	2550.443239
541.595496	2551.895091
541.955328	2549.906356
542.315102	2552.147149
542.674821	2550.780996
543.034483	2554.975236
543.394090	2550.521377
543.753640	2553.626728
544.113134	2549.825698
544.472571	2554.624876
544.831953	2550.909546
545.191278	2554.952551
545.550548	2552.986501
545.909761	2553.878785
546.268918	2550.591953
546.628019	2550.062632
546.987064	2549.813095
547.346053	2551.403579
547.704986	2554.541697
548.063863	2550.102961
548.422684	2551.282591
548.781449	2549.868548
549.140158	2550.231511
549.498811	2552.621017
549.857408	2552.532797
550.215949	2547.708413
550.574434	2549.160265
550.932864	2551.874927
551.291237	2548.744370
551.649555	2550.634803
552.007817	2549.122457
552.366022	2555.345761
552.724173	2550.017262
553.082267	2554.004814
553.440305	2550.990204
553.798288	2552.316028
554.156215	2549.966850
554.514086	2550.773435
554.871902	2549.969371
555.229661	2552.673950
555.587365	2552.081614
555.945014	2554.355174
556.302606	2550.148332
556.660143	2553.465411
557.017625	2549.319062
557.375050	2551.239741
557.732421	2550.014741
558.089735	2551.970709
558.446994	2553.467931
558.804197	2552.071532
559.161345	2550.549103
559.518437	2552.898281
559.875474	2554.171172
560.232455	2553.780483
560.589381	2553.054557
560.946251	2555.202088
561.303065	2551.383414
561.659825	2550.440718
562.016528	2552.139587
562.373177	2552.835267
562.729770	2552.731923
563.086307	2551.595143
563.442789	2549.107333
563.799216	2553.888868
564.155587	2550.768393
564.511904	2551.779145
564.868164	2552.336192
565.224370	2549.984494
565.580520	2552.494989
565.936615	2552.250493
566.292654	2551.791748
566.648638	2552.341233
567.004567	2553.646892
567.360441	2551.907694
567.716260	2550.851572
568.072023	2552.457180
568.427732	2547.471479
568.783385	2550.165976
569.138982	2548.104144
569.494525	2549.187992
569.850013	2549.117416
570.205445	2551.721172
570.560823	2551.940462
570.916145	2550.531459
571.271412	2553.941800
571.626625	2554.466080
571.981782	2549.961809
572.336884	2553.001625
572.691931	2553.253682
573.046923	2549.621531
573.401860	2551.378373
573.756743	2554.186296
574.111570	2548.300749
574.466342	2552.731923
574.821059	2551.983312
575.175722	2551.680842
575.530330	2553.896429
575.884882	2553.939279
576.239380	2554.408107
576.593823	2553.737633
576.948211	2553.306614
577.302544	2551.416182
577.656823	2551.519525
578.011047	2551.542211
578.365216	2552.189999
578.719330	2553.044474
579.073389	2553.775442
579.427394	2550.889381
579.781344	2550.899463
580.135239	2552.237890
580.489080	2549.092210
580.842866	2550.932231
581.196597	2558.254507
581.550273	2553.530946
581.903895	2554.186296
582.257463	2553.225956
582.610975	2550.042467
582.964434	2554.864331
583.317837	2550.723023
583.671186	2551.726213
584.024481	2550.415513
584.377721	2555.529763
584.730906	2552.167314
585.084037	2552.343754
585.437113	2550.970040
585.790135	2553.979608
586.143103	2553.926676
586.496016	2556.537994
586.848874	2548.414175
587.201679	2549.745039
587.554428	2548.300749
587.907124	2552.023641
588.259765	2548.336037
588.612352	2551.970709
588.964884	2551.501881
589.317362	2553.150339
589.669786	2551.738816
590.022155	2551.844680
590.374470	2553.299053
590.726731	2554.259392
591.078937	2553.452808
591.431090	2554.750905
591.783188	2550.826367
592.135232	2553.493137
592.487222	2552.656306
592.839157	2554.466080
593.191038	2549.974412
593.542866	2551.154042
593.894639	2554.145967
594.246358	2553.609084
594.598022	2554.004814
594.949633	2551.990873
595.301190	2550.778476
595.652692	2551.736295
596.004141	2552.449618
596.355535	2553.969526
596.706876	2551.552293
597.058162	2551.852242
597.409395	2551.338044
597.760573	2554.927345
598.111698	2553.094886
598.462768	2555.557490
598.813785	2553.223435
599.164748	2552.391645
599.515657	2552.290822
599.866511	2553.021789
600.217312	2551.406099
600.568060	2554.161090
600.918753	2555.703683
601.269392	2550.002138
601.619978	2552.706717
601.970510	2551.852242
602.320988	2548.915769
602.671412	2551.925338
603.021783	2551.874927
603.372100	2551.968188
603.722363	2550.339895
604.072572	2552.583209
604.422728	2554.652602
604.772830	2552.530277
605.122878	2547.995759
605.472872	2550.327292
605.822813	2545.936448
606.172701	2551.922818
606.522534	2553.364588
606.872314	2553.281409
607.222041	2552.023641
607.571714	2556.016235
607.921333	2549.404761
608.270899	2551.045657
608.620411	2554.624876
608.969870	2553.074721
609.319276	2553.362067
609.668627	2555.799465
610.017926	2559.693756
610.367171	2560.704508
610.716362	2559.068653
611.065500	2557.198385
611.414585	2555.660833
611.763616	2559.214847
612.112594	2552.500030
612.461518	2555.015566
612.810389	2555.073539
613.159207	2553.717468
613.507971	2553.505740
613.856682	2554.604712
614.205340	2553.568754
614.553945	2554.917263
614.902496	2551.443908
615.250994	2554.907181
615.599439	2550.959957
615.947830	2552.815102
616.296169	2552.694114
616.644454	2552.089176
616.992686	2553.104968
617.340864	2552.028682
617.688990	2554.060267
618.037063	2553.639331
618.385082	2553.210832
618.733048	2555.184444
619.080961	2548.774617
619.428821	2552.008517
619.776628	2550.123126
620.124382	2557.120247
620.472083	2553.936759
620.819731	2553.488096
621.167326	2555.912891
621.514868	2552.845349
621.862357	2552.101779
622.209793	2553.440205
622.557176	2553.455328
622.904506	2552.999104
623.251783	2545.959133
623.599007	2550.042467
623.946179	2548.474668
624.293297	2547.295038
624.640363	2551.799309
624.987376	2554.387942
625.334336	2550.793599
625.681243	2552.744526
626.028097	2551.441388
626.374899	2554.997922
626.721647	2552.215205
627.068343	2553.281409
627.414987	2554.090514
627.761577	2553.180586
628.108115	2552.792417
628.454600	2553.014228
628.801032	2550.362581
629.147412	2553.916594
629.493739	2553.863662
629.840014	2553.946841
630.186236	2552.628579
630.532405	2553.903991
630.878521	2553.677139
631.224585	2553.339382
631.570597	2551.698486
631.916556	2553.813250
632.262462	2551.774104
632.608316	2554.443395
632.954117	2552.966337
633.299866	2551.264947
633.645562	2551.839639
633.991206	2553.404917
634.336797	2551.958106
634.682336	2556.273333
635.027823	2551.494320
635.373257	2552.046326
635.718639	2550.798640
636.063968	2551.935421
636.409245	2551.338044
636.754470	2551.660678
637.099642	2554.208981
637.444762	2554.357695
637.789829	2554.203940
638.134845	2549.613969
638.479808	2551.602704
638.824719	2551.917777
639.169577	2553.326779
639.514383	2550.239072
639.859137	2551.103630
640.203839	2554.133364
640.548489	2550.864175
640.893086	2547.703372
641.237632	2548.890564
641.582125	2551.040616
641.926566	2548.986346
642.270955	2551.496840
642.615292	2552.981460
642.959576	2552.515153
643.303809	2551.383414
643.647990	2552.706717
643.992118	2551.441387
644.336195	2555.255020
