Dividing Wavelength (nm)	Counts (n)	Blue Motor Position (mm): 3.600000	Red Motor Position (mm): 0.000000	
326.493990	2142.523152
326.888308	2142.523152
327.282561	2142.523152
327.676750	2111.966198
328.070874	2108.830600
328.464933	2113.430653
328.858929	2119.492641
329.252859	2127.830709
329.646726	2141.298152
330.040528	2153.880872
330.434265	2170.337718
330.827938	2190.066274
331.221547	2205.764427
331.615091	2224.658672
332.008571	2245.849162
332.401986	2263.132758
332.795338	2283.781324
333.188625	2305.412915
333.581847	2321.201809
333.975006	2341.285766
334.368100	2358.844105
334.761129	2376.654501
335.154095	2391.626728
335.546996	2409.943761
335.939833	2423.375915
336.332606	2439.769747
336.725315	2452.914556
337.117960	2459.142902
337.510540	2470.029273
337.903056	2481.059318
338.295508	2485.888743
338.687896	2494.178921
339.080220	2506.386075
339.472480	2512.611900
339.864676	2514.673732
340.256807	2519.692201
340.648875	2522.096831
341.040879	2526.464991
341.432818	2525.381143
341.824694	2527.369878
342.216506	2530.039169
342.608253	2529.832482
342.999937	2528.859539
343.391557	2527.301822
343.783113	2530.220650
344.174605	2525.943231
344.566033	2526.001205
344.957397	2522.245545
345.348697	2520.970133
345.739934	2520.425688
346.131106	2519.848476
346.522215	2517.007786
346.913260	2515.306397
347.304241	2512.962260
347.695159	2512.364883
348.086012	2510.545027
348.476802	2508.238699
348.867528	2506.050838
349.258191	2504.911538
349.648789	2502.796773
350.039324	2498.917606
350.429796	2500.498007
350.820203	2497.735455
351.210548	2498.083295
351.600828	2497.783346
351.991045	2500.931547
352.381198	2495.023314
352.771288	2494.854436
353.161314	2495.915598
353.551276	2495.870228
353.941175	2496.598675
354.331010	2497.191010
354.720782	2494.269662
355.110490	2495.552635
355.500135	2496.124806
355.889717	2495.320742
356.279235	2494.125989
356.668689	2494.199086
357.058080	2495.814775
357.447408	2493.528612
357.836672	2496.714621
358.225873	2493.311842
358.615010	2492.411997
359.004084	2497.637153
359.393095	2499.595641
359.782043	2500.566063
360.170927	2500.939108
360.559748	2499.469612
360.948505	2498.118583
361.337199	2501.062617
361.725830	2501.617143
362.114398	2502.252329
362.502903	2502.857267
362.891344	2506.194511
363.279722	2502.869870
363.668037	2503.837772
364.056289	2504.548574
364.444478	2504.992196
364.832603	2503.946157
365.220665	2506.093688
365.608665	2506.834738
365.996601	2505.203924
366.384474	2506.688544
366.772284	2509.040243
367.160031	2507.492608
367.547715	2506.310458
367.935336	2508.112670
368.322893	2510.774399
368.710388	2509.047804
369.097820	2508.982269
369.485189	2508.460510
369.872495	2511.485202
370.259738	2510.010665
370.646918	2506.108812
371.034035	2511.149965
371.421090	2510.671056
371.808081	2513.375635
372.195010	2511.071827
372.581875	2515.054339
372.968678	2512.143073
373.355418	2512.473268
373.742096	2509.372959
374.128710	2511.228103
374.515262	2513.123577
374.901751	2511.754904
375.288177	2514.802281
375.674540	2513.136180
376.060841	2513.831859
376.447079	2512.516118
376.833254	2514.386386
377.219367	2512.001920
377.605417	2512.231293
377.991404	2509.330109
378.377329	2510.875223
378.763191	2509.763648
379.148991	2514.283043
379.534727	2513.315141
379.920402	2515.903773
380.306013	2516.107940
380.691563	2516.239010
381.077049	2516.012158
381.462474	2514.963598
381.847835	2517.834535
382.233134	2515.495440
382.618371	2518.951151
383.003545	2515.369411
383.388657	2518.018537
383.773706	2516.286901
384.158693	2518.073990
384.543618	2518.142046
384.928480	2516.218846
385.313280	2517.784124
385.698017	2519.074659
386.082692	2521.960720
386.467305	2517.118692
386.851856	2521.068436
387.236344	2518.618435
387.620770	2520.569361
388.005133	2518.741943
388.389435	2520.788652
388.773674	2520.854187
389.157851	2518.807478
389.541965	2519.777900
389.926018	2518.827643
390.310008	2522.333765
390.693936	2519.072139
391.077802	2520.264372
391.461606	2522.795031
391.845348	2520.125740
392.229027	2522.847963
392.612645	2522.162366
392.996200	2521.839732
393.379694	2522.495082
393.763125	2524.889630
394.146494	2526.122192
394.529801	2526.162522
394.913047	2523.631862
395.296230	2525.867614
395.679351	2520.602129
396.062410	2524.350227
396.445408	2523.392408
396.828343	2524.960206
397.211217	2519.863600
397.594028	2522.623632
397.976778	2518.618435
398.359466	2524.937521
398.742092	2520.529032
399.124656	2524.388035
399.507158	2525.522295
399.889598	2527.712676
400.271977	2526.893489
400.654294	2526.033972
401.036549	2525.655886
401.418742	2528.229395
401.800874	2528.083201
402.182944	2525.517254
402.564952	2527.692512
402.946898	2526.039013
403.328783	2526.255783
403.710606	2525.544980
404.092367	2526.933818
404.474067	2528.640249
404.855705	2525.340813
405.237282	2527.284178
405.618797	2527.735362
406.000250	2527.979857
406.381642	2528.955321
406.762972	2529.325846
407.144240	2530.994468
407.525447	2530.374406
407.906593	2531.062523
408.287677	2529.691329
408.668700	2529.030938
409.049661	2530.762574
409.430560	2528.002543
409.811399	2530.926412
410.192176	2529.582944
410.572891	2526.044054
410.953545	2530.384488
411.334138	2530.621422
411.714669	2530.444982
412.095139	2532.695857
412.475547	2530.122348
412.855894	2530.790301
413.236180	2528.277286
413.616405	2529.991278
413.996568	2532.557225
414.376670	2532.809283
414.756711	2532.491690
415.136691	2530.107224
415.516609	2533.341125
415.896466	2532.446320
416.276262	2534.341794
416.655997	2530.293747
417.035670	2528.857018
417.415283	2530.107224
417.794834	2528.572193
418.174324	2529.192255
418.553753	2533.053779
418.933121	2533.041176
419.312428	2534.024201
419.691674	2531.430527
420.070859	2532.660569
420.449983	2530.777698
420.829045	2532.358100
421.208047	2535.476053
421.586988	2533.817514
421.965867	2537.782381
422.344686	2531.503624
422.723444	2534.525796
423.102141	2534.762730
423.480777	2533.769623
423.859352	2532.436238
424.237866	2535.680220
424.616319	2532.630322
424.994712	2536.358255
425.373044	2535.564273
425.751314	2535.085364
426.129524	2534.356917
426.507673	2536.338091
426.885762	2532.678213
427.263789	2537.603420
427.641756	2535.783564
428.019662	2537.706764
428.397508	2535.995292
428.775292	2535.987730
429.153016	2539.017464
429.530679	2539.876981
429.908282	2534.167874
430.285824	2535.685261
430.663305	2536.733821
431.040726	2535.672658
431.418086	2539.632485
431.795385	2536.685930
432.172624	2536.277597
432.549802	2539.556867
432.926920	2535.947401
433.303977	2538.906558
433.680974	2538.609130
434.057910	2538.437731
434.434786	2537.106867
434.811601	2537.482432
435.188355	2536.690971
435.565050	2538.725077
435.941683	2539.859337
436.318257	2536.569984
436.694770	2536.784233
437.071222	2537.169881
437.447614	2536.965714
437.823946	2534.545960
438.200218	2539.082999
438.576429	2541.689275
438.952580	2537.537885
439.328670	2540.139121
439.704700	2539.249357
440.080670	2539.861857
440.456580	2540.318082
440.832429	2542.687424
441.208218	2542.372352
441.583947	2539.014943
441.959616	2541.885880
442.335224	2540.378575
442.710773	2538.321785
443.086261	2539.927392
443.461689	2543.073072
443.837057	2540.353370
444.212365	2540.209697
444.587612	2541.094419
444.962800	2543.191539
445.337927	2542.357228
445.712995	2538.823379
446.088002	2541.401930
446.462949	2539.362783
446.837837	2543.287321
447.212664	2540.930582
447.587431	2542.780685
447.962139	2542.142979
448.336786	2542.702547
448.711374	2542.221117
449.085901	2544.114070
449.460369	2542.677342
449.834776	2541.424615
450.209124	2542.964687
450.583412	2542.947043
450.957640	2541.081816
451.331808	2542.826056
451.705917	2542.931920
452.079965	2545.908721
452.453954	2544.008206
452.827883	2543.894780
453.201752	2543.302445
453.575562	2542.828576
453.949311	2543.914945
454.323001	2543.569626
454.696632	2542.848741
455.070202	2544.550130
455.443713	2542.720191
455.817164	2541.311189
456.190556	2541.054090
456.563888	2541.217927
456.937160	2542.087527
457.310373	2541.780016
457.683526	2545.238248
458.056619	2544.860161
458.429653	2546.246478
458.802628	2542.382434
459.175542	2545.520552
459.548398	2546.445604
459.921194	2546.916952
460.293930	2544.333361
460.666607	2543.592311
461.039224	2545.187836
461.411782	2544.351005
461.784280	2545.303783
462.156719	2544.673638
462.529099	2547.400903
462.901419	2546.100285
463.273680	2545.162630
463.645882	2544.595501
464.018024	2545.409647
464.390106	2542.931920
464.762130	2547.637837
465.134094	2544.038453
465.505999	2544.824873
465.877845	2543.617517
466.249631	2546.488454
466.621358	2546.775800
466.993026	2550.533980
467.364634	2546.801005
467.736184	2546.470810
468.107674	2546.743032
468.479105	2543.567105
468.850477	2545.061807
469.221790	2545.470141
469.593043	2543.289842
469.964238	2550.402910
470.335373	2545.475182
470.706449	2547.300080
471.077467	2543.499050
471.448425	2546.801005
471.819324	2548.739329
472.190164	2546.901828
472.560945	2547.191695
472.931667	2545.029040
473.302330	2546.624565
473.672934	2546.566592
474.043479	2548.134391
474.413965	2545.596170
474.784393	2539.879501
475.154761	2544.093906
475.525070	2539.466127
475.895321	2545.376879
476.265513	2541.452341
476.635645	2548.623382
477.005719	2547.458876
477.375734	2544.872764
477.745691	2543.519214
478.115588	2548.099103
478.485427	2548.545245
478.855207	2548.643547
479.224928	2545.739842
479.594591	2549.079607
479.964194	2547.378217
480.333739	2549.911397
480.703226	2545.230686
481.072653	2548.923331
481.442022	2547.426108
481.811333	2547.678166
482.180584	2545.807898
482.549777	2548.000800
482.918912	2547.237065
483.287988	2549.067004
483.657005	2547.945347
484.025964	2549.389638
484.394864	2547.491643
484.763706	2548.567930
485.132489	2550.622200
485.501213	2548.159596
485.869879	2550.357539
486.238487	2547.133722
486.607036	2548.759494
486.975527	2551.078424
487.343959	2547.128680
487.712333	2549.835780
488.080648	2549.926521
488.448905	2548.467107
488.817104	2548.996428
489.185244	2548.608259
489.553326	2549.639175
489.921350	2550.372663
490.289315	2547.869730
490.657222	2549.124977
491.025070	2546.445604
491.392861	2550.110523
491.760593	2548.772097
492.128267	2549.689587
492.495883	2550.080276
492.863440	2549.238403
493.230939	2550.770914
493.598380	2548.668753
493.965763	2544.925696
494.333088	2551.247303
494.700354	2545.903680
495.067563	2547.128680
495.434713	2546.634647
495.801805	2552.358877
496.168839	2550.876778
496.535815	2549.616490
496.902733	2548.648588
497.269593	2550.544062
497.636395	2551.053219
498.003139	2550.183620
498.369825	2551.683363
498.736453	2550.778476
499.103023	2550.052550
499.469535	2546.919472
499.835989	2549.800492
500.202385	2548.391489
500.568723	2548.847714
500.935003	2552.565565
501.301226	2550.070194
501.667390	2549.810574
502.033497	2550.150852
502.399546	2551.824515
502.765537	2549.435008
503.131470	2551.242262
503.497345	2552.840308
503.863163	2551.849721
504.228923	2548.451983
504.594625	2550.977601
504.960269	2549.704710
505.325856	2548.978784
505.691385	2549.850903
506.056856	2552.842828
506.422270	2551.927859
506.787625	2550.579350
507.152924	2550.264278
507.518164	2550.365101
507.883347	2549.896274
508.248472	2550.579350
508.613540	2550.690256
508.978550	2549.818136
509.343503	2550.909546
509.708398	2549.891233
510.073236	2550.486089
510.438016	2551.403579
510.802738	2551.350647
511.167403	2551.587581
511.532010	2549.591284
511.896561	2554.786193
512.261053	2552.137067
512.625488	2547.917621
512.989866	2550.942313
513.354186	2548.930893
513.718449	2546.677497
514.082655	2549.903836
514.446803	2550.561706
514.810894	2551.547252
515.174927	2551.688404
515.538904	2551.706048
515.902822	2550.327292
516.266684	2550.614638
516.630488	2549.581202
516.994235	2553.331820
517.357925	2553.619166
517.721558	2551.133877
518.085133	2551.844680
518.448651	2550.244113
518.812112	2552.938610
519.175516	2552.449618
519.538863	2549.167827
519.902152	2550.609597
520.265385	2551.262427
520.628560	2551.045657
520.991678	2553.130174
521.354739	2551.620348
521.717743	2549.417364
522.080690	2553.480534
522.443580	2549.974412
522.806413	2550.516336
523.169189	2550.662529
523.531908	2552.835267
523.894569	2550.128167
524.257174	2551.615307
524.619722	2550.624721
524.982213	2555.320555
525.344647	2552.658826
525.707025	2554.493806
526.069345	2552.734443
526.431608	2554.057746
526.793815	2549.452652
527.155964	2551.711089
527.518057	2552.258054
527.880093	2551.554813
528.242072	2552.978939
528.603995	2551.562375
528.965860	2550.254196
529.327669	2552.149670
529.689421	2549.447611
530.051117	2552.363919
530.412755	2553.296532
530.774337	2551.126315
531.135862	2554.211502
531.497331	2551.582540
531.858743	2547.416026
532.220098	2549.341747
532.581396	2549.762683
532.942638	2550.813764
533.303824	2552.981460
533.664953	2551.839639
534.026025	2549.427447
534.387040	2554.834084
534.747999	2550.501212
535.108902	2552.371480
535.469748	2553.485575
535.830537	2552.759649
536.191270	2551.814433
536.551947	2554.004814
536.912567	2551.227138
537.273131	2555.071018
537.633638	2550.342416
537.994089	2551.280071
538.354483	2554.556821
538.714821	2554.312325
539.075103	2551.471634
539.435328	2553.198230
539.795497	2552.114382
540.155609	2556.328786
540.515665	2552.265616
540.875665	2554.307283
541.235609	2554.040102
541.595496	2555.411296
541.955328	2552.356357
542.315102	2554.012376
542.674821	2554.002294
543.034483	2553.052036
543.394090	2551.567416
543.753640	2552.084135
544.113134	2550.382745
544.472571	2555.940617
544.831953	2552.860472
545.191278	2550.571788
545.550548	2554.461039
545.909761	2550.624721
546.268918	2553.541028
546.628019	2555.524722
546.987064	2553.888868
547.346053	2552.711758
547.704986	2549.805533
548.063863	2553.256203
548.422684	2555.164280
548.781449	2552.255534
549.140158	2553.465411
549.498811	2550.158414
549.857408	2553.127653
550.215949	2550.503733
550.574434	2549.389638
550.932864	2551.539690
551.291237	2547.506767
551.649555	2552.368960
552.007817	2550.317210
552.366022	2554.183775
552.724173	2553.278888
553.082267	2553.210832
553.440305	2551.900133
553.798288	2553.573796
554.156215	2549.835780
554.514086	2552.547921
554.871902	2554.612273
555.229661	2555.504557
555.587365	2551.426264
555.945014	2553.110009
556.302606	2553.679660
556.660143	2553.525905
557.017625	2552.338713
557.375050	2553.914073
557.732421	2554.367777
558.089735	2552.777293
558.446994	2554.264434
558.804197	2553.283929
559.161345	2551.451470
559.518437	2553.339382
559.875474	2553.992211
560.232455	2553.740154
560.589381	2554.319886
560.946251	2555.890206
561.303065	2552.668908
561.659825	2556.129661
562.016528	2554.430792
562.373177	2553.573796
562.729770	2552.164793
563.086307	2553.699824
563.442789	2553.699824
563.799216	2552.099258
564.155587	2553.848538
564.511904	2553.538507
564.868164	2555.013045
565.224370	2556.820299
565.580520	2556.792572
565.936615	2552.754608
566.292654	2552.313507
566.648638	2555.083621
567.004567	2548.772097
567.360441	2553.089845
567.716260	2552.424412
568.072023	2553.525905
568.427732	2549.616490
568.783385	2550.140770
569.138982	2546.102806
569.494525	2551.549772
569.850013	2549.288815
570.205445	2554.546738
570.560823	2553.266285
570.916145	2550.980122
571.271412	2553.712427
571.626625	2556.343910
571.981782	2552.772252
572.336884	2553.329300
572.691931	2552.255534
573.046923	2554.148487
573.401860	2550.821326
573.756743	2552.437015
574.111570	2552.658826
574.466342	2552.447098
574.821059	2555.960782
575.175722	2554.423230
575.530330	2554.002294
575.884882	2553.535987
576.239380	2554.730740
576.593823	2557.553787
576.948211	2551.960626
577.302544	2554.834084
577.656823	2551.968188
578.011047	2554.065308
578.365216	2552.928528
578.719330	2552.157231
579.073389	2557.480690
579.427394	2554.612273
579.781344	2554.234187
580.135239	2554.070349
580.489080	2554.927345
580.842866	2553.228477
581.196597	2552.973898
581.550273	2552.104299
581.903895	2550.826367
582.257463	2554.793755
582.610975	2552.578168
582.964434	2552.285781
583.317837	2556.749723
583.671186	2556.767367
584.024481	2553.016748
584.377721	2555.398693
584.730906	2554.173693
585.084037	2554.506409
585.437113	2553.258723
585.790135	2555.383570
586.143103	2557.216029
586.496016	2552.263096
586.848874	2549.787889
587.201679	2550.612118
587.554428	2548.273022
587.907124	2553.190668
588.259765	2552.116902
588.612352	2554.163611
588.964884	2552.762170
589.317362	2554.161090
589.669786	2554.335010
590.022155	2553.288970
590.374470	2555.275185
590.726731	2553.563713
591.078937	2557.931873
591.431090	2553.198230
591.783188	2552.442057
592.135232	2553.651933
592.487222	2553.906512
592.839157	2555.726368
593.191038	2552.126984
593.542866	2553.591440
593.894639	2554.889537
594.246358	2554.072870
594.598022	2552.079093
594.949633	2551.756460
595.301190	2553.684701
595.652692	2555.885165
596.004141	2553.110009
596.355535	2555.146636
596.706876	2555.522202
597.058162	2552.142108
597.409395	2551.580019
597.760573	2554.203940
598.111698	2554.206460
598.462768	2555.149156
598.813785	2554.836605
599.164748	2553.162942
599.515657	2553.987170
599.866511	2555.128992
600.217312	2555.428940
600.568060	2552.026161
600.918753	2555.071018
601.269392	2552.711758
601.619978	2554.327448
601.970510	2555.875082
602.320988	2556.172510
602.671412	2553.896429
603.021783	2552.618497
603.372100	2555.108827
603.722363	2552.610935
604.072572	2554.327448
604.422728	2554.836605
604.772830	2550.178578
605.122878	2548.169679
605.472872	2551.053219
605.822813	2548.557848
606.172701	2553.198230
606.522534	2551.854762
606.872314	2554.115720
607.222041	2554.178734
607.571714	2552.951213
607.921333	2553.004145
608.270899	2552.215205
608.620411	2552.797458
608.969870	2555.381049
609.319276	2555.166800
609.668627	2557.798283
610.017926	2558.403221
610.367171	2559.108982
610.716362	2559.519837
611.065500	2557.276523
611.414585	2555.305432
611.763616	2556.091852
612.112594	2552.023641
612.461518	2552.883157
612.810389	2554.758467
613.159207	2556.049002
613.507971	2556.573282
613.856682	2555.721327
614.205340	2554.105637
614.553945	2554.788714
614.902496	2556.396842
615.250994	2553.609084
615.599439	2554.314845
615.947830	2553.367108
616.296169	2553.619166
616.644454	2554.430792
616.992686	2550.942313
617.340864	2554.690411
617.688990	2552.303425
618.037063	2555.204609
618.385082	2553.079762
618.733048	2556.512788
619.080961	2552.449618
619.428821	2555.461708
619.776628	2554.861810
620.124382	2556.351471
620.472083	2552.525236
620.819731	2553.972047
621.167326	2550.833928
621.514868	2555.597819
621.862357	2553.503219
622.209793	2555.587737
622.557176	2550.813764
622.904506	2553.982129
623.251783	2551.111192
623.599007	2550.087838
623.946179	2547.945347
624.293297	2550.526418
624.640363	2553.425082
624.987376	2554.269475
625.334336	2554.221584
625.681243	2552.888199
626.028097	2553.987170
626.374899	2555.738971
626.721647	2553.291491
627.068343	2553.089845
627.414987	2555.575134
627.761577	2553.788045
628.108115	2554.254351
628.454600	2552.923487
628.801032	2555.227294
629.147412	2554.304763
629.493739	2554.645041
629.840014	2552.144628
630.186236	2556.535473
630.532405	2552.200081
630.878521	2553.878785
631.224585	2552.452139
631.570597	2553.972047
631.916556	2555.058415
632.262462	2554.634958
632.608316	2551.980791
632.954117	2554.645041
633.299866	2552.862993
633.645562	2551.837118
633.991206	2554.448436
634.336797	2552.346275
634.682336	2553.777962
635.027823	2551.743857
635.373257	2551.577499
635.718639	2553.258723
636.063968	2553.873744
636.409245	2556.023796
636.754470	2550.108002
637.099642	2554.022458
637.444762	2555.640669
637.789829	2553.306614
638.134845	2553.299053
638.479808	2551.131357
638.824719	2553.480534
639.169577	2553.835936
639.514383	2553.213353
639.859137	2554.423230
640.203839	2554.201419
640.548489	2552.018600
640.893086	2551.048178
641.237632	2548.880481
641.582125	2551.595143
641.926566	2547.337888
642.270955	2554.327448
642.615292	2553.785524
642.959576	2554.980278
643.303809	2555.123950
643.647990	2553.099927
643.992118	2552.497509
644.336195	2554.634958
