Dividing Wavelength (nm)	Counts (n)	Blue Motor Position (mm): 32.300000	Red Motor Position (mm): 0.000000	
326.493990	2130.699126
326.888308	2130.699126
327.282561	2130.699126
327.676750	2099.136462
328.070874	2096.867942
328.464933	2098.778540
328.858929	2103.688623
329.252859	2115.598349
329.646726	2127.409773
330.040528	2139.952164
330.434265	2157.828095
330.827938	2171.850065
331.221547	2192.430575
331.615091	2208.398430
332.008571	2229.853581
332.401986	2251.588516
332.795338	2270.074427
333.188625	2291.887499
333.581847	2307.676393
333.975006	2326.817654
334.368100	2345.101919
334.761129	2363.852491
335.154095	2380.251365
335.546996	2402.513100
335.939833	2423.010432
336.332606	2438.723708
336.725315	2450.872889
337.117960	2464.085753
337.510540	2470.089767
337.903056	2480.522435
338.295508	2486.879330
338.687896	2497.324601
339.080220	2506.663338
339.472480	2513.042919
339.864676	2516.785975
340.256807	2518.341171
340.648875	2522.548014
341.040879	2528.078160
341.432818	2528.226874
341.824694	2529.109076
342.216506	2527.972296
342.608253	2531.022194
342.999937	2529.625794
343.391557	2529.270393
343.783113	2529.119158
344.174605	2526.926256
344.566033	2527.397604
344.957397	2524.594723
345.348697	2522.936183
345.739934	2521.978364
346.131106	2522.351409
346.522215	2518.648682
346.913260	2515.286232
347.304241	2515.145080
347.695159	2509.861951
348.086012	2511.618793
348.476802	2506.887670
348.867528	2510.224914
349.258191	2508.289111
349.648789	2505.292145
350.039324	2501.344921
350.429796	2502.874911
350.820203	2501.334839
351.210548	2498.151350
351.600828	2499.583038
351.991045	2498.650424
352.381198	2497.848881
352.771288	2498.302585
353.161314	2496.124806
353.551276	2498.358038
353.941175	2500.112359
354.331010	2494.821668
354.720782	2496.041627
355.110490	2496.628922
355.500135	2498.055568
355.889717	2495.812255
356.279235	2496.954076
356.668689	2497.732934
357.058080	2497.800990
357.447408	2494.534322
357.836672	2496.054230
358.225873	2497.480877
358.615010	2495.051041
359.004084	2499.847698
359.393095	2499.535147
359.782043	2504.089829
360.170927	2496.817965
360.559748	2501.423059
360.948505	2501.763337
361.337199	2503.552947
361.725830	2500.225785
362.114398	2503.074037
362.502903	2505.508914
362.891344	2505.501353
363.279722	2503.494973
363.668037	2506.547392
364.056289	2505.944974
364.444478	2503.575632
364.832603	2505.728204
365.220665	2507.903462
365.608665	2506.580159
365.996601	2508.836076
366.384474	2506.880108
366.772284	2507.452279
367.160031	2508.284069
367.547715	2510.361025
367.935336	2507.220386
368.322893	2508.604183
368.710388	2509.975377
369.097820	2511.893536
369.485189	2511.359173
369.872495	2512.616941
370.259738	2509.201559
370.646918	2509.163751
371.034035	2511.039060
371.421090	2511.434791
371.808081	2512.684997
372.195010	2515.344205
372.581875	2511.805315
372.968678	2516.755728
373.355418	2512.942096
373.742096	2515.220697
374.128710	2512.969822
374.515262	2514.151973
374.901751	2513.685666
375.288177	2515.848321
375.674540	2512.629544
376.060841	2515.497961
376.447079	2515.530728
376.833254	2514.262878
377.219367	2511.414626
377.605417	2512.178361
377.991404	2513.380676
378.377329	2512.425377
378.763191	2514.164575
379.148991	2518.154649
379.534727	2519.422499
379.920402	2516.347395
380.306013	2519.606501
380.691563	2516.972498
381.077049	2518.073990
381.462474	2519.455266
381.847835	2518.547859
382.233134	2519.919053
382.618371	2517.088445
383.003545	2519.099865
383.388657	2516.854031
383.773706	2522.255627
384.158693	2517.637930
384.543618	2522.187572
384.928480	2521.655730
385.313280	2521.292767
385.698017	2521.146573
386.082692	2522.053981
386.467305	2517.779083
386.851856	2522.202695
387.236344	2520.198837
387.620770	2522.048940
388.005133	2520.143384
388.389435	2523.677233
388.773674	2521.040709
389.157851	2522.522808
389.541965	2524.395597
389.926018	2524.710669
390.310008	2524.037675
390.693936	2523.762932
391.077802	2525.182017
391.461606	2524.299815
391.845348	2522.825278
392.229027	2524.705628
392.612645	2529.403983
392.996200	2526.520443
393.379694	2526.490197
393.763125	2525.360978
394.146494	2527.455578
394.529801	2529.378778
394.913047	2524.998015
395.296230	2528.635208
395.679351	2528.607481
396.062410	2528.652852
396.445408	2529.356093
396.828343	2528.753675
397.211217	2524.529188
397.594028	2528.869621
397.976778	2526.512882
398.359466	2528.809127
398.742092	2525.358457
399.124656	2530.313912
399.507158	2531.392719
399.889598	2533.371372
400.271977	2531.470857
400.654294	2533.585621
401.036549	2529.799714
401.418742	2531.753161
401.800874	2531.344828
402.182944	2531.364992
402.564952	2535.486136
402.946898	2532.307688
403.328783	2532.267359
403.710606	2535.196269
404.092367	2536.149047
404.474067	2533.552853
404.855705	2535.715508
405.237282	2535.826413
405.618797	2537.510159
406.000250	2537.784902
406.381642	2536.504449
406.762972	2538.019315
407.144240	2539.211548
407.525447	2541.895963
407.906593	2538.808256
408.287677	2540.295396
408.668700	2540.451672
409.049661	2541.951415
409.430560	2540.920499
409.811399	2541.961498
410.192176	2542.765562
410.572891	2542.362269
410.953545	2543.960315
411.334138	2545.767569
411.714669	2546.085162
412.095139	2543.935109
412.475547	2546.105326
412.855894	2549.563558
413.236180	2551.121274
413.616405	2555.885165
413.996568	2557.760474
414.376670	2561.337172
414.756711	2563.625856
415.136691	2568.619119
415.516609	2573.932495
415.896466	2578.930799
416.276262	2587.379773
416.655997	2591.626945
417.035670	2605.296034
417.415283	2617.959412
417.794834	2624.792697
418.174324	2635.094294
418.553753	2642.298103
418.933121	2661.209992
419.312428	2678.791016
419.691674	2691.600588
420.070859	2712.007179
420.449983	2718.079248
420.829045	2745.513208
421.208047	2754.874630
421.586988	2779.553599
421.965867	2801.938843
422.344686	2835.543174
422.723444	2844.276973
423.102141	2842.436952
423.480777	2900.679923
423.859352	2899.336456
424.237866	2960.210909
424.616319	2985.293170
424.994712	3025.977802
425.373044	3040.889535
425.751314	3099.059409
426.129524	3098.207454
426.507673	3166.358813
426.885762	3212.722305
427.263789	3242.923858
427.641756	3248.942995
428.019662	3318.349602
428.397508	3358.383925
428.775292	3391.867269
429.153016	3458.027372
429.530679	3477.017398
429.908282	3545.335115
430.285824	3545.589693
430.663305	3685.148997
431.040726	3641.084271
431.418086	3685.912731
431.795385	3770.747789
432.172624	3821.280315
432.549802	3868.311760
432.926920	3923.043567
433.303977	3976.036176
433.680974	4038.186042
434.057910	4098.586626
434.434786	4153.734329
434.811601	4187.767158
435.188355	4355.768652
435.565050	4340.690560
435.941683	4381.675141
436.318257	4556.462027
436.694770	4598.522894
437.071222	4671.649872
437.447614	4678.551212
437.823946	4674.359492
438.200218	4823.547399
438.576429	4785.947953
438.952580	4900.240993
439.328670	4978.560359
439.704700	4959.076300
440.080670	4988.841793
440.456580	5236.685080
440.832429	5195.524059
441.208218	5121.915651
441.583947	5284.341628
441.959616	5324.081044
442.335224	5312.065454
442.710773	5454.515859
443.086261	5517.749572
443.461689	5379.866452
443.837057	5538.544332
444.212365	5710.336772
444.587612	5648.985930
444.962800	5814.171939
445.337927	5831.306821
445.712995	5519.556826
446.088002	6058.874588
446.462949	5936.077121
446.837837	5900.388272
447.212664	6077.552063
447.587431	6244.923411
447.962139	6761.704695
448.336786	7634.396481
448.711374	7414.536639
449.085901	6587.293375
449.460369	6538.389141
449.834776	6491.783674
450.209124	6887.100876
450.583412	7048.659775
450.957640	7193.040942
451.331808	6988.891855
451.705917	6573.208391
452.079965	6506.211456
452.453954	6727.772688
452.827883	6621.643797
453.201752	6716.851029
453.575562	6532.385127
453.949311	6739.163176
454.323001	6636.558051
454.696632	6717.645010
455.070202	6858.885538
455.443713	7017.336565
455.817164	7122.656352
456.190556	7204.565019
456.563888	7285.576362
456.937160	7330.755182
457.310373	6998.606158
457.683526	7024.943667
458.056619	6918.358551
458.429653	6910.958137
458.802628	6847.691656
459.175542	6953.608819
459.548398	7313.857235
459.921194	7468.091337
460.293930	7476.704148
460.666607	8004.129828
461.039224	8311.955285
461.411782	8436.991023
461.784280	8454.773694
462.156719	8354.250565
462.529099	8231.158191
462.901419	7821.735841
463.273680	7719.937300
463.645882	7727.806542
464.018024	7593.404339
464.390106	7766.484794
464.762130	8144.775500
465.134094	8616.889640
465.505999	9630.622828
465.877845	10860.445077
466.249631	11500.661533
466.621358	11113.997471
466.993026	10495.727678
467.364634	10240.511703
467.736184	9872.767092
468.107674	9552.679028
468.479105	9582.784799
468.850477	9334.802879
469.221790	9115.197615
469.593043	8790.428840
469.964238	8651.371132
470.335373	8659.013521
470.706449	8718.108447
471.077467	8703.048000
471.448425	10007.466722
471.819324	11075.397356
472.190164	11091.327402
472.560945	9861.376604
472.931667	9078.094723
473.302330	8930.751878
473.672934	8582.498888
474.043479	8938.369062
474.413965	8879.422850
474.784393	8759.347606
475.154761	8914.020288
475.525070	9009.018312
475.895321	8829.906116
476.265513	9010.976800
476.635645	9176.576184
477.005719	9177.438221
477.375734	9294.284605
477.745691	9524.400676
478.115588	9664.428806
478.485427	9897.655268
478.855207	10436.584861
479.224928	11249.218861
479.594591	11875.178934
479.964194	11688.373937
480.333739	11626.581994
480.703226	11539.435568
481.072653	11633.931996
481.442022	11870.039478
481.811333	12059.934702
482.180584	11865.822553
482.549777	11570.552090
482.918912	11399.157900
483.287988	11422.579101
483.657005	11434.569485
484.025964	11119.240271
484.394864	11251.583162
484.763706	11217.948584
485.132489	10976.593261
485.501213	10944.718045
485.869879	11016.614982
486.238487	10856.583553
486.607036	10973.966820
486.975527	10748.917109
487.343959	10937.390728
487.712333	10988.303862
488.080648	10919.582852
488.448905	10960.539707
488.817104	10905.202961
489.185244	11164.293063
489.553326	11320.319295
489.921350	11854.464833
490.289315	12913.669229
490.657222	13252.097011
491.025070	13162.828258
491.392861	13033.767158
491.760593	12658.944767
492.128267	12313.887868
492.495883	11985.943167
492.863440	11648.218626
493.230939	11306.307408
493.598380	11244.575958
493.965763	11110.723242
494.333088	11023.622185
494.700354	10939.651686
495.067563	11000.722744
495.434713	10825.038532
495.801805	10959.972577
496.168839	10878.016018
496.535815	10820.115846
496.902733	10817.033180
497.269593	10757.436659
497.636395	10848.545433
498.003139	10838.916829
498.369825	10706.407580
498.736453	10868.135357
499.103023	10793.848914
499.469535	10821.645836
499.835989	10817.433952
500.202385	10777.039186
500.568723	10626.288522
500.935003	10844.530154
501.301226	10648.232664
501.667390	10912.338714
502.033497	11008.370174
502.399546	10870.953362
502.765537	10776.540112
503.131470	10850.879487
503.497345	11019.601865
503.863163	10637.439554
504.228923	10947.480598
504.594625	11009.020483
504.960269	10755.304251
505.325856	10979.431431
505.691385	10771.561973
506.056856	10928.409913
506.422270	10949.010588
506.787625	10836.504637
507.152924	10954.911258
507.518164	10935.278485
507.883347	10856.283604
508.248472	10777.737386
508.613540	11009.171718
508.978550	10887.722760
509.343503	10863.983967
509.708398	10987.860240
510.073236	11102.090266
510.438016	11106.213929
510.802738	11051.343490
511.167403	11111.353386
511.532010	11006.683908
511.896561	11235.537170
512.261053	11303.040740
512.625488	11176.505258
512.989866	11153.394088
513.354186	11139.805658
513.718449	11050.330218
514.082655	11237.057077
514.446803	11140.090483
514.810894	11258.754204
515.174927	11121.294541
515.538904	11145.769343
515.902822	11296.492281
516.266684	11188.717453
516.630488	11125.645057
516.994235	11185.491115
517.357925	11238.624876
517.721558	11337.154228
518.085133	11347.513799
518.448651	11351.340035
518.812112	11246.335321
519.175516	11264.022209
519.538863	11378.073274
519.902152	11297.049329
520.265385	11453.347783
520.628560	11364.807478
520.991678	11345.910712
521.354739	11407.574106
521.717743	11345.182266
522.080690	11325.632671
522.443580	11454.860129
522.806413	11406.399517
523.169189	11437.387490
523.531908	11501.712613
523.894569	11314.350569
524.257174	11319.157309
524.619722	11441.433016
524.982213	11389.010057
525.344647	11435.060998
525.707025	11388.624409
526.069345	11485.951446
526.431608	11410.162739
526.793815	11508.109838
527.155964	11299.121243
527.518057	11351.337515
527.880093	11298.430605
528.242072	11377.874148
528.603995	11280.355548
528.965860	11198.638444
529.327669	11257.345201
529.689421	11198.030985
530.051117	11165.392034
530.412755	11273.648293
530.774337	11157.215283
531.135862	11138.941100
531.497331	11161.427167
531.858743	11016.899807
532.220098	11186.678307
532.581396	11050.514221
532.942638	11037.384535
533.303824	11006.888075
533.664953	11018.618840
534.026025	10931.081724
534.387040	11028.481858
534.747999	11035.237004
535.108902	11092.968298
535.469748	10843.128713
535.830537	10955.609458
536.191270	10929.362691
536.551947	10950.301123
536.912567	10950.109559
537.273131	10878.598272
537.633638	10855.310661
537.994089	10842.654845
538.354483	10799.250510
538.714821	10942.134454
539.075103	10944.425658
539.435328	10912.575648
539.795497	10733.660057
540.155609	10893.517566
540.515665	10985.382513
540.875665	10723.081196
541.235609	10788.989241
541.595496	10786.027563
541.955328	10938.346027
542.315102	10819.447893
542.674821	10775.499114
543.034483	10777.991964
543.394090	10778.727973
543.753640	10706.883969
544.113134	10934.348392
544.472571	10783.580083
544.831953	10921.448079
545.191278	10731.971271
545.550548	10756.128480
545.909761	10899.133412
546.268918	10871.747343
546.628019	10955.959818
546.987064	10817.318005
547.346053	10746.061296
547.704986	10841.608805
548.063863	10823.581639
548.422684	10821.953346
548.781449	10739.278423
549.140158	10844.893117
549.498811	10715.721111
549.857408	10574.876314
550.215949	10798.766559
550.574434	10651.169136
550.932864	10751.248643
551.291237	10808.856429
551.649555	10764.305232
552.007817	10768.978381
552.366022	10732.185520
552.724173	10729.150745
553.082267	10712.986285
553.440305	10842.128044
553.798288	10644.887859
554.156215	10801.352671
554.514086	10777.180338
554.871902	10627.909253
555.229661	10671.618577
555.587365	10636.585078
555.945014	10532.873420
556.302606	10659.976032
556.660143	10548.720287
557.017625	10708.502179
557.375050	10608.170615
557.732421	10740.485780
558.089735	10650.733077
558.446994	10655.607872
558.804197	10691.442914
559.161345	10694.598677
559.518437	10544.190811
559.875474	10633.406631
560.232455	10655.834724
560.589381	10603.489903
560.946251	10607.636252
561.303065	10713.394619
561.659825	10652.981431
562.016528	10579.133568
562.373177	10455.985742
562.729770	10577.419576
563.086307	10494.674077
563.442789	10576.000491
563.799216	10463.827257
564.155587	10513.228044
564.511904	10471.527619
564.868164	10457.152769
565.224370	10470.418565
565.580520	10396.396783
565.936615	10401.616897
566.292654	10271.839953
566.648638	10398.506506
567.004567	10363.682215
567.360441	10342.111118
567.716260	10251.718188
568.072023	10348.009267
568.427732	10298.522781
568.783385	10205.074912
569.138982	10279.063927
569.494525	10291.689497
569.850013	10170.845477
570.205445	10250.286500
570.560823	10143.633329
570.916145	10065.056864
571.271412	10136.328697
571.626625	10080.931457
571.981782	10057.754753
572.336884	10037.411176
572.691931	10031.472697
573.046923	9986.692127
573.401860	9935.436196
573.756743	9871.791628
574.111570	9916.546992
574.466342	9892.903981
574.821059	9931.163818
575.175722	9815.038318
575.530330	9829.372839
575.884882	9823.449483
576.239380	9754.544472
576.593823	9730.876255
576.948211	9745.601465
577.302544	9620.827866
577.656823	9636.493252
578.011047	9641.410897
578.365216	9618.599676
578.719330	9538.271410
579.073389	9552.081651
579.427394	9502.116255
579.781344	9470.838416
580.135239	9419.557278
580.489080	9439.661400
580.842866	9333.023352
581.196597	9346.750414
581.550273	9382.930775
581.903895	9348.953398
582.257463	9412.005630
582.610975	9286.669943
582.964434	9317.020209
583.317837	9238.224454
583.671186	9223.284995
584.024481	9226.128205
584.377721	9142.437490
584.730906	9113.299621
585.084037	9145.106781
585.437113	9075.823683
585.790135	9104.485163
586.143103	9005.451696
586.496016	8973.087488
586.848874	9032.588227
587.201679	9019.655147
587.554428	8905.175584
587.907124	8953.560579
588.259765	8922.444057
588.612352	8923.744674
588.964884	8800.501066
589.317362	8822.601484
589.669786	8818.092172
590.022155	8864.579172
590.374470	8876.710709
590.726731	8819.990166
591.078937	8667.606168
591.431090	8787.625959
591.783188	8654.476483
592.135232	8651.759301
592.487222	8644.442066
592.839157	8704.288124
593.191038	8631.791290
593.542866	8580.671470
593.894639	8476.851427
594.246358	8534.711270
594.598022	8547.946820
594.949633	8443.904966
595.301190	8426.180269
595.652692	8450.599618
596.004141	8559.770846
596.355535	8335.323553
596.706876	8318.261768
597.058162	8255.123837
597.409395	8335.557967
597.760573	8393.571565
598.111698	8298.588665
598.462768	8284.402858
598.813785	8253.719875
599.164748	8217.421047
599.515657	8208.624234
599.866511	8118.024617
600.217312	8244.066066
600.568060	8105.746887
600.918753	8205.591980
601.269392	8174.351949
601.619978	8086.953465
601.970510	8154.220101
602.320988	8150.393866
602.671412	8205.740694
603.021783	8140.959346
603.372100	8109.177392
603.722363	8118.259030
604.072572	8090.784742
604.422728	8105.220086
604.772830	8035.221144
605.122878	8041.504942
605.472872	8034.364148
605.822813	8070.499139
606.172701	8008.414809
606.522534	8089.106038
606.872314	8086.091428
607.222041	8054.352323
607.571714	8106.964325
607.921333	8067.915547
608.270899	8071.494767
608.620411	8158.807551
608.969870	8074.592556
609.319276	8060.084115
609.668627	8077.826456
610.017926	8113.709389
610.367171	8160.430803
610.716362	8138.249726
611.065500	8126.007284
611.414585	8158.590782
611.763616	8141.695355
612.112594	8124.459650
612.461518	8133.014488
612.810389	8197.140485
613.159207	8132.946432
613.507971	8089.474042
613.856682	8208.924182
614.205340	8162.711925
614.553945	8241.973987
614.902496	8138.748800
615.250994	8191.680916
615.599439	8173.547885
615.947830	8186.700256
616.296169	8161.280237
616.644454	8172.141403
616.992686	8173.164758
617.340864	8232.935198
617.688990	8138.980693
618.037063	8231.627019
618.385082	8171.670055
618.733048	8258.395546
619.080961	8195.741565
619.428821	8220.022283
619.776628	8215.568423
620.124382	8169.635950
620.472083	8152.465780
620.819731	8179.788834
621.167326	8070.715908
621.514868	8082.000531
621.862357	7976.584963
622.209793	7986.402610
622.557176	7924.277951
622.904506	7893.516830
623.251783	7827.361768
623.599007	7784.937938
623.946179	7785.631097
624.293297	7741.972184
624.640363	7657.391705
624.987376	7641.960733
625.334336	7590.102383
625.681243	7535.970473
626.028097	7529.658948
626.374899	7503.802870
626.721647	7496.047055
627.068343	7430.023063
627.414987	7405.008858
627.761577	7353.800817
628.108115	7395.206334
628.454600	7282.816330
628.801032	7338.137952
629.147412	7297.342415
629.493739	7280.338603
629.840014	7219.723769
630.186236	7282.082842
630.532405	7167.920872
630.878521	7211.564661
631.224585	7172.954464
631.570597	7098.050480
631.916556	7127.074923
632.262462	7127.621888
632.608316	7087.537153
632.954117	7062.807773
633.299866	7046.776904
633.645562	7045.486368
633.991206	6965.326981
634.336797	6902.531848
634.682336	6868.453648
635.027823	6829.651887
635.373257	6820.620660
635.718639	6751.871924
636.063968	6767.698627
636.409245	6664.768348
636.754470	6660.649725
637.099642	6620.000381
637.444762	6564.341001
637.789829	6568.376445
638.134845	6510.998032
638.479808	6499.118553
638.824719	6502.556620
639.169577	6433.767555
639.514383	6451.366223
639.859137	6383.237549
640.203839	6391.177367
640.548489	6376.487444
