Dividing Wavelength (nm)	Counts (n)	Blue Motor Position (mm): 24.200000	Red Motor Position (mm): 0.000000	
326.493990	2133.938067
326.888308	2133.938067
327.282561	2133.938067
327.676750	2100.553026
328.070874	2100.011102
328.464933	2101.997316
328.858929	2109.498553
329.252859	2119.318721
329.646726	2127.298868
330.040528	2142.790333
330.434265	2159.348003
330.827938	2177.349963
331.221547	2194.691533
331.615091	2213.946220
332.008571	2235.887842
332.401986	2256.170924
332.795338	2271.571649
333.188625	2292.200051
333.581847	2308.697227
333.975006	2325.486790
334.368100	2347.672908
334.761129	2362.887110
335.154095	2379.757332
335.546996	2402.129972
335.939833	2425.848601
336.332606	2439.220262
336.725315	2451.014041
337.117960	2460.854373
337.510540	2469.552884
337.903056	2481.326499
338.295508	2484.991418
338.687896	2494.161277
339.080220	2503.646208
339.472480	2509.861951
339.864676	2514.691376
340.256807	2522.369053
340.648875	2522.895854
341.040879	2523.755371
341.432818	2526.863242
341.824694	2528.771319
342.216506	2529.340969
342.608253	2529.918181
342.999937	2528.501617
343.391557	2529.093953
343.783113	2528.020187
344.174605	2527.400125
344.566033	2524.395597
344.957397	2524.405679
345.348697	2521.171779
345.739934	2519.926614
346.131106	2520.975174
346.522215	2515.298835
346.913260	2516.967457
347.304241	2512.982425
347.695159	2512.075017
348.086012	2509.136024
348.476802	2508.631909
348.867528	2506.960767
349.258191	2503.338698
349.648789	2506.537310
350.039324	2502.779129
350.429796	2503.459685
350.820203	2499.560353
351.210548	2499.005826
351.600828	2495.605568
351.991045	2495.708911
352.381198	2498.050527
352.771288	2496.013901
353.161314	2493.480721
353.551276	2494.005001
353.941175	2497.813593
354.331010	2496.376864
354.720782	2494.068016
355.110490	2498.526916
355.500135	2497.453150
355.889717	2495.560197
356.279235	2497.354848
356.668689	2494.436020
357.058080	2495.703870
357.447408	2496.507934
357.836672	2491.696153
358.225873	2495.071205
358.615010	2491.678509
359.004084	2499.141937
359.393095	2497.927019
359.782043	2498.741165
360.170927	2496.218068
360.559748	2501.128152
360.948505	2500.616474
361.337199	2502.711074
361.725830	2500.447596
362.114398	2505.234171
362.502903	2499.383912
362.891344	2503.237874
363.279722	2503.409274
363.668037	2504.987155
364.056289	2503.903307
364.444478	2505.624861
364.832603	2505.526558
365.220665	2507.391785
365.608665	2505.370283
365.996601	2506.370952
366.384474	2509.025119
366.772284	2507.275839
367.160031	2508.785664
367.547715	2509.975377
367.935336	2508.526045
368.322893	2508.457989
368.710388	2511.013854
369.097820	2509.536796
369.485189	2508.936899
369.872495	2508.831035
370.259738	2510.565192
370.646918	2510.610562
371.034035	2510.837414
371.421090	2510.764317
371.808081	2511.517970
372.195010	2509.372959
372.581875	2510.988648
372.968678	2513.582322
373.355418	2510.413957
373.742096	2514.623320
374.128710	2510.628206
374.515262	2515.855882
374.901751	2512.969822
375.288177	2514.472086
375.674540	2512.385048
376.060841	2513.355470
376.447079	2513.332785
376.833254	2512.541324
377.219367	2510.862620
377.605417	2513.032836
377.991404	2511.396982
378.377329	2511.528052
378.763191	2511.517970
379.148991	2516.337313
379.534727	2513.655419
379.920402	2517.418640
380.306013	2515.596263
380.691563	2517.610204
381.077049	2517.544669
381.462474	2517.232117
381.847835	2516.944772
382.233134	2517.985770
382.618371	2516.246572
383.003545	2517.186747
383.388657	2519.346882
383.773706	2515.629031
384.158693	2518.557941
384.543618	2520.624814
384.928480	2516.513753
385.313280	2520.123219
385.698017	2520.352592
386.082692	2520.150946
386.467305	2517.219515
386.851856	2519.573733
387.236344	2517.786644
387.620770	2521.035668
388.005133	2520.410565
388.389435	2518.951151
388.773674	2520.914680
389.157851	2518.295801
389.541965	2520.975174
389.926018	2520.821419
390.310008	2522.371574
390.693936	2519.798065
391.077802	2519.858559
391.461606	2523.243693
391.845348	2524.020031
392.229027	2522.575741
392.612645	2523.052130
392.996200	2519.460307
393.379694	2522.651358
393.763125	2524.521626
394.146494	2520.249248
394.529801	2524.854342
394.913047	2523.047088
395.296230	2524.672861
395.679351	2523.873838
396.062410	2520.980215
396.445408	2525.129085
396.828343	2525.991122
397.211217	2518.494927
397.594028	2521.249917
397.976778	2521.300329
398.359466	2523.654548
398.742092	2520.181193
399.124656	2527.284178
399.507158	2525.602953
399.889598	2525.295443
400.271977	2528.383150
400.654294	2528.204189
401.036549	2527.160670
401.418742	2529.088911
401.800874	2526.827954
402.182944	2526.079342
402.564952	2530.238294
402.946898	2528.143695
403.328783	2525.842408
403.710606	2529.577903
404.092367	2528.393232
404.474067	2529.877852
404.855705	2529.547656
405.237282	2530.533202
405.618797	2529.872811
406.000250	2528.841895
406.381642	2529.250228
406.762972	2531.574200
407.144240	2529.343490
407.525447	2533.280631
407.906593	2531.463295
408.287677	2534.366999
408.668700	2530.412214
409.049661	2530.301309
409.430560	2530.553367
409.811399	2534.006557
410.192176	2531.859025
410.572891	2530.591175
410.953545	2529.661082
411.334138	2528.516740
411.714669	2531.521268
412.095139	2531.430527
412.475547	2534.069571
412.855894	2532.602596
413.236180	2536.138965
413.616405	2530.747451
413.996568	2534.924047
414.376670	2535.584438
414.756711	2534.855991
415.136691	2531.952287
415.516609	2533.318439
415.896466	2534.654345
416.276262	2539.193904
416.655997	2532.209386
417.035670	2532.837009
417.415283	2534.825744
417.794834	2529.346010
418.174324	2534.283820
418.553753	2534.545960
418.933121	2536.585107
419.312428	2537.187525
419.691674	2536.572504
420.070859	2534.765251
420.449983	2535.932278
420.829045	2535.471012
421.208047	2536.988399
421.586988	2534.843388
421.965867	2535.589479
422.344686	2535.995292
422.723444	2537.318595
423.102141	2539.072917
423.480777	2540.441590
423.859352	2538.505787
424.237866	2537.575694
424.616319	2538.147865
424.994712	2537.742052
425.373044	2539.796322
425.751314	2538.082330
426.129524	2537.071578
426.507673	2538.825900
426.885762	2538.626774
427.263789	2538.135262
427.641756	2538.336908
428.019662	2539.440921
428.397508	2538.190715
428.775292	2538.926723
429.153016	2540.875129
429.530679	2541.099460
429.908282	2540.902855
430.285824	2541.117104
430.663305	2540.131559
431.040726	2535.937319
431.418086	2538.528472
431.795385	2540.812115
432.172624	2542.684903
432.549802	2542.495860
432.926920	2542.551313
433.303977	2541.575849
433.680974	2541.374203
434.057910	2541.175078
434.434786	2543.907383
434.811601	2544.172044
435.188355	2542.485778
435.565050	2542.374872
435.941683	2543.367980
436.318257	2542.135418
436.694770	2537.530323
437.071222	2540.721374
437.447614	2539.624923
437.823946	2542.087527
438.200218	2544.335881
438.576429	2545.298742
438.952580	2546.846376
439.328670	2544.824873
439.704700	2547.594987
440.080670	2545.253371
440.456580	2544.126673
440.832429	2547.698331
441.208218	2546.972405
441.583947	2549.044319
441.959616	2547.907539
442.335224	2546.377548
442.710773	2546.763197
443.086261	2546.770758
443.461689	2544.522404
443.837057	2546.785882
444.212365	2546.385110
444.587612	2547.529452
444.962800	2547.017775
445.337927	2547.219421
445.712995	2546.841335
446.088002	2549.039278
446.462949	2548.852755
446.837837	2549.596325
447.212664	2549.679504
447.587431	2550.470965
447.962139	2552.862993
448.336786	2554.544218
448.711374	2550.402910
449.085901	2553.745195
449.460369	2550.108002
449.834776	2551.648075
450.209124	2552.187478
450.583412	2553.662016
450.957640	2556.850546
451.331808	2555.338199
451.705917	2554.997922
452.079965	2554.647561
452.453954	2557.026986
452.827883	2559.991184
453.201752	2557.800803
453.575562	2559.638304
453.949311	2560.913716
454.323001	2562.358006
454.696632	2562.801628
455.070202	2567.033676
455.443713	2569.198852
455.817164	2570.635581
456.190556	2569.173646
456.563888	2574.628175
456.937160	2577.443659
457.310373	2581.605132
457.683526	2583.480441
458.056619	2585.587643
458.429653	2590.613673
458.802628	2596.456371
459.175542	2597.898141
459.548398	2609.507918
459.921194	2617.462859
460.293930	2622.720782
460.666607	2642.976138
461.039224	2655.984836
461.411782	2666.712411
461.784280	2673.888494
462.156719	2676.429235
462.529099	2683.713703
462.901419	2683.580112
463.273680	2688.875844
463.645882	2693.861545
464.018024	2705.103318
464.390106	2720.612428
464.762130	2745.084710
465.134094	2779.800616
465.505999	2854.200485
465.877845	2935.645366
466.249631	2978.845534
466.621358	2969.194245
466.993026	2955.910805
467.364634	2959.913481
467.736184	2959.011114
468.107674	2964.894141
468.479105	2995.640138
468.850477	2999.138699
469.221790	3005.982065
469.593043	3003.834534
469.964238	3026.340765
470.335373	3048.428581
470.706449	3078.912438
471.077467	3107.415122
471.448425	3270.630039
471.819324	3413.486257
472.190164	3441.391564
472.560945	3345.680217
472.931667	3302.338897
473.302330	3316.224755
473.672934	3315.811381
474.043479	3392.227711
474.413965	3422.646033
474.784393	3447.398099
475.154761	3508.290196
475.525070	3560.211560
475.895321	3579.819128
476.265513	3645.752379
476.635645	3720.411868
477.005719	3778.470837
477.375734	3843.534489
477.745691	3938.913119
478.115588	4024.988301
478.485427	4129.864465
478.855207	4311.053617
479.224928	4580.571346
479.594591	4791.452893
479.964194	4820.036236
480.333739	4852.206359
480.703226	4926.853244
481.072653	5024.518038
481.442022	5186.036608
481.811333	5315.720290
482.180584	5336.691490
482.549777	5342.496379
482.918912	5371.059557
483.287988	5461.591118
483.657005	5538.945103
484.025964	5526.153175
484.394864	5646.798069
484.763706	5729.238579
485.132489	5716.053441
485.501213	5789.545902
485.869879	5891.306634
486.238487	5932.540752
486.607036	6037.041350
486.975527	6045.359254
487.343959	6197.627306
487.712333	6308.875489
488.080648	6358.515731
488.448905	6472.435726
488.817104	6522.436410
489.185244	6733.980869
489.553326	6902.625110
489.921350	7253.633090
490.289315	7875.789613
490.657222	8131.585321
491.025070	8202.020322
491.392861	8233.882935
491.760593	8142.905232
492.128267	8065.430259
492.495883	7970.281000
492.863440	7874.660394
493.230939	7768.806246
493.598380	7813.301990
493.965763	7829.375709
494.333088	7832.944846
494.700354	7875.930765
495.067563	7977.605797
495.434713	7960.181049
495.801805	8112.255016
496.168839	8135.610682
496.535815	8183.481479
496.902733	8239.098009
497.269593	8279.893546
497.636395	8402.849809
498.003139	8479.994586
498.369825	8443.380686
498.736453	8633.734655
499.103023	8638.380078
499.469535	8728.294098
499.835989	8782.751163
500.202385	8822.195671
500.568723	8774.708002
500.935003	8989.375456
501.301226	8920.006659
501.667390	9162.697887
502.033497	9302.042941
502.399546	9246.554961
502.765537	9225.097289
503.131470	9345.094395
503.497345	9549.651815
503.863163	9272.471533
504.228923	9591.848793
504.594625	9685.168113
504.960269	9526.528042
505.325856	9756.502960
505.691385	9627.945976
506.056856	9801.127254
506.422270	9873.379592
506.787625	9812.384151
507.152924	9959.517788
507.518164	9971.399787
507.883347	9954.862282
508.248472	9913.923072
508.613540	10160.455659
508.978550	10093.869579
509.343503	10101.970713
509.708398	10243.879194
510.073236	10381.616120
510.438016	10422.230176
510.802738	10392.994004
511.167403	10471.071395
511.532010	10419.160113
511.896561	10652.963787
512.261053	10743.404608
512.625488	10653.535958
512.989866	10660.747329
513.354186	10671.381643
513.718449	10606.567528
514.082655	10805.418362
514.446803	10733.445808
514.810894	10867.742147
515.174927	10757.603017
515.538904	10800.727568
515.902822	10956.549633
516.266684	10866.733916
516.630488	10823.047277
516.994235	10895.700386
517.357925	10972.714093
517.721558	11072.009701
518.085133	11099.841911
518.448651	11128.316868
518.812112	11026.311641
519.175516	11043.534743
519.538863	11169.674495
519.902152	11104.469690
520.265385	11261.932651
520.628560	11186.509428
520.991678	11176.661534
521.354739	11249.566701
521.717743	11190.197032
522.080690	11179.988695
522.443580	11313.349900
522.806413	11278.475197
523.169189	11313.266721
523.531908	11382.252391
523.894569	11200.508712
524.257174	11213.754344
524.619722	11329.905049
524.982213	11283.803697
525.344647	11342.097080
525.707025	11294.004472
526.069345	11390.814790
526.431608	11304.885803
526.793815	11423.804101
527.155964	11216.957997
527.518057	11272.756008
527.880093	11214.818027
528.242072	11291.801488
528.603995	11203.200688
528.965860	11127.351487
529.327669	11177.579024
529.689421	11127.422064
530.051117	11102.914494
530.412755	11207.490710
530.774337	11097.129770
531.135862	11089.091650
531.497331	11106.367685
531.858743	10958.036774
532.220098	11125.680345
532.581396	11007.586275
532.942638	10988.303862
533.303824	10951.992430
533.664953	10967.158742
534.026025	10881.312933
534.387040	10980.149795
534.747999	10979.854888
535.108902	11039.978209
535.469748	10800.725047
535.830537	10904.822354
536.191270	10883.228571
536.551947	10907.572303
536.912567	10908.031048
537.273131	10837.064205
537.633638	10812.332304
537.994089	10805.579679
538.354483	10759.891701
538.714821	10899.423278
539.075103	10911.038097
539.435328	10871.911181
539.795497	10706.057219
540.155609	10854.557009
540.515665	10944.380288
540.875665	10685.572491
541.235609	10754.807698
541.595496	10747.520710
541.955328	10904.839998
542.315102	10787.224837
542.674821	10738.597868
543.034483	10737.612322
543.394090	10740.047199
543.753640	10666.577423
544.113134	10894.729964
544.472571	10748.380227
544.831953	10891.264171
545.191278	10703.072856
545.550548	10730.718544
545.909761	10861.251661
546.268918	10840.151912
546.628019	10915.595300
546.987064	10786.962697
547.346053	10714.286903
547.704986	10808.463219
548.063863	10792.676845
548.422684	10787.628130
548.781449	10702.472959
549.140158	10815.059568
549.498811	10682.958652
549.857408	10543.338856
550.215949	10767.342527
550.574434	10616.841399
550.932864	10720.122039
551.291237	10776.250246
551.649555	10726.942720
552.007817	10735.217774
552.366022	10697.393997
552.724173	10692.577174
553.082267	10673.375419
553.440305	10817.098715
553.798288	10615.800401
554.156215	10779.751327
554.514086	10754.341391
554.871902	10590.105640
555.229661	10635.823864
555.587365	10622.021185
555.945014	10514.533703
556.302606	10633.686415
556.660143	10530.345282
557.017625	10678.968579
557.375050	10578.931922
557.732421	10712.502335
558.089735	10621.012954
558.446994	10622.580753
558.804197	10661.949644
559.161345	10655.426391
559.518437	10510.929277
559.875474	10599.436816
560.232455	10630.268513
560.589381	10579.294885
560.946251	10571.564276
561.303065	10685.822028
561.659825	10623.243665
562.016528	10554.767151
562.373177	10432.183934
562.729770	10548.160719
563.086307	10459.706113
563.442789	10549.234485
563.799216	10435.884141
564.155587	10483.674279
564.511904	10435.685015
564.868164	10428.425754
565.224370	10438.109810
565.580520	10363.251196
565.936615	10369.721517
566.292654	10243.057486
566.648638	10374.109842
567.004567	10327.002779
567.360441	10313.651283
567.716260	10220.906656
568.072023	10318.463065
568.427732	10269.266444
568.783385	10174.722125
569.138982	10246.049410
569.494525	10264.343758
569.850013	10138.788780
570.205445	10220.851203
570.560823	10118.699782
570.916145	10036.579386
571.271412	10108.622515
571.626625	10050.951715
571.981782	10026.519763
572.336884	10004.111834
572.691931	10008.038893
573.046923	9956.049474
573.401860	9913.703781
573.756743	9844.546712
574.111570	9892.972036
574.466342	9868.507317
574.821059	9902.721628
575.175722	9790.099730
575.530330	9800.781935
575.884882	9797.235483
576.239380	9722.538186
576.593823	9699.676554
576.948211	9716.347649
577.302544	9599.781049
577.656823	9613.319068
578.011047	9614.324778
578.365216	9591.808464
578.719330	9513.877267
579.073389	9528.388228
579.427394	9468.320360
579.781344	9453.421229
580.135239	9401.618333
580.489080	9402.702181
580.842866	9302.526892
581.196597	9311.127100
581.550273	9349.603707
581.903895	9318.252771
582.257463	9393.718844
582.610975	9270.450030
582.964434	9294.942476
583.317837	9216.159324
583.671186	9196.113175
584.024481	9192.039923
584.377721	9113.786092
584.730906	9089.233152
585.084037	9115.363973
585.437113	9053.879540
585.790135	9077.575484
586.143103	8973.064803
586.496016	8948.083365
586.848874	9006.480091
587.201679	8993.569696
587.554428	8882.626503
587.907124	8926.880272
588.259765	8899.670644
588.612352	8902.428155
588.964884	8778.748487
589.317362	8799.293709
589.669786	8793.892113
590.022155	8843.834824
590.374470	8855.051391
590.726731	8791.580744
591.078937	8649.621852
591.431090	8761.021269
591.783188	8634.702557
592.135232	8629.958831
592.487222	8621.948437
592.839157	8678.679062
593.191038	8606.880429
593.542866	8552.350267
593.894639	8449.520811
594.246358	8511.935337
594.598022	8521.551338
594.949633	8423.584075
595.301190	8401.604644
595.652692	8426.465094
596.004141	8531.726907
596.355535	8309.777506
596.706876	8294.646483
597.058162	8227.165597
597.409395	8307.443452
597.760573	8365.754478
598.111698	8276.331971
598.462768	8260.230526
598.813785	8226.570741
599.164748	8195.280299
599.515657	8184.119185
599.866511	8097.779343
600.217312	8224.508909
600.568060	8078.285201
600.918753	8187.877365
601.269392	8149.408320
601.619978	8067.497132
601.970510	8130.569528
602.320988	8123.322869
602.671412	8178.843617
603.021783	8118.178372
603.372100	8094.000998
603.722363	8100.524251
604.072572	8070.990651
604.422728	8078.149090
604.772830	8016.745315
605.122878	8025.164042
605.472872	8017.090634
605.822813	8043.337402
606.172701	7988.240111
606.522534	8059.698467
606.872314	8060.053868
607.222041	8029.554887
607.571714	8085.279802
607.921333	8043.876805
608.270899	8052.960965
608.620411	8138.088409
608.969870	8046.374697
609.319276	8039.364973
609.668627	8054.155718
610.017926	8095.460412
610.367171	8134.483984
610.716362	8107.904500
611.065500	8107.755786
611.414585	8133.538768
611.763616	8126.841595
612.112594	8101.010722
612.461518	8113.328782
612.810389	8171.939757
613.159207	8112.265098
613.507971	8068.669200
613.856682	8183.544493
614.205340	8136.644118
614.553945	8217.398362
614.902496	8113.800130
615.250994	8170.114859
615.599439	8153.884865
615.947830	8162.081781
616.296169	8137.649829
616.644454	8150.353536
616.992686	8149.206674
617.340864	8209.914769
617.688990	8109.069007
618.037063	8204.656846
618.385082	8142.859861
618.733048	8230.495280
619.080961	8174.813215
619.428821	8193.919188
619.776628	8193.538581
620.124382	8145.430850
620.472083	8129.173128
620.819731	8155.818147
621.167326	8051.115902
621.514868	8062.700474
621.862357	7938.123480
622.209793	7968.017522
622.557176	7905.376145
622.904506	7868.260649
623.251783	7804.699261
623.599007	7762.240143
623.946179	7763.578569
624.293297	7727.481387
624.640363	7640.584498
624.987376	7625.108155
625.334336	7570.570433
625.681243	7517.492124
626.028097	7504.430494
626.374899	7482.574572
626.721647	7477.175496
627.068343	7409.883654
627.414987	7382.633697
627.761577	7335.491346
628.108115	7373.688169
628.454600	7265.131962
628.801032	7325.673699
629.147412	7280.000845
629.493739	7266.785461
629.840014	7198.470264
630.186236	7267.191273
630.532405	7141.411964
630.878521	7194.916251
631.224585	7154.564335
631.570597	7075.448466
631.916556	7108.876357
632.262462	7105.700431
632.608316	7067.087713
632.954117	7044.750360
633.299866	7034.781478
633.645562	7026.503904
633.991206	6946.248734
634.336797	6888.900568
634.682336	6846.673343
635.027823	6815.478683
635.373257	6803.044677
635.718639	6737.940696
636.063968	6752.532316
636.409245	6645.634648
636.754470	6643.295553
637.099642	6602.938596
637.444762	6548.539505
637.789829	6556.978396
638.134845	6499.766341
638.479808	6479.465615
638.824719	6489.500031
639.169577	6416.027735
639.514383	6441.573782
639.859137	6364.406319
640.203839	6376.552979
640.548489	6358.283838
640.893086	6334.461865
641.237632	6310.302136
641.582125	6331.238047
641.926566	6298.704961
