Dividing Wavelength (nm)	Counts (n)	Blue Motor Position (mm): 27.400000	Red Motor Position (mm): 0.000000	
326.493990	2132.730711
326.888308	2132.730711
327.282561	2132.730711
327.676750	2097.261152
328.070874	2101.450351
328.464933	2102.115783
328.858929	2107.610641
329.252859	2116.538525
329.646726	2129.980761
330.040528	2141.777061
330.434265	2158.886738
330.827938	2175.509942
331.221547	2193.920236
331.615091	2212.743905
332.008571	2234.136041
332.401986	2253.869638
332.795338	2270.006371
333.188625	2290.531429
333.581847	2310.285190
333.975006	2327.599033
334.368100	2344.870026
334.761129	2363.963397
335.154095	2379.144831
335.546996	2398.505383
335.939833	2425.672161
336.332606	2439.963832
336.725315	2451.261058
337.117960	2460.428396
337.510540	2471.334932
337.903056	2483.716006
338.295508	2486.516367
338.687896	2499.638491
339.080220	2503.686537
339.472480	2515.321520
339.864676	2518.653723
340.256807	2520.690349
340.648875	2522.217819
341.040879	2525.320649
341.432818	2528.844415
341.824694	2528.990609
342.216506	2528.849457
342.608253	2531.498583
342.999937	2528.249559
343.391557	2527.851308
343.783113	2528.541946
344.174605	2528.826771
344.566033	2525.824764
344.957397	2524.824095
345.348697	2523.344517
345.739934	2523.180679
346.131106	2520.168590
346.522215	2519.019207
346.913260	2517.532066
347.304241	2514.434277
347.695159	2513.234482
348.086012	2512.314472
348.476802	2509.309944
348.867528	2509.027640
349.258191	2507.757269
349.648789	2507.779954
350.039324	2502.063286
350.429796	2502.406084
350.820203	2501.218892
351.210548	2500.984479
351.600828	2498.133706
351.991045	2498.229488
352.381198	2497.758140
352.771288	2496.230671
353.161314	2496.283603
353.551276	2496.039107
353.941175	2498.907523
354.331010	2495.913078
354.720782	2495.645897
355.110490	2498.315188
355.500135	2496.689416
355.889717	2498.569766
356.279235	2495.625732
356.668689	2500.629077
357.058080	2496.830568
357.447408	2494.526761
357.836672	2492.497696
358.225873	2496.649086
358.615010	2494.511637
359.004084	2501.070178
359.393095	2500.072030
359.782043	2499.439365
360.170927	2499.920795
360.559748	2500.891217
360.948505	2501.430621
361.337199	2501.992709
361.725830	2503.820128
362.114398	2501.526403
362.502903	2503.966321
362.891344	2505.637464
363.279722	2504.188132
363.668037	2505.229130
364.056289	2503.870539
364.444478	2507.908503
364.832603	2505.259377
365.220665	2508.193329
365.608665	2505.332474
365.996601	2509.688031
366.384474	2506.628050
366.772284	2509.632578
367.160031	2510.277846
367.547715	2508.258864
367.935336	2510.020747
368.322893	2512.901766
368.710388	2511.825480
369.097820	2512.110305
369.485189	2513.297497
369.872495	2510.923113
370.259738	2512.788340
370.646918	2513.297497
371.034035	2511.686848
371.421090	2510.991169
371.808081	2513.040398
372.195010	2513.032836
372.581875	2512.745491
372.968678	2514.411592
373.355418	2513.428567
373.742096	2513.652898
374.128710	2513.085768
374.515262	2515.150121
374.901751	2512.155676
375.288177	2514.824967
375.674540	2514.512415
376.060841	2514.494771
376.447079	2513.267250
376.833254	2517.262364
377.219367	2508.889008
377.605417	2512.190964
377.991404	2512.196005
378.377329	2512.939575
378.763191	2510.915552
379.148991	2518.474762
379.534727	2516.738084
379.920402	2517.660616
380.306013	2516.614576
380.691563	2519.785462
381.077049	2518.615914
381.462474	2518.192457
381.847835	2519.596419
382.233134	2516.216325
382.618371	2518.525173
383.003545	2517.902591
383.388657	2516.533918
383.773706	2518.021058
384.158693	2521.819567
384.543618	2519.074659
384.928480	2519.961902
385.313280	2520.357633
385.698017	2520.269413
386.082692	2522.394259
386.467305	2521.796882
386.851856	2521.028106
387.236344	2520.551717
387.620770	2520.886954
388.005133	2522.611029
388.389435	2519.548528
388.773674	2520.697911
389.157851	2520.826460
389.541965	2523.377284
389.926018	2524.146060
390.310008	2521.597757
390.693936	2522.709331
391.077802	2522.195133
391.461606	2524.009949
391.845348	2525.794517
392.229027	2524.251924
392.612645	2523.047088
392.996200	2522.956348
393.379694	2526.601102
393.763125	2525.517254
394.146494	2525.613036
394.529801	2526.139836
394.913047	2525.267717
395.296230	2526.054137
395.679351	2524.990453
396.062410	2526.225536
396.445408	2526.737213
396.828343	2527.069929
397.211217	2523.992305
397.594028	2525.113962
397.976778	2523.422654
398.359466	2527.422810
398.742092	2523.152953
399.124656	2529.552698
399.507158	2527.054806
399.889598	2530.611340
400.271977	2525.396266
400.654294	2528.541946
401.036549	2526.616225
401.418742	2530.432379
401.800874	2530.739889
402.182944	2531.208717
402.564952	2528.552028
402.946898	2530.031607
403.328783	2531.700229
403.710606	2528.670496
404.092367	2530.704601
404.474067	2530.644107
404.855705	2531.453213
405.237282	2529.487163
405.618797	2530.502955
406.000250	2532.196783
406.381642	2530.248377
406.762972	2534.377082
407.144240	2531.838861
407.525447	2534.692154
407.906593	2532.665610
408.287677	2532.219468
408.668700	2532.950435
409.049661	2536.023018
409.430560	2533.257946
409.811399	2531.380116
410.192176	2535.851619
410.572891	2536.012936
410.953545	2533.205013
411.334138	2534.987061
411.714669	2534.402287
412.095139	2535.859181
412.475547	2534.498069
412.855894	2536.277597
413.236180	2534.919006
413.616405	2536.438914
413.996568	2535.438245
414.376670	2532.098480
414.756711	2535.473533
415.136691	2536.544778
415.516609	2538.311702
415.896466	2537.305992
416.276262	2538.425128
416.655997	2537.084181
417.035670	2530.565969
417.415283	2536.431352
417.794834	2531.581762
418.174324	2538.586445
418.553753	2537.807587
418.933121	2540.663401
419.312428	2536.769109
419.691674	2540.653318
420.070859	2539.629964
420.449983	2540.365973
420.829045	2539.395550
421.208047	2543.650284
421.586988	2539.458565
421.965867	2540.988555
422.344686	2542.100129
422.723444	2542.074924
423.102141	2542.009389
423.480777	2543.899821
423.859352	2541.873277
424.237866	2542.054759
424.616319	2545.097095
424.994712	2542.785726
425.373044	2543.700696
425.751314	2545.664225
426.129524	2543.340253
426.507673	2544.471992
426.885762	2544.421581
427.263789	2543.183977
427.641756	2547.413506
428.019662	2545.381921
428.397508	2544.668597
428.775292	2546.748073
429.153016	2544.812270
429.530679	2547.317724
429.908282	2545.480223
430.285824	2546.790923
430.663305	2547.882333
431.040726	2546.901828
431.418086	2545.855789
431.795385	2548.893084
432.172624	2552.129505
432.549802	2552.195040
432.926920	2550.256716
433.303977	2551.101110
433.680974	2554.687891
434.057910	2555.096224
434.434786	2553.052036
434.811601	2554.997922
435.188355	2555.333158
435.565050	2557.906667
435.941683	2557.692418
436.318257	2558.594785
436.694770	2558.488921
437.071222	2563.900599
437.447614	2566.083419
437.823946	2567.729356
438.200218	2575.028946
438.576429	2578.068762
438.952580	2582.532704
439.328670	2590.462439
439.704700	2591.720207
440.080670	2597.734303
440.456580	2604.335694
440.832429	2610.886674
441.208218	2616.074021
441.583947	2627.479632
441.959616	2631.550363
442.335224	2642.613175
442.710773	2651.268837
443.086261	2662.785352
443.461689	2663.367606
443.837057	2683.340657
444.212365	2698.784232
444.587612	2705.612475
444.962800	2724.448746
445.337927	2737.369224
445.712995	2733.396794
446.088002	2779.364556
446.462949	2782.275822
446.837837	2798.296609
447.212664	2820.255875
447.587431	2852.867099
447.962139	2919.513674
448.336786	3023.489993
448.711374	3020.603932
449.085901	2962.444140
449.460369	2976.382930
449.834776	2998.402690
450.209124	3067.295099
450.583412	3126.006897
450.957640	3164.654903
451.331808	3167.982065
451.705917	3139.146665
452.079965	3162.739265
452.453954	3225.844428
452.827883	3234.731983
453.201752	3286.703758
453.575562	3285.965229
453.949311	3361.832074
454.323001	3377.182388
454.696632	3427.949327
455.070202	3501.973630
455.443713	3575.153540
455.817164	3641.185094
456.190556	3709.414591
456.563888	3778.455713
456.937160	3828.486644
457.310373	3789.314358
457.683526	3841.860826
458.056619	3867.381667
458.429653	3911.244747
458.802628	3937.284827
459.175542	4019.649719
459.548398	4194.502140
459.921194	4307.376095
460.293930	4365.079663
460.666607	4628.787462
461.039224	4811.856963
461.411782	4926.611269
461.784280	5000.007948
462.156719	5023.265312
462.529099	5040.090163
462.901419	4931.710396
463.273680	4943.141212
463.645882	5008.653527
464.018024	5027.875447
464.390106	5161.599614
464.762130	5413.929529
465.134094	5721.520572
465.505999	6318.428476
465.877845	7038.869854
466.249631	7470.150648
466.621358	7377.471555
466.993026	7141.812736
467.364634	7092.616116
467.736184	6978.645710
468.107674	6853.156267
468.479105	6965.871426
468.850477	6879.919753
469.221790	6820.345917
469.593043	6687.536719
469.964238	6678.692015
470.335373	6741.552682
470.706449	6850.048396
471.077467	6904.102168
471.448425	7890.524905
471.819324	8712.762303
472.190164	8807.364597
472.560945	7987.844380
472.931667	7473.165258
473.302330	7428.193124
473.672934	7218.776032
474.043479	7548.013790
474.413965	7554.068215
474.784393	7521.126796
475.154761	7697.375616
475.525070	7822.340779
475.895321	7729.379382
476.265513	7924.981192
476.635645	8111.927341
477.005719	8163.100094
477.375734	8304.406157
477.745691	8550.646358
478.115588	8714.390596
478.485427	8972.709402
478.855207	9476.900403
479.224928	10221.418333
479.594591	10813.902624
479.964194	10711.829341
480.333739	10720.391740
480.703226	10700.887516
481.072653	10823.057359
481.442022	11079.082439
481.811333	11285.399222
482.180584	11151.664973
482.549777	10936.276633
482.918912	10806.708897
483.287988	10863.038750
483.657005	10900.020655
484.025964	10641.444751
484.394864	10791.469489
484.763706	10791.333378
485.132489	10585.056924
485.501213	10578.228681
485.869879	10672.740234
486.238487	10546.053517
486.607036	10670.345686
486.975527	10476.427621
487.343959	10679.971769
487.712333	10740.694987
488.080648	10696.196723
488.448905	10747.472819
488.817104	10704.257528
489.185244	10972.121758
489.553326	11135.745009
489.921350	11679.849346
490.289315	12712.438971
490.657222	13065.496180
491.025070	12968.890029
491.392861	12859.887680
491.760593	12493.854540
492.128267	12165.377997
492.495883	11859.697551
492.863440	11530.197653
493.230939	11211.246370
493.598380	11140.153498
493.965763	11027.544203
494.333088	10923.444376
494.700354	10846.889414
495.067563	10912.374002
495.434713	10755.342060
495.801805	10879.001564
496.168839	10810.537653
496.535815	10752.171174
496.902733	10747.044321
497.269593	10691.765548
497.636395	10790.219283
498.003139	10777.903744
498.369825	10649.825669
498.736453	10800.563731
499.103023	10738.280275
499.469535	10765.333627
499.835989	10756.985476
500.202385	10718.201359
500.568723	10583.393343
500.935003	10800.586416
501.301226	10607.895872
501.667390	10864.629234
502.033497	10958.409819
502.399546	10821.660959
502.765537	10734.486807
503.131470	10806.282920
503.497345	10972.605708
503.863163	10595.275343
504.228923	10902.901674
504.594625	10962.316713
504.960269	10713.298837
505.325856	10935.182703
505.691385	10729.034799
506.056856	10879.215813
506.422270	10911.277551
506.787625	10796.981991
507.152924	10920.530589
507.518164	10900.930583
507.883347	10823.475775
508.248472	10735.661395
508.613540	10972.842643
508.978550	10857.339726
509.343503	10836.877682
509.708398	10957.331012
510.073236	11065.110882
510.438016	11073.227139
510.802738	11024.892556
511.167403	11071.467777
511.532010	10976.913374
511.896561	11202.799917
512.261053	11270.215267
512.625488	11142.366564
512.989866	11126.481888
513.354186	11115.434200
513.718449	11012.206492
514.082655	11208.206554
514.446803	11108.873138
514.810894	11225.815304
515.174927	11096.943247
515.538904	11117.511155
515.902822	11274.412028
516.266684	11155.024902
516.630488	11100.368712
516.994235	11155.390385
517.357925	11210.643952
517.721558	11300.205091
518.085133	11316.921557
518.448651	11333.577530
518.812112	11212.110928
519.175516	11225.323792
519.538863	11354.223575
519.902152	11265.945410
520.265385	11416.822103
520.628560	11337.441574
520.991678	11308.936370
521.354739	11378.088397
521.717743	11313.647328
522.080690	11294.924482
522.443580	11428.903228
522.806413	11379.562935
523.169189	11412.673233
523.531908	11470.104579
523.894569	11292.129163
524.257174	11287.609768
524.619722	11415.897051
524.982213	11360.749349
525.344647	11412.330435
525.707025	11363.411078
526.069345	11460.854061
526.431608	11374.990608
526.793815	11483.451033
527.155964	11274.359095
527.518057	11328.246509
527.880093	11276.436051
528.242072	11343.256545
528.603995	11250.337997
528.965860	11170.435709
529.327669	11217.048738
529.689421	11168.373877
530.051117	11133.335337
530.412755	11240.240566
530.774337	11133.889864
531.135862	11115.227512
531.497331	11140.168621
531.858743	10992.447690
532.220098	11160.028247
532.581396	11028.446570
532.942638	11011.467963
533.303824	10978.299692
533.664953	10990.186733
534.026025	10906.488455
534.387040	11000.417754
534.747999	11006.714155
535.108902	11063.984184
535.469748	10820.133490
535.830537	10931.459811
536.191270	10905.855790
536.551947	10930.963257
536.912567	10928.742629
537.273131	10854.216731
537.633638	10834.150418
537.994089	10825.235138
538.354483	10763.843966
538.714821	10907.763867
539.075103	10925.617113
539.435328	10891.680066
539.795497	10713.049300
540.155609	10874.222550
540.515665	10951.306833
540.875665	10696.930210
541.235609	10764.869841
541.595496	10761.187278
541.955328	10915.829713
542.315102	10794.675663
542.674821	10746.008364
543.034483	10748.970042
543.394090	10753.998593
543.753640	10680.072592
544.113134	10906.216233
544.472571	10759.344736
544.831953	10905.961655
545.191278	10696.605056
545.550548	10738.577703
545.909761	10875.505524
546.268918	10851.350835
546.628019	10936.790831
546.987064	10795.814964
547.346053	10713.855884
547.704986	10810.840123
548.063863	10799.663885
548.422684	10795.595673
548.781449	10709.797756
549.140158	10820.030146
549.498811	10687.273880
549.857408	10549.846985
550.215949	10777.923909
550.574434	10627.266505
550.932864	10731.847763
551.291237	10783.900197
551.649555	10734.726261
552.007817	10748.342418
552.366022	10708.698784
552.724173	10702.344410
553.082267	10686.903355
553.440305	10831.960037
553.798288	10624.682914
554.156215	10778.085226
554.514086	10751.238561
554.871902	10606.638104
555.229661	10636.580037
555.587365	10614.882911
555.945014	10513.157467
556.302606	10640.043310
556.660143	10529.148008
557.017625	10680.818683
557.375050	10583.652963
557.732421	10712.209948
558.089735	10622.822728
558.446994	10623.362132
558.804197	10661.818574
559.161345	10667.643627
559.518437	10515.446151
559.875474	10608.357137
560.232455	10635.975099
560.589381	10581.026522
560.946251	10581.081974
561.303065	10684.700371
561.659825	10621.612851
562.016528	10552.579291
562.373177	10429.176886
562.729770	10545.960256
563.086307	10457.944230
563.442789	10556.602131
563.799216	10431.420199
564.155587	10483.487757
564.511904	10437.835067
564.868164	10432.367936
565.224370	10443.234143
565.580520	10362.684066
565.936615	10376.214523
566.292654	10240.700746
566.648638	10375.339883
567.004567	10331.824643
567.360441	10317.149844
567.716260	10222.804650
568.072023	10317.991717
568.427732	10271.618143
568.783385	10175.052320
569.138982	10251.193908
569.494525	10267.439026
569.850013	10142.998143
570.205445	10223.175175
570.560823	10113.940933
570.916145	10035.402276
571.271412	10105.648235
571.626625	10055.645030
571.981782	10027.878354
572.336884	10006.617288
572.691931	10004.568059
573.046923	9954.625348
573.401860	9911.999871
573.756743	9846.810190
574.111570	9887.351150
574.466342	9876.978976
574.821059	9904.034848
575.175722	9794.911512
575.530330	9803.667996
575.884882	9797.507706
576.239380	9715.851096
576.593823	9700.805772
576.948211	9717.013082
577.302544	9602.399928
577.656823	9616.931054
578.011047	9612.910734
578.365216	9586.384183
578.719330	9511.873408
579.073389	9521.628041
579.427394	9465.940935
579.781344	9451.147669
580.135239	9395.286643
580.489080	9406.949353
580.842866	9308.102408
581.196597	9312.125249
581.550273	9350.896763
581.903895	9316.737905
582.257463	9385.917659
582.610975	9261.383515
582.964434	9290.554152
583.317837	9217.505312
583.671186	9198.555614
584.024481	9190.285602
584.377721	9113.985218
584.730906	9093.003935
585.084037	9117.632492
585.437113	9055.611177
585.790135	9077.235206
586.143103	8975.169485
586.496016	8946.772665
586.848874	9006.825410
587.201679	8994.008277
587.554428	8882.548365
587.907124	8925.398173
588.259765	8904.174915
588.612352	8904.278259
588.964884	8777.750338
589.317362	8790.733830
589.669786	8790.890106
590.022155	8840.268208
590.374470	8852.939148
590.726731	8790.592678
591.078937	8642.223958
591.431090	8760.895240
591.783188	8634.906723
592.135232	8632.567628
592.487222	8624.320300
592.839157	8683.422788
593.191038	8609.970656
593.542866	8554.031492
593.894639	8451.605328
594.246358	8506.649687
594.598022	8524.485290
594.949633	8419.276409
595.301190	8394.857060
595.652692	8425.293026
596.004141	8536.815952
596.355535	8315.370666
596.706876	8289.086090
597.058162	8231.206082
597.409395	8299.964900
597.760573	8367.813790
598.111698	8276.311806
598.462768	8261.689940
598.813785	8226.762305
599.164748	8199.429169
599.515657	8184.192282
599.866511	8094.794980
600.217312	8216.581695
600.568060	8084.377435
600.918753	8184.099020
601.269392	8156.420565
601.619978	8065.266421
601.970510	8132.679251
602.320988	8126.002243
602.671412	8179.463679
603.021783	8121.742468
603.372100	8096.952594
603.722363	8096.556863
604.072572	8070.662976
604.422728	8079.689162
604.772830	8010.282556
605.122878	8018.418978
605.472872	8011.547886
605.822813	8045.421919
606.172701	7988.245152
606.522534	8065.155516
606.872314	8065.004281
607.222041	8035.695013
607.571714	8085.103362
607.921333	8040.088378
608.270899	8055.053043
608.620411	8135.222513
608.969870	8046.896457
609.319276	8038.286166
609.668627	8051.383083
610.017926	8083.984225
610.367171	8129.405022
610.716362	8107.695292
611.065500	8100.501566
611.414585	8135.615723
611.763616	8113.764842
612.112594	8099.125331
612.461518	8117.840615
612.810389	8173.734408
613.159207	8115.773742
613.507971	8065.954539
613.856682	8182.823608
614.205340	8139.305848
614.553945	8217.022796
614.902496	8111.793751
615.250994	8171.695261
615.599439	8145.463617
615.947830	8162.343921
616.296169	8134.204200
616.644454	8149.093248
616.992686	8147.870768
617.340864	8203.101650
617.688990	8111.932382
618.037063	8198.090743
618.385082	8148.659709
618.733048	8232.423521
619.080961	8171.261722
619.428821	8190.140843
619.776628	8188.991460
620.124382	8146.418916
620.472083	8132.223027
620.819731	8154.699011
621.167326	8049.787558
621.514868	8063.441523
621.862357	7949.415665
622.209793	7963.001574
622.557176	7903.541165
622.904506	7872.956484
623.251783	7804.316133
623.599007	7761.675534
623.946179	7762.207375
624.293297	7720.441416
624.640363	7638.865464
624.987376	7618.705890
625.334336	7568.800988
625.681243	7518.976743
626.028097	7504.647264
626.374899	7485.909295
626.721647	7477.069632
627.068343	7407.458859
627.414987	7381.486834
627.761577	7332.479257
628.108115	7372.924434
628.454600	7266.180522
628.801032	7316.420661
629.147412	7273.633868
629.493739	7261.104080
629.840014	7204.552416
630.186236	7259.448061
630.532405	7145.170145
630.878521	7196.242074
631.224585	7152.860425
631.570597	7073.293373
631.916556	7109.740915
632.262462	7103.109277
632.608316	7071.962508
632.954117	7045.262037
633.299866	7029.576487
633.645562	7023.630446
633.991206	6943.745802
634.336797	6886.206072
634.682336	6845.498754
635.027823	6813.754608
635.373257	6805.492157
635.718639	6734.041363
636.063968	6747.070225
636.409245	6644.293701
636.754470	6642.178937
637.099642	6598.860302
637.444762	6541.547424
637.789829	6553.091667
638.134845	6497.671742
638.479808	6483.939639
638.824719	6489.414332
639.169577	6413.653351
639.514383	6434.624551
639.859137	6361.855495
640.203839	6369.800354
640.548489	6353.993816
