Dividing Wavelength (nm)	Counts (n)	Blue Motor Position (mm): 12.400000	Red Motor Position (mm): 0.000000	
326.493990	2139.417801
326.888308	2139.417801
327.282561	2139.417801
327.676750	2106.824221
328.070874	2108.240785
328.464933	2106.637698
328.858929	2114.706065
329.252859	2125.373147
329.646726	2135.994858
330.040528	2147.221508
330.434265	2164.401760
330.827938	2183.356498
331.221547	2202.533048
331.615091	2218.591643
332.008571	2239.860271
332.401986	2258.739392
332.795338	2277.058945
333.188625	2294.720628
333.581847	2315.548155
333.975006	2335.072544
334.368100	2353.024093
334.761129	2369.526310
335.154095	2388.649927
335.546996	2407.481157
335.939833	2424.835329
336.332606	2438.217072
336.725315	2452.165945
337.117960	2459.110134
337.510540	2467.667493
337.903056	2480.139308
338.295508	2487.161635
338.687896	2496.964158
339.080220	2503.910868
339.472480	2510.807167
339.864676	2513.131139
340.256807	2522.137160
340.648875	2521.345699
341.040879	2524.773684
341.432818	2526.283509
341.824694	2526.835516
342.216506	2528.491535
342.608253	2529.338448
342.999937	2528.115969
343.391557	2525.610515
343.783113	2528.234436
344.174605	2528.433561
344.566033	2524.753519
344.957397	2521.144053
345.348697	2524.080525
345.739934	2519.437622
346.131106	2517.093486
346.522215	2515.233300
346.913260	2513.083248
347.304241	2513.567199
347.695159	2510.028309
348.086012	2508.218534
348.476802	2506.975890
348.867528	2508.158041
349.258191	2503.610920
349.648789	2503.353821
350.039324	2500.732421
350.429796	2500.230826
350.820203	2499.346104
351.210548	2500.205620
351.600828	2496.031545
351.991045	2495.474498
352.381198	2494.373005
352.771288	2494.604898
353.161314	2493.279075
353.551276	2494.990547
353.941175	2495.111534
354.331010	2495.232522
354.720782	2493.982316
355.110490	2496.016422
355.500135	2496.689416
355.889717	2495.529950
356.279235	2492.878303
356.668689	2495.713952
357.058080	2495.973572
357.447408	2492.492655
357.836672	2492.144815
358.225873	2495.923160
358.615010	2493.359733
359.004084	2498.463902
359.393095	2499.051196
359.782043	2498.448778
360.170927	2498.022801
360.559748	2498.703357
360.948505	2501.753255
361.337199	2500.825682
361.725830	2499.426762
362.114398	2504.034377
362.502903	2502.169150
362.891344	2503.071516
363.279722	2500.326608
363.668037	2501.786022
364.056289	2502.322905
364.444478	2506.804491
364.832603	2503.605879
365.220665	2503.711743
365.608665	2506.154182
365.996601	2507.704337
366.384474	2505.166116
366.772284	2508.326919
367.160031	2505.887001
367.547715	2505.718122
367.935336	2508.485716
368.322893	2507.759789
368.710388	2508.768020
369.097820	2511.664163
369.485189	2506.680983
369.872495	2508.735253
370.259738	2511.137363
370.646918	2508.485716
371.034035	2508.853720
371.421090	2512.264060
371.808081	2509.912362
372.195010	2510.691220
372.581875	2509.675428
372.968678	2511.664163
373.355418	2509.562002
373.742096	2512.206087
374.128710	2511.870850
374.515262	2511.462517
374.901751	2511.792712
375.288177	2510.812208
375.674540	2509.816580
376.060841	2513.622651
376.447079	2513.123577
376.833254	2511.878412
377.219367	2509.229286
377.605417	2509.937568
377.991404	2508.886487
378.377329	2511.858248
378.763191	2509.619975
379.148991	2514.603156
379.534727	2515.734895
379.920402	2517.368229
380.306013	2515.540810
380.691563	2516.324710
381.077049	2516.077693
381.462474	2514.691376
381.847835	2515.172806
382.233134	2515.626510
382.618371	2513.433608
383.003545	2515.505522
383.388657	2515.782786
383.773706	2514.462003
384.158693	2518.073990
384.543618	2518.908301
384.928480	2518.295801
385.313280	2518.051305
385.698017	2519.036851
386.082692	2518.656243
386.467305	2517.705986
386.851856	2517.337982
387.236344	2519.130112
387.620770	2521.413755
388.005133	2518.878054
388.389435	2522.472397
388.773674	2521.070956
389.157851	2518.948630
389.541965	2518.671367
389.926018	2519.102386
390.310008	2519.046933
390.693936	2521.290246
391.077802	2519.929135
391.461606	2521.262520
391.845348	2522.250586
392.229027	2522.684125
392.612645	2519.455266
392.996200	2522.880730
393.379694	2522.379136
393.763125	2520.957530
394.146494	2524.062881
394.529801	2522.908457
394.913047	2522.434588
395.296230	2521.963240
395.679351	2522.008611
396.062410	2521.043230
396.445408	2524.632531
396.828343	2523.934332
397.211217	2519.493075
397.594028	2523.909126
397.976778	2522.643796
398.359466	2522.555576
398.742092	2518.235307
399.124656	2524.254445
399.507158	2521.887623
399.889598	2524.935001
400.271977	2524.879548
400.654294	2528.040351
401.036549	2526.815351
401.418742	2526.661596
401.800874	2523.679753
402.182944	2527.538757
402.564952	2526.674199
402.946898	2526.394415
403.328783	2525.855011
403.710606	2527.561442
404.092367	2525.817202
404.474067	2527.216123
404.855705	2528.756195
405.237282	2526.223015
405.618797	2525.565145
406.000250	2527.566483
406.381642	2527.014477
406.762972	2532.370703
407.144240	2526.144877
407.525447	2528.816689
407.906593	2529.759385
408.287677	2528.622605
408.668700	2528.375588
409.049661	2529.794673
409.430560	2530.109745
409.811399	2532.400949
410.192176	2530.301309
410.572891	2527.062368
410.953545	2528.907430
411.334138	2530.329035
411.714669	2529.504807
412.095139	2529.212420
412.475547	2527.828623
412.855894	2529.429189
413.236180	2528.057995
413.616405	2530.863398
413.996568	2531.498583
414.376670	2530.563449
414.756711	2531.788449
415.136691	2529.459436
415.516609	2531.541433
415.896466	2533.681402
416.276262	2535.014788
416.655997	2528.448685
417.035670	2528.635207
417.415283	2529.892975
417.794834	2525.476925
418.174324	2529.638397
418.553753	2534.351876
418.933121	2534.871115
419.312428	2531.758202
419.691674	2530.339117
420.070859	2532.612678
420.449983	2532.007739
420.829045	2533.446989
421.208047	2532.973120
421.586988	2533.356248
421.965867	2534.072092
422.344686	2531.624612
422.723444	2536.164171
423.102141	2531.574200
423.480777	2535.934798
423.859352	2535.760878
424.237866	2531.796011
424.616319	2534.898841
424.994712	2535.440765
425.373044	2530.986906
425.751314	2533.709129
426.129524	2531.715352
426.507673	2535.987730
426.885762	2534.326670
427.263789	2537.865560
427.641756	2534.019160
428.019662	2537.928575
428.397508	2535.589479
428.775292	2536.383461
429.153016	2535.823893
429.530679	2536.817000
429.908282	2535.239119
430.285824	2537.671476
430.663305	2535.430683
431.040726	2534.782895
431.418086	2534.891279
431.795385	2535.816331
432.172624	2539.435880
432.549802	2536.219623
432.926920	2539.085519
433.303977	2539.443441
433.680974	2537.038811
434.057910	2538.190715
434.434786	2538.377237
434.811601	2539.284645
435.188355	2537.704243
435.565050	2537.913451
435.941683	2538.904038
436.318257	2536.438914
436.694770	2534.926568
437.071222	2536.184335
437.447614	2536.080992
437.823946	2533.696526
438.200218	2536.028060
438.576429	2536.706095
438.952580	2538.583925
439.328670	2539.932433
439.704700	2538.036959
440.080670	2542.049718
440.456580	2538.261291
440.832429	2539.876981
441.208218	2536.817000
441.583947	2538.601569
441.959616	2539.670293
442.335224	2538.354552
442.710773	2539.866898
443.086261	2539.514017
443.461689	2539.609799
443.837057	2542.027033
444.212365	2538.646939
444.587612	2538.432690
444.962800	2539.221631
445.337927	2542.493339
445.712995	2541.467465
446.088002	2540.907897
446.462949	2540.373534
446.837837	2540.670962
447.212664	2540.416384
447.587431	2543.042825
447.962139	2539.294727
448.336786	2541.081816
448.711374	2540.340767
449.085901	2542.269008
449.460369	2539.511497
449.834776	2541.747249
450.209124	2541.417053
450.583412	2540.912938
450.957640	2544.305634
451.331808	2539.335057
451.705917	2541.507794
452.079965	2540.935623
452.453954	2542.183308
452.827883	2541.152393
453.201752	2539.720705
453.575562	2542.269008
453.949311	2542.677342
454.323001	2542.911755
454.696632	2542.669780
455.070202	2544.673638
455.443713	2541.596014
455.817164	2539.781199
456.190556	2538.785571
456.563888	2542.712630
456.937160	2536.557381
457.310373	2542.410160
457.683526	2544.262784
458.056619	2542.737835
458.429653	2541.341436
458.802628	2542.314378
459.175542	2544.303114
459.548398	2543.972918
459.921194	2543.433515
460.293930	2543.168854
460.666607	2544.245140
461.039224	2546.712785
461.411782	2542.808412
461.784280	2543.136087
462.156719	2545.659184
462.529099	2545.460058
462.901419	2545.497867
463.273680	2542.999975
463.645882	2544.416540
464.018024	2546.559030
464.390106	2542.677342
464.762130	2547.484082
465.134094	2544.272867
465.505999	2541.195242
465.877845	2543.884698
466.249631	2543.998124
466.621358	2544.839997
466.993026	2548.603218
467.364634	2549.072045
467.736184	2546.397713
468.107674	2545.031560
468.479105	2544.905532
468.850477	2544.981149
469.221790	2544.943340
469.593043	2544.938299
469.964238	2546.856458
470.335373	2544.058618
470.706449	2546.780841
471.077467	2546.581715
471.448425	2547.287477
471.819324	2547.053063
472.190164	2545.734801
472.560945	2547.244627
472.931667	2546.889226
473.302330	2546.279246
473.672934	2546.513660
474.043479	2546.120450
474.413965	2544.822353
474.784393	2541.487629
475.154761	2546.231355
475.525070	2543.985521
475.895321	2543.977959
476.265513	2541.953936
476.635645	2546.168341
477.005719	2545.505429
477.375734	2549.087169
477.745691	2547.559699
478.115588	2548.938455
478.485427	2549.571119
478.855207	2547.121119
479.224928	2547.010213
479.594591	2549.601366
479.964194	2547.602549
480.333739	2552.275698
480.703226	2547.146324
481.072653	2549.722354
481.442022	2546.710265
481.811333	2549.674463
482.180584	2550.196222
482.549777	2548.953578
482.918912	2546.548948
483.287988	2550.652447
483.657005	2548.923331
484.025964	2549.160265
484.394864	2550.629762
484.763706	2550.203784
485.132489	2551.111192
485.501213	2545.853268
485.869879	2551.358208
486.238487	2547.234545
486.607036	2550.012220
486.975527	2548.489792
487.343959	2547.176571
487.712333	2549.513146
488.080648	2549.520708
488.448905	2551.300235
488.817104	2549.498023
489.185244	2549.732436
489.553326	2548.197405
489.921350	2549.324103
490.289315	2550.087838
490.657222	2551.393497
491.025070	2550.702858
491.392861	2547.433670
491.760593	2549.361912
492.128267	2552.280740
492.495883	2552.721841
492.863440	2549.407282
493.230939	2550.717982
493.598380	2551.562375
493.965763	2546.826211
494.333088	2547.572302
494.700354	2545.439894
495.067563	2549.583722
495.434713	2545.840666
495.801805	2550.909546
496.168839	2553.372149
496.535815	2550.375183
496.902733	2552.149670
497.269593	2555.123950
497.636395	2554.718137
498.003139	2551.779145
498.369825	2552.857952
498.736453	2548.071376
499.103023	2550.150852
499.469535	2551.849721
499.835989	2548.686397
500.202385	2550.561706
500.568723	2552.240410
500.935003	2551.837118
501.301226	2548.842673
501.667390	2553.425082
502.033497	2550.980122
502.399546	2551.413661
502.765537	2552.928528
503.131470	2554.665205
503.497345	2551.542211
503.863163	2550.813764
504.228923	2553.110009
504.594625	2553.926676
504.960269	2551.116233
505.325856	2552.827705
505.691385	2550.286963
506.056856	2554.027499
506.422270	2549.535831
506.787625	2553.881306
507.152924	2550.138249
507.518164	2551.302756
507.883347	2552.089176
508.248472	2552.832746
508.613540	2555.590257
508.978550	2552.265616
509.343503	2552.351316
509.708398	2554.987839
510.073236	2554.105637
510.438016	2556.192675
510.802738	2552.081614
511.167403	2554.433312
511.532010	2553.387273
511.896561	2552.343754
512.261053	2554.420709
512.625488	2547.829401
512.989866	2551.942982
513.354186	2553.188147
513.718449	2547.940306
514.082655	2556.099414
514.446803	2553.041954
514.810894	2556.147305
515.174927	2556.517829
515.538904	2554.017417
515.902822	2558.579661
516.266684	2555.872562
516.630488	2557.067315
516.994235	2556.379198
517.357925	2554.208981
517.721558	2556.835422
518.085133	2555.260062
518.448651	2553.394835
518.812112	2555.716286
519.175516	2558.536812
519.538863	2558.206616
519.902152	2555.844835
520.265385	2557.762994
520.628560	2555.796944
520.991678	2559.199723
521.354739	2557.672254
521.717743	2558.471277
522.080690	2560.172666
522.443580	2557.684857
522.806413	2561.339693
523.169189	2559.171997
523.531908	2561.831206
523.894569	2560.828016
524.257174	2561.264076
524.619722	2561.380022
524.982213	2564.770198
525.344647	2562.383212
525.707025	2561.969837
526.069345	2561.425393
526.431608	2561.009498
526.793815	2564.137533
527.155964	2564.767678
527.518057	2562.511761
527.880093	2564.865980
528.242072	2565.909499
528.603995	2565.382698
528.965860	2563.767009
529.327669	2562.463870
529.689421	2563.555280
530.051117	2564.732390
530.412755	2565.702812
530.774337	2561.904302
531.135862	2568.914027
531.497331	2564.059396
531.858743	2562.098387
532.220098	2566.164077
532.581396	2562.224416
532.942638	2562.917574
533.303824	2567.958728
533.664953	2566.380847
534.026025	2570.023081
534.387040	2568.409911
534.747999	2566.401012
535.108902	2566.728687
535.469748	2567.706670
535.830537	2568.757751
536.191270	2567.562997
536.551947	2569.377813
536.912567	2570.020560
537.273131	2568.692216
537.633638	2568.762792
537.994089	2573.526682
538.354483	2568.414952
538.714821	2573.365366
539.075103	2571.066599
539.435328	2569.380333
539.795497	2569.967628
540.155609	2570.229768
540.515665	2570.822103
540.875665	2573.057855
541.235609	2570.489387
541.595496	2573.819069
541.955328	2570.496949
542.315102	2574.494584
542.674821	2572.137845
543.034483	2570.678431
543.394090	2573.577094
543.753640	2574.292938
544.113134	2572.609192
544.472571	2574.469378
544.831953	2575.270922
545.191278	2573.761096
545.550548	2573.680438
545.909761	2574.585325
546.268918	2573.433421
546.628019	2575.248237
546.987064	2576.574060
547.346053	2574.771847
547.704986	2575.515418
548.063863	2574.658422
548.422684	2576.906776
548.781449	2573.700602
549.140158	2574.761765
549.498811	2575.039029
549.857408	2574.466858
550.215949	2575.921231
550.574434	2572.372258
550.932864	2572.919223
551.291237	2571.200190
551.649555	2574.454255
552.007817	2573.962742
552.366022	2577.879719
552.724173	2575.278483
553.082267	2574.953329
553.440305	2576.415264
553.798288	2574.633216
554.156215	2574.865109
554.514086	2577.219328
554.871902	2575.497774
555.229661	2577.569688
555.587365	2576.175809
555.945014	2574.718915
556.302606	2575.845613
556.660143	2577.516756
557.017625	2577.731005
557.375050	2577.176478
557.732421	2579.341653
558.089735	2580.551530
558.446994	2578.247723
558.804197	2576.387537
559.161345	2578.159503
559.518437	2575.938875
559.875474	2579.941551
560.232455	2579.976839
560.589381	2579.339133
560.946251	2582.252920
561.303065	2579.626479
561.659825	2579.124884
562.016528	2579.641602
562.373177	2579.727302
562.729770	2577.584811
563.086307	2581.002714
563.442789	2578.625810
563.799216	2580.725450
564.155587	2579.976839
564.511904	2579.739905
564.868164	2579.379462
565.224370	2581.080852
565.580520	2578.353587
565.936615	2581.784093
566.292654	2581.567323
566.648638	2579.886098
567.004567	2581.491706
567.360441	2583.661922
567.716260	2580.027250
568.072023	2581.708475
568.427732	2580.110429
568.783385	2581.219483
569.138982	2581.239648
569.494525	2581.940368
569.850013	2580.783423
570.205445	2584.367684
570.560823	2586.386666
570.916145	2586.671491
571.271412	2584.516398
571.626625	2587.987232
571.981782	2583.654361
572.336884	2586.842890
572.691931	2586.263158
573.046923	2589.776842
573.401860	2587.049578
573.756743	2589.398755
574.111570	2589.058477
574.466342	2594.676843
574.821059	2590.759867
575.175722	2591.377408
575.530330	2593.940835
575.884882	2593.381267
576.239380	2593.403952
576.593823	2593.782039
576.948211	2592.962851
577.302544	2594.994436
577.656823	2597.331011
578.011047	2597.295723
578.365216	2600.317895
578.719330	2601.951228
579.073389	2601.247987
579.427394	2600.990889
579.781344	2600.496856
580.135239	2600.204469
580.489080	2603.377875
580.842866	2604.807042
581.196597	2611.136211
581.550273	2609.472630
581.903895	2612.862806
582.257463	2611.620162
582.610975	2613.939092
582.964434	2616.096706
583.317837	2618.027468
583.671186	2617.730040
584.024481	2618.657612
584.377721	2621.911677
584.730906	2622.347737
585.084037	2624.659106
585.437113	2624.762450
585.790135	2628.767646
586.143103	2629.798562
586.496016	2632.644294
586.848874	2627.827471
587.201679	2633.612195
587.554428	2633.808800
587.907124	2641.211735
588.259765	2637.912299
588.612352	2646.555358
588.964884	2645.257261
589.317362	2651.006697
589.669786	2651.601553
590.022155	2656.748571
590.374470	2659.369971
590.726731	2659.664878
591.078937	2659.995074
591.431090	2667.627381
591.783188	2663.402894
592.135232	2667.725683
592.487222	2669.905982
592.839157	2676.204904
593.191038	2677.964267
593.542866	2679.219514
593.894639	2682.970132
594.246358	2684.356450
594.598022	2690.199147
594.949633	2691.383818
595.301190	2693.740558
595.652692	2697.612164
596.004141	2705.763710
596.355535	2702.373534
596.706876	2705.448637
597.058162	2709.335367
597.409395	2713.431305
597.760573	2719.493292
598.111698	2719.228632
598.462768	2727.690208
598.813785	2725.434292
599.164748	2732.396125
599.515657	2738.054821
599.866511	2741.714698
600.217312	2745.316603
600.568060	2747.769124
600.918753	2760.278747
601.269392	2762.191865
601.619978	2765.203955
601.970510	2775.064452
602.320988	2777.252312
602.671412	2790.858387
603.021783	2788.915022
603.372100	2794.238480
603.722363	2803.413380
604.072572	2807.965542
604.422728	2813.687252
604.772830	2817.609269
605.122878	2819.867706
605.472872	2828.858604
605.822813	2835.646518
606.172701	2844.534072
606.522534	2855.886751
606.872314	2863.017463
607.222041	2872.056252
607.571714	2879.459186
607.921333	2887.991339
608.270899	2895.512740
608.620411	2909.000348
608.969870	2915.790782
609.319276	2921.013417
609.668627	2935.680654
610.017926	2945.100050
610.367171	2964.153091
610.716362	2970.779688
611.065500	2980.811584
611.414585	2993.585868
611.763616	3000.030983
612.112594	3009.891480
612.461518	3020.447656
612.810389	3035.308978
613.159207	3042.278373
613.507971	3048.446225
613.856682	3069.659400
614.205340	3077.546285
614.553945	3096.808534
614.902496	3101.199379
615.250994	3117.147069
615.599439	3129.064357
615.947830	3142.957777
616.296169	3154.804488
616.644454	3163.533246
616.992686	3178.298786
617.340864	3203.368444
617.688990	3205.694937
618.037063	3226.628328
618.385082	3238.565780
618.733048	3266.884462
619.080961	3269.982251
619.428821	3287.933800
619.776628	3301.348310
620.124382	3309.283086
620.472083	3322.453101
620.819731	3338.365503
621.167326	3335.620595
621.514868	3349.146010
621.862357	3344.215762
622.209793	3354.940817
622.557176	3361.877444
622.904506	3368.214175
623.251783	3367.740306
623.599007	3376.083416
623.946179	3383.970301
624.293297	3397.664596
624.640363	3392.905746
624.987376	3406.204310
625.334336	3406.668096
625.681243	3417.458686
626.028097	3426.215170
626.374899	3433.640790
626.721647	3448.602935
627.068343	3449.480095
627.414987	3460.739513
627.761577	3465.339565
628.108115	3483.122236
628.454600	3481.531752
628.801032	3508.116276
629.147412	3510.704909
629.493739	3523.275026
629.840014	3524.298380
630.186236	3551.444994
630.532405	3541.428221
630.878521	3565.290523
631.224585	3575.579518
631.570597	3568.020307
631.916556	3594.821602
632.262462	3604.833333
632.608316	3617.373204
632.954117	3626.550624
633.299866	3630.107158
633.645562	3643.476298
633.991206	3640.280207
634.336797	3638.946822
634.682336	3639.113180
635.027823	3647.131135
635.373257	3654.670180
635.718639	3651.688338
636.063968	3667.830113
636.409245	3646.803460
636.754470	3664.266017
637.099642	3664.326511
637.444762	3664.389525
637.789829	3674.126514
638.134845	3675.238088
638.479808	3688.947506
638.824719	3699.750699
639.169577	3688.370294
639.514383	3712.194787
639.859137	3697.736758
640.203839	3712.804767
640.548489	3725.513515
640.893086	3724.618711
641.237632	3733.060123
641.582125	3748.796084
641.926566	3753.933020
642.270955	3771.254425
642.615292	3781.540899
642.959576	3800.606543
643.303809	3804.561328
643.647990	3825.857683
643.992118	3830.109896
644.336195	3819.969615
