Dividing Wavelength (nm)	Counts (n)	Blue Motor Position (mm): 25.600000	Red Motor Position (mm): 0.000000	
326.493990	2132.208951
326.888308	2132.208951
327.282561	2132.208951
327.676750	2098.604620
328.070874	2100.280803
328.464933	2101.457913
328.858929	2110.272370
329.252859	2116.160438
329.646726	2128.241563
330.040528	2140.400826
330.434265	2158.596871
330.827938	2176.833245
331.221547	2193.532067
331.615091	2214.039481
332.008571	2232.245608
332.401986	2250.076169
332.795338	2272.446290
333.188625	2291.988323
333.581847	2309.889460
333.975006	2328.864363
334.368100	2345.298524
334.761129	2364.868284
335.154095	2381.730943
335.546996	2401.746845
335.939833	2424.399269
336.332606	2440.770417
336.725315	2451.082097
337.117960	2460.935032
337.510540	2467.153295
337.903056	2481.150059
338.295508	2485.727427
338.687896	2494.980464
339.080220	2506.063441
339.472480	2512.012003
339.864676	2516.687673
340.256807	2519.009124
340.648875	2522.709331
341.040879	2526.180166
341.432818	2528.940197
341.824694	2529.676206
342.216506	2528.602440
342.608253	2529.507327
342.999937	2527.639580
343.391557	2529.262831
343.783113	2525.144208
344.174605	2528.403314
344.566033	2525.789476
344.957397	2524.884589
345.348697	2523.457942
345.739934	2519.520801
346.131106	2518.502488
346.522215	2519.031809
346.913260	2516.675070
347.304241	2513.710872
347.695159	2515.006448
348.086012	2510.968484
348.476802	2507.374141
348.867528	2506.562515
349.258191	2505.302227
349.648789	2505.947495
350.039324	2502.716115
350.429796	2504.046980
350.820203	2499.643532
351.210548	2501.987668
351.600828	2501.082781
351.991045	2497.412821
352.381198	2499.547750
352.771288	2494.320073
353.161314	2495.214878
353.551276	2496.795280
353.941175	2495.618170
354.331010	2500.354334
354.720782	2495.406442
355.110490	2496.389467
355.500135	2494.592296
355.889717	2496.265959
356.279235	2497.899293
356.668689	2497.211175
357.058080	2496.928870
357.447408	2493.621873
357.836672	2492.689260
358.225873	2494.821668
358.615010	2492.144815
359.004084	2498.995743
359.393095	2497.259066
359.782043	2496.013901
360.170927	2498.416011
360.559748	2499.971207
360.948505	2501.627226
361.337199	2502.753924
361.725830	2501.838954
362.114398	2501.798625
362.502903	2502.703512
362.891344	2503.232833
363.279722	2503.298368
363.668037	2506.723832
364.056289	2502.781650
364.444478	2508.193329
364.832603	2504.830879
365.220665	2508.213493
365.608665	2504.044459
365.996601	2507.870695
366.384474	2508.251302
366.772284	2509.173833
367.160031	2507.127125
367.547715	2509.002434
367.935336	2509.690551
368.322893	2509.993021
368.710388	2506.375993
369.097820	2512.495953
369.485189	2509.589728
369.872495	2511.843124
370.259738	2510.880264
370.646918	2510.091323
371.034035	2510.640809
371.421090	2511.777589
371.808081	2509.468741
372.195010	2511.238186
372.581875	2510.739111
372.968678	2512.889163
373.355418	2512.291787
373.742096	2512.508556
374.128710	2513.957888
374.515262	2513.625172
374.901751	2511.802795
375.288177	2514.151972
375.674540	2514.630882
376.060841	2517.547190
376.447079	2511.379338
376.833254	2514.434277
377.219367	2510.076200
377.605417	2513.582322
377.991404	2511.008813
378.377329	2512.417816
378.763191	2511.137363
379.148991	2517.368229
379.534727	2515.694566
379.920402	2516.503671
380.306013	2516.163393
380.691563	2516.440656
381.077049	2516.589370
381.462474	2517.126253
381.847835	2518.358815
382.233134	2517.648013
382.618371	2514.562827
383.003545	2515.482837
383.388657	2518.691532
383.773706	2518.114319
384.158693	2520.534073
384.543618	2519.450225
384.928480	2516.730523
385.313280	2518.026099
385.698017	2516.680111
386.082692	2519.709845
386.467305	2518.371418
386.851856	2520.201357
387.236344	2520.168590
387.620770	2524.632531
388.005133	2522.653878
388.389435	2520.191275
388.773674	2519.911491
389.157851	2520.213960
389.541965	2523.475587
389.926018	2520.576923
390.310008	2523.236132
390.693936	2520.375277
391.077802	2522.232942
391.461606	2521.859897
391.845348	2521.625483
392.229027	2522.187572
392.612645	2522.169928
392.996200	2523.886441
393.379694	2524.516585
393.763125	2526.185207
394.146494	2524.163704
394.529801	2527.266534
394.913047	2525.066071
395.296230	2524.965247
395.679351	2522.880730
396.062410	2527.362316
396.445408	2524.587161
396.828343	2525.978519
397.211217	2522.157325
397.594028	2523.667150
397.976778	2521.038189
398.359466	2522.038858
398.742092	2521.043230
399.124656	2527.100176
399.507158	2525.802079
399.889598	2528.647810
400.271977	2526.611184
400.654294	2528.657893
401.036549	2524.244362
401.418742	2527.747964
401.800874	2526.520443
402.182944	2525.696215
402.564952	2526.394415
402.946898	2527.828623
403.328783	2529.686288
403.710606	2531.632173
404.092367	2529.751823
404.474067	2529.371216
404.855705	2529.429189
405.237282	2529.779549
405.618797	2527.783252
406.000250	2533.958666
406.381642	2529.903058
406.762972	2530.863397
407.144240	2530.918850
407.525447	2530.944056
407.906593	2530.495393
408.287677	2529.219981
408.668700	2532.458923
409.049661	2533.232740
409.430560	2528.383150
409.811399	2532.547143
410.192176	2531.727955
410.572891	2533.527647
410.953545	2530.354241
411.334138	2530.465146
411.714669	2532.113604
412.095139	2534.631660
412.475547	2534.049407
412.855894	2531.559077
413.236180	2533.976310
413.616405	2537.311033
413.996568	2535.211393
414.376670	2535.007226
414.756711	2533.429345
415.136691	2536.401105
415.516609	2534.248532
415.896466	2537.008564
416.276262	2536.658204
416.655997	2530.210568
417.035670	2534.755168
417.415283	2535.090405
417.794834	2529.656041
418.174324	2536.539737
418.553753	2538.440252
418.933121	2537.235416
419.312428	2534.677030
419.691674	2537.149716
420.070859	2537.028729
420.449983	2535.143337
420.829045	2535.261804
421.208047	2539.012423
421.586988	2535.922195
421.965867	2539.309851
422.344686	2538.026877
422.723444	2538.475540
423.102141	2537.953780
423.480777	2536.965714
423.859352	2539.166178
424.237866	2539.939995
424.616319	2540.489481
424.994712	2541.059131
425.373044	2540.958308
425.751314	2538.689789
426.129524	2537.873122
426.507673	2539.224151
426.885762	2541.858154
427.263789	2540.154244
427.641756	2539.377906
428.019662	2539.239275
428.397508	2540.353370
428.775292	2541.036446
429.153016	2539.554347
429.530679	2543.128525
429.908282	2542.039636
430.285824	2542.712630
430.663305	2540.093750
431.040726	2541.858154
431.418086	2543.463762
431.795385	2542.357228
432.172624	2543.332692
432.549802	2543.403268
432.926920	2542.697506
433.303977	2544.570295
433.680974	2543.554502
434.057910	2544.880326
434.434786	2545.021478
434.811601	2544.754297
435.188355	2546.596839
435.565050	2544.857641
435.941683	2544.701365
436.318257	2546.178423
436.694770	2541.419574
437.071222	2545.253371
437.447614	2542.856302
437.823946	2544.620706
438.200218	2547.708413
438.576429	2548.653629
438.952580	2547.925183
439.328670	2549.064483
439.704700	2546.937117
440.080670	2548.409133
440.456580	2550.891902
440.832429	2550.622200
441.208218	2549.505584
441.583947	2549.490461
441.959616	2547.955430
442.335224	2553.046995
442.710773	2552.343754
443.086261	2549.306459
443.461689	2552.288301
443.837057	2554.345092
444.212365	2558.831719
444.587612	2555.859959
444.962800	2558.914898
445.337927	2560.328942
445.712995	2560.921277
446.088002	2562.937739
446.462949	2565.634756
446.837837	2565.992678
447.212664	2568.278841
447.587431	2571.734552
447.962139	2578.265367
448.336786	2593.567790
448.711374	2592.093252
449.085901	2589.802048
449.460369	2592.950248
449.834776	2597.610795
450.209124	2604.234871
450.583412	2612.459514
450.957640	2622.861935
451.331808	2625.190948
451.705917	2625.541308
452.079965	2632.389715
452.453954	2643.881026
452.827883	2647.334216
453.201752	2657.295536
453.575562	2661.174704
453.949311	2676.293124
454.323001	2681.253620
454.696632	2694.615198
455.070202	2714.862992
455.443713	2728.431258
455.817164	2743.612693
456.190556	2759.404107
456.563888	2780.587036
456.937160	2795.423151
457.310373	2792.670681
457.683526	2808.641057
458.056619	2818.486430
458.429653	2836.430417
458.802628	2847.163034
459.175542	2873.286293
459.548398	2919.216246
459.921194	2958.572534
460.293930	2987.584374
460.666607	3067.348031
461.039224	3135.174235
461.411782	3170.666479
461.784280	3197.263607
462.156719	3211.590566
462.529099	3228.745612
462.901419	3210.063096
463.273680	3224.387535
463.645882	3252.257554
464.018024	3278.935340
464.390106	3332.275789
464.762130	3427.989657
465.134094	3564.294895
465.505999	3810.043583
465.877845	4102.853963
466.249631	4267.180455
466.621358	4237.097369
466.993026	4177.213503
467.364634	4167.277389
467.736184	4150.765089
468.107674	4144.055313
468.479105	4225.152355
468.850477	4209.365982
469.221790	4215.866550
469.593043	4195.638920
469.964238	4225.263261
470.335373	4279.690078
470.706449	4360.668653
471.077467	4417.835338
471.448425	4894.317638
471.819324	5317.726670
472.190164	5388.781733
472.560945	5053.139189
472.931667	4864.438719
473.302330	4877.517992
473.672934	4818.029856
474.043479	5014.899517
474.413965	5062.843411
474.784393	5094.542186
475.154761	5218.695723
475.525070	5325.875695
475.895321	5313.998736
476.265513	5461.129852
476.635645	5604.742243
477.005719	5694.247930
477.375734	5813.025076
477.745691	5995.678683
478.115588	6142.794676
478.485427	6349.325707
478.855207	6701.309151
479.224928	7217.394756
479.594591	7629.010008
479.964194	7635.069475
480.333739	7696.148095
480.703226	7769.905217
481.072653	7910.752535
481.442022	8152.301942
481.811333	8339.187598
482.180584	8328.553284
482.549777	8256.464784
482.918912	8233.963593
483.287988	8329.586720
483.657005	8424.887213
484.025964	8307.725757
484.394864	8478.701530
484.763706	8545.834576
485.132489	8455.900392
485.501213	8512.570522
485.869879	8634.800859
486.238487	8614.122046
486.607036	8758.004139
486.975527	8686.447480
487.343959	8886.155311
487.712333	8997.705963
488.080648	9007.601748
488.448905	9116.407492
488.817104	9134.757292
489.185244	9406.583869
489.553326	9598.719886
489.921350	10082.020347
490.289315	10977.440175
490.657222	11309.826133
491.025070	11316.548512
491.392861	11282.581217
491.760593	11063.444780
492.128267	10848.573159
492.495883	10645.921295
492.863440	10409.927240
493.230939	10179.586838
493.598380	10163.951699
493.965763	10106.429613
494.333088	10051.107991
494.700354	10031.936483
495.067563	10123.534248
495.434713	10020.616572
495.801805	10166.016052
496.168839	10139.008070
496.535815	10114.311458
496.902733	10143.464450
497.269593	10123.226738
497.636395	10246.487991
498.003139	10268.684191
498.369825	10171.745323
498.736453	10348.336943
499.103023	10310.918978
499.469535	10362.227842
499.835989	10373.439368
500.202385	10360.992759
500.568723	10243.803576
500.935003	10471.930911
501.301226	10314.377210
501.667390	10572.630480
502.033497	10689.605414
502.399546	10575.256921
502.765537	10499.193471
503.131470	10586.392830
503.497345	10772.297981
503.863163	10400.424665
504.228923	10713.618950
504.594625	10788.971597
504.960269	10559.163038
505.325856	10783.665783
505.691385	10594.304921
506.056856	10758.969170
506.422270	10785.717533
506.787625	10689.446618
507.152924	10814.061420
507.518164	10799.061467
507.883347	10733.153421
508.248472	10650.949846
508.613540	10887.745445
508.978550	10781.488004
509.343503	10761.860272
509.708398	10887.881556
510.073236	10998.630665
510.438016	11018.792760
510.802738	10966.836108
511.167403	11021.257884
511.532010	10925.508729
511.896561	11155.778554
512.261053	11223.859337
512.625488	11100.799730
512.989866	11084.224416
513.354186	11076.851729
513.718449	10981.808335
514.082655	11172.467294
514.446803	11075.157901
514.810894	11194.431601
515.174927	11062.391179
515.538904	11087.065107
515.902822	11239.071018
516.266684	11126.749070
516.630488	11069.264792
516.994235	11128.100099
517.357925	11192.173164
517.721558	11280.705908
518.085133	11302.992849
518.448651	11314.985754
518.812112	11195.797754
519.175516	11210.777542
519.538863	11328.382621
519.902152	11247.519992
520.265385	11410.971844
520.628560	11323.848103
520.991678	11299.307766
521.354739	11366.130781
521.717743	11299.902622
522.080690	11284.625405
522.443580	11417.689182
522.806413	11375.955989
523.169189	11405.880279
523.531908	11455.255860
523.894569	11284.310333
524.257174	11282.684561
524.619722	11408.821792
524.982213	11355.410767
525.344647	11408.846998
525.707025	11354.629388
526.069345	11449.922319
526.431608	11372.263344
526.793815	11471.347223
527.155964	11268.367684
527.518057	11321.445993
527.880093	11273.577717
528.242072	11340.897285
528.603995	11242.365412
528.965860	11168.661223
529.327669	11216.411032
529.689421	11169.140132
530.051117	11144.451081
530.412755	11242.083108
530.774337	11130.330809
531.135862	11110.874476
531.497331	11132.163269
531.858743	10988.024078
532.220098	11158.422639
532.581396	11025.532783
532.942638	11007.606440
533.303824	10975.895061
533.664953	10986.141207
534.026025	10902.926880
534.387040	10999.636375
534.747999	11008.085349
535.108902	11057.067721
535.469748	10824.373100
535.830537	10920.732235
536.191270	10906.185986
536.551947	10932.432753
536.912567	10923.439335
537.273131	10849.374703
537.633638	10832.801909
537.994089	10820.078037
538.354483	10769.696746
538.714821	10913.213354
539.075103	10925.004613
539.435328	10891.410364
539.795497	10718.707995
540.155609	10876.435617
540.515665	10956.650457
540.875665	10699.125633
541.235609	10767.045099
541.595496	10758.487740
541.955328	10914.203941
542.315102	10798.078442
542.674821	10743.449978
543.034483	10745.660524
543.394090	10753.307954
543.753640	10675.706953
544.113134	10900.250027
544.472571	10756.902297
544.831953	10899.786241
545.191278	10703.627383
545.550548	10732.790458
545.909761	10866.693587
546.268918	10841.644093
546.628019	10932.820922
546.987064	10791.129211
547.346053	10712.426717
547.704986	10812.435648
548.063863	10809.204268
548.422684	10794.816815
548.781449	10706.389936
549.140158	10823.188429
549.498811	10691.455517
549.857408	10554.928468
550.215949	10775.683116
550.574434	10629.887905
550.932864	10726.741074
551.291237	10791.093923
551.649555	10733.281971
552.007817	10748.246636
552.366022	10708.005625
552.724173	10703.912208
553.082267	10688.871926
553.440305	10824.778913
553.798288	10621.340629
554.156215	10780.956163
554.514086	10756.730898
554.871902	10608.006777
555.229661	10639.372836
555.587365	10619.485484
555.945014	10514.029587
556.302606	10633.585592
556.660143	10527.108861
557.017625	10682.376399
557.375050	10583.531975
557.732421	10716.837727
558.089735	10634.976950
558.446994	10631.314552
558.804197	10665.004583
559.161345	10672.183186
559.518437	10522.743222
559.875474	10603.028638
560.232455	10640.802003
560.589381	10586.654970
560.946251	10584.295710
561.303065	10689.383603
561.659825	10627.243820
562.016528	10553.280011
562.373177	10428.481206
562.729770	10552.153313
563.086307	10458.067738
563.442789	10553.363190
563.799216	10437.139388
564.155587	10486.547737
564.511904	10441.739441
564.868164	10433.149315
565.224370	10446.273959
565.580520	10369.618173
565.936615	10375.261745
566.292654	10246.183001
566.648638	10376.574966
567.004567	10330.461011
567.360441	10312.607765
567.716260	10226.741791
568.072023	10327.141411
568.427732	10281.115677
568.783385	10189.618734
569.138982	10253.026367
569.494525	10271.862639
569.850013	10147.744390
570.205445	10225.620134
570.560823	10127.302511
570.916145	10041.343276
571.271412	10109.411456
571.626625	10056.784330
571.981782	10027.699393
572.336884	10009.470581
572.691931	10014.683134
573.046923	9960.473086
573.401860	9917.378782
573.756743	9847.465540
574.111570	9895.585874
574.466342	9876.326146
574.821059	9910.283358
575.175722	9799.995515
575.530330	9811.718718
575.884882	9800.373602
576.239380	9722.661695
576.593823	9705.834323
576.948211	9722.868382
577.302544	9598.218291
577.656823	9618.806364
578.011047	9614.228996
578.365216	9593.421633
578.719330	9516.047484
579.073389	9529.968630
579.427394	9476.212286
579.781344	9453.990880
580.135239	9401.162108
580.489080	9406.170494
580.842866	9314.018202
581.196597	9314.676073
581.550273	9358.783648
581.903895	9327.226025
582.257463	9394.686746
582.610975	9271.412890
582.964434	9298.403228
583.317837	9223.103513
583.671186	9199.009318
584.024481	9193.287609
584.377721	9115.132080
584.730906	9090.518646
585.084037	9120.831104
585.437113	9060.569151
585.790135	9080.885001
586.143103	8982.542172
586.496016	8958.765570
586.848874	9008.645267
587.201679	8998.608329
587.554428	8888.154128
587.907124	8937.572559
588.259765	8904.437055
588.612352	8904.447137
588.964884	8780.449876
589.317362	8795.341445
589.669786	8794.544942
590.022155	8846.506636
590.374470	8856.886371
590.726731	8797.632649
591.078937	8652.185278
591.431090	8769.225747
591.783188	8638.286817
592.135232	8632.043348
592.487222	8625.605795
592.839157	8681.708796
593.191038	8615.667160
593.542866	8559.279333
593.894639	8460.830640
594.246358	8516.623610
594.598022	8527.509982
594.949633	8426.419724
595.301190	8401.173625
595.652692	8432.496835
596.004141	8545.217035
596.355535	8319.804361
596.706876	8303.047566
597.058162	8232.335301
597.409395	8311.627610
597.760573	8369.668934
598.111698	8283.228269
598.462768	8265.140609
598.813785	8230.021411
599.164748	8200.681896
599.515657	8193.836009
599.866511	8106.344263
600.217312	8231.158191
600.568060	8086.295594
600.918753	8193.798200
601.269392	8159.384763
601.619978	8071.421670
601.970510	8136.623954
602.320988	8127.146585
602.671412	8181.666663
603.021783	8126.569372
603.372100	8097.315557
603.722363	8101.308151
604.072572	8075.701610
604.422728	8085.171417
604.772830	8018.734051
605.122878	8018.494596
605.472872	8018.119030
605.822813	8049.469966
606.172701	7987.660378
606.522534	8072.099705
606.872314	8072.744973
607.222041	8035.344652
607.571714	8089.748785
607.921333	8053.064308
608.270899	8057.813075
608.620411	8145.698031
608.969870	8050.170686
609.319276	8043.168523
609.668627	8056.018424
610.017926	8093.935463
610.367171	8144.130232
610.716362	8120.474617
611.065500	8108.471630
611.414585	8132.538099
611.763616	8121.296326
612.112594	8103.256557
612.461518	8122.312118
612.810389	8178.833535
613.159207	8120.028475
613.507971	8065.866318
613.856682	8184.280502
614.205340	8144.084862
614.553945	8222.989002
614.902496	8119.252138
615.250994	8172.451434
615.599439	8160.362747
615.947830	8174.417484
616.296169	8145.670304
616.644454	8155.679515
616.992686	8157.958117
617.340864	8208.261271
617.688990	8113.472455
618.037063	8202.932771
618.385082	8155.402252
618.733048	8240.015499
619.080961	8174.092330
619.428821	8192.726955
619.776628	8193.762912
620.124382	8147.832959
620.472083	8129.921740
620.819731	8165.540012
621.167326	8055.673105
621.514868	8072.457627
621.862357	7954.300543
622.209793	7969.348387
622.557176	7902.111997
622.904506	7878.022844
623.251783	7805.551216
623.599007	7760.518589
623.946179	7766.414218
624.293297	7725.175059
624.640363	7642.389231
624.987376	7625.682847
625.334336	7574.386586
625.681243	7519.095211
626.028097	7513.076073
626.374899	7485.538770
626.721647	7484.520457
627.068343	7411.348109
627.414987	7390.260962
627.761577	7341.744898
628.108115	7376.067594
628.454600	7269.210256
628.801032	7321.955848
629.147412	7280.842718
629.493739	7275.478930
629.840014	7209.928807
630.186236	7266.979545
630.532405	7149.944117
630.878521	7196.403391
631.224585	7160.039028
631.570597	7081.326452
631.916556	7117.423634
632.262462	7104.235975
632.608316	7072.711120
632.954117	7052.365023
633.299866	7036.298866
633.645562	7026.524068
633.991206	6949.878365
634.336797	6890.801083
634.682336	6851.913622
635.027823	6821.860784
635.373257	6810.109854
635.718639	6739.546303
636.063968	6748.877479
636.409245	6645.165821
636.754470	6646.557179
637.099642	6603.808195
637.444762	6549.414145
637.789829	6555.748355
638.134845	6501.692062
638.479808	6484.794114
638.824719	6491.319888
639.169577	6417.043527
639.514383	6443.628052
639.859137	6367.040322
640.203839	6367.637699
640.548489	6359.327357
640.893086	6337.388255
