Dividing Wavelength (nm)	Counts (n)	Blue Motor Position (mm): 12.900000	Red Motor Position (mm): 0.000000	
326.493990	2137.850003
326.888308	2137.850003
327.282561	2137.850003
327.676750	2106.698192
328.070874	2105.208531
328.464933	2104.293562
328.858929	2112.626589
329.252859	2123.853239
329.646726	2133.829682
330.040528	2147.665129
330.434265	2165.241112
330.827938	2179.159738
331.221547	2198.369054
331.615091	2217.419575
332.008571	2239.852709
332.401986	2261.249887
332.795338	2277.384100
333.188625	2296.994188
333.581847	2316.546303
333.975006	2334.336535
334.368100	2352.288084
334.761129	2369.652339
335.154095	2387.704711
335.546996	2407.937382
335.939833	2424.356420
336.332606	2439.195056
336.725315	2448.553958
337.117960	2461.378653
337.510540	2471.430714
337.903056	2480.265336
338.295508	2485.419916
338.687896	2496.956597
339.080220	2501.854078
339.472480	2510.585356
339.864676	2512.682476
340.256807	2518.517612
340.648875	2523.578930
341.040879	2526.160001
341.432818	2525.950793
341.824694	2529.530012
342.216506	2526.676719
342.608253	2529.925743
342.999937	2528.216792
343.391557	2528.942718
343.783113	2527.475742
344.174605	2525.234949
344.566033	2525.484486
344.957397	2523.868797
345.348697	2522.633714
345.739934	2518.116840
346.131106	2517.080883
346.522215	2517.519463
346.913260	2511.805315
347.304241	2513.108454
347.695159	2509.599811
348.086012	2509.098216
348.476802	2506.227279
348.867528	2505.798781
349.258191	2503.822648
349.648789	2503.439521
350.039324	2499.825013
350.429796	2503.384068
350.820203	2498.973058
351.210548	2500.137565
351.600828	2496.447440
351.991045	2495.766884
352.381198	2496.137409
352.771288	2494.738489
353.161314	2495.663541
353.551276	2496.381905
353.941175	2493.984837
354.331010	2492.802686
354.720782	2491.870072
355.110490	2492.948879
355.500135	2494.141112
355.889717	2495.083808
356.279235	2494.226812
356.668689	2495.391318
357.058080	2496.142450
357.447408	2493.586585
357.836672	2491.859990
358.225873	2490.698004
358.615010	2494.796462
359.004084	2498.657986
359.393095	2495.713952
359.782043	2497.871566
360.170927	2497.831237
360.559748	2498.698315
360.948505	2498.216885
361.337199	2500.261073
361.725830	2501.841475
362.114398	2501.201248
362.502903	2502.829541
362.891344	2505.128307
363.279722	2500.618995
363.668037	2501.745693
364.056289	2505.118225
364.444478	2503.076558
364.832603	2503.807525
365.220665	2503.931033
365.608665	2504.919099
365.996601	2504.409943
366.384474	2505.445900
366.772284	2506.375993
367.160031	2504.989675
367.547715	2509.488905
367.935336	2504.651918
368.322893	2511.144924
368.710388	2506.824655
369.097820	2509.224245
369.485189	2506.872546
369.872495	2505.458503
370.259738	2505.975221
370.646918	2511.250788
371.034035	2508.924296
371.421090	2510.766838
371.808081	2509.060407
372.195010	2509.330109
372.581875	2511.487723
372.968678	2511.802795
373.355418	2507.933709
373.742096	2512.004441
374.128710	2510.290449
374.515262	2511.757424
374.901751	2511.838083
375.288177	2509.768689
375.674540	2511.996879
376.060841	2511.770027
376.447079	2512.067455
376.833254	2512.264060
377.219367	2507.527896
377.605417	2511.840603
377.991404	2511.475120
378.377329	2511.291118
378.763191	2508.818432
379.148991	2514.782117
379.534727	2512.932013
379.920402	2516.294463
380.306013	2513.209277
380.691563	2512.629544
381.077049	2517.753877
381.462474	2515.616428
381.847835	2517.138856
382.233134	2515.482837
382.618371	2516.044926
383.003545	2517.433764
383.388657	2517.506860
383.773706	2517.509381
384.158693	2518.452077
384.543618	2518.809999
384.928480	2515.848321
385.313280	2518.313445
385.698017	2515.679442
386.082692	2520.541635
386.467305	2517.312776
386.851856	2519.208250
387.236344	2516.097858
387.620770	2519.241017
388.005133	2518.280677
388.389435	2518.767149
388.773674	2518.595750
389.157851	2518.121881
389.541965	2522.212778
389.926018	2519.551048
390.310008	2520.236645
390.693936	2520.403003
391.077802	2517.844618
391.461606	2520.130781
391.845348	2518.522653
392.229027	2519.167921
392.612645	2521.050792
392.996200	2520.851666
393.379694	2523.205885
393.763125	2520.826460
394.146494	2522.008611
394.529801	2523.057171
394.913047	2521.345699
395.296230	2525.008097
395.679351	2520.730678
396.062410	2522.777387
396.445408	2521.852335
396.828343	2525.751668
397.211217	2522.306039
397.594028	2522.031296
397.976778	2520.382839
398.359466	2521.779238
398.742092	2520.539114
399.124656	2524.957686
399.507158	2523.215967
399.889598	2525.204702
400.271977	2523.611698
400.654294	2529.230064
401.036549	2524.854342
401.418742	2524.282171
401.800874	2525.043385
402.182944	2527.445495
402.564952	2525.136647
402.946898	2526.170083
403.328783	2524.821575
403.710606	2526.913653
404.092367	2526.901051
404.474067	2527.029600
404.855705	2528.420958
405.237282	2527.740403
405.618797	2526.860721
406.000250	2526.381812
406.381642	2527.059847
406.762972	2528.453726
407.144240	2527.810979
407.525447	2528.085722
407.906593	2528.975485
408.287677	2528.473891
408.668700	2530.291227
409.049661	2526.671678
409.430560	2528.967924
409.811399	2528.869621
410.192176	2528.584796
410.572891	2528.783922
410.953545	2527.072450
411.334138	2529.719056
411.714669	2525.479445
412.095139	2531.932122
412.475547	2527.962213
412.855894	2530.145033
413.236180	2530.306350
413.616405	2530.444982
413.996568	2530.465146
414.376670	2530.984385
414.756711	2530.412214
415.136691	2529.857687
415.516609	2530.293747
415.896466	2531.831299
416.276262	2529.492204
416.655997	2530.616381
417.035670	2527.168232
417.415283	2530.744930
417.794834	2526.999353
418.174324	2529.706453
418.553753	2532.501773
418.933121	2530.223171
419.312428	2530.228212
419.691674	2533.194931
420.070859	2533.928419
420.449983	2530.200486
420.829045	2535.334901
421.208047	2533.862884
421.586988	2531.700229
421.965867	2533.535209
422.344686	2531.922040
422.723444	2532.773995
423.102141	2534.069571
423.480777	2534.044366
423.859352	2534.717360
424.237866	2533.187369
424.616319	2532.370703
424.994712	2534.278779
425.373044	2532.312729
425.751314	2534.881197
426.129524	2534.588810
426.507673	2534.951773
426.885762	2538.334388
427.263789	2535.365148
427.641756	2533.681403
428.019662	2534.714839
428.397508	2533.598223
428.775292	2535.990251
429.153016	2533.827596
429.530679	2539.471168
429.908282	2536.988399
430.285824	2536.295241
430.663305	2537.999151
431.040726	2536.214582
431.418086	2534.172915
431.795385	2537.152237
432.172624	2535.223996
432.549802	2538.049562
432.926920	2536.970755
433.303977	2538.447813
433.680974	2537.910931
434.057910	2536.915303
434.434786	2536.055786
434.811601	2534.815662
435.188355	2537.116949
435.565050	2536.869932
435.941683	2537.580735
436.318257	2533.336083
436.694770	2530.601257
437.071222	2535.740714
437.447614	2536.547298
437.823946	2537.212731
438.200218	2535.881866
438.576429	2539.609799
438.952580	2536.789274
439.328670	2538.798174
439.704700	2539.385468
440.080670	2538.372196
440.456580	2539.937474
440.832429	2538.175591
441.208218	2540.096271
441.583947	2538.082330
441.959616	2539.171219
442.335224	2538.558719
442.710773	2537.895807
443.086261	2538.412525
443.461689	2539.657690
443.837057	2539.251877
444.212365	2539.302289
444.587612	2539.733308
444.962800	2540.930582
445.337927	2538.931764
445.712995	2539.224151
446.088002	2541.046528
446.462949	2538.941847
446.837837	2543.098278
447.212664	2542.596683
447.587431	2540.623071
447.962139	2539.650129
448.336786	2541.603576
448.711374	2541.215407
449.085901	2538.916641
449.460369	2540.615510
449.834776	2540.222300
450.209124	2541.394368
450.583412	2542.410160
450.957640	2539.914789
451.331808	2541.142310
451.705917	2542.475695
452.079965	2542.642053
452.453954	2541.222969
452.827883	2544.058618
453.201752	2541.517876
453.575562	2540.340767
453.949311	2541.492670
454.323001	2541.185160
454.696632	2541.931251
455.070202	2540.759183
455.443713	2541.711961
455.817164	2539.675334
456.190556	2537.963863
456.563888	2539.768596
456.937160	2539.019984
457.310373	2542.377393
457.683526	2541.785057
458.056619	2545.031560
458.429653	2540.078627
458.802628	2545.792775
459.175542	2541.341436
459.548398	2543.972918
459.921194	2542.853782
460.293930	2541.810263
460.666607	2543.700696
461.039224	2542.606765
461.411782	2544.386293
461.784280	2544.320758
462.156719	2544.855120
462.529099	2546.312013
462.901419	2544.731612
463.273680	2544.736653
463.645882	2546.092723
464.018024	2542.876467
464.390106	2543.587270
464.762130	2547.973074
465.134094	2542.838658
465.505999	2549.097251
465.877845	2543.584749
466.249631	2546.042312
466.621358	2546.453166
466.993026	2550.022303
467.364634	2545.898639
467.736184	2546.662374
468.107674	2545.777651
468.479105	2545.248330
468.850477	2545.611293
469.221790	2545.999462
469.593043	2543.312527
469.964238	2547.305121
470.335373	2545.636499
470.706449	2544.724050
471.077467	2548.189843
471.448425	2547.131201
471.819324	2548.835111
472.190164	2549.639175
472.560945	2542.979811
472.931667	2546.493495
473.302330	2546.894267
473.672934	2548.973743
474.043479	2548.154555
474.413965	2545.840666
474.784393	2544.126673
475.154761	2547.279915
475.525070	2543.698175
475.895321	2542.221117
476.265513	2542.904193
476.635645	2547.300080
477.005719	2546.470810
477.375734	2547.632796
477.745691	2545.999462
478.115588	2548.459545
478.485427	2547.022816
478.855207	2546.715306
479.224928	2547.232024
479.594591	2547.448794
479.964194	2547.640357
480.333739	2547.307641
480.703226	2546.364946
481.072653	2548.073897
481.442022	2547.902498
481.811333	2547.789072
482.180584	2547.912580
482.549777	2548.832590
482.918912	2549.984494
483.287988	2548.709082
483.657005	2550.067673
484.025964	2550.632282
484.394864	2549.573640
484.763706	2547.232024
485.132489	2550.259237
485.501213	2550.042467
485.869879	2549.225800
486.238487	2547.549617
486.607036	2553.707386
486.975527	2548.086500
487.343959	2549.540873
487.712333	2548.028526
488.080648	2549.001469
488.448905	2549.336706
488.817104	2547.713454
489.185244	2549.649257
489.553326	2550.294525
489.921350	2550.065153
490.289315	2550.455842
490.657222	2550.034906
491.025070	2552.056408
491.392861	2550.909546
491.760593	2550.082797
492.128267	2550.463404
492.495883	2549.157745
492.863440	2552.147149
493.230939	2550.249155
493.598380	2549.664381
493.965763	2546.163299
494.333088	2548.008362
494.700354	2547.658002
495.067563	2549.911397
495.434713	2545.656663
495.801805	2551.890050
496.168839	2551.441387
496.535815	2551.653116
496.902733	2552.056408
497.269593	2550.453321
497.636395	2550.894422
498.003139	2553.362067
498.369825	2551.247303
498.736453	2552.303425
499.103023	2552.174875
499.469535	2552.114382
499.835989	2550.539021
500.202385	2551.217056
500.568723	2551.839639
500.935003	2550.639844
501.301226	2552.157231
501.667390	2549.697148
502.033497	2550.304607
502.399546	2550.962478
502.765537	2552.517674
503.131470	2551.143959
503.497345	2551.658157
503.863163	2555.565051
504.228923	2550.357539
504.594625	2551.466593
504.960269	2550.723023
505.325856	2555.527243
505.691385	2550.226469
506.056856	2552.552962
506.422270	2550.342416
506.787625	2552.444577
507.152924	2553.518343
507.518164	2551.348126
507.883347	2552.552962
508.248472	2552.769732
508.613540	2551.269988
508.978550	2554.337530
509.343503	2553.306614
509.708398	2555.759136
510.073236	2556.235525
510.438016	2552.215205
510.802738	2551.617828
511.167403	2553.417520
511.532010	2556.540515
511.896561	2555.116389
512.261053	2558.980433
512.625488	2549.739998
512.989866	2550.705379
513.354186	2550.060111
513.718449	2550.264278
514.082655	2556.328786
514.446803	2554.108158
514.810894	2553.198230
515.174927	2557.541184
515.538904	2557.122768
515.902822	2558.372974
516.266684	2556.336348
516.630488	2556.880792
516.994235	2557.110165
517.357925	2557.919270
517.721558	2556.492624
518.085133	2557.289126
518.448651	2560.878427
518.812112	2555.953220
519.175516	2560.749878
519.538863	2556.908519
519.902152	2559.872717
520.265385	2561.034703
520.628560	2559.126627
520.991678	2558.753581
521.354739	2561.271638
521.717743	2557.977243
522.080690	2562.421021
522.443580	2561.364899
522.806413	2563.653583
523.169189	2561.911864
523.531908	2563.144426
523.894569	2559.366081
524.257174	2561.420352
524.619722	2564.218192
524.982213	2563.605692
525.344647	2563.088973
525.707025	2564.475291
526.069345	2560.787687
526.431608	2564.364385
526.793815	2564.944118
527.155964	2566.267421
527.518057	2564.003943
527.880093	2566.600137
528.242072	2565.425548
528.603995	2565.780950
528.965860	2567.842782
529.327669	2567.489901
529.689421	2566.380847
530.051117	2565.445713
530.412755	2566.801783
530.774337	2568.417473
531.135862	2570.721280
531.497331	2567.005950
531.858743	2562.824313
532.220098	2565.486042
532.581396	2566.683316
532.942638	2564.470250
533.303824	2569.284552
533.664953	2570.948132
534.026025	2570.832186
534.387040	2570.509552
534.747999	2567.005950
535.108902	2573.519121
535.469748	2571.711867
535.830537	2569.786146
536.191270	2570.444017
536.551947	2571.994172
536.912567	2573.067937
537.273131	2574.025757
537.633638	2573.438462
537.994089	2573.052814
538.354483	2571.127093
538.714821	2571.759758
539.075103	2574.832341
539.435328	2571.757238
539.795497	2574.358473
540.155609	2574.590366
540.515665	2571.835375
540.875665	2571.974007
541.235609	2573.748493
541.595496	2575.570870
541.955328	2575.162537
542.315102	2574.280335
542.674821	2574.436611
543.034483	2577.400809
543.394090	2573.350242
543.753640	2575.391909
544.113134	2574.693710
544.472571	2578.464493
544.831953	2577.899883
545.191278	2575.870819
545.550548	2576.793350
545.909761	2576.201015
546.268918	2576.679924
546.628019	2577.330233
546.987064	2576.735377
547.346053	2576.609348
547.704986	2574.797053
548.063863	2577.526838
548.422684	2575.865778
548.781449	2577.935172
549.140158	2577.597414
549.498811	2578.343505
549.857408	2578.179667
550.215949	2575.336457
550.574434	2573.312433
550.932864	2575.817887
551.291237	2576.536251
551.649555	2577.090778
552.007817	2575.812846
552.366022	2581.385841
552.724173	2579.928948
553.082267	2581.950451
553.440305	2580.286870
553.798288	2577.355439
554.156215	2577.191601
554.514086	2581.859710
554.871902	2578.459452
555.229661	2579.991962
555.587365	2581.012796
555.945014	2577.446180
556.302606	2582.091603
556.660143	2582.444484
557.017625	2584.080338
557.375050	2581.668146
557.732421	2582.167220
558.089735	2582.691500
558.446994	2584.856676
558.804197	2583.901377
559.161345	2585.743919
559.518437	2583.921542
559.875474	2583.046902
560.232455	2585.219639
560.589381	2584.866758
560.946251	2588.120823
561.303065	2584.090420
561.659825	2584.561768
562.016528	2587.099989
562.373177	2583.384659
562.729770	2586.711820
563.086307	2586.048909
563.442789	2586.590833
563.799216	2587.931780
564.155587	2586.376584
564.511904	2592.609970
564.868164	2592.201637
565.224370	2591.153077
565.580520	2591.561410
565.936615	2590.142326
566.292654	2590.928746
566.648638	2592.504106
567.004567	2592.743561
567.360441	2594.044179
567.716260	2599.246649
568.072023	2595.059971
568.427732	2591.518561
568.783385	2595.012080
569.138982	2594.792790
569.494525	2599.665065
569.850013	2596.277410
570.205445	2605.409460
570.560823	2600.471650
570.916145	2605.411981
571.271412	2603.695468
571.626625	2607.919955
571.981782	2608.207300
572.336884	2608.524893
572.691931	2612.184771
573.046923	2614.213835
573.401860	2612.472117
573.756743	2614.964967
574.111570	2615.383383
574.466342	2618.687859
574.821059	2620.487551
575.175722	2622.272120
575.530330	2622.350257
575.884882	2623.005607
576.239380	2622.861935
576.593823	2627.338479
576.948211	2630.670682
577.302544	2629.682616
577.656823	2634.330560
578.011047	2635.973976
578.365216	2638.242495
578.719330	2636.881383
579.073389	2643.984369
579.427394	2641.441107
579.781344	2644.692651
580.135239	2650.341264
580.489080	2648.350008
580.842866	2652.758497
581.196597	2655.810916
581.550273	2659.967347
581.903895	2662.434992
582.257463	2666.467915
582.610975	2668.244922
582.964434	2672.459327
583.317837	2677.082065
583.671186	2675.841941
584.024481	2682.060204
584.377721	2684.290915
584.730906	2686.050277
585.084037	2691.391380
585.437113	2691.860207
585.790135	2697.647452
586.143103	2701.650128
586.496016	2705.909903
586.848874	2705.662887
587.201679	2711.054401
587.554428	2712.380224
587.907124	2722.717110
588.259765	2722.785166
588.612352	2734.876373
588.964884	2732.920405
589.317362	2739.234451
589.669786	2746.055132
590.022155	2750.458580
590.374470	2757.657347
590.726731	2760.891247
591.078937	2762.146495
591.431090	2771.097063
591.783188	2773.589914
592.135232	2782.600977
592.487222	2783.745318
592.839157	2793.298305
593.191038	2796.703604
593.542866	2799.476239
593.894639	2803.819193
594.246358	2811.048208
594.598022	2819.991215
594.949633	2821.243941
595.301190	2828.084787
595.652692	2835.855726
596.004141	2851.019517
596.355535	2843.964422
596.706876	2853.519929
597.058162	2856.801720
597.409395	2867.965355
597.760573	2881.901625
598.111698	2881.425236
598.462768	2890.708521
598.813785	2894.481824
599.164748	2902.277969
599.515657	2903.356776
599.866511	2918.205494
600.217312	2929.298553
600.568060	2932.164449
600.918753	2946.531738
601.269392	2953.896864
601.619978	2958.088583
601.970510	2973.209524
602.320988	2980.640185
602.671412	3000.225068
603.021783	3002.024759
603.372100	3009.518435
603.722363	3023.227853
604.072572	3026.683563
604.422728	3038.505069
604.772830	3041.837272
605.122878	3053.421843
605.472872	3061.694377
605.822813	3077.289186
606.172701	3085.576843
606.522534	3103.130141
606.872314	3117.099178
607.222041	3130.319604
607.571714	3145.231337
607.921333	3151.164775
608.270899	3167.722445
608.620411	3188.131557
608.969870	3193.588606
609.319276	3206.579659
609.668627	3226.540108
610.017926	3242.843199
610.367171	3270.491407
610.716362	3273.014505
611.065500	3290.731640
611.414585	3310.117397
611.763616	3317.913542
612.112594	3328.205057
612.461518	3350.832276
612.810389	3370.127293
613.159207	3379.201370
613.507971	3388.706465
613.856682	3422.961106
614.205340	3428.259358
614.553945	3461.362095
614.902496	3460.517702
615.250994	3482.532421
615.599439	3499.470698
615.947830	3518.864016
616.296169	3531.247611
616.644454	3553.834501
616.992686	3568.834454
617.340864	3600.881069
617.688990	3600.092128
618.037063	3632.458857
618.385082	3640.948160
618.733048	3677.957791
619.080961	3682.378883
619.428821	3707.146071
619.776628	3725.924369
620.124382	3730.995770
620.472083	3746.512442
620.819731	3771.619908
621.167326	3766.634207
621.514868	3781.639202
621.862357	3771.970269
622.209793	3787.960809
622.557176	3791.250162
622.904506	3800.732572
623.251783	3800.115031
623.599007	3811.374448
623.946179	3820.667815
624.293297	3831.080318
624.640363	3828.466480
624.987376	3843.869725
625.334336	3844.736804
625.681243	3854.229297
626.028097	3863.086604
626.374899	3872.614385
626.721647	3892.373187
627.068343	3886.439749
627.414987	3896.948034
627.761577	3900.804517
628.108115	3923.177158
628.454600	3916.873195
628.801032	3953.724029
629.147412	3949.441569
629.493739	3969.205413
629.840014	3966.493272
630.186236	4002.290506
630.532405	3981.793174
630.878521	4013.570087
631.224585	4014.810211
631.570597	4005.683202
631.916556	4039.257287
632.262462	4049.359759
632.608316	4054.002662
632.954117	4063.422058
633.299866	4065.531781
633.645562	4086.944082
633.991206	4071.124941
634.336797	4068.148139
634.682336	4063.379208
635.027823	4073.040579
635.373257	4078.517793
635.718639	4072.302050
636.063968	4091.851645
636.409245	4068.122934
636.754470	4083.768155
637.099642	4079.962083
637.444762	4075.268769
637.789829	4095.536728
638.134845	4083.995007
638.479808	4097.613684
638.824719	4110.453503
639.169577	4092.706120
639.514383	4116.064307
639.859137	4103.572328
640.203839	4119.308289
640.548489	4132.105258
640.893086	4133.398314
641.237632	4133.899909
641.582125	4152.705933
641.926566	4154.329185
642.270955	4178.604861
642.615292	4188.180533
642.959576	4207.901527
643.303809	4212.055438
643.647990	4236.074015
643.992118	4238.541660
644.336195	4229.434816
