Dividing Wavelength (nm)	Counts (n)	Blue Motor Position (mm): 30.000000	Red Motor Position (mm): 0.000000	
326.493990	2127.808024
326.888308	2127.808024
327.282561	2127.808024
327.676750	2097.326687
328.070874	2095.935329
328.464933	2101.783067
328.858929	2105.213573
329.252859	2116.548607
329.646726	2127.402211
330.040528	2139.269087
330.434265	2157.318939
330.827938	2173.924499
331.221547	2195.034331
331.615091	2209.835159
332.008571	2231.945660
332.401986	2252.387538
332.795338	2267.395053
333.188625	2289.800462
333.581847	2308.266208
333.975006	2328.219095
334.368100	2344.227279
334.761129	2364.275948
335.154095	2379.520397
335.546996	2395.657131
335.939833	2423.217119
336.332606	2439.578184
336.725315	2451.268619
337.117960	2460.279682
337.510540	2467.657411
337.903056	2479.219297
338.295508	2486.539052
338.687896	2496.386946
339.080220	2505.123266
339.472480	2510.829852
339.864676	2515.293794
340.256807	2521.154135
340.648875	2521.254958
341.040879	2528.778880
341.432818	2528.526823
341.824694	2529.446833
342.216506	2527.929446
342.608253	2529.739220
342.999937	2529.840043
343.391557	2527.339631
343.783113	2528.478932
344.174605	2526.258303
344.566033	2523.510875
344.957397	2525.237470
345.348697	2521.844773
345.739934	2519.185565
346.131106	2517.179185
346.522215	2516.612056
346.913260	2515.485358
347.304241	2512.344719
347.695159	2510.492095
348.086012	2509.579646
348.476802	2507.326250
348.867528	2506.476816
349.258191	2504.914058
349.648789	2504.742659
350.039324	2500.611433
350.429796	2499.903151
350.820203	2500.349293
351.210548	2499.159581
351.600828	2494.826709
351.991045	2495.613129
352.381198	2497.916937
352.771288	2498.211844
353.161314	2496.306288
353.551276	2493.828561
353.941175	2494.990547
354.331010	2493.763026
354.720782	2495.701349
355.110490	2495.482059
355.500135	2493.052223
355.889717	2496.349138
356.279235	2493.808396
356.668689	2495.398880
357.058080	2496.749909
357.447408	2494.557007
357.836672	2494.839312
358.225873	2495.373674
358.615010	2493.160608
359.004084	2498.017760
359.393095	2498.025321
359.782043	2500.422390
360.170927	2499.726711
360.559748	2500.601351
360.948505	2500.707215
361.337199	2502.335508
361.725830	2502.068327
362.114398	2502.539675
362.502903	2503.225272
362.891344	2503.454644
363.279722	2504.215858
363.668037	2505.123266
364.056289	2504.167967
364.444478	2505.960098
364.832603	2504.667042
365.220665	2505.435818
365.608665	2505.541682
365.996601	2506.091167
366.384474	2505.408091
366.772284	2507.606034
367.160031	2506.023112
367.547715	2507.885818
367.935336	2507.222907
368.322893	2511.550737
368.710388	2509.234327
369.097820	2511.442352
369.485189	2507.154851
369.872495	2509.987979
370.259738	2505.831548
370.646918	2511.601149
371.034035	2509.720798
371.421090	2512.858917
371.808081	2510.623165
372.195010	2509.957733
372.581875	2510.850017
372.968678	2510.731550
373.355418	2507.169974
373.742096	2511.540655
374.128710	2514.093999
374.515262	2512.659791
374.901751	2509.922444
375.288177	2513.405882
375.674540	2511.424708
376.060841	2509.594769
376.447079	2515.006448
376.833254	2515.392096
377.219367	2511.636437
377.605417	2512.753052
377.991404	2511.628875
378.377329	2510.623165
378.763191	2510.207270
379.148991	2516.785975
379.534727	2513.035357
379.920402	2516.619617
380.306013	2515.596263
380.691563	2516.801099
381.077049	2516.566685
381.462474	2517.398476
381.847835	2515.560975
382.233134	2518.313445
382.618371	2517.900070
383.003545	2517.577437
383.388657	2517.209432
383.773706	2517.388393
384.158693	2517.975688
384.543618	2519.230935
384.928480	2520.644979
385.313280	2519.603980
385.698017	2520.370236
386.082692	2521.751512
386.467305	2518.658764
386.851856	2521.232273
387.236344	2520.849145
387.620770	2519.987108
388.005133	2522.968951
388.389435	2524.287212
388.773674	2521.640607
389.157851	2521.065915
389.541965	2520.902077
389.926018	2522.253107
390.310008	2523.954496
390.693936	2522.490041
391.077802	2525.222346
391.461606	2524.720752
391.845348	2522.936183
392.229027	2523.578930
392.612645	2523.984743
392.996200	2521.438960
393.379694	2522.059022
393.763125	2526.328880
394.146494	2525.678571
394.529801	2524.173786
394.913047	2525.282840
395.296230	2526.681760
395.679351	2526.172604
396.062410	2525.731503
396.445408	2527.889117
396.828343	2527.195958
397.211217	2521.892664
397.594028	2525.761750
397.976778	2523.513395
398.359466	2524.042716
398.742092	2523.692356
399.124656	2528.617563
399.507158	2524.650175
399.889598	2529.474560
400.271977	2526.543129
400.654294	2529.232584
401.036549	2527.921884
401.418742	2528.758716
401.800874	2526.986750
402.182944	2529.550177
402.564952	2529.635877
402.946898	2530.596216
403.328783	2529.048582
403.710606	2527.125382
404.092367	2532.153933
404.474067	2529.086391
404.855705	2530.061854
405.237282	2530.447502
405.618797	2530.298788
406.000250	2532.877338
406.381642	2532.128727
406.762972	2530.908768
407.144240	2535.788605
407.525447	2534.437576
407.906593	2535.491177
408.287677	2534.964376
408.668700	2534.049407
409.049661	2536.517052
409.430560	2534.707277
409.811399	2534.140148
410.192176	2534.109901
410.572891	2537.449665
410.953545	2535.402957
411.334138	2535.549150
411.714669	2535.607123
412.095139	2537.132072
412.475547	2537.807587
412.855894	2534.810621
413.236180	2539.458565
413.616405	2540.305479
413.996568	2540.512166
414.376670	2538.788091
414.756711	2535.581917
415.136691	2541.311189
415.516609	2536.963194
415.896466	2539.335057
416.276262	2541.759852
416.655997	2537.220292
417.035670	2537.842875
417.415283	2538.278935
417.794834	2534.737524
418.174324	2542.228679
418.553753	2541.500232
418.933121	2538.367155
419.312428	2543.017619
419.691674	2543.350336
420.070859	2544.217414
420.449983	2545.661705
420.829045	2544.739173
421.208047	2544.774462
421.586988	2547.100954
421.965867	2546.354863
422.344686	2548.288146
422.723444	2546.584236
423.102141	2553.929197
423.480777	2553.840977
423.859352	2554.841646
424.237866	2562.521844
424.616319	2562.882286
424.994712	2568.190621
425.373044	2570.801939
425.751314	2580.725450
426.129524	2581.446335
426.507673	2591.536205
426.885762	2597.847729
427.263789	2605.036415
427.641756	2610.972373
428.019662	2621.047119
428.397508	2628.727317
428.775292	2641.214255
429.153016	2652.329999
429.530679	2666.692247
429.908282	2677.480316
430.285824	2682.274453
430.663305	2711.576160
431.040726	2711.084647
431.418086	2725.068808
431.795385	2749.105030
432.172624	2764.664551
432.549802	2781.504526
432.926920	2799.516568
433.303977	2823.378870
433.680974	2842.598269
434.057910	2867.869573
434.434786	2889.002090
434.811601	2910.822725
435.188355	2958.086063
435.565050	2969.317753
435.941683	2996.116527
436.318257	3055.029972
436.694770	3079.759352
437.071222	3115.816205
437.447614	3137.223464
437.823946	3151.104282
438.200218	3213.760783
438.576429	3224.765622
438.952580	3281.954991
439.328670	3331.229750
439.704700	3349.161134
440.080670	3379.022409
440.456580	3490.315962
440.832429	3508.154085
441.208218	3507.786081
441.583947	3589.664502
441.959616	3633.255359
442.335224	3659.580264
442.710773	3744.359869
443.086261	3806.905465
443.461689	3777.230713
443.837057	3881.154099
444.212365	3993.579392
444.587612	3994.149042
444.962800	4106.997792
445.337927	4154.039319
445.712995	4036.560269
446.088002	4343.001929
446.462949	4322.376048
446.837837	4344.534440
447.212664	4468.602277
447.587431	4611.138382
447.962139	4948.865443
448.336786	5487.487525
448.711374	5413.173356
449.085901	4981.239733
449.460369	4999.375284
449.834776	5018.118294
450.209124	5308.703004
450.583412	5467.453980
450.957640	5601.742757
451.331808	5520.842320
451.705917	5293.372855
452.079965	5294.928051
452.453954	5493.088247
452.827883	5456.517197
453.201752	5577.094035
453.575562	5483.323532
453.949311	5678.995919
454.323001	5638.195340
454.696632	5737.914404
455.070202	5896.108333
455.443713	6051.199431
455.817164	6177.122413
456.190556	6291.387726
456.563888	6394.867491
456.937160	6468.932124
457.310373	6241.059367
457.683526	6301.832997
458.056619	6252.623774
458.429653	6282.961438
458.802628	6257.622078
459.175542	6381.526078
459.548398	6726.610703
459.921194	6888.943418
460.293930	6919.578510
460.666607	7409.061946
461.039224	7717.822536
461.411782	7863.426183
461.784280	7925.747447
462.156719	7864.661266
462.529099	7786.029348
462.901419	7444.728109
463.273680	7373.645319
463.645882	7408.991369
464.018024	7310.966133
464.390106	7488.233267
464.762130	7872.570836
465.134094	8333.770878
465.505999	9309.975197
465.877845	10481.335184
466.249631	11135.276181
466.621358	10808.682509
466.993026	10235.548687
467.364634	10012.810345
467.736184	9676.552781
468.107674	9373.634887
468.479105	9418.165920
468.850477	9198.588382
469.221790	8989.433429
469.593043	8678.333743
469.964238	8557.199858
470.335373	8571.927588
470.706449	8635.718349
471.077467	8627.090414
471.448425	9925.323641
471.819324	10992.987093
472.190164	11003.437405
472.560945	9782.346436
472.931667	9009.787088
473.302330	8882.724805
473.672934	8530.307822
474.043479	8889.774859
474.413965	8833.981889
474.784393	8720.165238
475.154761	8878.898570
475.525070	8965.992064
475.895321	8800.324625
476.265513	8981.085279
476.635645	9145.021081
477.005719	9146.687182
477.375734	9256.516281
477.745691	9495.086366
478.115588	9634.827151
478.485427	9881.097598
478.855207	10414.688609
479.224928	11221.860519
479.594591	11842.000580
479.964194	11658.328660
480.333739	11596.728281
480.703226	11522.409070
481.072653	11612.076074
481.442022	11843.389418
481.811333	12037.194057
482.180584	11841.612411
482.549777	11549.969058
482.918912	11381.042514
483.287988	11398.600852
483.657005	11415.826475
484.025964	11101.392066
484.394864	11229.828063
484.763706	11198.139370
485.132489	10952.456217
485.501213	10916.807697
485.869879	11001.186530
486.238487	10841.394556
486.607036	10951.410177
486.975527	10735.152239
487.343959	10922.247102
487.712333	10973.497993
488.080648	10895.090406
488.448905	10941.952973
488.817104	10881.791843
489.185244	11147.382512
489.553326	11303.121399
489.921350	11847.414779
490.289315	12896.075603
490.657222	13234.883991
491.025070	13135.553095
491.392861	13017.882482
491.760593	12638.054225
492.128267	12292.231071
492.495883	11968.062194
492.863440	11633.339661
493.230939	11299.075873
493.598380	11229.956612
493.965763	11100.368712
494.333088	11000.715182
494.700354	10916.437172
495.067563	10983.219858
495.434713	10812.486059
495.801805	10940.672519
496.168839	10864.717454
496.535815	10799.880654
496.902733	10800.951899
497.269593	10737.357744
497.636395	10834.231077
498.003139	10827.743112
498.369825	10696.852073
498.736453	10849.493170
499.103023	10778.422983
499.469535	10806.547580
499.835989	10794.131218
500.202385	10759.926989
500.568723	10614.381316
500.935003	10828.738739
501.301226	10640.844853
501.667390	10899.700542
502.033497	10994.297793
502.399546	10855.303100
502.765537	10764.663153
503.131470	10833.613535
503.497345	11011.223468
503.863163	10619.848447
504.228923	10931.858062
504.594625	10996.583957
504.960269	10740.838660
505.325856	10964.005500
505.691385	10752.700495
506.056856	10907.884855
506.422270	10936.188413
506.787625	10825.925776
507.152924	10940.828795
507.518164	10922.410940
507.883347	10844.530154
508.248472	10760.307597
508.613540	11002.275419
508.978550	10888.771320
509.343503	10857.672442
509.708398	10977.893879
510.073236	11080.584703
510.438016	11089.946126
510.802738	11045.873838
511.167403	11098.405182
511.532010	10993.876857
511.896561	11223.713143
512.261053	11286.041969
512.625488	11167.920173
512.989866	11151.039869
513.354186	11134.925821
513.718449	11037.331603
514.082655	11230.337219
514.446803	11122.196908
514.810894	11241.780639
515.174927	11112.074271
515.538904	11135.954217
515.902822	11283.405446
516.266684	11171.305308
516.630488	11111.960845
516.994235	11173.858652
517.357925	11229.321427
517.721558	11320.604120
518.085133	11338.021307
518.448651	11351.027484
518.812112	11235.431305
519.175516	11246.446227
519.538863	11363.199350
519.902152	11280.970569
520.265385	11442.194230
520.628560	11352.963287
520.991678	11329.413537
521.354739	11397.864844
521.717743	11327.122332
522.080690	11307.308077
522.443580	11445.344952
522.806413	11396.062632
523.169189	11428.928434
523.531908	11488.366158
523.894569	11310.791514
524.257174	11309.856380
524.619722	11423.131107
524.982213	11384.203317
525.344647	11429.886253
525.707025	11376.276103
526.069345	11464.650050
526.431608	11391.195397
526.793815	11499.716316
527.155964	11286.964501
527.518057	11342.815444
527.880093	11286.420056
528.242072	11353.943791
528.603995	11259.888463
528.965860	11180.928871
529.327669	11236.784855
529.689421	11179.550115
530.051117	11154.888790
530.412755	11262.530028
530.774337	11147.712708
531.135862	11126.983483
531.497331	11150.573563
531.858743	11004.990081
532.220098	11173.999805
532.581396	11039.348065
532.942638	11025.444563
533.303824	10990.325364
533.664953	11005.068219
534.026025	10917.621843
534.387040	11016.448623
534.747999	11018.598676
535.108902	11079.251318
535.469748	10830.132618
535.830537	10940.135637
536.191270	10912.956256
536.551947	10938.779566
536.912567	10939.122365
537.273131	10865.957578
537.633638	10846.019815
537.994089	10832.645634
538.354483	10780.084043
538.714821	10925.796074
539.075103	10934.794534
539.435328	10900.343289
539.795497	10727.966074
540.155609	10886.475074
540.515665	10969.447426
540.875665	10707.554442
541.235609	10772.411407
541.595496	10769.230439
541.955328	10924.974366
542.315102	10806.313167
542.674821	10758.265929
543.034483	10756.960270
543.394090	10762.687021
543.753640	10693.328306
544.113134	10905.959134
544.472571	10766.301528
544.831953	10906.622046
545.191278	10718.929806
545.550548	10743.936449
545.909761	10876.851512
546.268918	10852.996772
546.628019	10942.257962
546.987064	10804.216047
547.346053	10728.172761
547.704986	10829.366363
548.063863	10818.437142
548.422684	10803.409462
548.781449	10719.912831
549.140158	10826.354274
549.498811	10700.063288
549.857408	10562.134798
550.215949	10785.462954
550.574434	10639.637497
550.932864	10740.821016
551.291237	10800.994749
551.649555	10741.340255
552.007817	10755.889025
552.366022	10718.289579
552.724173	10712.232633
553.082267	10696.882319
553.440305	10829.646147
553.798288	10639.942487
554.156215	10786.997986
554.514086	10764.146435
554.871902	10613.093301
555.229661	10654.755917
555.587365	10630.235745
555.945014	10519.158961
556.302606	10641.122117
556.660143	10539.066478
557.017625	10689.497029
557.375050	10591.401216
557.732421	10727.121681
558.089735	10643.541871
558.446994	10640.023145
558.804197	10674.297950
559.161345	10681.247181
559.518437	10528.401917
559.875474	10618.419280
560.232455	10645.954063
560.589381	10601.309604
560.946251	10590.299724
561.303065	10696.983143
561.659825	10640.166818
562.016528	10563.904243
562.373177	10444.993506
562.729770	10558.449714
563.086307	10469.985026
563.442789	10570.026724
563.799216	10442.722466
564.155587	10499.248924
564.511904	10446.369741
564.868164	10441.457136
565.224370	10460.227873
565.580520	10374.770233
565.936615	10386.869002
566.292654	10256.736657
566.648638	10386.624506
567.004567	10343.568011
567.360441	10333.750364
567.716260	10236.912319
568.072023	10330.140898
568.427732	10281.324884
568.783385	10190.969763
569.138982	10259.602552
569.494525	10277.002095
569.850013	10154.769238
570.205445	10233.706145
570.560823	10136.671495
570.916145	10057.391789
571.271412	10122.256316
571.626625	10064.560310
571.981782	10042.028873
572.336884	10015.525007
572.691931	10023.028764
573.046923	9965.884765
573.401860	9926.954454
573.756743	9861.053971
574.111570	9898.088807
574.466342	9887.424246
574.821059	9917.363659
575.175722	9805.508017
575.530330	9818.352877
575.884882	9808.696547
576.239380	9741.795394
576.593823	9715.783040
576.948211	9734.571421
577.302544	9612.378892
577.656823	9625.498495
578.011047	9627.479669
578.365216	9601.134599
578.719330	9530.707159
579.073389	9538.135299
579.427394	9481.076999
579.781344	9463.090162
580.135239	9414.934540
580.489080	9419.085931
580.842866	9323.203184
581.196597	9328.587137
581.550273	9366.627684
581.903895	9333.769443
582.257463	9401.638497
582.610975	9280.673490
582.964434	9303.651069
583.317837	9226.639883
583.671186	9208.131286
584.024481	9202.402015
584.377721	9123.497875
584.730906	9104.167570
585.084037	9134.590934
585.437113	9064.879338
585.790135	9087.231814
586.143103	8989.267071
586.496016	8964.625911
586.848874	9021.457359
587.201679	9008.120987
587.554428	8887.256803
587.907124	8935.798073
588.259765	8917.402903
588.612352	8916.787882
588.964884	8791.865569
589.317362	8805.322929
589.669786	8810.560688
590.022155	8847.078807
590.374470	8865.163946
590.726731	8805.436355
591.078937	8660.409921
591.431090	8768.335983
591.783188	8641.235892
592.135232	8637.906210
592.487222	8635.390674
592.839157	8688.733644
593.191038	8625.212585
593.542866	8570.120335
593.894639	8470.003019
594.246358	8520.790124
594.598022	8534.978451
594.949633	8433.336187
595.301190	8410.446828
595.652692	8437.923637
596.004141	8546.714258
596.355535	8325.768046
596.706876	8303.241650
597.058162	8243.788802
597.409395	8321.185637
597.760573	8378.092703
598.111698	8293.391236
598.462768	8276.064790
598.813785	8244.141683
599.164748	8208.291517
599.515657	8195.721400
599.866511	8108.942978
600.217312	8235.944767
600.568060	8092.397911
600.918753	8195.474384
601.269392	8166.328953
601.619978	8081.307373
601.970510	8142.809450
602.320988	8138.453893
602.671412	8200.437400
603.021783	8129.578941
603.372100	8109.031198
603.722363	8109.626054
604.072572	8081.677897
604.422728	8095.173066
604.772830	8021.960389
605.122878	8027.684619
605.472872	8024.725462
605.822813	8056.804844
606.172701	8000.021287
606.522534	8070.814211
606.872314	8077.183709
607.222041	8047.534162
607.571714	8100.327646
607.921333	8052.771921
608.270899	8060.618477
608.620411	8151.485275
608.969870	8060.973879
609.319276	8056.444402
609.668627	8069.117863
610.017926	8101.661031
610.367171	8150.212384
610.716362	8119.627704
611.065500	8120.993856
611.414585	8139.845251
611.763616	8137.158316
612.112594	8112.693597
612.461518	8128.845453
612.810389	8184.285543
613.159207	8126.665154
613.507971	8071.709016
613.856682	8205.110549
614.205340	8148.901684
614.553945	8229.983602
614.902496	8129.329404
615.250994	8185.490379
615.599439	8161.459198
615.947830	8179.501488
616.296169	8149.544431
616.644454	8162.822830
616.992686	8163.715115
617.340864	8215.891057
617.688990	8125.987119
618.037063	8216.836273
618.385082	8162.538005
618.733048	8247.998166
619.080961	8183.791510
619.428821	8205.760858
619.776628	8210.827218
620.124382	8163.725197
620.472083	8142.474213
620.819731	8171.692741
621.167326	8068.109632
621.514868	8073.256650
621.862357	7960.980072
622.209793	7978.556054
622.557176	7917.346364
622.904506	7880.911425
623.251783	7816.021693
623.599007	7768.496215
623.946179	7775.785723
624.293297	7734.135710
624.640363	7649.656054
624.987376	7637.121225
625.334336	7581.895385
625.681243	7527.529061
626.028097	7516.922473
626.374899	7497.874473
626.721647	7485.750498
627.068343	7422.035355
627.414987	7391.286837
627.761577	7347.564910
628.108115	7382.895837
628.454600	7282.491175
628.801032	7330.246026
629.147412	7289.379912
629.493739	7283.310363
629.840014	7217.341824
630.186236	7277.255937
630.532405	7154.133316
630.878521	7204.532252
631.224585	7160.132289
631.570597	7092.714418
631.916556	7122.285827
632.262462	7120.483614
632.608316	7076.144146
632.954117	7060.647639
633.299866	7046.882768
633.645562	7030.481374
633.991206	6955.577390
634.336797	6900.782568
634.682336	6852.911771
635.027823	6825.382030
635.373257	6814.810730
635.718639	6746.495534
636.063968	6764.358863
636.409245	6654.169322
636.754470	6655.711915
637.099642	6610.936386
637.444762	6550.750051
637.789829	6562.760600
638.134845	6507.002918
638.479808	6491.221585
638.824719	6491.708057
639.169577	6427.413181
639.514383	6444.994205
639.859137	6375.401076
640.203839	6383.759309
640.548489	6368.177102
