Dividing Wavelength (nm)	Counts (n)	Blue Motor Position (mm): 31.200000	Red Motor Position (mm): 0.000000	
326.493990	2129.814403
326.888308	2129.814403
327.282561	2129.814403
327.676750	2098.692840
328.070874	2099.670824
328.464933	2100.918509
328.858929	2106.577205
329.252859	2118.282764
329.646726	2126.620832
330.040528	2141.414098
330.434265	2156.381284
330.827938	2174.955415
331.221547	2194.126923
331.615091	2212.610314
332.008571	2231.348283
332.401986	2252.901736
332.795338	2270.268511
333.188625	2290.191151
333.581847	2308.344346
333.975006	2326.777325
334.368100	2349.182733
334.761129	2364.124713
335.154095	2380.410161
335.546996	2400.531927
335.939833	2425.362130
336.332606	2441.176229
336.725315	2452.307097
337.117960	2461.164404
337.510540	2468.915178
337.903056	2481.266005
338.295508	2487.685915
338.687896	2493.241266
339.080220	2506.166785
339.472480	2512.702641
339.864676	2515.034174
340.256807	2521.388549
340.648875	2522.414424
341.040879	2526.233098
341.432818	2526.008766
341.824694	2530.152595
342.216506	2530.760054
342.608253	2530.203006
342.999937	2529.424148
343.391557	2529.882893
343.783113	2528.834333
344.174605	2527.468180
344.566033	2525.272758
344.957397	2527.195958
345.348697	2519.853518
345.739934	2521.444002
346.131106	2521.118847
346.522215	2517.101048
346.913260	2514.482168
347.304241	2515.134998
347.695159	2512.463186
348.086012	2510.073679
348.476802	2506.668380
348.867528	2510.023267
349.258191	2505.037566
349.648789	2507.104439
350.039324	2503.691578
350.429796	2503.310971
350.820203	2501.193687
351.210548	2500.049345
351.600828	2498.574807
351.991045	2497.604385
352.381198	2501.226454
352.771288	2495.754282
353.161314	2496.991885
353.551276	2498.335352
353.941175	2492.827892
354.331010	2497.894251
354.720782	2496.346617
355.110490	2495.275372
355.500135	2497.085146
355.889717	2496.671772
356.279235	2496.308808
356.668689	2498.418531
357.058080	2497.359889
357.447408	2496.994405
357.836672	2490.642552
358.225873	2495.484580
358.615010	2492.956441
359.004084	2498.489108
359.393095	2499.482215
359.782043	2501.564211
360.170927	2501.619664
360.559748	2499.585558
360.948505	2502.355672
361.337199	2503.999089
361.725830	2501.569253
362.114398	2504.452793
362.502903	2504.271311
362.891344	2502.842144
363.279722	2504.200735
363.668037	2505.788698
364.056289	2507.361538
364.444478	2506.756600
364.832603	2506.728873
365.220665	2507.331291
365.608665	2507.356497
365.996601	2507.883298
366.384474	2507.679131
366.772284	2507.858092
367.160031	2507.449758
367.547715	2509.287259
367.935336	2508.014368
368.322893	2509.282218
368.710388	2511.452435
369.097820	2513.113495
369.485189	2510.736591
369.872495	2510.116529
370.259738	2513.083248
370.646918	2511.235665
371.034035	2512.238855
371.421090	2510.628206
371.808081	2512.591735
372.195010	2512.143073
372.581875	2512.679956
372.968678	2514.396468
373.355418	2514.474606
373.742096	2516.735564
374.128710	2514.935872
374.515262	2513.645337
374.901751	2518.121881
375.288177	2513.864627
375.674540	2512.889163
376.060841	2515.893691
376.447079	2514.441839
376.833254	2516.657426
377.219367	2511.979235
377.605417	2514.827487
377.991404	2511.086951
378.377329	2514.204905
378.763191	2511.472599
379.148991	2518.444515
379.534727	2517.769000
379.920402	2518.489885
380.306013	2518.358815
380.691563	2517.829494
381.077049	2516.629700
381.462474	2517.658095
381.847835	2519.853517
382.233134	2519.258661
382.618371	2518.620955
383.003545	2517.363187
383.388657	2519.377128
383.773706	2519.717406
384.158693	2519.014165
384.543618	2520.541635
384.928480	2520.554238
385.313280	2522.742099
385.698017	2518.139525
386.082692	2522.732016
386.467305	2519.568692
386.851856	2522.041378
387.236344	2523.079856
387.620770	2523.074815
388.005133	2521.494413
388.389435	2523.006759
388.773674	2522.956348
389.157851	2523.621780
389.541965	2522.094310
389.926018	2522.089269
390.310008	2522.182531
390.693936	2523.654547
391.077802	2523.132788
391.461606	2525.285361
391.845348	2524.118334
392.229027	2524.546832
392.612645	2525.852491
392.996200	2524.766122
393.379694	2526.253262
393.763125	2526.991791
394.146494	2526.321318
394.529801	2527.664785
394.913047	2525.227388
395.296230	2527.483304
395.679351	2528.925074
396.062410	2529.779549
396.445408	2528.352903
396.828343	2527.899199
397.211217	2523.775535
397.594028	2527.266534
397.976778	2525.189579
398.359466	2526.722090
398.742092	2527.198479
399.124656	2530.893644
399.507158	2529.046062
399.889598	2529.608150
400.271977	2530.139992
400.654294	2531.115455
401.036549	2528.705784
401.418742	2532.930271
401.800874	2531.564118
402.182944	2532.811803
402.564952	2531.478418
402.946898	2536.915303
403.328783	2533.910775
403.710606	2535.476053
404.092367	2535.105528
404.474067	2534.908923
404.855705	2532.980682
405.237282	2534.331711
405.618797	2530.896165
406.000250	2534.427493
406.381642	2534.422452
406.762972	2534.508152
407.144240	2536.822041
407.525447	2538.505787
407.906593	2536.668286
408.287677	2535.055117
408.668700	2537.784902
409.049661	2536.343132
409.430560	2539.834131
409.811399	2537.981507
410.192176	2536.360776
410.572891	2540.774306
410.953545	2540.086188
411.334138	2539.781199
411.714669	2539.571991
412.095139	2539.274563
412.475547	2540.887732
412.855894	2542.389996
413.236180	2541.477547
413.616405	2545.407126
413.996568	2542.132897
414.376670	2544.285470
414.756711	2544.023330
415.136691	2545.497867
415.516609	2545.389482
415.896466	2542.122815
416.276262	2548.230172
416.655997	2546.203629
417.035670	2547.345450
417.415283	2550.503733
417.794834	2548.746891
418.174324	2554.821481
418.553753	2555.973385
418.933121	2562.521844
419.312428	2565.642318
419.691674	2571.353945
420.070859	2574.923082
420.449983	2580.576736
420.829045	2587.289032
421.208047	2596.219437
421.586988	2603.392998
421.965867	2613.785337
422.344686	2627.197327
422.723444	2634.012967
423.102141	2635.542957
423.480777	2655.223622
423.859352	2658.039106
424.237866	2681.702282
424.616319	2696.735003
424.994712	2715.243599
425.373044	2723.180896
425.751314	2750.347674
426.129524	2751.686101
426.507673	2785.025772
426.885762	2807.680717
427.263789	2828.780466
427.641756	2831.250632
428.019662	2868.890407
428.397508	2888.450084
428.775292	2914.555699
429.153016	2951.393931
429.530679	2964.432875
429.908282	3004.729338
430.285824	3011.570184
430.663305	3085.579364
431.040726	3074.549319
431.418086	3103.248608
431.795385	3158.345899
432.172624	3191.443595
432.549802	3225.206722
432.926920	3262.995212
433.303977	3303.979793
433.680974	3353.491485
434.057910	3396.391704
434.434786	3439.342335
434.811601	3473.385247
435.188355	3574.152871
435.565050	3585.218204
435.941683	3627.243783
436.318257	3744.629571
436.694770	3787.844862
437.071222	3851.073534
437.447614	3871.676730
437.823946	3883.243657
438.200218	3996.972088
438.576429	3991.121829
438.952580	4087.894339
439.328670	4153.406654
439.704700	4167.652955
440.080670	4204.854149
440.456580	4395.432450
440.832429	4390.635792
441.208218	4362.710320
441.583947	4494.584384
441.959616	4549.109504
442.335224	4557.427408
442.710773	4689.591339
443.086261	4761.047174
443.461689	4678.669679
443.837057	4822.080423
444.212365	4975.515503
444.587612	4951.128921
444.962800	5101.040233
445.337927	5138.929546
445.712995	4917.822017
446.088002	5367.235842
446.462949	5296.914266
446.837837	5291.568122
447.212664	5457.603565
447.587431	5612.747596
447.962139	6076.848822
448.336786	6822.052348
448.711374	6678.324010
449.085901	6003.729406
449.460369	5994.867057
449.834776	5982.228884
450.209124	6345.396128
450.583412	6513.894175
450.957640	6663.750035
451.331808	6509.916704
451.705917	6169.341392
452.079965	6132.087265
452.453954	6352.708322
452.827883	6273.736126
453.201752	6381.876438
453.575562	6225.557819
453.949311	6442.463545
454.323001	6361.595876
454.696632	6455.983920
455.070202	6605.731395
455.443713	6770.244410
455.817164	6885.903602
456.190556	6987.185424
456.563888	7076.106337
456.937160	7130.528113
457.310373	6828.225241
457.683526	6865.398709
458.056619	6775.872858
458.429653	6781.392921
458.802628	6723.981741
459.175542	6839.492219
459.548398	7198.976900
459.921194	7356.434820
460.293930	7375.039198
460.666607	7903.717605
461.039224	8210.262609
461.411782	8342.187084
461.784280	8371.357721
462.156719	8273.183770
462.529099	8160.957603
462.901419	7762.308198
463.273680	7662.095101
463.645882	7682.105961
464.018024	7554.799183
464.390106	7715.354892
464.762130	8108.423739
465.134094	8576.210049
465.505999	9589.320655
465.877845	10806.421551
466.249631	11453.209152
466.621358	11071.170348
466.993026	10448.247571
467.364634	10204.631290
467.736184	9836.904323
468.107674	9512.485908
468.479105	9554.261950
468.850477	9316.463162
469.221790	9084.207122
469.593043	8767.773895
469.964238	8629.868090
470.335373	8640.756982
470.706449	8697.906023
471.077467	8687.186009
471.448425	9993.845525
471.819324	11057.123173
472.190164	11073.701008
472.560945	9829.110699
472.931667	9048.903921
473.302330	8916.729909
473.672934	8565.840395
474.043479	8920.586391
474.413965	8866.388946
474.784393	8748.163806
475.154761	8902.067713
475.525070	8993.630190
475.895321	8819.286925
476.265513	8998.371395
476.635645	9154.705138
477.005719	9159.567331
477.375734	9281.764900
477.745691	9515.911373
478.115588	9650.079162
478.485427	9891.348785
478.855207	10427.856103
479.224928	11236.459701
479.594591	11858.948939
479.964194	11671.317193
480.333739	11616.192176
480.703226	11526.905780
481.072653	11611.864345
481.442022	11853.827127
481.811333	12038.293029
482.180584	11852.740758
482.549777	11562.274515
482.918912	11378.751309
483.287988	11409.751885
483.657005	11417.530385
484.025964	11105.442633
484.394864	11235.212015
484.763706	11201.317817
485.132489	10961.663884
485.501213	10930.350757
485.869879	10999.749801
486.238487	10843.721049
486.607036	10955.473347
486.975527	10730.726106
487.343959	10926.317834
487.712333	10977.326749
488.080648	10902.432847
488.448905	10953.507297
488.817104	10885.305527
489.185244	11150.797894
489.553326	11310.473922
489.921350	11852.576921
490.289315	12901.305800
490.657222	13244.535280
491.025070	13140.863951
491.392861	13023.984799
491.760593	12642.092189
492.128267	12295.149899
492.495883	11964.367028
492.863440	11630.932510
493.230939	11302.271964
493.598380	11231.184133
493.965763	11103.894999
494.333088	10997.342650
494.700354	10924.928996
495.067563	10981.803294
495.434713	10820.430918
495.801805	10945.423807
496.168839	10872.216171
496.535815	10805.912395
496.902733	10800.354523
497.269593	10738.996119
497.636395	10837.752322
498.003139	10819.863788
498.369825	10693.363594
498.736453	10847.174239
499.103023	10777.245873
499.469535	10805.867024
499.835989	10795.479727
500.202385	10761.058728
500.568723	10612.442992
500.935003	10836.489513
501.301226	10644.701336
501.667390	10905.696994
502.033497	10994.892650
502.399546	10853.100115
502.765537	10765.010993
503.131470	10833.812661
503.497345	11016.536844
503.863163	10622.827769
504.228923	10933.362846
504.594625	10996.349543
504.960269	10746.257901
505.325856	10964.058432
505.691385	10758.336505
506.056856	10909.248487
506.422270	10933.945100
506.787625	10822.273460
507.152924	10943.427510
507.518164	10924.472772
507.883347	10845.722387
508.248472	10765.666343
508.613540	10994.988432
508.978550	10885.343335
509.343503	10856.999448
509.708398	10978.952521
510.073236	11088.753893
510.438016	11091.962588
510.802738	11047.953314
511.167403	11093.492578
511.532010	10992.067083
511.896561	11218.813142
512.261053	11287.110694
512.625488	11166.455718
512.989866	11146.064251
513.354186	11136.498661
513.718449	11041.477952
514.082655	11228.958464
514.446803	11124.392330
514.810894	11251.053841
515.174927	11109.321801
515.538904	11132.158228
515.902822	11287.287134
516.266684	11169.356902
516.630488	11115.043510
516.994235	11182.143789
517.357925	11233.109854
517.721558	11316.684623
518.085133	11340.070536
518.448651	11351.206445
518.812112	11230.241437
519.175516	11245.437996
519.538863	11363.365708
519.902152	11286.160437
520.265385	11443.361258
520.628560	11353.288441
520.991678	11333.945534
521.354739	11395.369473
521.717743	11329.390851
522.080690	11306.846811
522.443580	11446.779160
522.806413	11395.896273
523.169189	11431.809453
523.531908	11487.153761
523.894569	11307.391256
524.257174	11305.039558
524.619722	11426.203690
524.982213	11377.097811
525.344647	11436.646441
525.707025	11375.560259
526.069345	11471.223715
526.431608	11389.894780
526.793815	11495.028043
527.155964	11287.274532
527.518057	11335.220946
527.880093	11289.701847
528.242072	11356.592918
528.603995	11258.187074
528.965860	11180.613798
529.327669	11234.609597
529.689421	11185.228975
530.051117	11149.603141
530.412755	11260.506005
530.774337	11156.075982
531.135862	11130.532456
531.497331	11149.030970
531.858743	11005.879844
532.220098	11171.005359
532.581396	11034.523681
532.942638	11024.925324
533.303824	10985.730353
533.664953	11000.604277
534.026025	10918.294837
534.387040	11019.367452
534.747999	11015.689930
535.108902	11079.208468
535.469748	10832.323000
535.830537	10940.060019
536.191270	10914.529096
536.551947	10937.670512
536.912567	10940.410379
537.273131	10870.797086
537.633638	10850.612306
537.994089	10833.331231
538.354483	10777.835688
538.714821	10929.080386
539.075103	10935.689339
539.435328	10895.889429
539.795497	10720.467358
540.155609	10880.491225
540.515665	10973.112344
540.875665	10707.073012
541.235609	10776.688826
541.595496	10772.171952
541.955328	10929.322362
542.315102	10808.064968
542.674821	10760.970508
543.034483	10760.751218
543.394090	10754.820301
543.753640	10685.595176
544.113134	10914.682851
544.472571	10772.580286
544.831953	10904.159442
545.191278	10719.464168
545.550548	10748.942315
545.909761	10882.298478
546.268918	10858.491629
546.628019	10950.044024
546.987064	10809.300050
547.346053	10724.838038
547.704986	10826.039202
548.063863	10813.731224
548.422684	10809.037910
548.781449	10728.518080
549.140158	10822.742287
549.498811	10699.516322
549.857408	10559.004241
550.215949	10784.600917
550.574434	10641.134720
550.932864	10733.639893
551.291237	10799.719337
551.649555	10741.529298
552.007817	10760.070662
552.366022	10719.600279
552.724173	10713.288755
553.082267	10703.584533
553.440305	10833.681591
553.798288	10640.607919
554.156215	10780.404156
554.514086	10761.603173
554.871902	10610.194638
555.229661	10661.216156
555.587365	10626.351536
555.945014	10521.019147
556.302606	10643.320060
556.660143	10548.034690
557.017625	10689.718840
557.375050	10591.955743
557.732421	10722.030115
558.089735	10635.574327
558.446994	10642.858794
558.804197	10686.575680
559.161345	10684.977635
559.518437	10527.476865
559.875474	10612.793353
560.232455	10642.042127
560.589381	10597.135529
560.946251	10590.098078
561.303065	10698.644203
561.659825	10637.326128
562.016528	10568.947917
562.373177	10444.615419
562.729770	10558.348891
563.086307	10474.297733
563.442789	10570.717362
563.799216	10446.054669
564.155587	10498.641465
564.511904	10450.808477
564.868164	10444.587693
565.224370	10456.371390
565.580520	10381.969000
565.936615	10391.222038
566.292654	10255.438559
566.648638	10387.277335
567.004567	10343.348721
567.360441	10326.672584
567.716260	10237.252597
568.072023	10331.315487
568.427732	10275.731724
568.783385	10191.141163
569.138982	10264.368963
569.494525	10281.531572
569.850013	10152.699844
570.205445	10232.493748
570.560823	10132.918356
570.916145	10053.681500
571.271412	10125.553231
571.626625	10065.190454
571.981782	10047.690089
572.336884	10018.335450
572.691931	10024.324341
573.046923	9967.379467
573.401860	9929.684239
573.756743	9855.128094
574.111570	9910.537937
574.466342	9888.661850
574.821059	9912.882073
575.175722	9810.077823
575.530330	9818.181478
575.884882	9809.641763
576.239380	9740.623326
576.593823	9713.259943
576.948211	9730.798117
577.302544	9610.987534
577.656823	9628.238362
578.011047	9623.552610
578.365216	9608.237585
578.719330	9525.512250
579.073389	9538.999857
579.427394	9484.633533
579.781344	9462.213002
580.135239	9414.332122
580.489080	9419.277494
580.842866	9323.094800
581.196597	9330.462446
581.550273	9370.012818
581.903895	9339.017284
582.257463	9405.505062
582.610975	9277.656359
582.964434	9306.196852
583.317837	9228.668947
583.671186	9209.293272
584.024481	9206.646666
584.377721	9126.101631
584.730906	9102.509031
585.084037	9136.614957
585.437113	9066.447137
585.790135	9090.601825
586.143103	8988.092482
586.496016	8964.273031
586.848874	9021.595991
587.201679	9009.550154
587.554428	8895.884737
587.907124	8940.708157
588.259765	8911.184639
588.612352	8912.742356
588.964884	8793.027555
589.317362	8808.314854
589.669786	8805.547261
590.022155	8856.047019
590.374470	8868.334832
590.726731	8810.175040
591.078937	8659.842791
591.431090	8769.077033
591.783188	8645.747725
592.135232	8636.262794
592.487222	8637.933936
592.839157	8685.832460
593.191038	8617.497099
593.542866	8571.514214
593.894639	8473.206673
594.246358	8518.889609
594.598022	8533.324953
594.949633	8433.494983
595.301190	8409.667970
595.652692	8438.470602
596.004141	8545.917755
596.355535	8332.598810
596.706876	8311.405799
597.058162	8248.230059
597.409395	8321.155390
597.760573	8385.571254
598.111698	8284.178527
598.462768	8275.850541
598.813785	8241.442145
599.164748	8208.644398
599.515657	8201.059982
599.866511	8109.358873
600.217312	8237.691527
600.568060	8095.001667
600.918753	8199.908079
601.269392	8168.315168
601.619978	8081.594718
601.970510	8141.859192
602.320988	8140.467834
602.671412	8199.504786
603.021783	8132.591031
603.372100	8104.022812
603.722363	8111.352650
604.072572	8085.763753
604.422728	8094.699198
604.772830	8027.944239
605.122878	8030.109414
605.472872	8024.110441
605.822813	8056.177221
606.172701	8000.593458
606.522534	8075.905776
606.872314	8073.359994
607.222041	8044.592649
607.571714	8101.290507
607.921333	8060.487407
608.270899	8061.704846
608.620411	8150.214905
608.969870	8061.883807
609.319276	8049.091879
609.668627	8066.007471
610.017926	8104.794108
610.367171	8155.999629
610.716362	8129.074826
611.065500	8113.941282
611.414585	8144.793144
611.763616	8131.804611
612.112594	8115.463711
612.461518	8128.278324
612.810389	8187.010287
613.159207	8124.074001
613.507971	8081.687980
613.856682	8197.712656
614.205340	8155.964341
614.553945	8231.238850
614.902496	8131.718911
615.250994	8181.744801
615.599439	8164.347779
615.947830	8181.175151
616.296169	8148.783217
616.644454	8166.517996
616.992686	8167.138058
617.340864	8223.982109
617.688990	8123.930328
618.037063	8217.383238
618.385082	8160.158581
618.733048	8249.381963
619.080961	8191.375926
619.428821	8209.551806
619.776628	8211.399389
620.124382	8162.147316
620.472083	8147.754822
620.819731	8167.944643
621.167326	8065.765495
621.514868	8075.575581
621.862357	7962.522665
622.209793	7984.083680
622.557176	7915.211436
622.904506	7879.903194
623.251783	7821.319945
623.599007	7772.246833
623.946179	7773.890249
624.293297	7734.160916
624.640363	7650.628997
624.987376	7637.272460
625.334336	7581.678615
625.681243	7536.409053
626.028097	7517.643358
626.374899	7493.561766
626.721647	7493.075295
627.068343	7425.997702
627.414987	7397.164823
627.761577	7347.935435
628.108115	7387.737865
628.454600	7282.128212
628.801032	7331.082857
629.147412	7291.393853
629.493739	7280.479755
629.840014	7220.152267
630.186236	7272.348374
630.532405	7154.667678
630.878521	7211.426030
631.224585	7162.751169
631.570597	7088.772236
631.916556	7123.263811
632.262462	7114.499765
632.608316	7078.815957
632.954117	7059.100004
633.299866	7040.034361
633.645562	7032.407095
633.991206	6957.334232
634.336797	6897.402474
634.682336	6858.804880
635.027823	6823.000085
635.373257	6814.067160
635.718639	6747.360092
636.063968	6758.526248
636.409245	6656.294168
636.754470	6651.195041
637.099642	6608.821622
637.444762	6553.439506
637.789829	6566.102885
638.134845	6505.472927
638.479808	6491.483725
638.824719	6499.168964
639.169577	6422.664414
639.514383	6449.221212
639.859137	6374.667588
640.203839	6382.196551
640.548489	6365.787595
