Dividing Wavelength (nm)	Counts (n)	Blue Motor Position (mm): 10.600000	Red Motor Position (mm): 0.000000	
326.493990	2138.888480
326.888308	2138.888480
327.282561	2138.888480
327.676750	2105.692482
328.070874	2103.983531
328.464933	2107.325816
328.858929	2116.888885
329.252859	2122.552621
329.646726	2136.080558
330.040528	2145.807464
330.434265	2167.776812
330.827938	2183.144770
331.221547	2198.240505
331.615091	2220.434185
332.008571	2241.120560
332.401986	2259.936666
332.795338	2278.924172
333.188625	2295.565021
333.581847	2316.450522
333.975006	2335.017091
334.368100	2352.225070
334.761129	2370.264839
335.154095	2389.527088
335.546996	2407.708009
335.939833	2423.471697
336.332606	2436.878646
336.725315	2449.748712
337.117960	2459.294136
337.510540	2467.589355
337.903056	2479.161324
338.295508	2484.779690
338.687896	2495.207316
339.080220	2503.351300
339.472480	2510.555109
339.864676	2513.685666
340.256807	2518.981398
340.648875	2518.084072
341.040879	2524.446009
341.432818	2526.457429
341.824694	2526.631349
342.216506	2527.016997
342.608253	2525.860052
342.999937	2527.410207
343.391557	2529.570342
343.783113	2525.285361
344.174605	2524.650175
344.566033	2520.312262
344.957397	2522.805113
345.348697	2521.814526
345.739934	2518.767149
346.131106	2515.399658
346.522215	2517.106089
346.913260	2514.701458
347.304241	2512.090141
347.695159	2509.559481
348.086012	2508.427742
348.476802	2508.425222
348.867528	2506.509583
349.258191	2502.869870
349.648789	2503.247957
350.039324	2501.400374
350.429796	2500.500528
350.820203	2494.725886
351.210548	2497.395177
351.600828	2495.398880
351.991045	2495.338386
352.381198	2493.218581
352.771288	2493.911740
353.161314	2491.305463
353.551276	2497.846360
353.941175	2494.914929
354.331010	2493.987357
354.720782	2493.132882
355.110490	2493.823520
355.500135	2496.376864
355.889717	2493.836123
356.279235	2493.092552
356.668689	2495.267810
357.058080	2493.253869
357.447408	2492.941318
357.836672	2492.636328
358.225873	2495.230002
358.615010	2491.335710
359.004084	2496.268479
359.393095	2496.013901
359.782043	2498.262256
360.170927	2499.131855
360.559748	2499.457009
360.948505	2498.539519
361.337199	2502.580004
361.725830	2499.131855
362.114398	2497.775784
362.502903	2501.113028
362.891344	2502.469098
363.279722	2500.311485
363.668037	2502.879953
364.056289	2503.789881
364.444478	2501.125631
364.832603	2505.685355
365.220665	2505.675272
365.608665	2504.049500
365.996601	2503.195025
366.384474	2507.600993
366.772284	2506.693585
367.160031	2503.484891
367.547715	2507.684172
367.935336	2505.198883
368.322893	2505.680313
368.710388	2507.227948
369.097820	2511.064266
369.485189	2505.251815
369.872495	2509.410767
370.259738	2506.035715
370.646918	2509.589728
371.034035	2509.567043
371.421090	2511.578463
371.808081	2509.380520
372.195010	2507.810201
372.581875	2509.854389
372.968678	2510.673576
373.355418	2510.028309
373.742096	2511.376817
374.128710	2509.330109
374.515262	2512.541324
374.901751	2512.334637
375.288177	2512.967301
375.674540	2510.950840
376.060841	2510.038391
376.447079	2511.369256
376.833254	2511.016375
377.219367	2508.601662
377.605417	2512.821108
377.991404	2508.851199
378.377329	2509.990500
378.763191	2509.277177
379.148991	2510.179543
379.534727	2515.807992
379.920402	2514.469565
380.306013	2514.797240
380.691563	2514.530059
381.077049	2515.934020
381.462474	2512.977384
381.847835	2515.147600
382.233134	2512.183402
382.618371	2515.598784
383.003545	2518.179854
383.388657	2514.693897
383.773706	2514.646006
384.158693	2515.876047
384.543618	2517.675739
384.928480	2515.722292
385.313280	2516.836387
385.698017	2516.725482
386.082692	2515.656757
386.467305	2516.455780
386.851856	2520.246727
387.236344	2516.493588
387.620770	2518.991480
388.005133	2520.269413
388.389435	2520.637417
388.773674	2517.274967
389.157851	2516.838908
389.541965	2521.754033
389.926018	2518.489885
390.310008	2518.573064
390.693936	2518.046264
391.077802	2519.966943
391.461606	2520.266892
391.845348	2519.614063
392.229027	2521.650689
392.612645	2521.252438
392.996200	2521.214629
393.379694	2521.254958
393.763125	2518.905781
394.146494	2524.007428
394.529801	2520.657582
394.913047	2522.948786
395.296230	2522.893333
395.679351	2521.454084
396.062410	2522.805113
396.445408	2521.940555
396.828343	2523.057171
397.211217	2520.821419
397.594028	2521.214629
397.976778	2517.574916
398.359466	2521.998528
398.742092	2519.281347
399.124656	2524.435926
399.507158	2524.750998
399.889598	2522.306039
400.271977	2523.183200
400.654294	2525.421472
401.036549	2525.514733
401.418742	2525.645803
401.800874	2527.788294
402.182944	2523.664630
402.564952	2525.310567
402.946898	2526.170083
403.328783	2524.035155
403.710606	2527.362316
404.092367	2524.574558
404.474067	2527.677388
404.855705	2526.293592
405.237282	2526.051616
405.618797	2524.909795
406.000250	2527.805938
406.381642	2528.388191
406.762972	2525.570186
407.144240	2523.805782
407.525447	2528.894827
407.906593	2529.141843
408.287677	2527.543798
408.668700	2527.057326
409.049661	2528.768798
409.430560	2527.127902
409.811399	2529.063706
410.192176	2527.495907
410.572891	2527.947090
410.953545	2526.427182
411.334138	2527.200999
411.714669	2529.391381
412.095139	2529.913140
412.475547	2531.796011
412.855894	2528.131092
413.236180	2529.459436
413.616405	2529.484642
413.996568	2531.314581
414.376670	2530.215609
414.756711	2532.693336
415.136691	2529.414066
415.516609	2532.370702
415.896466	2529.628315
416.276262	2531.397760
416.655997	2526.039013
417.035670	2530.122348
417.415283	2531.813655
417.794834	2527.919364
418.174324	2531.385157
418.553753	2530.772657
418.933121	2531.770805
419.312428	2530.800383
419.691674	2534.906403
420.070859	2532.274921
420.449983	2530.671834
420.829045	2531.049920
421.208047	2532.358100
421.586988	2532.242153
421.965867	2530.848274
422.344686	2532.022863
422.723444	2535.039993
423.102141	2534.321629
423.480777	2534.954294
423.859352	2531.659900
424.237866	2534.198121
424.616319	2531.916999
424.994712	2535.594520
425.373044	2534.626619
425.751314	2535.662576
426.129524	2533.255425
426.507673	2533.696526
426.885762	2534.119983
427.263789	2534.687113
427.641756	2535.579397
428.019662	2534.409849
428.397508	2535.518903
428.775292	2535.597041
429.153016	2535.276928
429.530679	2536.605272
429.908282	2532.859694
430.285824	2535.856660
430.663305	2535.319778
431.040726	2536.017977
431.418086	2535.322298
431.795385	2536.706095
432.172624	2533.973789
432.549802	2536.595189
432.926920	2539.151054
433.303977	2535.460930
433.680974	2537.913451
434.057910	2536.164171
434.434786	2537.656352
434.811601	2536.040662
435.188355	2539.229192
435.565050	2537.298430
435.941683	2538.914120
436.318257	2533.469674
436.694770	2532.499252
437.071222	2534.482946
437.447614	2531.475898
437.823946	2535.395395
438.200218	2539.491332
438.576429	2539.703061
438.952580	2536.643080
439.328670	2536.317926
439.704700	2536.683410
440.080670	2537.641229
440.456580	2538.813297
440.832429	2540.199614
441.208218	2539.934954
441.583947	2537.676517
441.959616	2538.137783
442.335224	2540.028215
442.710773	2539.282124
443.086261	2540.718853
443.461689	2541.099460
443.837057	2538.714995
444.212365	2539.471168
444.587612	2537.356404
444.962800	2537.787422
445.337927	2540.302958
445.712995	2538.969573
446.088002	2543.244471
446.462949	2537.719367
446.837837	2539.511497
447.212664	2538.016795
447.587431	2541.278421
447.962139	2538.876312
448.336786	2540.413863
448.711374	2538.815818
449.085901	2540.184491
449.460369	2537.711805
449.834776	2538.924202
450.209124	2539.219110
450.583412	2540.365973
450.957640	2540.527289
451.331808	2541.422094
451.705917	2542.427804
452.079965	2541.459903
452.453954	2541.217927
452.827883	2540.688606
453.201752	2539.037628
453.575562	2544.038453
453.949311	2541.250695
454.323001	2541.545602
454.696632	2539.690458
455.070202	2544.167002
455.443713	2541.028884
455.817164	2541.164995
456.190556	2537.545447
456.563888	2539.604758
456.937160	2536.045704
457.310373	2545.366797
457.683526	2542.087527
458.056619	2540.970911
458.429653	2545.518032
458.802628	2541.701878
459.175542	2542.395037
459.548398	2539.778678
459.921194	2542.778165
460.293930	2544.179605
460.666607	2545.023999
461.039224	2543.635161
461.411782	2543.335212
461.784280	2542.629451
462.156719	2545.023999
462.529099	2546.027188
462.901419	2545.094575
463.273680	2544.766900
463.645882	2542.876467
464.018024	2543.204142
464.390106	2542.024512
464.762130	2544.293031
465.134094	2543.632640
465.505999	2546.339740
465.877845	2544.645912
466.249631	2544.940820
466.621358	2546.589277
466.993026	2545.225645
467.364634	2545.094575
467.736184	2541.691796
468.107674	2543.360418
468.479105	2544.018288
468.850477	2543.945192
469.221790	2543.105840
469.593043	2546.954761
469.964238	2545.288659
470.335373	2544.363607
470.706449	2548.298228
471.077467	2543.816642
471.448425	2542.692465
471.819324	2544.829914
472.190164	2544.174564
472.560945	2548.162117
472.931667	2547.093392
473.302330	2543.010058
473.672934	2544.582898
474.043479	2544.542568
474.413965	2544.025850
474.784393	2541.752290
475.154761	2543.156251
475.525070	2541.913607
475.895321	2540.048380
476.265513	2540.786909
476.635645	2545.049204
477.005719	2544.083823
477.375734	2547.060625
477.745691	2548.709082
478.115588	2545.659184
478.485427	2544.948381
478.855207	2546.732950
479.224928	2547.915100
479.594591	2548.240255
479.964194	2545.903680
480.333739	2546.165820
480.703226	2547.108516
481.072653	2547.894936
481.442022	2544.996272
481.811333	2546.155738
482.180584	2546.543907
482.549777	2548.159596
482.918912	2546.677497
483.287988	2548.701520
483.657005	2547.637837
484.025964	2548.061294
484.394864	2549.301418
484.763706	2546.891746
485.132489	2548.189843
485.501213	2546.556509
485.869879	2547.380738
486.238487	2545.649102
486.607036	2547.153886
486.975527	2549.377035
487.343959	2545.694472
487.712333	2548.182282
488.080648	2548.527601
488.448905	2550.279402
488.817104	2549.223280
489.185244	2550.047508
489.553326	2549.558517
489.921350	2548.842673
490.289315	2550.672612
490.657222	2552.792417
491.025070	2547.468958
491.392861	2550.622200
491.760593	2546.586756
492.128267	2549.248486
492.495883	2551.433826
492.863440	2550.289484
493.230939	2548.154555
493.598380	2548.502395
493.965763	2547.269833
494.333088	2546.513660
494.700354	2543.158772
495.067563	2547.859648
495.434713	2541.517876
495.801805	2545.848227
496.168839	2547.171530
496.535815	2548.935934
496.902733	2548.487271
497.269593	2549.908877
497.636395	2548.273022
498.003139	2550.796120
498.369825	2548.978784
498.736453	2548.552806
499.103023	2549.717313
499.469535	2548.741850
499.835989	2549.271171
500.202385	2550.012220
500.568723	2547.244627
500.935003	2551.390976
501.301226	2548.751932
501.667390	2551.224618
502.033497	2550.198743
502.399546	2549.626572
502.765537	2548.968702
503.131470	2553.092365
503.497345	2550.642365
503.863163	2551.421223
504.228923	2551.028013
504.594625	2551.597663
504.960269	2547.680687
505.325856	2551.141439
505.691385	2550.019782
506.056856	2549.694628
506.422270	2548.709082
506.787625	2551.365770
507.152924	2548.429298
507.518164	2549.578681
507.883347	2549.818136
508.248472	2550.231511
508.613540	2550.102961
508.978550	2549.339226
509.343503	2551.559855
509.708398	2549.475337
510.073236	2550.841490
510.438016	2552.424413
510.802738	2548.925852
511.167403	2551.116233
511.532010	2553.578837
511.896561	2554.672767
512.261053	2551.567416
512.625488	2548.492313
512.989866	2546.982487
513.354186	2548.381407
513.718449	2546.725388
514.082655	2549.687066
514.446803	2553.291491
514.810894	2549.316541
515.174927	2552.346275
515.538904	2550.660009
515.902822	2550.672612
516.266684	2551.935421
516.630488	2552.265616
516.994235	2551.726213
517.357925	2551.390976
517.721558	2551.532128
518.085133	2551.539690
518.448651	2552.948693
518.812112	2552.089176
519.175516	2552.575647
519.538863	2551.549772
519.902152	2551.428785
520.265385	2551.365770
520.628560	2555.693601
520.991678	2553.846018
521.354739	2551.302756
521.717743	2552.474824
522.080690	2553.719989
522.443580	2555.612942
522.806413	2554.387942
523.169189	2553.084804
523.531908	2555.532284
523.894569	2555.628066
524.257174	2553.135215
524.619722	2556.250648
524.982213	2557.705021
525.344647	2553.142777
525.707025	2555.978426
526.069345	2552.164793
526.431608	2555.023127
526.793815	2553.089845
527.155964	2556.043961
527.518057	2555.807027
527.880093	2555.809547
528.242072	2555.280226
528.603995	2554.277037
528.965860	2555.529763
529.327669	2558.115875
529.689421	2556.028838
530.051117	2557.795762
530.412755	2558.501523
530.774337	2556.774928
531.135862	2561.420352
531.497331	2557.765515
531.858743	2553.732592
532.220098	2556.747202
532.581396	2552.983981
532.942638	2558.279713
533.303824	2554.894578
533.664953	2559.318190
534.026025	2560.759960
534.387040	2559.908005
534.747999	2559.963458
535.108902	2559.663509
535.469748	2559.618139
535.830537	2559.129147
536.191270	2561.211144
536.551947	2560.838098
536.912567	2562.486556
537.273131	2563.454457
537.633638	2561.165773
537.994089	2564.316494
538.354483	2564.044272
538.714821	2558.617470
539.075103	2559.666030
539.435328	2563.209961
539.795497	2564.946639
540.155609	2560.800290
540.515665	2562.758778
540.875665	2563.683830
541.235609	2561.448078
541.595496	2566.781619
541.955328	2566.642987
542.315102	2565.783470
542.674821	2564.198027
543.034483	2563.353634
543.394090	2566.579972
543.753640	2564.805486
544.113134	2564.994530
544.472571	2565.871690
544.831953	2566.456464
545.191278	2565.150805
545.550548	2567.429407
545.909761	2564.858418
546.268918	2567.873028
546.628019	2570.612896
546.987064	2565.395301
547.346053	2565.763306
547.704986	2567.719273
548.063863	2569.037535
548.422684	2566.554767
548.781449	2567.870508
549.140158	2566.141392
549.498811	2569.546692
549.857408	2569.587021
550.215949	2564.334138
550.574434	2562.879766
550.932864	2567.683985
551.291237	2561.425393
551.649555	2569.937381
552.007817	2567.305899
552.366022	2566.191804
552.724173	2568.460323
553.082267	2568.099880
553.440305	2566.627863
553.798288	2568.094839
554.156215	2568.513255
554.514086	2566.958059
554.871902	2565.949828
555.229661	2569.029973
555.587365	2566.390929
555.945014	2566.953018
556.302606	2566.088460
556.660143	2569.677762
557.017625	2568.404870
557.375050	2568.566187
557.732421	2566.217009
558.089735	2566.867318
558.446994	2568.203224
558.804197	2567.668862
559.161345	2568.341856
559.518437	2569.687844
559.875474	2567.736917
560.232455	2568.309088
560.589381	2569.178687
560.946251	2572.331929
561.303065	2566.393450
561.659825	2565.652400
562.016528	2566.809345
562.373177	2567.472257
562.729770	2566.887483
563.086307	2566.398491
563.442789	2567.386557
563.799216	2568.241033
564.155587	2564.190466
564.511904	2567.061403
564.868164	2568.886300
565.224370	2567.391598
565.580520	2566.065775
565.936615	2566.985785
566.292654	2566.920250
566.648638	2566.179201
567.004567	2567.063923
567.360441	2567.820096
567.716260	2564.387071
568.072023	2566.282544
568.427732	2559.303067
568.783385	2565.370096
569.138982	2564.263562
569.494525	2564.871021
569.850013	2561.528736
570.205445	2567.797411
570.560823	2566.637946
570.916145	2564.775239
571.271412	2564.339180
571.626625	2564.266083
571.981782	2565.004612
572.336884	2567.931002
572.691931	2563.124262
573.046923	2565.937225
573.401860	2562.138716
573.756743	2566.280024
574.111570	2563.963614
574.466342	2563.772050
574.821059	2564.145095
575.175722	2566.716084
575.530330	2565.360013
575.884882	2567.343707
576.239380	2567.562998
576.593823	2564.051834
576.948211	2560.490259
577.302544	2562.284909
577.656823	2565.352452
578.011047	2566.325394
578.365216	2566.050651
578.719330	2564.611402
579.073389	2562.670558
579.427394	2563.898079
579.781344	2562.552091
580.135239	2564.639128
580.489080	2565.138202
580.842866	2563.668706
581.196597	2566.577452
581.550273	2563.562842
581.903895	2562.773901
582.257463	2563.487225
582.610975	2563.076371
582.964434	2564.112328
583.317837	2564.455126
583.671186	2564.129972
584.024481	2565.186093
584.377721	2564.104766
584.730906	2565.813717
585.084037	2562.247101
585.437113	2562.877245
585.790135	2565.299519
586.143103	2564.344221
586.496016	2565.024777
586.848874	2562.090825
587.201679	2566.264900
587.554428	2561.705177
587.907124	2562.300033
588.259765	2560.820454
588.612352	2564.820610
588.964884	2567.124417
589.317362	2568.283882
589.669786	2564.911351
590.022155	2567.928481
590.374470	2565.632236
590.726731	2563.943449
591.078937	2566.753892
591.431090	2567.605847
591.783188	2565.639797
592.135232	2566.635425
592.487222	2564.621484
592.839157	2566.446382
593.191038	2565.365054
593.542866	2565.544015
593.894639	2566.360682
594.246358	2565.579303
594.598022	2567.537792
594.949633	2569.334963
595.301190	2568.495611
595.652692	2569.357648
596.004141	2568.281362
596.355535	2572.520972
596.706876	2570.585169
597.058162	2567.643656
597.409395	2568.941753
597.760573	2570.391085
598.111698	2567.323543
598.462768	2568.820765
598.813785	2569.163564
599.164748	2567.502504
599.515657	2570.396126
599.866511	2571.081723
600.217312	2570.111301
600.568060	2571.966445
600.918753	2572.440314
601.269392	2568.346897
601.619978	2569.939902
601.970510	2572.296641
602.320988	2571.762279
602.671412	2574.330747
603.021783	2571.278328
603.372100	2571.512742
603.722363	2572.581466
604.072572	2575.109605
604.422728	2574.328226
604.772830	2570.280179
605.122878	2570.756568
605.472872	2570.774212
605.822813	2571.923596
606.172701	2572.450396
606.522534	2575.916189
606.872314	2579.576067
607.222041	2579.172775
607.571714	2576.677404
607.921333	2578.688824
608.270899	2580.170923
608.620411	2581.249730
608.969870	2584.352560
609.319276	2584.508836
609.668627	2585.983374
610.017926	2589.320618
610.367171	2591.208530
610.716362	2591.984867
611.065500	2591.170721
611.414585	2591.657192
611.763616	2591.657192
612.112594	2591.473190
612.461518	2591.140474
612.810389	2596.297574
613.159207	2596.501741
613.507971	2598.432503
613.856682	2596.012749
614.205340	2594.928901
614.553945	2599.410487
614.902496	2600.849736
615.250994	2601.159767
615.599439	2602.576332
615.947830	2604.199583
616.296169	2604.315530
616.644454	2606.853751
616.992686	2610.826180
617.340864	2611.882302
617.688990	2612.857765
618.037063	2614.977570
618.385082	2620.369084
618.733048	2621.178189
619.080961	2622.398148
619.428821	2626.284878
619.776628	2627.419138
620.124382	2631.585651
620.472083	2631.293264
620.819731	2633.380302
621.167326	2631.046248
621.514868	2632.669499
621.862357	2633.902062
622.209793	2635.419449
622.557176	2638.149234
622.904506	2634.935498
623.251783	2632.344345
623.599007	2639.263329
623.946179	2638.605458
624.293297	2639.575880
624.640363	2643.623927
624.987376	2645.658032
625.334336	2644.831283
625.681243	2650.308497
626.028097	2647.772796
626.374899	2654.069197
626.721647	2656.496513
627.068343	2658.555824
627.414987	2662.369457
627.761577	2663.022287
628.108115	2664.988337
628.454600	2666.828358
628.801032	2673.853206
629.147412	2674.528720
629.493739	2675.499142
629.840014	2679.133814
630.186236	2683.708662
630.532405	2687.151770
630.878521	2690.196627
631.224585	2693.765763
631.570597	2692.379446
631.916556	2703.321271
632.262462	2703.656507
632.608316	2706.555171
632.954117	2711.170347
633.299866	2714.132025
633.645562	2718.863148
633.991206	2721.177037
634.336797	2720.688046
634.682336	2721.431616
635.027823	2724.211812
635.373257	2726.339179
635.718639	2728.010322
636.063968	2729.111814
636.409245	2727.533932
636.754470	2731.672720
637.099642	2733.999212
637.444762	2736.628174
637.789829	2742.473392
638.134845	2742.390213
638.479808	2746.947416
638.824719	2748.547982
639.169577	2750.549320
639.514383	2754.337747
639.859137	2756.351688
640.203839	2762.547267
640.548489	2766.902823
640.893086	2765.430807
641.237632	2769.521703
641.582125	2773.461365
641.926566	2775.918927
642.270955	2787.221194
642.615292	2790.581123
642.959576	2800.285344
643.303809	2800.466826
643.647990	2809.203145
643.992118	2808.063845
644.336195	2809.291366
