Dividing Wavelength (nm)	Counts (n)	Blue Motor Position (mm): 47.700000	Red Motor Position (mm): 0.000000	
326.493990	2131.611575
326.888308	2131.611575
327.282561	2131.611575
327.676750	2096.878025
328.070874	2095.998343
328.464933	2101.974631
328.858929	2107.310693
329.252859	2116.170520
329.646726	2125.002622
330.040528	2142.238327
330.434265	2154.977323
330.827938	2173.609427
331.221547	2192.463343
331.615091	2214.709955
332.008571	2231.875083
332.401986	2252.551376
332.795338	2270.684406
333.188625	2287.814247
333.581847	2308.707309
333.975006	2326.739517
334.368100	2346.042095
334.761129	2363.741586
335.154095	2377.153576
335.546996	2398.104611
335.939833	2423.930442
336.332606	2439.187494
336.725315	2453.824484
337.117960	2465.056175
337.510540	2470.470374
337.903056	2482.438074
338.295508	2492.185145
338.687896	2496.694457
339.080220	2508.276508
339.472480	2512.697600
339.864676	2515.510563
340.256807	2519.276305
340.648875	2525.623118
341.040879	2528.826771
341.432818	2530.112266
341.824694	2530.747451
342.216506	2531.720394
342.608253	2532.436238
342.999937	2530.122348
343.391557	2531.954807
343.783113	2531.750641
344.174605	2529.714014
344.566033	2527.369878
344.957397	2523.684794
345.348697	2523.480628
345.739934	2521.806965
346.131106	2519.238497
346.522215	2519.246058
346.913260	2517.247241
347.304241	2518.812519
347.695159	2516.531397
348.086012	2512.546365
348.476802	2511.248268
348.867528	2507.570746
349.258191	2507.238030
349.648789	2506.650736
350.039324	2505.919768
350.429796	2505.950015
350.820203	2501.334839
351.210548	2503.275683
351.600828	2500.886176
351.991045	2499.068840
352.381198	2501.647390
352.771288	2499.751917
353.161314	2502.169150
353.551276	2502.020436
353.941175	2498.176556
354.331010	2501.125631
354.720782	2498.894920
355.110490	2500.669407
355.500135	2500.278717
355.889717	2499.235198
356.279235	2496.659169
356.668689	2502.466578
357.058080	2501.236536
357.447408	2499.426762
357.836672	2497.574138
358.225873	2500.896258
358.615010	2499.134375
359.004084	2504.367093
359.393095	2505.037566
359.782043	2506.202073
360.170927	2503.797442
360.559748	2506.348266
360.948505	2507.328771
361.337199	2507.626199
361.725830	2505.760972
362.114398	2507.016219
362.502903	2509.020078
362.891344	2509.229286
363.279722	2510.030829
363.668037	2510.270284
364.056289	2511.623834
364.444478	2512.599297
364.832603	2514.141890
365.220665	2511.230624
365.608665	2514.547703
365.996601	2514.013341
366.384474	2513.410923
366.772284	2514.978722
367.160031	2513.322703
367.547715	2516.445698
367.935336	2514.257837
368.322893	2516.216325
368.710388	2518.893178
369.097820	2520.849145
369.485189	2518.719258
369.872495	2521.996008
370.259738	2524.617408
370.646918	2524.503982
371.034035	2530.389529
371.421090	2533.613347
371.808081	2538.029398
372.195010	2543.161292
372.581875	2551.736295
372.968678	2561.624518
373.355418	2564.288768
373.742096	2575.616241
374.128710	2588.388004
374.515262	2600.557349
374.901751	2609.228134
375.288177	2620.585854
375.674540	2638.086219
376.060841	2653.582726
376.447079	2668.655776
376.833254	2687.837367
377.219367	2698.577545
377.605417	2728.854715
377.991404	2741.997003
378.377329	2761.223964
378.763191	2779.709875
379.148991	2814.962664
379.534727	2839.238340
379.920402	2867.814121
380.306013	2880.984135
380.691563	2929.870724
381.077049	2955.189920
381.462474	2975.246150
381.847835	3014.494053
382.233134	3043.571429
382.618371	3049.993859
383.003545	3116.171606
383.388657	3130.629635
383.773706	3168.047600
384.158693	3186.425126
384.543618	3218.900239
384.928480	3258.760642
385.313280	3307.198569
385.698017	3311.445741
386.082692	3369.010677
386.467305	3383.670353
386.851856	3412.916607
387.236344	3440.441307
387.620770	3480.503356
388.005133	3509.174919
388.389435	3536.576110
388.773674	3555.019172
389.157851	3598.211778
389.541965	3619.934110
389.926018	3585.598811
390.310008	3658.559431
390.693936	3680.092719
391.077802	3722.743401
391.461606	3713.266032
391.845348	3778.014612
392.229027	3776.459416
392.612645	3790.897281
392.996200	3868.425186
393.379694	3910.556629
393.763125	3976.268069
394.146494	3943.437555
394.529801	4005.055578
394.913047	4053.306982
395.296230	4020.332795
395.679351	4073.728697
396.062410	4095.325000
396.445408	4081.134152
396.828343	4113.606744
397.211217	4138.457112
397.594028	4060.024320
397.976778	4123.424391
398.359466	4151.047394
398.742092	4183.260367
399.124656	4102.175928
399.507158	4177.488246
399.889598	4207.417576
400.271977	4271.190693
400.654294	4239.381012
401.036549	4250.133793
401.418742	4218.556006
401.800874	4319.731963
402.182944	4342.225592
402.564952	4406.860746
402.946898	4395.878592
403.328783	4388.682345
403.710606	4304.164880
404.092367	4495.295187
404.474067	4461.642965
404.855705	4466.734530
405.237282	4396.624683
405.618797	4504.270962
406.000250	4540.842012
406.381642	4620.320844
406.762972	4583.822890
407.144240	4596.715641
407.525447	4593.499385
407.906593	4648.715143
408.287677	4695.184499
408.668700	4623.060711
409.049661	4673.525181
409.430560	4715.482705
409.811399	4646.365965
410.192176	4807.481242
410.572891	4745.979165
410.953545	4845.403322
411.334138	4725.159200
411.714669	4793.267709
412.095139	4687.579918
412.475547	4831.956044
412.855894	4811.856963
413.236180	4818.791071
413.616405	4773.609729
413.996568	4863.130539
414.376670	4804.625428
414.756711	4762.856948
415.136691	4794.437256
415.516609	4874.344586
415.896466	4906.779370
416.276262	4940.595430
416.655997	4920.710598
417.035670	5104.702632
417.415283	5192.844686
417.794834	5140.013394
418.174324	5092.845838
418.553753	5000.282691
418.933121	5179.072254
419.312428	5250.540692
419.691674	5189.797308
420.070859	5316.993182
420.449983	5231.059153
420.829045	5346.249518
421.208047	5252.496659
421.586988	5319.939736
421.965867	5335.007745
422.344686	5465.881140
422.723444	5319.743131
423.102141	5138.705214
423.480777	5440.889620
423.859352	5204.053692
424.237866	5469.921625
424.616319	5459.438545
424.994712	5569.539866
425.373044	5443.274086
425.751314	5588.451755
426.129524	5388.582607
426.507673	5582.427576
426.885762	5668.631307
427.263789	5596.941058
427.641756	5482.877390
428.019662	5604.182675
428.397508	5610.925218
428.775292	5553.685437
429.153016	5656.900542
429.530679	5582.951856
429.908282	5665.823384
430.285824	5538.766142
430.663305	5816.974820
431.040726	5540.384353
431.418086	5547.250404
431.795385	5657.810470
432.172624	5667.905380
432.549802	5657.654194
432.926920	5670.448642
433.303977	5680.294016
433.680974	5717.273400
434.057910	5737.992542
434.434786	5744.057050
434.811601	5709.008428
435.188355	5948.707732
435.565050	5822.837682
435.941683	5805.450743
436.318257	6016.095356
436.694770	5999.618345
437.071222	6036.106216
437.447614	5962.845648
437.823946	5877.642586
438.200218	6033.386514
438.576429	5900.035392
438.952580	5994.670452
439.328670	6042.821033
439.704700	5949.226971
440.080670	5935.963695
440.456580	6203.724582
440.832429	6091.803404
441.208218	5938.111227
441.583947	6090.396923
441.959616	6091.778199
442.335224	6021.943094
442.710773	6158.583569
443.086261	6183.254976
443.461689	5978.475745
443.837057	6127.081399
444.212365	6280.486231
444.587612	6177.588719
444.962800	6330.381051
445.337927	6306.117978
445.712995	5921.687147
446.088002	6494.407595
446.462949	6324.049362
446.837837	6259.250371
447.212664	6432.867709
447.587431	6572.674029
447.962139	7119.878676
448.336786	8044.322947
448.711374	7786.692260
449.085901	6856.869077
449.460369	6781.052643
449.834776	6713.080246
450.209124	7109.952644
450.583412	7257.408914
450.957640	7405.192860
451.331808	7165.158320
451.705917	6718.892696
452.079965	6639.996118
452.453954	6852.195927
452.827883	6725.531896
453.201752	6819.234343
453.575562	6623.619929
453.949311	6826.990158
454.323001	6721.559466
454.696632	6791.518079
455.070202	6925.937926
455.443713	7085.223264
455.817164	7187.667072
456.190556	7264.642970
456.563888	7339.350350
456.937160	7385.721403
457.310373	7038.229627
457.683526	7064.821714
458.056619	6957.102339
458.429653	6940.698424
458.802628	6880.270113
459.175542	6986.366237
459.548398	7339.441090
459.921194	7501.856985
460.293930	7508.455855
460.666607	8036.448665
461.039224	8344.097682
461.411782	8469.566960
461.784280	8487.820978
462.156719	8382.526397
462.529099	8247.713341
462.901419	7844.758790
463.273680	7735.685865
463.645882	7752.724965
464.018024	7621.221426
464.390106	7790.140409
464.762130	8172.111156
465.134094	8650.249475
465.505999	9672.411473
465.877845	10892.136290
466.249631	11538.576051
466.621358	11160.343319
466.993026	10523.892605
467.364634	10270.483883
467.736184	9907.004088
468.107674	9572.095032
468.479105	9605.724569
468.850477	9371.643632
469.221790	9140.025298
469.593043	8812.531779
469.964238	8675.475409
470.335373	8690.929066
470.706449	8743.929237
471.077467	8731.890962
471.448425	10038.767247
471.819324	11105.301481
472.190164	11134.696449
472.560945	9882.229337
472.931667	9094.949821
473.302330	8956.832287
473.672934	8606.293134
474.043479	8965.959297
474.413965	8908.850585
474.784393	8784.976832
475.154761	8934.752034
475.525070	9031.842136
475.895321	8859.890899
476.265513	9042.143734
476.635645	9205.119197
477.005719	9207.228920
477.375734	9319.951640
477.745691	9555.529801
478.115588	9691.663640
478.485427	9937.182955
478.855207	10470.564759
479.224928	11287.803853
479.594591	11912.130592
479.964194	11730.003786
480.333739	11668.284939
480.703226	11583.175139
481.072653	11671.193685
481.442022	11912.685119
481.811333	12098.744025
482.180584	11904.526011
482.549777	11612.933070
482.918912	11428.310893
483.287988	11458.066303
483.657005	11472.418468
484.025964	11150.389561
484.394864	11284.012905
484.763706	11254.333112
485.132489	11010.074084
485.501213	10971.542025
485.869879	11054.216948
486.238487	10895.148380
486.607036	11004.080153
486.975527	10783.985896
487.343959	10974.798610
487.712333	11016.710763
488.080648	10952.050404
488.448905	10996.576395
488.817104	10934.691190
489.185244	11197.552075
489.553326	11356.766837
489.921350	11899.920917
490.289315	12953.086011
490.657222	13300.373620
491.025070	13212.965054
491.392861	13082.152153
491.760593	12696.259388
492.128267	12346.332734
492.495883	12019.665965
492.863440	11675.554283
493.230939	11344.582368
493.598380	11280.242122
493.965763	11144.440999
494.333088	11050.942719
494.700354	10976.389094
495.067563	11030.750377
495.434713	10862.940448
495.801805	10988.951650
496.168839	10914.181256
496.535815	10850.549292
496.902733	10848.900834
497.269593	10780.444486
497.636395	10880.065247
498.003139	10869.967816
498.369825	10741.360420
498.736453	10893.353729
499.103023	10819.909158
499.469535	10854.796464
499.835989	10837.903557
500.202385	10803.719493
500.568723	10651.763992
500.935003	10879.503159
501.301226	10681.466471
501.667390	10941.227046
502.033497	11034.604339
502.399546	10897.767259
502.765537	10804.374843
503.131470	10874.542663
503.497345	11052.228213
503.863163	10661.647175
504.228923	10967.360388
504.594625	11035.922601
504.960269	10784.951277
505.325856	11003.145018
505.691385	10797.612135
506.056856	10953.066196
506.422270	10973.840791
506.787625	10867.875737
507.152924	10988.379479
507.518164	10958.656836
507.883347	10880.733200
508.248472	10809.526902
508.613540	11044.371575
508.978550	10925.435632
509.343503	10893.857844
509.708398	11012.168684
510.073236	11123.099274
510.438016	11132.954730
510.802738	11084.675600
511.167403	11133.121088
511.532010	11039.375791
511.896561	11262.333423
512.261053	11335.029382
512.625488	11200.750688
512.989866	11191.883298
513.354186	11183.968686
513.718449	11074.789897
514.082655	11265.353074
514.446803	11173.374702
514.810894	11287.879470
515.174927	11152.514407
515.538904	11182.141268
515.902822	11328.080151
516.266684	11213.242667
516.630488	11161.401961
516.994235	11208.050278
517.357925	11274.331369
517.721558	11360.467044
518.085133	11373.140505
518.448651	11388.556353
518.812112	11267.119998
519.175516	11286.241095
519.538863	11403.669733
519.902152	11318.063379
520.265385	11484.781898
520.628560	11388.805891
520.991678	11373.891637
521.354739	11437.700042
521.717743	11371.615556
522.080690	11348.509427
522.443580	11479.985240
522.806413	11436.084352
523.169189	11473.698921
523.531908	11525.937878
523.894569	11350.009171
524.257174	11363.196829
524.619722	11468.509053
524.982213	11416.741445
525.344647	11468.347737
525.707025	11421.853175
526.069345	11519.976714
526.431608	11427.647981
526.793815	11547.650128
527.155964	11325.995634
527.518057	11383.353883
527.880093	11332.420585
528.242072	11404.909857
528.603995	11307.930659
528.965860	11222.226003
529.327669	11278.495362
529.689421	11226.639533
530.051117	11194.325737
530.412755	11299.660647
530.774337	11181.811073
531.135862	11168.542756
531.497331	11192.231137
531.858743	11043.275124
532.220098	11214.883562
532.581396	11075.339383
532.942638	11064.689945
533.303824	11032.890347
533.664953	11040.021059
534.026025	10959.723040
534.387040	11060.717516
534.747999	11060.427650
535.108902	11119.008378
535.469748	10878.106759
535.830537	10980.386729
536.191270	10960.239758
536.551947	10984.681793
536.912567	10986.776392
537.273131	10909.916440
537.633638	10881.988448
537.994089	10871.613753
538.354483	10822.139869
538.714821	10969.099586
539.075103	10977.230967
539.435328	10939.437437
539.795497	10761.356157
540.155609	10916.207800
540.515665	11016.809066
540.875665	10753.093705
541.235609	10812.899434
541.595496	10818.719446
541.955328	10972.076387
542.315102	10850.725732
542.674821	10804.871397
543.034483	10798.237238
543.394090	10813.834568
543.753640	10731.721734
544.113134	10952.640219
544.472571	10808.642180
544.831953	10947.397419
545.191278	10760.647874
545.550548	10787.045877
545.909761	10929.375294
546.268918	10901.308670
546.628019	10984.472585
546.987064	10846.037459
547.346053	10769.109451
547.704986	10872.022086
548.063863	10853.301762
548.422684	10850.443427
548.781449	10763.428071
549.140158	10863.252999
549.498811	10748.171019
549.857408	10601.249110
550.215949	10827.962402
550.574434	10688.995434
550.932864	10777.578590
551.291237	10838.279123
551.649555	10786.120825
552.007817	10799.515171
552.366022	10761.698955
552.724173	10753.567574
553.082267	10741.892262
553.440305	10877.559794
553.798288	10681.897490
554.156215	10835.972795
554.514086	10804.523557
554.871902	10656.588377
555.229661	10697.676301
555.587365	10673.224184
555.945014	10567.518750
556.302606	10685.078458
556.660143	10586.939795
557.017625	10736.256252
557.375050	10632.436209
557.732421	10767.864286
558.089735	10682.227685
558.446994	10683.054434
558.804197	10721.878881
559.161345	10724.205373
559.518437	10569.431868
559.875474	10659.124077
560.232455	10686.298417
560.589381	10637.295881
560.946251	10636.509461
561.303065	10736.140305
561.659825	10682.174753
562.016528	10611.439803
562.373177	10489.436318
562.729770	10607.653896
563.086307	10519.257264
563.442789	10612.417787
563.799216	10491.470424
564.155587	10542.600327
564.511904	10489.491771
564.868164	10485.373148
565.224370	10499.919398
565.580520	10422.678838
565.936615	10430.598491
566.292654	10302.283482
566.648638	10425.297718
567.004567	10386.541327
567.360441	10366.502740
567.716260	10282.242374
568.072023	10376.925326
568.427732	10323.849538
568.783385	10230.174817
569.138982	10295.614035
569.494525	10318.886522
569.850013	10202.065343
570.205445	10275.610737
570.560823	10175.979892
570.916145	10085.347508
571.271412	10161.063118
571.626625	10105.376012
571.981782	10084.195604
572.336884	10057.185102
572.691931	10061.757429
573.046923	10007.116362
573.401860	9966.303181
573.756743	9897.677953
574.111570	9939.539695
574.466342	9922.475389
574.821059	9953.614596
575.175722	9846.462351
575.530330	9853.512404
575.884882	9848.365386
576.239380	9780.251836
576.593823	9754.786447
576.948211	9771.724724
577.302544	9656.438577
577.656823	9665.515175
578.011047	9669.240587
578.365216	9642.572883
578.719330	9563.028517
579.073389	9581.274973
579.427394	9523.619297
579.781344	9496.497889
580.135239	9452.970046
580.489080	9462.061767
580.842866	9359.824647
581.196597	9370.113642
581.550273	9407.201410
581.903895	9374.151606
582.257463	9435.603271
582.610975	9319.460128
582.964434	9344.809570
583.317837	9268.075647
583.671186	9247.275846
584.024481	9241.019774
584.377721	9163.270058
584.730906	9139.133013
585.084037	9175.260443
585.437113	9104.502807
585.790135	9120.090055
586.143103	9025.230663
586.496016	9000.249225
586.848874	9058.557731
587.201679	9048.576246
587.554428	8936.168598
587.907124	8970.665214
588.259765	8942.396943
588.612352	8946.165206
588.964884	8823.324890
589.317362	8840.391716
589.669786	8847.225000
590.022155	8890.941886
590.374470	8902.944873
590.726731	8840.825255
591.078937	8692.068367
591.431090	8805.146489
591.783188	8681.161831
592.135232	8670.290582
592.487222	8667.533071
592.839157	8721.032316
593.191038	8655.174682
593.542866	8603.996889
593.894639	8506.886622
594.246358	8553.595433
594.598022	8574.664935
594.949633	8464.732493
595.301190	8442.090151
595.652692	8471.296075
596.004141	8583.292870
596.355535	8357.446657
596.706876	8333.770878
597.058162	8271.986496
597.409395	8356.420782
597.760573	8410.867764
598.111698	8322.075401
598.462768	8308.247516
598.813785	8271.409284
599.164748	8242.951971
599.515657	8230.999395
599.866511	8143.016137
600.217312	8273.904655
600.568060	8126.213971
600.918753	8231.138027
601.269392	8198.098304
601.619978	8108.118749
601.970510	8178.722630
602.320988	8170.865991
602.671412	8227.989826
603.021783	8165.524889
603.372100	8138.801732
603.722363	8145.342629
604.072572	8114.762990
604.422728	8129.170608
604.772830	8053.903660
605.122878	8062.758447
605.472872	8059.990854
605.822813	8084.271571
606.172701	8027.533385
606.522534	8106.739994
606.872314	8109.283256
607.222041	8072.180364
607.571714	8128.709342
607.921333	8091.062005
608.270899	8100.942667
608.620411	8181.754884
608.969870	8093.302798
609.319276	8086.492199
609.668627	8103.042307
610.017926	8130.882080
610.367171	8180.761776
610.716362	8159.445257
611.065500	8147.243144
611.414585	8174.707351
611.763616	8163.621853
612.112594	8145.740881
612.461518	8161.055906
612.810389	8222.343734
613.159207	8161.950711
613.507971	8108.554809
613.856682	8227.140392
614.205340	8185.797889
614.553945	8268.059438
614.902496	8166.228130
615.250994	8215.991880
615.599439	8200.119807
615.947830	8209.138431
616.296169	8185.092128
616.644454	8196.822892
616.992686	8199.167029
617.340864	8252.414217
617.688990	8157.522057
618.037063	8253.800534
618.385082	8193.652007
618.733048	8284.402858
619.080961	8220.690235
619.428821	8241.109429
619.776628	8241.348884
620.124382	8195.025721
620.472083	8173.976383
620.819731	8203.860343
621.167326	8099.533664
621.514868	8101.161957
621.862357	7995.111204
622.209793	8014.590222
622.557176	7945.176054
622.904506	7912.058194
623.251783	7844.267278
623.599007	7800.096688
623.946179	7804.974004
624.293297	7764.869105
624.640363	7682.214346
624.987376	7665.379413
625.334336	7612.565765
625.681243	7561.440903
626.028097	7549.392545
626.374899	7527.400512
626.721647	7520.050509
627.068343	7450.764891
627.414987	7421.165756
627.761577	7374.073817
628.108115	7416.303563
628.454600	7305.017571
628.801032	7360.480346
629.147412	7317.537277
629.493739	7305.781306
629.840014	7244.601863
630.186236	7301.912221
630.532405	7183.064498
630.878521	7232.616520
631.224585	7189.592792
631.570597	7109.055318
631.916556	7144.716441
632.262462	7141.842983
632.608316	7106.227231
632.954117	7087.680826
633.299866	7072.554844
633.645562	7059.899027
633.991206	6980.929352
634.336797	6930.444717
634.682336	6888.280506
635.027823	6853.501586
635.373257	6840.104720
635.718639	6774.363032
636.063968	6782.312932
636.409245	6684.073446
636.754470	6678.883578
637.099642	6636.898329
637.444762	6579.313228
637.789829	6587.474856
638.134845	6528.793305
638.479808	6516.162694
638.824719	6517.982551
639.169577	6449.707683
639.514383	6468.332226
639.859137	6397.602317
640.203839	6408.183699
640.548489	6391.356328
