Dividing Wavelength (nm)	Counts (n)	Blue Motor Position (mm): 28.400000	Red Motor Position (mm): 0.000000	
326.493990	2130.338683
326.888308	2130.338683
327.282561	2130.338683
327.676750	2100.003540
328.070874	2099.307861
328.464933	2104.419591
328.858929	2107.214911
329.252859	2117.657661
329.646726	2128.097890
330.040528	2141.477113
330.434265	2157.455050
330.827938	2175.131856
331.221547	2193.705987
331.615091	2212.968236
332.008571	2232.079250
332.401986	2253.892323
332.795338	2271.032246
333.188625	2291.569907
333.581847	2307.575570
333.975006	2329.910402
334.368100	2345.323730
334.761129	2364.800228
335.154095	2380.868906
335.546996	2404.882442
335.939833	2424.268199
336.332606	2441.019954
336.725315	2451.729885
337.117960	2461.232460
337.510540	2471.276959
337.903056	2480.656026
338.295508	2491.323107
338.687896	2497.052379
339.080220	2505.652587
339.472480	2513.060563
339.864676	2516.465862
340.256807	2522.200175
340.648875	2524.350227
341.040879	2527.916843
341.432818	2528.612522
341.824694	2528.864580
342.216506	2531.052441
342.608253	2529.472039
342.999937	2528.511699
343.391557	2528.741072
343.783113	2527.385001
344.174605	2528.060516
344.566033	2523.367202
344.957397	2524.534229
345.348697	2523.556245
345.739934	2522.132119
346.131106	2519.724968
346.522215	2518.540297
346.913260	2516.654905
347.304241	2514.290604
347.695159	2514.358660
348.086012	2510.575274
348.476802	2510.938237
348.867528	2508.062259
349.258191	2504.583862
349.648789	2504.488081
350.039324	2502.585045
350.429796	2503.056393
350.820203	2500.432472
351.210548	2498.105980
351.600828	2499.943480
351.991045	2498.025321
352.381198	2496.268479
352.771288	2496.664210
353.161314	2498.899962
353.551276	2496.049189
353.941175	2496.785198
354.331010	2496.187821
354.720782	2496.328973
355.110490	2498.395846
355.500135	2498.731083
355.889717	2496.681854
356.279235	2497.254025
356.668689	2498.365599
357.058080	2497.957266
357.447408	2494.751092
357.836672	2493.770588
358.225873	2496.341576
358.615010	2493.700011
359.004084	2498.410970
359.393095	2499.794766
359.782043	2500.742503
360.170927	2500.278717
360.559748	2501.508759
360.948505	2500.621516
361.337199	2502.769047
361.725830	2503.263080
362.114398	2504.120076
362.502903	2503.981445
362.891344	2504.999758
363.279722	2504.790550
363.668037	2505.108143
364.056289	2505.788698
364.444478	2507.994203
364.832603	2507.139728
365.220665	2507.986641
365.608665	2508.745335
365.996601	2507.704337
366.384474	2508.924296
366.772284	2507.633761
367.160031	2507.553102
367.547715	2509.947650
367.935336	2507.989162
368.322893	2510.978566
368.710388	2509.720798
369.097820	2512.531242
369.485189	2511.155007
369.872495	2511.699451
370.259738	2508.205932
370.646918	2511.144924
371.034035	2511.858247
371.421090	2513.310100
371.808081	2510.902949
372.195010	2513.678104
372.581875	2513.063083
372.968678	2514.429236
373.355418	2512.803464
373.742096	2514.305728
374.128710	2514.325892
374.515262	2513.993176
374.901751	2514.209946
375.288177	2515.684483
375.674540	2514.209946
376.060841	2513.897394
376.447079	2519.183044
376.833254	2515.029133
377.219367	2510.766838
377.605417	2514.850172
377.991404	2513.902435
378.377329	2513.647857
378.763191	2511.674245
379.148991	2516.014679
379.534727	2516.501150
379.920402	2517.721109
380.306013	2519.094824
380.691563	2516.554082
381.077049	2515.878568
381.462474	2518.976357
381.847835	2518.139525
382.233134	2519.682118
382.618371	2518.900739
383.003545	2518.278157
383.388657	2518.767149
383.773706	2521.643127
384.158693	2521.116327
384.543618	2521.408713
384.928480	2517.960564
385.313280	2520.740761
385.698017	2518.384021
386.082692	2518.694052
386.467305	2520.040040
386.851856	2522.076666
387.236344	2520.707993
387.620770	2523.964578
388.005133	2521.549866
388.389435	2525.232429
388.773674	2519.009124
389.157851	2522.021214
389.541965	2525.096317
389.926018	2521.723786
390.310008	2522.565658
390.693936	2525.852491
391.077802	2523.853673
391.461606	2522.938704
391.845348	2524.072963
392.229027	2526.192768
392.612645	2526.238139
392.996200	2522.628673
393.379694	2526.412059
393.763125	2524.693025
394.146494	2523.969620
394.529801	2524.304856
394.913047	2526.964065
395.296230	2526.391894
395.679351	2527.092614
396.062410	2527.677388
396.445408	2527.027079
396.828343	2525.640762
397.211217	2524.362830
397.594028	2527.112779
397.976778	2523.072294
398.359466	2525.464322
398.742092	2523.470545
399.124656	2528.108407
399.507158	2528.025228
399.889598	2530.150074
400.271977	2530.492873
400.654294	2530.089580
401.036549	2531.145702
401.418742	2531.508665
401.800874	2529.835002
402.182944	2531.513706
402.564952	2532.055630
402.946898	2527.997502
403.328783	2531.473377
403.710606	2530.828109
404.092367	2529.822399
404.474067	2531.604447
404.855705	2532.670651
405.237282	2533.542771
405.618797	2532.632842
406.000250	2533.346166
406.381642	2531.599406
406.762972	2534.729962
407.144240	2533.303316
407.525447	2536.209541
407.906593	2532.408511
408.287677	2536.295241
408.668700	2532.610157
409.049661	2534.054448
409.430560	2535.234078
409.811399	2536.257432
410.192176	2533.671320
410.572891	2536.471681
410.953545	2534.629139
411.334138	2536.801877
411.714669	2535.155940
412.095139	2533.494880
412.475547	2535.468492
412.855894	2536.123842
413.236180	2538.324305
413.616405	2538.024357
413.996568	2536.607792
414.376670	2538.130221
414.756711	2533.419263
415.136691	2538.024357
415.516609	2539.781199
415.896466	2540.008051
416.276262	2542.155582
416.655997	2534.321629
417.035670	2535.559232
417.415283	2539.937474
417.794834	2535.072761
418.174324	2541.031405
418.553753	2538.558719
418.933121	2540.134079
419.312428	2540.786909
419.691674	2540.418905
420.070859	2542.339584
420.449983	2541.306148
420.829045	2541.147351
421.208047	2541.885880
421.586988	2541.608617
421.965867	2545.394523
422.344686	2544.335881
422.723444	2542.750438
423.102141	2545.417209
423.480777	2545.893598
423.859352	2544.978628
424.237866	2546.846376
424.616319	2543.637681
424.994712	2543.746066
425.373044	2544.938299
425.751314	2547.673125
426.129524	2547.048022
426.507673	2548.068856
426.885762	2546.415357
427.263789	2547.395862
427.641756	2549.848383
428.019662	2547.229503
428.397508	2549.813095
428.775292	2551.212015
429.153016	2550.856614
429.530679	2554.211502
429.908282	2553.919115
430.285824	2553.094886
430.663305	2556.338868
431.040726	2556.946328
431.418086	2557.526060
431.795385	2562.831875
432.172624	2565.680127
432.549802	2566.590055
432.926920	2569.115673
433.303977	2575.522979
433.680974	2579.586149
434.057910	2585.156624
434.434786	2590.059147
434.811601	2595.730445
435.188355	2602.301589
435.565050	2608.610593
435.941683	2616.409258
436.318257	2626.625156
436.694770	2634.287710
437.071222	2645.025367
437.447614	2651.422592
437.823946	2656.811585
438.200218	2677.003927
438.576429	2686.299815
438.952580	2701.241795
439.328670	2719.851214
439.704700	2725.827502
440.080670	2740.945922
440.456580	2771.825510
440.832429	2784.778755
441.208218	2788.244548
441.583947	2818.405772
441.959616	2837.045438
442.335224	2850.797706
442.710773	2879.560009
443.086261	2907.976993
443.461689	2910.847930
443.837057	2947.229938
444.212365	2990.115033
444.587612	3004.411746
444.962800	3047.087634
445.337927	3074.340111
445.712995	3051.526370
446.088002	3164.428051
446.462949	3170.454751
446.837837	3195.922660
447.212664	3245.527614
447.587431	3318.276505
447.962139	3472.145123
448.336786	3699.884289
448.711374	3688.113195
449.085901	3534.116027
449.460369	3557.837177
449.834776	3586.372628
450.209124	3734.930391
450.583412	3836.073581
450.957640	3911.915220
451.331808	3901.190165
451.705917	3823.614369
452.079965	3845.792926
452.453954	3966.518478
452.827883	3976.356290
453.201752	4058.237231
453.575562	4035.713356
453.949311	4171.181762
454.323001	4173.230991
454.696632	4252.097323
455.070202	4369.886403
455.443713	4487.758662
455.817164	4588.801029
456.190556	4690.377759
456.563888	4785.978200
456.937160	4858.283470
457.310373	4760.659005
457.683526	4831.933359
458.056619	4840.954503
458.429653	4886.808839
458.802628	4904.019338
459.175542	5013.674517
459.548398	5273.009114
459.921194	5418.476650
460.293930	5477.120392
460.666607	5850.637125
461.039224	6094.664259
461.411782	6233.815229
461.784280	6322.867212
462.156719	6327.862995
462.529099	6322.378220
462.901419	6126.743642
463.273680	6111.499192
463.645882	6177.021590
464.018024	6154.643908
464.390106	6322.252191
464.762130	6650.269989
465.134094	7036.656787
465.505999	7825.002508
465.877845	8773.069627
466.249631	9341.285803
466.621358	9168.739710
466.993026	8793.826578
467.364634	8678.437087
467.736184	8455.650854
468.107674	8255.360771
468.479105	8345.163886
468.850477	8198.057975
469.221790	8072.402174
469.593043	7853.167435
469.964238	7786.979605
470.335373	7837.824683
470.706449	7931.257428
471.077467	7955.376829
471.448425	9139.891707
471.819324	10120.570050
472.190164	10181.424339
472.560945	9126.663719
472.931667	8466.496897
473.302330	8372.295376
473.672934	8080.336951
474.043479	8444.159544
474.413965	8418.363960
474.784393	8340.702464
475.154761	8506.455603
475.525070	8623.591854
475.895321	8479.782858
476.265513	8665.380498
476.635645	8844.802726
477.005719	8870.923464
477.375734	9002.663938
477.745691	9243.152182
478.115588	9388.924707
478.485427	9641.214292
478.855207	10179.967445
479.224928	10979.726338
479.594591	11606.074580
479.964194	11433.402458
480.333739	11397.070862
480.703226	11331.843373
481.072653	11434.793817
481.442022	11681.533092
481.811333	11875.738502
482.180584	11690.072806
482.549777	11422.954667
482.918912	11259.588515
483.287988	11294.586725
483.657005	11309.690022
484.025964	11008.599547
484.394864	11142.429579
484.763706	11122.660694
485.132489	10888.819211
485.501213	10855.202277
485.869879	10932.097517
486.238487	10782.697881
486.607036	10896.673329
486.975527	10683.044352
487.343959	10869.509071
487.712333	10923.746845
488.080648	10850.203972
488.448905	10897.061497
488.817104	10847.426297
489.185244	11107.794331
489.553326	11267.140163
489.921350	11801.215125
490.289315	12854.140764
490.657222	13189.541332
491.025070	13094.114811
491.392861	12975.977891
491.760593	12598.024943
492.128267	12260.292841
492.495883	11936.812081
492.863440	11594.237951
493.230939	11270.217787
493.598380	11209.179497
493.965763	11078.931205
494.333088	10977.470422
494.700354	10902.682384
495.067563	10959.241610
495.434713	10789.463110
495.801805	10924.082082
496.168839	10846.864208
496.535815	10781.800556
496.902733	10781.629157
497.269593	10716.134486
497.636395	10821.807153
498.003139	10805.393156
498.369825	10676.090080
498.736453	10832.645634
499.103023	10753.935578
499.469535	10792.024016
499.835989	10779.103539
500.202385	10741.675492
500.568723	10594.042781
500.935003	10813.025463
501.301226	10618.598241
501.667390	10875.863446
502.033497	10979.033180
502.399546	10840.958496
502.765537	10744.170863
503.131470	10824.332771
503.497345	10993.886939
503.863163	10608.805800
504.228923	10914.471122
504.594625	10981.221040
504.960269	10729.959850
505.325856	10943.999681
505.691385	10743.132385
506.056856	10890.565971
506.422270	10921.284242
506.787625	10809.625205
507.152924	10926.658112
507.518164	10903.730944
507.883347	10822.691875
508.248472	10754.172512
508.613540	10980.737090
508.978550	10862.264933
509.343503	10846.826399
509.708398	10959.760848
510.073236	11074.071533
510.438016	11080.420866
510.802738	11035.466376
511.167403	11075.825854
511.532010	10978.856739
511.896561	11205.859897
512.261053	11277.522419
512.625488	11149.522482
512.989866	11134.043619
513.354186	11117.990065
513.718449	11024.912721
514.082655	11217.993954
514.446803	11113.082502
514.810894	11231.806716
515.174927	11098.642116
515.538904	11120.235899
515.902822	11272.171235
516.266684	11158.899028
516.630488	11100.683784
516.994235	11151.057513
517.357925	11219.130734
517.721558	11304.137191
518.085133	11326.255254
518.448651	11330.822539
518.812112	11218.268697
519.175516	11228.086344
519.538863	11349.830210
519.902152	11268.791141
520.265385	11430.554206
520.628560	11337.189516
520.991678	11322.965901
521.354739	11377.969930
521.717743	11313.274283
522.080690	11293.379369
522.443580	11429.230903
522.806413	11389.897300
523.169189	11412.494273
523.531908	11465.126439
523.894569	11291.887187
524.257174	11298.990173
524.619722	11417.399315
524.982213	11368.931142
525.344647	11418.883935
525.707025	11364.416788
526.069345	11461.358177
526.431608	11375.782070
526.793815	11486.095119
527.155964	11275.294229
527.518057	11328.216263
527.880093	11280.398398
528.242072	11347.012205
528.603995	11251.081568
528.965860	11174.430823
529.327669	11224.481919
529.689421	11175.915443
530.051117	11145.532409
530.412755	11249.110476
530.774337	11135.981943
531.135862	11114.325146
531.497331	11144.929991
531.858743	10992.795530
532.220098	11158.616724
532.581396	11035.431088
532.942638	11018.318892
533.303824	10977.505710
533.664953	10994.262505
534.026025	10906.453167
534.387040	11007.152736
534.747999	11010.505103
535.108902	11069.612632
535.469748	10823.969808
535.830537	10924.072000
536.191270	10901.850594
536.551947	10932.725140
536.912567	10930.176837
537.273131	10864.099913
537.633638	10829.424336
537.994089	10820.123408
538.354483	10771.249421
538.714821	10915.849878
539.075103	10925.327247
539.435328	10890.848275
539.795497	10709.530574
540.155609	10867.195182
540.515665	10960.365787
540.875665	10697.393997
541.235609	10767.478638
541.595496	10764.494275
541.955328	10913.283931
542.315102	10798.484255
542.674821	10752.735783
543.034483	10750.983983
543.394090	10754.028839
543.753640	10684.385299
544.113134	10905.979299
544.472571	10756.181412
544.831953	10901.454863
545.191278	10710.690040
545.550548	10731.762063
545.909761	10869.120902
546.268918	10841.669299
546.628019	10926.141393
546.987064	10795.625920
547.346053	10718.675227
547.704986	10818.240537
548.063863	10802.302929
548.422684	10798.166662
548.781449	10706.430265
549.140158	10812.692747
549.498811	10688.876967
549.857408	10551.424866
550.215949	10779.002716
550.574434	10628.846907
550.932864	10725.851310
551.291237	10780.172263
551.649555	10731.021013
552.007817	10747.412325
552.366022	10709.654083
552.724173	10700.360716
553.082267	10687.417553
553.440305	10824.673049
553.798288	10625.371032
554.156215	10773.399473
554.514086	10754.669066
554.871902	10600.593760
555.229661	10642.949535
555.587365	10615.873498
555.945014	10507.914667
556.302606	10637.326128
556.660143	10538.806858
557.017625	10687.251195
557.375050	10585.457696
557.732421	10721.233613
558.089735	10628.189037
558.446994	10624.680393
558.804197	10672.770481
559.161345	10667.686477
559.518437	10514.914310
559.875474	10611.149937
560.232455	10632.884871
560.589381	10585.858468
560.946251	10581.321429
561.303065	10688.808912
561.659825	10624.400609
562.016528	10557.048273
562.373177	10441.376478
562.729770	10549.587366
563.086307	10466.816661
563.442789	10556.682790
563.799216	10434.278533
564.155587	10485.239557
564.511904	10443.776067
564.868164	10428.849211
565.224370	10447.483836
565.580520	10368.249500
565.936615	10376.590089
566.292654	10245.709133
566.648638	10378.145285
567.004567	10331.416310
567.360441	10317.568260
567.716260	10224.465710
568.072023	10320.172016
568.427732	10278.363207
568.783385	10186.770482
569.138982	10255.599876
569.494525	10271.081260
569.850013	10146.683227
570.205445	10231.301515
570.560823	10128.381318
570.916145	10045.129183
571.271412	10108.506569
571.626625	10055.229134
571.981782	10029.700731
572.336884	10008.449747
572.691931	10012.512917
573.046923	9955.535276
573.401860	9912.728318
573.756743	9845.375982
574.111570	9892.223425
574.466342	9879.204645
574.821059	9906.729345
575.175722	9794.929156
575.530330	9807.741248
575.884882	9796.809506
576.239380	9731.544208
576.593823	9705.393222
576.948211	9715.659532
577.302544	9602.599054
577.656823	9616.152196
578.011047	9618.269481
578.365216	9594.520605
578.719330	9518.424388
579.073389	9531.518785
579.427394	9483.821908
579.781344	9446.222462
580.135239	9400.199248
580.489080	9409.729549
580.842866	9312.382348
581.196597	9319.228235
581.550273	9358.007311
581.903895	9325.423813
582.257463	9392.314883
582.610975	9267.442982
582.964434	9290.317217
583.317837	9217.578408
583.671186	9201.550060
584.024481	9194.144605
584.377721	9113.264333
584.730906	9091.612577
585.084037	9128.443247
585.437113	9061.547135
585.790135	9076.179084
586.143103	8975.020771
586.496016	8949.368859
586.848874	9014.593828
587.201679	8999.684616
587.554428	8886.513232
587.907124	8932.387732
588.259765	8904.711798
588.612352	8909.798322
588.964884	8781.962222
589.317362	8799.087022
589.669786	8797.735993
590.022155	8848.611317
590.374470	8861.098255
590.726731	8794.706259
591.078937	8647.499526
591.431090	8768.245243
591.783188	8632.807083
592.135232	8632.252556
592.487222	8625.938511
592.839157	8679.556223
593.191038	8612.226572
593.542866	8556.756236
593.894639	8461.082698
594.246358	8510.745625
594.598022	8527.567955
594.949633	8420.952593
595.301190	8399.119355
595.652692	8424.917460
596.004141	8542.141931
596.355535	8324.180083
596.706876	8297.146895
597.058162	8234.303871
597.409395	8310.979821
597.760573	8374.057259
598.111698	8281.229452
598.462768	8264.286134
598.813785	8231.493428
599.164748	8194.612347
599.515657	8194.493879
599.866511	8103.591793
600.217312	8228.186431
600.568060	8086.557734
600.918753	8189.311573
601.269392	8156.352509
601.619978	8069.586690
601.970510	8137.024726
602.320988	8136.679407
602.671412	8185.994494
603.021783	8126.970144
603.372100	8098.913603
603.722363	8100.569622
604.072572	8076.651867
604.422728	8085.489010
604.772830	8016.583998
605.122878	8020.740430
605.472872	8019.954010
605.822813	8047.095582
606.172701	7993.235894
606.522534	8063.128972
606.872314	8066.435969
607.222041	8039.937144
607.571714	8085.519257
607.921333	8049.855614
608.270899	8056.842653
608.620411	8147.926221
608.969870	8053.548259
609.319276	8041.837659
609.668627	8065.730207
610.017926	8099.069878
610.367171	8142.020509
610.716362	8116.723999
611.065500	8111.052701
611.414585	8137.745611
611.763616	8128.837892
612.112594	8107.995241
612.461518	8124.560473
612.810389	8182.952158
613.159207	8122.952345
613.507971	8067.098881
613.856682	8192.545473
614.205340	8143.477402
614.553945	8221.106131
614.902496	8120.940924
615.250994	8172.539654
615.599439	8155.427458
615.947830	8170.064448
616.296169	8143.623596
616.644454	8153.978126
616.992686	8151.588619
617.340864	8212.599183
617.688990	8114.387424
618.037063	8206.358235
618.385082	8151.059298
618.733048	8239.841579
619.080961	8179.463679
619.428821	8192.923560
619.776628	8200.654169
620.124382	8153.050554
620.472083	8138.945405
620.819731	8161.749065
621.167326	8058.619660
621.514868	8069.178357
621.862357	7949.705531
622.209793	7966.061555
622.557176	7902.124600
622.904506	7876.132411
623.251783	7809.359808
623.599007	7763.737366
623.946179	7768.357583
624.293297	7729.351655
624.640363	7642.132132
624.987376	7631.593600
625.334336	7574.411792
625.681243	7521.464553
626.028097	7512.945003
626.374899	7491.930953
626.721647	7482.377967
627.068343	7416.059067
627.414987	7383.538584
627.761577	7338.027047
628.108115	7377.932821
628.454600	7269.845441
628.801032	7327.594379
629.147412	7284.525281
629.493739	7274.967253
629.840014	7210.354784
630.186236	7264.131293
630.532405	7146.775752
630.878521	7207.798919
631.224585	7154.634911
631.570597	7083.733603
631.916556	7117.121165
632.262462	7112.934486
632.608316	7073.835297
632.954117	7049.620115
633.299866	7034.181581
633.645562	7031.960953
633.991206	6955.075795
634.336797	6897.344501
634.682336	6850.030752
635.027823	6819.806514
635.373257	6808.494164
635.718639	6739.750470
636.063968	6754.158088
636.409245	6653.201420
636.754470	6646.952910
637.099642	6604.612259
637.444762	6549.514968
637.789829	6563.887297
638.134845	6505.316652
638.479808	6489.245453
638.824719	6493.311144
639.169577	6418.409680
639.514383	6441.629234
639.859137	6366.624427
640.203839	6374.178596
640.548489	6363.140990
