Dividing Wavelength (nm)	Counts (n)	Blue Motor Position (mm): 42.500000	Red Motor Position (mm): 0.000000	
326.493990	2132.657614
326.888308	2132.657614
327.282561	2132.657614
327.676750	2098.826431
328.070874	2095.514393
328.464933	2099.960690
328.858929	2107.542586
329.252859	2115.469800
329.646726	2128.057561
330.040528	2138.956536
330.434265	2159.257262
330.827938	2171.512307
331.221547	2190.761953
331.615091	2210.069573
332.008571	2231.108828
332.401986	2249.912332
332.795338	2268.935126
333.188625	2290.455812
333.581847	2305.480971
333.975006	2325.741368
334.368100	2341.797443
334.761129	2360.671523
335.154095	2377.415716
335.546996	2398.114693
335.939833	2426.340114
336.332606	2443.225458
336.725315	2451.883640
337.117960	2461.572738
337.510540	2471.047587
337.903056	2482.846407
338.295508	2487.620380
338.687896	2496.034066
339.080220	2506.572598
339.472480	2511.144924
339.864676	2516.768331
340.256807	2523.009280
340.648875	2523.662109
341.040879	2526.316277
341.432818	2526.777542
341.824694	2530.087060
342.216506	2530.971782
342.608253	2529.814837
342.999937	2528.710825
343.391557	2530.926412
343.783113	2531.160826
344.174605	2528.388191
344.566033	2527.924405
344.957397	2523.316790
345.348697	2522.205216
345.739934	2522.648837
346.131106	2520.324865
346.522215	2518.600791
346.913260	2514.063752
347.304241	2515.608866
347.695159	2512.750532
348.086012	2510.350942
348.476802	2510.182064
348.867528	2507.185098
349.258191	2508.115191
349.648789	2507.989162
350.039324	2503.832731
350.429796	2504.750221
350.820203	2502.219561
351.210548	2500.646721
351.600828	2500.104797
351.991045	2501.138234
352.381198	2500.301402
352.771288	2498.592451
353.161314	2496.321411
353.551276	2499.837616
353.941175	2495.086329
354.331010	2498.479025
354.720782	2496.003819
355.110490	2498.027842
355.500135	2499.358707
355.889717	2498.453819
356.279235	2493.755464
356.668689	2496.175218
357.058080	2496.669251
357.447408	2497.090187
357.836672	2495.323263
358.225873	2496.056751
358.615010	2494.882162
359.004084	2499.583038
359.393095	2498.791577
359.782043	2501.123110
360.170927	2501.735611
360.559748	2504.730056
360.948505	2503.908348
361.337199	2507.616117
361.725830	2504.699809
362.114398	2505.650067
362.502903	2506.433966
362.891344	2505.876918
363.279722	2505.783657
363.668037	2506.464213
364.056289	2509.872033
364.444478	2508.473113
364.832603	2507.346415
365.220665	2506.978411
365.608665	2508.730212
365.996601	2512.715244
366.384474	2510.156858
366.772284	2514.338495
367.160031	2512.924452
367.547715	2513.090810
367.935336	2512.488392
368.322893	2513.746160
368.710388	2512.475789
369.097820	2518.056346
369.485189	2512.906807
369.872495	2513.955368
370.259738	2514.945954
370.646918	2517.025430
371.034035	2514.005779
371.421090	2515.321520
371.808081	2515.976870
372.195010	2519.568692
372.581875	2516.440656
372.968678	2516.475944
373.355418	2516.710358
373.742096	2519.724968
374.128710	2519.548528
374.515262	2519.351923
374.901751	2518.305883
375.288177	2522.923580
375.674540	2519.193126
376.060841	2521.348220
376.447079	2519.467869
376.833254	2520.284536
377.219367	2515.460152
377.605417	2522.626152
377.991404	2519.072139
378.377329	2520.544156
378.763191	2520.052643
379.148991	2524.816533
379.534727	2526.434744
379.920402	2527.586648
380.306013	2530.054292
380.691563	2533.676361
381.077049	2535.967566
381.462474	2539.622402
381.847835	2546.281767
382.233134	2551.209494
382.618371	2555.484393
383.003545	2569.178687
383.388657	2578.930799
383.773706	2590.293560
384.158693	2602.024325
384.543618	2615.433794
384.928480	2634.045734
385.313280	2647.873619
385.698017	2660.781494
386.082692	2684.653878
386.467305	2699.162319
386.851856	2722.765001
387.236344	2742.133114
387.620770	2768.841147
388.005133	2793.376443
388.389435	2822.080773
388.773674	2845.509535
389.157851	2883.401368
389.541965	2906.499935
389.926018	2919.483427
390.310008	2968.687609
390.693936	3000.976199
391.077802	3045.197201
391.461606	3069.856005
391.845348	3126.866414
392.229027	3148.760145
392.612645	3187.806402
392.996200	3252.426433
393.379694	3304.093218
393.763125	3369.376161
394.146494	3383.312431
394.529801	3452.681228
394.913047	3514.793285
395.296230	3524.817619
395.679351	3589.765325
396.062410	3637.424393
396.445408	3653.616579
396.828343	3707.975341
397.211217	3755.384873
397.594028	3719.262485
397.976778	3796.009011
398.359466	3846.556660
398.742092	3895.511305
399.124656	3853.377342
399.507158	3940.233902
399.889598	3982.161178
400.271977	4058.615317
400.654294	4050.045356
401.036549	4075.851022
401.418742	4067.545722
401.800874	4173.914068
402.182944	4207.162998
402.564952	4280.970531
402.946898	4289.275832
403.328783	4290.732726
403.710606	4220.358218
404.092367	4415.319802
404.474067	4390.522366
404.855705	4407.911826
405.237282	4345.474615
405.618797	4460.299497
406.000250	4495.499354
406.381642	4582.015636
406.762972	4552.048497
407.144240	4564.779931
407.525447	4566.156166
407.906593	4629.520949
408.287677	4672.048123
408.668700	4608.272486
409.049661	4660.375332
409.430560	4699.509809
409.811399	4627.272595
410.192176	4794.956495
410.572891	4734.233277
410.953545	4834.887475
411.334138	4720.566708
411.714669	4787.399806
412.095139	4682.700081
412.475547	4826.763655
412.855894	4803.045027
413.236180	4815.433662
413.616405	4767.973719
413.996568	4856.105691
414.376670	4798.802896
414.756711	4754.902007
415.136691	4785.431235
415.516609	4865.877968
415.896466	4902.849790
416.276262	4932.849697
416.655997	4915.626595
417.035670	5098.696097
417.415283	5189.189849
417.794834	5130.399913
418.174324	5086.710753
418.553753	4998.614069
418.933121	5176.574362
419.312428	5247.483232
419.691674	5182.177604
420.070859	5310.434641
420.449983	5222.831990
420.829045	5340.351368
421.208047	5244.546760
421.586988	5316.254653
421.965867	5332.880378
422.344686	5463.105985
422.723444	5318.190456
423.102141	5137.742354
423.480777	5435.399803
423.859352	5204.807344
424.237866	5462.982477
424.616319	5454.503256
424.994712	5564.836469
425.373044	5440.894661
425.751314	5581.411783
426.129524	5388.549840
426.507673	5579.838943
426.885762	5661.155275
427.263789	5599.101192
427.641756	5477.571576
428.019662	5597.485502
428.397508	5605.039671
428.775292	5547.870466
429.153016	5648.620446
429.530679	5576.761319
429.908282	5664.245503
430.285824	5531.511922
430.663305	5810.801927
431.040726	5544.845774
431.418086	5546.025404
431.795385	5649.122041
432.172624	5660.794833
432.549802	5653.275952
432.926920	5663.375904
433.303977	5673.732954
433.680974	5712.103697
434.057910	5730.246809
434.434786	5732.984156
434.811601	5709.560435
435.188355	5941.904695
435.565050	5811.676568
435.941683	5797.147962
436.318257	6009.740982
436.694770	5992.575853
437.071222	6028.226893
437.447614	5960.446059
437.823946	5875.724427
438.200218	6023.997365
438.576429	5888.332353
438.952580	5988.578218
439.328670	6037.789962
439.704700	5945.536846
440.080670	5933.503612
440.456580	6199.462286
440.832429	6087.510862
441.208218	5927.340801
441.583947	6084.665131
441.959616	6090.941367
442.335224	6013.607547
442.710773	6148.712990
443.086261	6179.211971
443.461689	5976.454243
443.837057	6125.687520
444.212365	6279.979595
444.587612	6170.122771
444.962800	6322.703374
445.337927	6306.213760
445.712995	5916.678761
446.088002	6492.060937
446.462949	6325.755793
446.837837	6254.030256
447.212664	6423.410504
447.587431	6568.381486
447.962139	7112.969774
448.336786	8035.972276
448.711374	7782.298894
449.085901	6849.012438
449.460369	6774.894874
449.834776	6709.619493
450.209124	7100.598783
450.583412	7249.504385
450.957640	7398.901500
451.331808	7157.541136
451.705917	6708.404575
452.079965	6633.198122
452.453954	6846.880030
452.827883	6718.938066
453.201752	6822.100239
453.575562	6620.219671
453.949311	6824.698953
454.323001	6709.715275
454.696632	6786.882738
455.070202	6921.325270
455.443713	7072.915287
455.817164	7176.435381
456.190556	7262.077023
456.563888	7335.415729
456.937160	7376.259157
457.310373	7031.499687
457.683526	7057.375930
458.056619	6952.489683
458.429653	6940.038033
458.802628	6870.160079
459.175542	6982.275340
459.548398	7345.200609
459.921194	7495.754668
460.293930	7501.395719
460.666607	8027.735031
461.039224	8335.187442
461.411782	8459.020866
461.784280	8480.193712
462.156719	8372.502063
462.529099	8250.370029
462.901419	7842.041608
463.273680	7733.581183
463.645882	7742.168789
464.018024	7609.266329
464.390106	7776.231865
464.762130	8170.155189
465.134094	8637.651632
465.505999	9659.354885
465.877845	10880.019877
466.249631	11527.540965
466.621358	11137.708538
466.993026	10514.911789
467.364634	10253.351522
467.736184	9897.337675
468.107674	9566.448940
468.479105	9589.366025
468.850477	9355.597639
469.221790	9133.814596
469.593043	8799.563411
469.964238	8664.720107
470.335373	8674.852827
470.706449	8734.119152
471.077467	8714.690545
471.448425	10025.871975
471.819324	11095.587177
472.190164	11116.313881
472.560945	9868.066216
472.931667	9087.625024
473.302330	8943.989948
473.672934	8592.041792
474.043479	8949.502450
474.413965	8887.723109
474.784393	8779.925596
475.154761	8937.665821
475.525070	9022.316876
475.895321	8847.487140
476.265513	9028.353658
476.635645	9192.297022
477.005719	9195.293988
477.375734	9311.805136
477.745691	9540.923057
478.115588	9682.536631
478.485427	9923.400441
478.855207	10458.226535
479.224928	11276.725917
479.594591	11906.025755
479.964194	11714.260262
480.333739	11650.855150
480.703226	11566.577140
481.072653	11659.861171
481.442022	11889.657128
481.811333	12088.386974
482.180584	11887.015563
482.549777	11598.916142
482.918912	11425.563464
483.287988	11443.207502
483.657005	11458.008330
484.025964	11131.739812
484.394864	11273.267686
484.763706	11247.668706
485.132489	10997.118319
485.501213	10963.161107
485.869879	11039.985771
486.238487	10876.909485
486.607036	10992.969449
486.975527	10774.508527
487.343959	10958.631630
487.712333	11009.038127
488.080648	10936.561458
488.448905	10984.195321
488.817104	10918.728377
489.185244	11192.289111
489.553326	11346.082112
489.921350	11884.832744
490.289315	12948.501082
490.657222	13278.497533
491.025070	13185.609233
491.392861	13067.250502
491.760593	12680.707428
492.128267	12330.460662
492.495883	12005.444870
492.863440	11669.865341
493.230939	11347.549087
493.598380	11266.116809
493.965763	11134.948506
494.333088	11031.806499
494.700354	10958.172885
495.067563	11018.707060
495.434713	10851.582728
495.801805	10973.419855
496.168839	10896.912783
496.535815	10833.172434
496.902733	10841.029073
497.269593	10768.040727
497.636395	10865.287105
498.003139	10859.116733
498.369825	10724.293593
498.736453	10881.532223
499.103023	10811.402211
499.469535	10838.702580
499.835989	10826.079531
500.202385	10794.035436
500.568723	10633.625921
500.935003	10862.703513
501.301226	10667.336117
501.667390	10932.949472
502.033497	11020.133707
502.399546	10884.022553
502.765537	10790.373038
503.131470	10863.613442
503.497345	11045.135309
503.863163	10651.214507
504.228923	10964.701179
504.594625	11016.977945
504.960269	10774.664803
505.325856	10997.282157
505.691385	10779.854671
506.056856	10937.640265
506.422270	10958.712288
506.787625	10856.202946
507.152924	10974.324742
507.518164	10949.219796
507.883347	10871.091993
508.248472	10794.400920
508.613540	11023.670076
508.978550	10909.888713
509.343503	10886.039015
509.708398	11005.615184
510.073236	11116.389498
510.438016	11118.998296
510.802738	11071.566079
511.167403	11124.755293
511.532010	11023.357525
511.896561	11253.319840
512.261053	11325.287352
512.625488	11193.360356
512.989866	11175.302943
513.354186	11164.950933
513.718449	11070.094062
514.082655	11264.216294
514.446803	11157.363997
514.810894	11273.315577
515.174927	11142.971503
515.538904	11158.508339
515.902822	11322.550006
516.266684	11202.552900
516.630488	11148.110959
516.994235	11199.412261
517.357925	11264.044895
517.721558	11342.286123
518.085133	11369.137829
518.448651	11379.394056
518.812112	11259.414595
519.175516	11267.772828
519.538863	11392.528783
519.902152	11308.840588
520.265385	11470.833025
520.628560	11383.565611
520.991678	11355.612413
521.354739	11426.014647
521.717743	11365.911490
522.080690	11336.206491
522.443580	11475.148253
522.806413	11430.198805
523.169189	11459.182919
523.531908	11520.306909
523.894569	11332.077786
524.257174	11341.411483
524.619722	11463.445214
524.982213	11404.488920
525.344647	11465.146604
525.707025	11411.438151
526.069345	11503.131698
526.431608	11424.396437
526.793815	11526.482323
527.155964	11314.499283
527.518057	11372.260824
527.880093	11322.444141
528.242072	11388.715150
528.603995	11290.531117
528.965860	11212.907430
529.327669	11270.479928
529.689421	11221.593338
530.051117	11184.467761
530.412755	11292.373659
530.774337	11181.291834
531.135862	11156.428863
531.497331	11185.044973
531.858743	11029.994204
532.220098	11198.625841
532.581396	11068.138094
532.942638	11054.413553
533.303824	11017.250167
533.664953	11033.676767
534.026025	10948.274579
534.387040	11042.876873
534.747999	11047.441637
535.108902	11107.963210
535.469748	10870.678619
535.830537	10971.282406
536.191270	10951.069899
536.551947	10972.613270
536.912567	10962.944337
537.273131	10897.321117
537.633638	10872.110307
537.994089	10862.751404
538.354483	10811.687037
538.714821	10957.948554
539.075103	10962.629265
539.435328	10931.235479
539.795497	10757.678635
540.155609	10914.135886
540.515665	11006.131902
540.875665	10744.004505
541.235609	10807.039093
541.595496	10800.656992
541.955328	10960.343102
542.315102	10838.916829
542.674821	10795.225149
543.034483	10791.557709
543.394090	10794.383276
543.753640	10717.848478
544.113134	10949.217275
544.472571	10800.034409
544.831953	10937.247055
545.191278	10747.487942
545.550548	10772.655903
545.909761	10909.399722
546.268918	10887.395085
546.628019	10971.473969
546.987064	10837.984216
547.346053	10763.183575
547.704986	10854.602379
548.063863	10840.968579
548.422684	10836.887765
548.781449	10755.672256
549.140158	10859.635971
549.498811	10732.225849
549.857408	10590.332492
550.215949	10817.537296
550.574434	10669.725624
550.932864	10767.932342
551.291237	10829.391569
551.649555	10774.700091
552.007817	10788.772472
552.366022	10742.487118
552.724173	10749.784188
553.082267	10733.995294
553.440305	10864.165448
553.798288	10670.045737
554.156215	10821.124077
554.514086	10794.123657
554.871902	10647.383230
555.229661	10683.734990
555.587365	10658.403192
555.945014	10550.610720
556.302606	10677.428507
556.660143	10574.846067
557.017625	10718.597090
557.375050	10622.283325
557.732421	10758.497822
558.089735	10672.601602
558.446994	10667.701600
558.804197	10706.851201
559.161345	10708.587879
559.518437	10557.595239
559.875474	10647.980607
560.232455	10673.075470
560.589381	10625.000507
560.946251	10620.833993
561.303065	10735.076622
561.659825	10667.512557
562.016528	10591.920455
562.373177	10475.941149
562.729770	10589.697306
563.086307	10506.044399
563.442789	10598.463873
563.799216	10489.035546
564.155587	10522.833962
564.511904	10482.978600
564.868164	10465.702566
565.224370	10492.128294
565.580520	10411.976469
565.936615	10422.388972
566.292654	10291.099682
566.648638	10419.737325
567.004567	10379.108146
567.360441	10358.242810
567.716260	10268.669068
568.072023	10365.441577
568.427732	10322.443056
568.783385	10215.328619
569.138982	10295.044385
569.494525	10302.565786
569.850013	10187.458600
570.205445	10261.651782
570.560823	10167.825826
570.916145	10077.800901
571.271412	10145.924533
571.626625	10095.757491
571.981782	10074.597248
572.336884	10044.425942
572.691931	10053.147138
573.046923	9996.920628
573.401860	9952.515625
573.756743	9891.691583
574.111570	9931.473849
574.466342	9915.760572
574.821059	9949.349780
575.175722	9832.941976
575.530330	9842.600827
575.884882	9847.647022
576.239380	9759.182334
576.593823	9740.426721
576.948211	9758.970605
577.302544	9641.282348
577.656823	9657.567796
578.011047	9660.262292
578.365216	9628.099731
578.719330	9552.454697
579.073389	9565.541532
579.427394	9508.326957
579.781344	9484.767124
580.135239	9445.862019
580.489080	9453.335530
580.842866	9351.942803
581.196597	9354.107978
581.550273	9391.848576
581.903895	9363.517292
582.257463	9426.715717
582.610975	9306.975710
582.964434	9338.956790
583.317837	9253.151311
583.671186	9240.634126
584.024481	9232.054082
584.377721	9154.311928
584.730906	9127.848391
585.084037	9160.429368
585.437113	9097.082229
585.790135	9115.900856
586.143103	9013.804888
586.496016	8990.701280
586.848874	9044.886122
587.201679	9035.764154
587.554428	8921.385414
587.907124	8962.690108
588.259765	8937.570039
588.612352	8936.730687
588.964884	8816.448756
589.317362	8831.451230
589.669786	8826.107607
590.022155	8874.134679
590.374470	8892.272751
590.726731	8828.350920
591.078937	8683.460597
591.431090	8790.940517
591.783188	8664.573914
592.135232	8660.614087
592.487222	8664.609202
592.839157	8715.872695
593.191038	8645.173033
593.542866	8594.189324
593.894639	8490.999425
594.246358	8540.589256
594.598022	8555.997542
594.949633	8452.401831
595.301190	8429.918285
595.652692	8460.800393
596.004141	8570.700067
596.355535	8350.671346
596.706876	8330.065630
597.058162	8262.559539
597.409395	8337.705498
597.760573	8402.806959
598.111698	8314.364956
598.462768	8300.970610
598.813785	8260.482583
599.164748	8236.393430
599.515657	8220.791058
599.866511	8132.873335
600.217312	8256.411852
600.568060	8115.420861
600.918753	8217.867189
601.269392	8185.896192
601.619978	8100.683047
601.970510	8164.869539
602.320988	8160.246801
602.671412	8221.922798
603.021783	8156.438209
603.372100	8126.748333
603.722363	8128.686657
604.072572	8105.152030
604.422728	8116.386242
604.772830	8043.508801
605.122878	8052.870224
605.472872	8048.612969
605.822813	8080.084893
606.172701	8016.604163
606.522534	8095.435206
606.872314	8094.605937
607.222041	8065.402532
607.571714	8120.777087
607.921333	8079.391734
608.270899	8085.778876
608.620411	8171.544027
608.969870	8082.572702
609.319276	8072.200528
609.668627	8089.463960
610.017926	8123.002756
610.367171	8171.846496
610.716362	8146.829770
611.065500	8139.376424
611.414585	8167.067482
611.763616	8153.060636
612.112594	8133.506000
612.461518	8150.887899
612.810389	8211.727064
613.159207	8151.313876
613.507971	8098.646421
613.856682	8218.406593
614.205340	8170.813059
614.553945	8253.188034
614.902496	8148.672312
615.250994	8208.772948
615.599439	8189.162859
615.947830	8200.132410
616.296169	8170.326588
616.644454	8187.973147
616.992686	8185.364350
617.340864	8245.805264
617.688990	8147.875809
618.037063	8237.883091
618.385082	8185.939041
618.733048	8270.965663
619.080961	8210.008030
619.428821	8224.022438
619.776628	8230.316319
620.124382	8181.255809
620.472083	8167.150661
620.819731	8192.482459
621.167326	8085.733506
621.514868	8097.353365
621.862357	7976.814336
622.209793	8001.243767
622.557176	7934.428314
622.904506	7906.535610
623.251783	7835.972059
623.599007	7791.693084
623.946179	7795.536964
624.293297	7754.675892
624.640363	7672.794950
624.987376	7652.373236
625.334336	7607.070907
625.681243	7543.239817
626.028097	7532.187087
626.374899	7510.704210
626.721647	7507.288828
627.068343	7441.007737
627.414987	7411.491782
627.761577	7368.707509
628.108115	7401.888384
628.454600	7294.136241
628.801032	7348.109354
629.147412	7307.633930
629.493739	7296.911396
629.840014	7236.929227
630.186236	7289.987371
630.532405	7170.990935
630.878521	7225.604275
631.224585	7180.130547
631.570597	7102.489216
631.916556	7137.550441
632.262462	7136.461551
632.608316	7099.608196
632.954117	7072.547282
633.299866	7058.248049
633.645562	7057.650673
633.991206	6972.999617
634.336797	6911.938641
634.682336	6870.986828
635.027823	6842.829463
635.373257	6832.018709
635.718639	6761.578666
636.063968	6777.002076
636.409245	6668.750859
636.754470	6665.998389
637.099642	6625.782584
637.444762	6567.264871
637.789829	6579.303146
638.134845	6524.732656
638.479808	6505.349419
638.824719	6507.000397
639.169577	6438.034892
639.514383	6462.073634
639.859137	6386.504217
640.203839	6397.619961
640.548489	6380.243104
