Dividing Wavelength (nm)	Counts (n)	Blue Motor Position (mm): 46.500000	Red Motor Position (mm): 0.000000	
326.493990	2129.683333
326.888308	2129.683333
327.282561	2129.683333
327.676750	2098.629826
328.070874	2096.026070
328.464933	2099.249888
328.858929	2105.521083
329.252859	2115.429471
329.646726	2127.135030
330.040528	2138.157513
330.434265	2154.810965
330.827938	2172.490291
331.221547	2191.107272
331.615091	2210.719881
332.008571	2228.545401
332.401986	2251.162538
332.795338	2268.640218
333.188625	2287.552107
333.581847	2308.046918
333.975006	2327.404949
334.368100	2342.815756
334.761129	2361.067254
335.154095	2378.040819
335.546996	2399.178377
335.939833	2426.423293
336.332606	2441.052721
336.725315	2452.475976
337.117960	2460.440999
337.510540	2469.116825
337.903056	2481.432363
338.295508	2488.028713
338.687896	2498.259735
339.080220	2504.299037
339.472480	2513.665501
339.864676	2516.697755
340.256807	2520.876872
340.648875	2524.446009
341.040879	2524.998015
341.432818	2526.119672
341.824694	2528.597399
342.216506	2529.555218
342.608253	2530.518078
342.999937	2529.305681
343.391557	2529.683768
343.783113	2528.332738
344.174605	2526.472552
344.566033	2526.734692
344.957397	2524.940042
345.348697	2522.147243
345.739934	2523.122706
346.131106	2520.496265
346.522215	2518.217663
346.913260	2515.432426
347.304241	2513.650378
347.695159	2513.781448
348.086012	2512.730367
348.476802	2507.931189
348.867528	2506.076044
349.258191	2507.381703
349.648789	2505.229130
350.039324	2506.970849
350.429796	2505.214007
350.820203	2500.387102
351.210548	2502.673265
351.600828	2501.155878
351.991045	2501.044973
352.381198	2496.507934
352.771288	2496.288644
353.161314	2499.509941
353.551276	2497.896772
353.941175	2495.376195
354.331010	2496.225629
354.720782	2497.546412
355.110490	2499.608244
355.500135	2497.793428
355.889717	2497.095228
356.279235	2498.300064
356.668689	2495.673623
357.058080	2501.291989
357.447408	2497.889210
357.836672	2494.453664
358.225873	2499.535147
358.615010	2496.034066
359.004084	2501.738131
359.393095	2501.937257
359.782043	2503.207628
360.170927	2503.522700
360.559748	2504.538492
360.948505	2507.081754
361.337199	2506.837258
361.725830	2506.146620
362.114398	2506.176867
362.502903	2510.136693
362.891344	2507.679131
363.279722	2506.408760
363.668037	2510.698782
364.056289	2510.323216
364.444478	2511.228103
364.832603	2510.275325
365.220665	2510.683659
365.608665	2513.647857
365.996601	2511.878412
366.384474	2513.363032
366.772284	2513.612569
367.160031	2512.324554
367.547715	2514.456962
367.935336	2513.310100
368.322893	2515.984432
368.710388	2518.202540
369.097820	2517.501819
369.485189	2517.191788
369.872495	2520.130781
370.259738	2518.177334
370.646918	2518.401665
371.034035	2518.976357
371.421090	2520.929804
371.808081	2520.753363
372.195010	2524.173786
372.581875	2528.862059
372.968678	2533.951104
373.355418	2534.646783
373.742096	2543.935109
374.128710	2548.414175
374.515262	2555.557490
374.901751	2564.261042
375.288177	2569.178687
375.674540	2583.775348
376.060841	2594.994436
376.447079	2606.074892
376.833254	2622.614918
377.219367	2630.216978
377.605417	2649.537200
377.991404	2664.816937
378.377329	2681.402334
378.763191	2696.331711
379.148991	2723.301884
379.534727	2745.316603
379.920402	2768.309305
380.306013	2783.425205
380.691563	2827.139571
381.077049	2845.839731
381.462474	2868.114069
381.847835	2907.644277
382.233134	2933.613781
382.618371	2945.742797
383.003545	3002.899400
383.388657	3021.450846
383.773706	3059.249417
384.158693	3083.913263
384.543618	3116.282511
384.928480	3155.248110
385.313280	3208.712067
385.698017	3216.856051
386.082692	3274.670524
386.467305	3292.077628
386.851856	3335.088753
387.236344	3360.828884
387.620770	3401.263979
388.005133	3434.661624
388.389435	3471.782160
388.773674	3491.581292
389.157851	3541.279507
389.541965	3563.079977
389.926018	3538.388405
390.310008	3616.440590
390.693936	3639.302223
391.077802	3684.624717
391.461606	3680.543903
391.845348	3747.135024
392.229027	3749.847165
392.612645	3769.056482
392.996200	3848.903317
393.379694	3890.994432
393.763125	3957.996407
394.146494	3930.897685
394.529801	3990.937827
394.913047	4045.309192
395.296230	4008.269314
395.679351	4068.488417
396.062410	4093.512705
396.445408	4075.258687
396.828343	4108.890745
397.211217	4135.465187
397.594028	4057.672622
397.976778	4123.716778
398.359466	4150.366838
398.742092	4180.858257
399.124656	4097.006225
399.507158	4179.587886
399.889598	4206.747103
400.271977	4269.446454
400.654294	4237.619129
401.036549	4246.113473
401.418742	4219.115574
401.800874	4320.863702
402.182944	4343.067464
402.564952	4408.231940
402.946898	4392.843818
403.328783	4388.435328
403.710606	4304.076660
404.092367	4500.084283
404.474067	4457.221873
404.855705	4466.515240
405.237282	4397.597626
405.618797	4508.394625
406.000250	4543.745717
406.381642	4621.366883
406.762972	4583.452365
407.144240	4596.181278
407.525447	4592.176082
407.906593	4657.464065
408.287677	4696.119633
408.668700	4623.658087
409.049661	4676.474256
409.430560	4717.627716
409.811399	4646.129031
410.192176	4807.642559
410.572891	4744.000512
410.953545	4846.179659
411.334138	4726.905959
411.714669	4795.460611
412.095139	4691.101164
412.475547	4829.959747
412.855894	4814.412828
413.236180	4821.659487
413.616405	4776.634422
413.996568	4861.078790
414.376670	4807.667765
414.756711	4766.247124
415.136691	4790.784940
415.516609	4873.674112
415.896466	4910.691305
416.276262	4940.197179
416.655997	4922.069189
417.035670	5107.918888
417.415283	5191.788564
417.794834	5138.818640
418.174324	5091.467082
418.553753	5003.509030
418.933121	5184.486453
419.312428	5250.409622
419.691674	5194.246127
420.070859	5321.804963
420.449983	5230.376076
420.829045	5344.704404
421.208047	5250.439869
421.586988	5324.852341
421.965867	5333.182847
422.344686	5469.248631
422.723444	5324.323019
423.102141	5142.654958
423.480777	5443.538746
423.859352	5210.544177
424.237866	5468.769721
424.616319	5459.042815
424.994712	5567.319238
425.373044	5445.189724
425.751314	5587.289769
426.129524	5393.903545
426.507673	5584.905303
426.885762	5667.539897
427.263789	5599.748980
427.641756	5480.490404
428.019662	5604.739723
428.397508	5609.173417
428.775292	5557.534358
429.153016	5662.163506
429.530679	5586.291620
429.908282	5666.095606
430.285824	5538.814033
430.663305	5814.277803
431.040726	5550.567483
431.418086	5551.255601
431.795385	5652.872660
432.172624	5665.641902
432.549802	5660.109236
432.926920	5670.791441
433.303977	5678.958110
433.680974	5720.643411
434.057910	5738.844497
434.434786	5745.574438
434.811601	5712.524633
435.188355	5943.071722
435.565050	5819.623947
435.941683	5798.740967
436.318257	6020.702971
436.694770	6000.911401
437.071222	6037.376587
437.447614	5968.937882
437.823946	5880.566455
438.200218	6035.082862
438.576429	5898.092027
438.952580	6000.495505
439.328670	6045.195417
439.704700	5950.704029
440.080670	5935.033602
440.456580	6211.346806
440.832429	6090.399443
441.208218	5935.633499
441.583947	6092.347849
441.959616	6099.483602
442.335224	6026.046594
442.710773	6159.586759
443.086261	6187.368558
443.461689	5980.577907
443.837057	6128.510566
444.212365	6286.381861
444.587612	6177.008987
444.962800	6328.535989
445.337927	6314.461087
445.712995	5922.380306
446.088002	6501.024109
446.462949	6326.965670
446.837837	6261.715495
447.212664	6434.196053
447.587431	6577.334575
447.962139	7120.052596
448.336786	8049.429636
448.711374	7787.196375
449.085901	6863.707402
449.460369	6780.059536
449.834776	6712.127468
450.209124	7108.233610
450.583412	7260.799090
450.957640	7403.730925
451.331808	7163.532547
451.705917	6721.826647
452.079965	6640.669112
452.453954	6856.372523
452.827883	6733.239820
453.201752	6825.533264
453.575562	6626.218644
453.949311	6826.806156
454.323001	6718.496965
454.696632	6789.478932
455.070202	6927.745179
455.443713	7087.401042
455.817164	7192.919954
456.190556	7268.411233
456.563888	7343.718509
456.937160	7386.918677
457.310373	7042.212139
457.683526	7066.460089
458.056619	6955.942873
458.429653	6944.416275
458.802628	6877.489917
459.175542	6991.014181
459.548398	7348.094231
459.921194	7505.771441
460.293930	7507.762697
460.666607	8037.023357
461.039224	8347.903753
461.411782	8473.352866
461.784280	8490.054209
462.156719	8380.245275
462.529099	8258.400587
462.901419	7850.692228
463.273680	7745.964778
463.645882	7755.298474
464.018024	7626.249977
464.390106	7785.663864
464.762130	8181.268412
465.134094	8642.639853
465.505999	9667.236729
465.877845	10894.780375
466.249631	11537.716534
466.621358	11158.243678
466.993026	10530.998111
467.364634	10271.905488
467.736184	9912.856868
468.107674	9577.872194
468.479105	9612.784705
468.850477	9377.362821
469.221790	9150.790682
469.593043	8814.490267
469.964238	8676.544134
470.335373	8693.971402
470.706449	8745.779341
471.077467	8728.241166
471.448425	10043.841168
471.819324	11112.820362
472.190164	11139.362037
472.560945	9890.617817
472.931667	9094.722969
473.302330	8965.245973
473.672934	8604.657280
474.043479	8966.297054
474.413965	8904.051407
474.784393	8789.665105
475.154761	8944.305020
475.525070	9033.674596
475.895321	8864.959779
476.265513	9034.342548
476.635645	9210.072130
477.005719	9202.795225
477.375734	9323.059512
477.745691	9557.667250
478.115588	9697.322335
478.485427	9937.142626
478.855207	10474.408638
479.224928	11289.134717
479.594591	11916.430696
479.964194	11733.101575
480.333739	11676.625528
480.703226	11580.052144
481.072653	11673.368943
481.442022	11915.792990
481.811333	12102.083789
482.180584	11908.135477
482.549777	11617.293668
482.918912	11437.347161
483.287988	11463.485544
483.657005	11470.661626
484.025964	11158.977166
484.394864	11291.622527
484.763706	11259.631364
485.132489	11017.610609
485.501213	10982.350259
485.869879	11057.244161
486.238487	10902.246324
486.607036	11006.941007
486.975527	10786.635023
487.343959	10980.452264
487.712333	11024.060766
488.080648	10960.464089
488.448905	11002.734164
488.817104	10936.831160
489.185244	11215.135620
489.553326	11360.507373
489.921350	11896.976883
490.289315	12958.215385
490.657222	13308.220176
491.025070	13211.518243
491.392861	13086.739603
491.760593	12702.553268
492.128267	12352.326666
492.495883	12024.603775
492.863440	11691.360821
493.230939	11349.132010
493.598380	11285.910899
493.965763	11153.542802
494.333088	11054.461444
494.700354	10976.240380
495.067563	11038.680112
495.434713	10861.370128
495.801805	10981.069806
496.168839	10919.471947
496.535815	10851.859992
496.902733	10855.799653
497.269593	10784.668973
497.636395	10883.510876
498.003139	10872.445543
498.369825	10736.190717
498.736453	10895.443287
499.103023	10823.135497
499.469535	10859.048677
499.835989	10841.881027
500.202385	10804.576489
500.568723	10662.322689
500.935003	10881.983406
501.301226	10684.907058
501.667390	10941.806779
502.033497	11043.925433
502.399546	10902.659699
502.765537	10804.798300
503.131470	10875.361851
503.497345	11061.007382
503.863163	10662.645323
504.228923	10979.007974
504.594625	11037.881089
504.960269	10791.620724
505.325856	11012.307316
505.691385	10803.704369
506.056856	10958.803029
506.422270	10974.584361
506.787625	10868.909174
507.152924	10993.211425
507.518164	10968.915584
507.883347	10884.214117
508.248472	10805.342744
508.613540	11041.246059
508.978550	10931.721951
509.343503	10901.195244
509.708398	11024.925324
510.073236	11130.847528
510.438016	11137.950513
510.802738	11091.849162
511.167403	11145.524847
511.532010	11034.319514
511.896561	11269.209557
512.261053	11334.106851
512.625488	11212.889786
512.989866	11192.195849
513.354186	11184.815600
513.718449	11080.224261
514.082655	11271.437747
514.446803	11171.781697
514.810894	11288.416353
515.174927	11160.638226
515.538904	11182.784015
515.902822	11341.880310
516.266684	11220.176774
516.630488	11158.825932
516.994235	11224.028215
517.357925	11282.717328
517.721558	11371.696214
518.085133	11385.869418
518.448651	11390.958463
518.812112	11279.226329
519.175516	11294.001951
519.538863	11417.679099
519.902152	11325.015130
520.265385	11492.336067
520.628560	11397.506922
520.991678	11378.509334
521.354739	11441.516195
521.717743	11378.713501
522.080690	11355.264573
522.443580	11491.514359
522.806413	11449.365272
523.169189	11480.849798
523.531908	11536.118488
523.894569	11352.338184
524.257174	11363.756397
524.619722	11482.278965
524.982213	11425.744945
525.344647	11474.951648
525.707025	11427.199318
526.069345	11515.704336
526.431608	11436.590988
526.793815	11545.870600
527.155964	11331.734988
527.518057	11383.573173
527.880093	11330.704072
528.242072	11407.647203
528.603995	11318.159161
528.965860	11231.920142
529.327669	11283.050045
529.689421	11230.758156
530.051117	11206.293436
530.412755	11306.481328
530.774337	11193.509070
531.135862	11175.980978
531.497331	11201.000225
531.858743	11054.887422
532.220098	11216.675692
532.581396	11092.136507
532.942638	11067.795296
533.303824	11034.170800
533.664953	11046.771164
534.026025	10962.614142
534.387040	11063.419574
534.747999	11069.826881
535.108902	11128.652105
535.469748	10884.723273
535.830537	10981.916720
536.191270	10970.274175
536.551947	10988.313944
536.912567	10987.393933
537.273131	10915.857440
537.633638	10890.840714
537.994089	10880.909641
538.354483	10830.304018
538.714821	10974.072684
539.075103	10980.505197
539.435328	10950.107039
539.795497	10779.801738
540.155609	10928.402351
540.515665	11016.488953
540.875665	10759.952195
541.235609	10821.083747
541.595496	10813.643004
541.955328	10970.501027
542.315102	10858.559685
542.674821	10802.378546
543.034483	10802.822168
543.394090	10816.987810
543.753640	10745.726059
544.113134	10966.410130
544.472571	10810.940946
544.831953	10958.629109
545.191278	10760.662998
545.550548	10788.868254
545.909761	10932.684811
546.268918	10911.794270
546.628019	10989.344860
546.987064	10851.267656
547.346053	10770.788155
547.704986	10873.370595
548.063863	10864.793072
548.422684	10850.438386
548.781449	10770.523495
549.140158	10866.713751
549.498811	10749.343087
549.857408	10607.258166
550.215949	10829.522639
550.574434	10685.973262
550.932864	10784.651328
551.291237	10849.619199
551.649555	10786.461103
552.007817	10799.111878
552.366022	10767.342527
552.724173	10759.017061
553.082267	10749.370813
553.440305	10881.670855
553.798288	10686.144662
554.156215	10835.317445
554.514086	10811.308950
554.871902	10667.870479
555.229661	10700.000273
555.587365	10675.593527
555.945014	10565.088914
556.302606	10694.550786
556.660143	10587.373334
557.017625	10740.032076
557.375050	10638.467949
557.732421	10773.966603
558.089735	10683.422439
558.446994	10683.982007
558.804197	10720.744621
559.161345	10726.645292
559.518437	10573.071581
559.875474	10660.858234
560.232455	10693.310662
560.589381	10643.620008
560.946251	10637.101797
561.303065	10750.452141
561.659825	10679.843219
562.016528	10612.082550
562.373177	10495.427729
562.729770	10613.604978
563.086307	10526.173727
563.442789	10619.510690
563.799216	10493.648202
564.155587	10546.582838
564.511904	10497.350930
564.868164	10492.425722
565.224370	10504.690850
565.580520	10425.801833
565.936615	10438.286251
566.292654	10301.812134
566.648638	10432.912381
567.004567	10391.879909
567.360441	10377.391633
567.716260	10288.700092
568.072023	10378.286438
568.427732	10329.356998
568.783385	10238.419624
569.138982	10310.248505
569.494525	10328.888171
569.850013	10208.533143
570.205445	10281.481160
570.560823	10177.971148
570.916145	10098.895609
571.271412	10166.404221
571.626625	10108.176373
571.981782	10086.897663
572.336884	10065.008973
572.691931	10067.096011
573.046923	10012.114666
573.401860	9969.118665
573.756743	9901.877234
574.111570	9947.781981
574.466342	9933.137429
574.821059	9964.790834
575.175722	9851.143062
575.530330	9861.495072
575.884882	9858.114978
576.239380	9777.461558
576.593823	9759.729299
576.948211	9776.765878
577.302544	9654.096961
577.656823	9669.772429
578.011047	9676.325929
578.365216	9646.041197
578.719330	9569.171163
579.073389	9577.715919
579.427394	9531.763281
579.781344	9500.926543
580.135239	9455.231004
580.489080	9464.957910
580.842866	9371.305874
581.196597	9368.588693
581.550273	9414.228779
581.903895	9378.318119
582.257463	9442.728942
582.610975	9323.719903
582.964434	9349.177730
583.317837	9276.224672
583.671186	9251.384386
584.024481	9248.894056
584.377721	9164.469853
584.730906	9147.990321
585.084037	9172.886059
585.437113	9108.969269
585.790135	9133.088670
586.143103	9027.763843
586.496016	8998.207558
586.848874	9064.982682
587.201679	9050.333088
587.554428	8936.239174
587.907124	8981.294487
588.259765	8944.378117
588.612352	8948.126215
588.964884	8827.357813
589.317362	8843.912962
589.669786	8844.134773
590.022155	8894.092607
590.374470	8910.370493
590.726731	8845.992438
591.078937	8705.129997
591.431090	8810.434659
591.783188	8687.062501
592.135232	8677.118825
592.487222	8679.853651
592.839157	8720.578612
593.191038	8661.153491
593.542866	8611.016695
593.894639	8505.452413
594.246358	8559.423006
594.598022	8573.676869
594.949633	8470.146692
595.301190	8446.818753
595.652692	8475.197928
596.004141	8583.149197
596.355535	8366.601392
596.706876	8344.208587
597.058162	8279.722147
597.409395	8355.533539
597.760573	8410.877847
598.111698	8324.875762
598.462768	8312.426633
598.813785	8276.107640
599.164748	8244.832321
599.515657	8237.384016
599.866511	8143.452197
600.217312	8272.084799
600.568060	8128.021225
600.918753	8238.183039
601.269392	8204.114922
601.619978	8116.479503
601.970510	8180.572733
602.320988	8175.738267
602.671412	8230.200372
603.021783	8162.283427
603.372100	8138.912638
603.722363	8138.469016
604.072572	8116.804657
604.422728	8132.575907
604.772830	8057.805513
605.122878	8064.658962
605.472872	8058.344917
605.822813	8096.224147
606.172701	8034.510342
606.522534	8113.011189
606.872314	8109.799974
607.222041	8081.095644
607.571714	8134.080692
607.921333	8094.313550
608.270899	8099.793284
608.620411	8187.854680
608.969870	8093.229702
609.319276	8083.981705
609.668627	8101.280424
610.017926	8137.430538
610.367171	8185.218156
610.716362	8161.502048
611.065500	8154.605750
611.414585	8179.451076
611.763616	8171.249119
612.112594	8146.670973
612.461518	8165.655959
612.810389	8225.232315
613.159207	8168.282400
613.507971	8114.745346
613.856682	8235.987617
614.205340	8189.021707
614.553945	8265.813603
614.902496	8166.497832
615.250994	8218.343578
615.599439	8201.296917
615.947830	8211.822846
616.296169	8189.112448
616.644454	8199.028397
616.992686	8202.121145
617.340864	8262.463757
617.688990	8160.120772
618.037063	8251.290039
618.385082	8198.715846
618.733048	8278.492105
619.080961	8224.713076
619.428821	8245.021364
619.776628	8246.022033
620.124382	8195.981020
620.472083	8175.695417
620.819731	8205.198770
621.167326	8099.536185
621.514868	8111.093030
621.862357	7994.448292
622.209793	8016.704986
622.557176	7948.475489
622.904506	7917.048936
623.251783	7851.995367
623.599007	7801.795557
623.946179	7804.374107
624.293297	7766.038652
624.640363	7681.294336
624.987376	7669.114908
625.334336	7620.182948
625.681243	7563.739669
626.028097	7550.093266
626.374899	7532.522324
626.721647	7524.562342
627.068343	7450.001156
627.414987	7421.722803
627.761577	7379.677060
628.108115	7418.083090
628.454600	7306.199722
628.801032	7365.501335
629.147412	7319.906619
629.493739	7309.869682
629.840014	7245.479024
630.186236	7307.848179
630.532405	7190.008687
630.878521	7238.381079
631.224585	7191.243770
631.570597	7118.421782
631.916556	7155.479304
632.262462	7143.327603
632.608316	7106.635565
632.954117	7083.471463
633.299866	7074.150369
633.645562	7066.820532
633.991206	6984.861452
634.336797	6926.134531
634.682336	6884.154322
635.027823	6849.884558
635.373257	6846.348189
635.718639	6777.990143
636.063968	6784.470546
636.409245	6680.113620
636.754470	6681.857859
637.099642	6640.510315
637.444762	6581.697694
637.789829	6590.764209
638.134845	6528.291710
638.479808	6515.081367
638.824719	6518.118662
639.169577	6451.056192
639.514383	6471.641744
639.859137	6399.533079
640.203839	6404.357463
640.548489	6396.422687
