Dividing Wavelength (nm)	Counts (n)	Blue Motor Position (mm): 16.000000	Red Motor Position (mm): 0.000000	
326.493990	2137.650877
326.888308	2137.650877
327.282561	2137.650877
327.676750	2105.062338
328.070874	2102.410691
328.464933	2101.435228
328.858929	2109.949737
329.252859	2119.437188
329.646726	2130.484877
330.040528	2146.102371
330.434265	2163.819507
330.827938	2178.418688
331.221547	2196.821420
331.615091	2214.117619
332.008571	2236.149982
332.401986	2255.253434
332.795338	2277.273194
333.188625	2293.442695
333.581847	2314.159317
333.975006	2331.778150
334.368100	2350.601818
334.761129	2368.477750
335.154095	2383.258413
335.546996	2405.797412
335.939833	2422.057653
336.332606	2441.085489
336.725315	2447.006324
337.117960	2461.676082
337.510540	2468.932823
337.903056	2480.950933
338.295508	2486.344968
338.687896	2496.593634
339.080220	2503.820128
339.472480	2510.250119
339.864676	2512.758093
340.256807	2518.421830
340.648875	2520.430730
341.040879	2524.468694
341.432818	2523.909126
341.824694	2524.458612
342.216506	2528.138654
342.608253	2526.046575
342.999937	2528.604961
343.391557	2527.674868
343.783113	2524.095648
344.174605	2526.742254
344.566033	2525.393746
344.957397	2522.845442
345.348697	2520.433250
345.739934	2519.866120
346.131106	2515.762621
346.522215	2516.818743
346.913260	2512.453104
347.304241	2513.126098
347.695159	2507.805160
348.086012	2509.940088
348.476802	2507.069151
348.867528	2503.802484
349.258191	2504.417504
349.648789	2503.537823
350.039324	2498.347955
350.429796	2503.321053
350.820203	2497.468274
351.210548	2499.555312
351.600828	2496.064313
351.991045	2496.606237
352.381198	2491.786893
352.771288	2494.602378
353.161314	2495.318222
353.551276	2492.890906
353.941175	2492.293529
354.331010	2492.137254
354.720782	2494.493993
355.110490	2494.262100
355.500135	2495.197234
355.889717	2493.586585
356.279235	2494.045330
356.668689	2493.992398
357.058080	2493.926863
357.447408	2493.662203
357.836672	2490.312356
358.225873	2491.451657
358.615010	2491.469301
359.004084	2496.134889
359.393095	2498.168994
359.782043	2498.973058
360.170927	2497.314519
360.559748	2500.498007
360.948505	2501.113028
361.337199	2499.358707
361.725830	2495.661020
362.114398	2499.953563
362.502903	2500.089674
362.891344	2500.311485
363.279722	2502.806856
363.668037	2502.199397
364.056289	2504.868688
364.444478	2502.484222
364.832603	2502.963132
365.220665	2501.874242
365.608665	2502.083450
365.996601	2503.779798
366.384474	2505.352638
366.772284	2506.880108
367.160031	2506.839779
367.547715	2505.942453
367.935336	2506.071003
368.322893	2507.537979
368.710388	2508.558812
369.097820	2509.572084
369.485189	2508.526045
369.872495	2508.107629
370.259738	2505.929851
370.646918	2509.093175
371.034035	2507.505211
371.421090	2507.880777
371.808081	2506.673421
372.195010	2510.416478
372.581875	2507.858092
372.968678	2509.193998
373.355418	2507.613596
373.742096	2512.279184
374.128710	2512.286746
374.515262	2510.998731
374.901751	2508.589059
375.288177	2512.619462
375.674540	2510.822290
376.060841	2511.613752
376.447079	2511.555778
376.833254	2507.759789
377.219367	2508.155520
377.605417	2514.262878
377.991404	2509.012516
378.377329	2511.822959
378.763191	2508.374810
379.148991	2515.820594
379.534727	2513.123577
379.920402	2512.828670
380.306013	2513.211797
380.691563	2514.887981
381.077049	2514.893022
381.462474	2514.905625
381.847835	2514.935872
382.233134	2514.421674
382.618371	2514.691376
383.003545	2515.936541
383.388657	2514.693897
383.773706	2515.566016
384.158693	2516.201202
384.543618	2518.943589
384.928480	2515.515605
385.313280	2516.556603
385.698017	2516.135667
386.082692	2519.059536
386.467305	2517.065759
386.851856	2518.779752
387.236344	2518.802437
387.620770	2520.221522
388.005133	2517.209432
388.389435	2519.016686
388.773674	2515.966788
389.157851	2516.740605
389.541965	2518.754546
389.926018	2522.437109
390.310008	2518.028620
390.693936	2520.544156
391.077802	2520.675226
391.461606	2519.989629
391.845348	2516.160872
392.229027	2519.883764
392.612645	2521.330576
392.996200	2521.917870
393.379694	2522.119516
393.763125	2521.895185
394.146494	2522.628673
394.529801	2522.028775
394.913047	2522.553055
395.296230	2521.149094
395.679351	2519.992149
396.062410	2522.835360
396.445408	2519.677077
396.828343	2524.057840
397.211217	2519.488034
397.594028	2521.196985
397.976778	2519.639268
398.359466	2522.253107
398.742092	2520.055164
399.124656	2523.127747
399.507158	2524.198992
399.889598	2524.060360
400.271977	2521.799403
400.654294	2523.399969
401.036549	2523.309228
401.418742	2524.398118
401.800874	2525.671009
402.182944	2525.239990
402.564952	2524.176307
402.946898	2524.907274
403.328783	2525.030782
403.710606	2529.542615
404.092367	2526.712007
404.474067	2525.386184
404.855705	2524.771163
405.237282	2525.192099
405.618797	2524.962727
406.000250	2527.873993
406.381642	2526.487676
406.762972	2529.749303
407.144240	2527.198479
407.525447	2530.719725
407.906593	2524.856863
408.287677	2526.618746
408.668700	2528.826771
409.049661	2528.307532
409.430560	2527.604292
409.811399	2531.054961
410.192176	2528.433561
410.572891	2526.480114
410.953545	2529.388860
411.334138	2530.087060
411.714669	2529.310722
412.095139	2528.872142
412.475547	2528.673016
412.855894	2529.340969
413.236180	2529.144364
413.616405	2529.804755
413.996568	2529.993798
414.376670	2530.248377
414.756711	2532.000178
415.136691	2533.772143
415.516609	2528.909950
415.896466	2532.022863
416.276262	2531.463295
416.655997	2528.617563
417.035670	2525.418951
417.415283	2527.339631
417.794834	2528.670496
418.174324	2530.714683
418.553753	2530.034128
418.933121	2531.485980
419.312428	2532.668131
419.691674	2531.934643
420.070859	2530.787780
420.449983	2532.673172
420.829045	2534.256094
421.208047	2533.250384
421.586988	2530.351720
421.965867	2534.498069
422.344686	2533.852802
422.723444	2534.374561
423.102141	2532.970600
423.480777	2531.478418
423.859352	2532.431196
424.237866	2535.702905
424.616319	2533.376413
424.994712	2534.072092
425.373044	2532.257277
425.751314	2537.374048
426.129524	2533.615868
426.507673	2533.918337
426.885762	2532.451361
427.263789	2536.217103
427.641756	2534.266176
428.019662	2535.266845
428.397508	2532.194262
428.775292	2533.663758
429.153016	2533.076464
429.530679	2537.099305
429.908282	2533.081505
430.285824	2537.484953
430.663305	2533.439427
431.040726	2536.280117
431.418086	2533.623429
431.795385	2536.789274
432.172624	2536.736342
432.549802	2537.656352
432.926920	2536.086033
433.303977	2539.398071
433.680974	2536.897659
434.057910	2536.547298
434.434786	2535.541588
434.811601	2537.875643
435.188355	2538.142824
435.565050	2535.725590
435.941683	2539.027546
436.318257	2534.679551
436.694770	2533.114273
437.071222	2533.147040
437.447614	2535.854140
437.823946	2535.856660
438.200218	2536.277597
438.576429	2534.745086
438.952580	2537.026208
439.328670	2536.645601
439.704700	2538.271373
440.080670	2538.394881
440.456580	2537.648791
440.832429	2540.600386
441.208218	2534.256094
441.583947	2539.153575
441.959616	2537.482433
442.335224	2539.569470
442.710773	2537.580735
443.086261	2540.539892
443.461689	2537.810108
443.837057	2539.927392
444.212365	2538.299099
444.587612	2538.997299
444.962800	2538.694830
445.337927	2539.272042
445.712995	2538.815818
446.088002	2541.931251
446.462949	2540.620551
446.837837	2539.365303
447.212664	2537.439583
447.587431	2542.092568
447.962139	2538.430169
448.336786	2543.088196
448.711374	2539.355221
449.085901	2540.983514
449.460369	2541.200283
449.834776	2540.078627
450.209124	2540.134079
450.583412	2541.079296
450.957640	2538.699871
451.331808	2542.997455
451.705917	2540.096271
452.079965	2541.172557
452.453954	2545.850748
452.827883	2544.338402
453.201752	2542.543751
453.575562	2540.207176
453.949311	2543.045346
454.323001	2539.617361
454.696632	2543.239430
455.070202	2543.312527
455.443713	2543.267157
455.817164	2540.237423
456.190556	2541.061652
456.563888	2541.238092
456.937160	2538.931764
457.310373	2544.177085
457.683526	2538.888914
458.056619	2544.519883
458.429653	2543.753628
458.802628	2543.670449
459.175542	2542.044677
459.548398	2543.887218
459.921194	2542.934440
460.293930	2541.459903
460.666607	2545.384441
461.039224	2543.723381
461.411782	2544.577857
461.784280	2546.722867
462.156719	2544.161961
462.529099	2546.218752
462.901419	2544.867723
463.273680	2543.584749
463.645882	2544.325799
464.018024	2542.301776
464.390106	2543.980480
464.762130	2544.177085
465.134094	2547.295038
465.505999	2547.516849
465.877845	2547.017775
466.249631	2544.857641
466.621358	2546.054915
466.993026	2552.575647
467.364634	2548.424257
467.736184	2543.410829
468.107674	2547.794113
468.479105	2544.421581
468.850477	2547.219421
469.221790	2545.331509
469.593043	2547.962991
469.964238	2547.685728
470.335373	2545.858310
470.706449	2547.640358
471.077467	2546.150697
471.448425	2546.425439
471.819324	2548.315872
472.190164	2549.356870
472.560945	2547.090872
472.931667	2546.153217
473.302330	2548.043650
473.672934	2544.197249
474.043479	2545.402085
474.413965	2548.961140
474.784393	2543.221786
475.154761	2544.988711
475.525070	2543.763710
475.895321	2546.072559
476.265513	2543.562064
476.635645	2550.329813
477.005719	2549.147662
477.375734	2549.031716
477.745691	2552.212684
478.115588	2547.443753
478.485427	2551.738816
478.855207	2548.948537
479.224928	2547.322765
479.594591	2550.831408
479.964194	2548.772097
480.333739	2549.553475
480.703226	2550.844011
481.072653	2548.651109
481.442022	2550.498692
481.811333	2551.811912
482.180584	2551.201933
482.549777	2552.563044
482.918912	2549.314021
483.287988	2549.613969
483.657005	2551.292673
484.025964	2547.983156
484.394864	2547.587425
484.763706	2550.780996
485.132489	2551.474155
485.501213	2551.242262
485.869879	2549.651778
486.238487	2549.603887
486.607036	2550.733105
486.975527	2550.488609
487.343959	2550.667570
487.712333	2551.902653
488.080648	2549.331665
488.448905	2550.145811
488.817104	2550.881819
489.185244	2551.595143
489.553326	2550.075235
489.921350	2553.732592
490.289315	2551.786707
490.657222	2553.115051
491.025070	2551.582540
491.392861	2553.823333
491.760593	2554.120761
492.128267	2554.559341
492.495883	2551.968188
492.863440	2553.846018
493.230939	2553.951882
493.598380	2553.304094
493.965763	2549.553475
494.333088	2551.212015
494.700354	2551.025492
495.067563	2551.443908
495.434713	2548.343598
495.801805	2552.492468
496.168839	2555.116389
496.535815	2552.207643
496.902733	2549.913918
497.269593	2553.919115
497.636395	2552.537838
498.003139	2552.721841
498.369825	2552.739485
498.736453	2555.113868
499.103023	2554.345092
499.469535	2556.757284
499.835989	2552.752088
500.202385	2555.363405
500.568723	2555.063457
500.935003	2553.195709
501.301226	2555.348282
501.667390	2555.542366
502.033497	2556.427089
502.399546	2555.519681
502.765537	2558.940104
503.131470	2554.019938
503.497345	2556.263251
503.863163	2557.120247
504.228923	2557.132850
504.594625	2555.302911
504.960269	2555.726368
505.325856	2557.011862
505.691385	2556.341389
506.056856	2562.509241
506.422270	2558.632593
506.787625	2556.041440
507.152924	2558.083108
507.518164	2559.313149
507.883347	2558.413303
508.248472	2558.965310
508.613540	2559.035886
508.978550	2558.834240
509.343503	2560.286092
509.708398	2561.611915
510.073236	2559.822306
510.438016	2562.892368
510.802738	2561.682492
511.167403	2559.421534
511.532010	2560.137378
511.896561	2564.974365
512.261053	2564.593758
512.625488	2557.299208
512.989866	2559.981102
513.354186	2559.323232
513.718449	2559.524878
514.082655	2563.908161
514.446803	2561.039744
514.810894	2563.842626
515.174927	2566.678275
515.538904	2566.879921
515.902822	2566.736248
516.266684	2565.211299
516.630488	2567.142061
516.994235	2568.026784
517.357925	2568.276321
517.721558	2567.404201
518.085133	2569.345045
518.448651	2570.116342
518.812112	2571.558112
519.175516	2572.064748
519.538863	2569.866805
519.902152	2570.267577
520.265385	2573.327557
520.628560	2573.403174
520.991678	2573.758576
521.354739	2574.736559
521.717743	2574.867629
522.080690	2576.125397
522.443580	2575.835531
522.806413	2578.925758
523.169189	2578.119174
523.531908	2581.733681
523.894569	2580.420460
524.257174	2582.043712
524.619722	2581.337950
524.982213	2584.438260
525.344647	2585.617890
525.707025	2587.508323
526.069345	2587.334403
526.431608	2591.415217
526.793815	2590.013776
527.155964	2592.375557
527.518057	2594.271031
527.880093	2596.728593
528.242072	2596.816813
528.603995	2600.602720
528.965860	2600.753954
529.327669	2601.903337
529.689421	2605.220417
530.051117	2606.228647
530.412755	2609.165120
530.774337	2611.665532
531.135862	2613.669391
531.497331	2616.913373
531.858743	2615.942951
532.220098	2621.957047
532.581396	2621.377315
532.942638	2623.885289
533.303824	2626.597430
533.664953	2636.170581
534.026025	2637.710653
534.387040	2642.976138
534.747999	2643.848258
535.108902	2652.856800
535.469748	2650.777324
535.830537	2656.950217
536.191270	2661.260403
536.551947	2665.429438
536.912567	2673.301199
537.273131	2673.717095
537.633638	2678.647343
537.994089	2684.973991
538.354483	2690.209229
538.714821	2696.112421
539.075103	2702.633153
539.435328	2710.598176
539.795497	2713.237220
540.155609	2725.474621
540.515665	2729.600806
540.875665	2733.921074
541.235609	2741.991962
541.595496	2749.427664
541.955328	2758.108531
542.315102	2761.977616
542.674821	2771.732249
543.034483	2780.405554
543.394090	2787.770680
543.753640	2795.455919
544.113134	2810.478557
544.472571	2813.490647
544.831953	2829.249294
545.191278	2830.234839
545.550548	2841.900069
545.909761	2858.896319
546.268918	2868.434182
546.628019	2883.119064
546.987064	2892.921587
547.346053	2896.805796
547.704986	2916.796492
548.063863	2927.433327
548.422684	2939.408588
548.781449	2948.409568
549.140158	2967.029069
549.498811	2975.631798
549.857408	2977.996100
550.215949	3006.213958
550.574434	3008.800070
550.932864	3034.714122
551.291237	3045.671069
551.649555	3065.944070
552.007817	3081.851431
552.366022	3092.687391
552.724173	3113.585494
553.082267	3124.048409
553.440305	3162.348575
553.798288	3159.054181
554.156215	3192.958461
554.514086	3206.801470
554.871902	3214.524517
555.229661	3240.282293
555.587365	3255.257041
555.945014	3266.259359
556.302606	3301.315543
556.660143	3308.574804
557.017625	3352.717668
557.375050	3362.840305
557.732421	3397.601581
558.089735	3415.785023
558.446994	3435.548867
558.804197	3465.531129
559.161345	3489.365705
559.518437	3486.867813
559.875474	3529.531098
560.232455	3562.560738
560.589381	3575.214034
560.946251	3615.139972
561.303065	3634.240904
561.659825	3664.019000
562.016528	3674.867563
562.373177	3673.927388
562.729770	3734.156574
563.086307	3738.617995
563.442789	3779.378244
563.799216	3802.822130
564.155587	3831.317252
564.511904	3857.311962
564.868164	3884.882033
565.224370	3907.723501
565.580520	3943.553502
565.936615	3952.534317
566.292654	3972.646000
566.648638	4019.604348
567.004567	4050.405798
567.360441	4072.118048
567.716260	4092.587653
568.072023	4133.229436
568.427732	4166.916946
568.783385	4165.147501
569.138982	4221.905852
569.494525	4256.624279
569.850013	4254.910287
570.205445	4321.995441
570.560823	4324.342098
570.916145	4343.291796
571.271412	4396.218870
571.626625	4417.880708
571.981782	4436.787556
572.336884	4473.870283
572.691931	4488.996265
573.046923	4529.101165
573.401860	4545.303433
573.756743	4565.914191
574.111570	4608.736272
574.466342	4630.516577
574.821059	4677.658927
575.175722	4678.039535
575.530330	4719.737439
575.884882	4749.838168
576.239380	4766.829377
576.593823	4784.823776
576.948211	4836.994677
577.302544	4817.830731
577.656823	4872.179410
578.011047	4900.104882
578.365216	4926.316362
578.719330	4934.483031
579.073389	4981.569928
579.427394	4982.530268
579.781344	5008.121686
580.135239	5025.866547
580.489080	5060.158996
580.842866	5064.373401
581.196597	5101.980408
581.550273	5146.861801
581.903895	5174.336090
582.257463	5228.586467
582.610975	5227.769800
582.964434	5259.624851
583.317837	5272.913333
583.671186	5288.210714
584.024481	5325.999203
584.377721	5321.552905
584.730906	5343.749106
585.084037	5392.668463
585.437113	5386.394747
585.790135	5442.863232
586.143103	5425.199028
586.496016	5437.600267
586.848874	5502.832798
587.201679	5526.924472
587.554428	5508.743551
587.907124	5566.008538
588.259765	5574.961627
588.612352	5619.069202
588.964884	5585.283389
589.317362	5628.680162
589.669786	5657.964225
590.022155	5703.538776
590.374470	5751.344038
590.726731	5743.293316
591.078937	5707.584302
591.431090	5805.642306
591.783188	5757.020378
592.135232	5792.026150
592.487222	5807.656247
592.839157	5873.649992
593.191038	5862.214135
593.542866	5861.505853
593.894639	5840.136402
594.246358	5891.553650
594.598022	5930.720895
594.949633	5901.688890
595.301190	5918.423000
595.652692	5963.241378
596.004141	6063.252830
596.355535	5953.622857
596.706876	5970.523325
597.058162	5967.128108
597.409395	6034.036823
597.760573	6101.958809
598.111698	6067.948664
598.462768	6091.163178
598.813785	6091.057314
599.164748	6103.692966
599.515657	6113.654286
599.866511	6096.688282
600.217312	6188.079361
600.568060	6132.248582
600.918753	6215.974585
601.269392	6220.073043
601.619978	6195.270567
601.970510	6261.476040
602.320988	6275.929028
602.671412	6347.689853
603.021783	6325.024825
603.372100	6333.952709
603.722363	6367.521752
604.072572	6363.435897
604.422728	6396.636936
604.772830	6371.524428
605.122878	6396.531072
605.472872	6414.497744
605.822813	6457.891997
606.172701	6443.436488
606.522534	6514.786459
606.872314	6534.991404
607.222041	6543.702517
607.571714	6605.670901
607.921333	6594.587924
608.270899	6618.543488
608.620411	6702.503905
608.969870	6657.990516
609.319276	6671.440315
609.668627	6704.749739
610.017926	6749.530308
610.367171	6804.983001
610.716362	6804.836807
611.065500	6815.539177
611.414585	6863.087340
611.763616	6865.549944
612.112594	6869.033381
612.461518	6906.219452
612.810389	6967.494677
613.159207	6942.601460
613.507971	6916.102634
613.856682	7029.458020
614.205340	7012.239959
614.553945	7091.144099
614.902496	7026.781167
615.250994	7090.919767
615.599439	7093.568894
615.947830	7115.896164
616.296169	7112.727799
616.644454	7141.510267
616.992686	7150.357492
617.340864	7214.881741
617.688990	7152.497462
618.037063	7240.087510
618.385082	7208.330761
618.733048	7299.247971
619.080961	7253.580158
619.428821	7286.778677
619.776628	7308.188457
620.124382	7276.698890
620.472083	7281.329189
620.819731	7311.359343
621.167326	7245.652944
621.514868	7265.978876
621.862357	7187.364602
622.209793	7209.694393
622.557176	7174.151738
622.904506	7163.376272
623.251783	7121.748944
623.599007	7095.547547
623.946179	7119.147708
624.293297	7095.822290
624.640363	7033.483381
624.987376	7031.734101
625.334336	6998.217989
625.681243	6968.147507
626.028097	6962.067875
626.374899	6953.210568
626.721647	6962.849254
627.068343	6903.383803
627.414987	6890.791001
627.761577	6862.356373
628.108115	6898.829121
628.454600	6819.698129
628.801032	6871.644699
629.147412	6844.339289
629.493739	6842.350554
629.840014	6790.494725
630.186236	6854.968562
630.532405	6751.040134
630.878521	6807.944679
631.224585	6770.675428
631.570597	6708.613783
631.916556	6742.875985
632.262462	6744.602581
632.608316	6721.652728
632.954117	6712.656789
633.299866	6697.361928
633.645562	6700.643719
633.991206	6638.745912
634.336797	6595.155054
634.682336	6561.656587
635.027823	6536.491147
635.373257	6532.763214
635.718639	6475.097455
636.063968	6499.063100
636.409245	6402.761938
636.754470	6407.135139
637.099642	6367.983018
637.444762	6325.087840
637.789829	6338.482186
638.134845	6288.713394
638.479808	6280.518999
638.824719	6286.359175
639.169577	6224.625205
639.514383	6250.897179
639.859137	6186.519123
640.203839	6197.234096
640.548489	6187.625657
640.893086	6173.175189
641.237632	6146.923381
641.582125	6173.253327
641.926566	6144.700232
642.270955	6155.362272
642.615292	6160.879815
642.959576	6170.425240
643.303809	6166.906514
643.647990	6177.135016
643.992118	6172.832391
644.336195	6123.678620
