Dividing Wavelength (nm)	Counts (n)	Blue Motor Position (mm): 10.200000	Red Motor Position (mm): 0.000000	
326.493990	2138.180198
326.888308	2138.180198
327.282561	2138.180198
327.676750	2106.405805
328.070874	2108.361773
328.464933	2109.105343
328.858929	2114.932917
329.252859	2124.047323
329.646726	2134.842954
330.040528	2149.132105
330.434265	2165.772954
330.827938	2182.829698
331.221547	2202.069261
331.615091	2221.671788
332.008571	2239.056207
332.401986	2257.549680
332.795338	2277.313524
333.188625	2297.934363
333.581847	2318.988743
333.975006	2333.875270
334.368100	2354.745647
334.761129	2371.424304
335.154095	2386.746891
335.546996	2406.760272
335.939833	2423.128899
336.332606	2438.058276
336.725315	2449.322734
337.117960	2462.391925
337.510540	2469.381485
337.903056	2479.625110
338.295508	2487.156594
338.687896	2493.914260
339.080220	2503.189983
339.472480	2510.232475
339.864676	2514.739267
340.256807	2519.601460
340.648875	2519.263702
341.040879	2522.948786
341.432818	2527.460619
341.824694	2529.048582
342.216506	2526.901051
342.608253	2527.725279
342.999937	2528.867101
343.391557	2528.141174
343.783113	2527.861390
344.174605	2523.631862
344.566033	2524.955165
344.957397	2521.007942
345.348697	2523.430216
345.739934	2517.680780
346.131106	2517.252282
346.522215	2514.139370
346.913260	2512.659791
347.304241	2511.162568
347.695159	2511.308762
348.086012	2509.846827
348.476802	2505.408091
348.867528	2502.814418
349.258191	2503.731908
349.648789	2501.685199
350.039324	2498.804180
350.429796	2501.113028
350.820203	2498.279900
351.210548	2497.531288
351.600828	2497.755620
351.991045	2496.671772
352.381198	2494.524240
352.771288	2493.357213
353.161314	2496.187821
353.551276	2496.225629
353.941175	2495.169508
354.331010	2491.610453
354.720782	2492.442243
355.110490	2493.742861
355.500135	2494.337717
355.889717	2495.653458
356.279235	2492.469970
356.668689	2494.322594
357.058080	2496.563387
357.447408	2493.319404
357.836672	2494.267141
358.225873	2496.301247
358.615010	2491.355875
359.004084	2494.249497
359.393095	2498.388284
359.782043	2499.225116
360.170927	2497.710249
360.559748	2497.947183
360.948505	2498.776453
361.337199	2498.690754
361.725830	2500.760147
362.114398	2504.225941
362.502903	2499.351145
362.891344	2501.228975
363.279722	2503.928513
363.668037	2501.596979
364.056289	2502.287617
364.444478	2505.781137
364.832603	2504.412463
365.220665	2502.605210
365.608665	2505.874398
365.996601	2503.162257
366.384474	2503.094202
366.772284	2506.330622
367.160031	2504.745179
367.547715	2505.183760
367.935336	2506.179388
368.322893	2506.018071
368.710388	2508.430263
369.097820	2509.599811
369.485189	2505.579490
369.872495	2507.361538
370.259738	2508.538648
370.646918	2509.723319
371.034035	2508.987310
371.421090	2507.727022
371.808081	2509.572084
372.195010	2509.367918
372.581875	2507.933709
372.968678	2511.263391
373.355418	2513.204236
373.742096	2511.573422
374.128710	2507.346415
374.515262	2513.221880
374.901751	2511.104595
375.288177	2512.518639
375.674540	2509.461179
376.060841	2512.967301
376.447079	2510.938237
376.833254	2515.175327
377.219367	2505.670231
377.605417	2510.577794
377.991404	2509.481343
378.377329	2511.245747
378.763191	2508.883967
379.148991	2515.742457
379.534727	2513.158865
379.920402	2515.223218
380.306013	2515.041736
380.691563	2514.232631
381.077049	2512.611900
381.462474	2518.532735
381.847835	2513.363032
382.233134	2513.665501
382.618371	2515.056860
383.003545	2515.876047
383.388657	2516.125584
383.773706	2515.157683
384.158693	2517.103568
384.543618	2518.295801
384.928480	2515.084586
385.313280	2516.672549
385.698017	2518.290760
386.082692	2514.953516
386.467305	2517.262364
386.851856	2517.380832
387.236344	2518.273116
387.620770	2517.829494
388.005133	2519.203209
388.389435	2519.898888
388.773674	2519.482993
389.157851	2517.254803
389.541965	2517.587519
389.926018	2521.517098
390.310008	2520.337468
390.693936	2519.704803
391.077802	2517.872344
391.461606	2521.890144
391.845348	2516.302025
392.229027	2520.329907
392.612645	2516.808661
392.996200	2517.852179
393.379694	2523.341996
393.763125	2520.518950
394.146494	2518.983918
394.529801	2523.707480
394.913047	2524.322500
395.296230	2520.166069
395.679351	2521.461646
396.062410	2523.432737
396.445408	2521.607839
396.828343	2521.396111
397.211217	2520.425688
397.594028	2520.856707
397.976778	2517.348064
398.359466	2521.688498
398.742092	2516.561644
399.124656	2524.680422
399.507158	2523.904085
399.889598	2524.231760
400.271977	2524.604805
400.654294	2525.489528
401.036549	2523.218488
401.418742	2524.264527
401.800874	2525.010618
402.182944	2525.945752
402.564952	2524.365350
402.946898	2523.830988
403.328783	2525.625639
403.710606	2526.790145
404.092367	2525.963396
404.474067	2526.341483
404.855705	2525.532377
405.237282	2525.855011
405.618797	2526.820392
406.000250	2529.066226
406.381642	2526.112110
406.762972	2525.348375
407.144240	2527.014477
407.525447	2527.233767
407.906593	2525.348375
408.287677	2530.374406
408.668700	2525.739065
409.049661	2529.335928
409.430560	2528.713345
409.811399	2530.969262
410.192176	2528.168901
410.572891	2527.473222
410.953545	2527.841226
411.334138	2529.030938
411.714669	2527.158149
412.095139	2528.536905
412.475547	2527.311905
412.855894	2528.254600
413.236180	2526.860721
413.616405	2532.945394
413.996568	2531.848943
414.376670	2530.407173
414.756711	2529.822399
415.136691	2532.282482
415.516609	2530.548325
415.896466	2529.144364
416.276262	2531.329704
416.655997	2527.889117
417.035670	2528.368026
417.415283	2532.499252
417.794834	2528.509179
418.174324	2532.355579
418.553753	2530.187883
418.933121	2533.295754
419.312428	2530.137471
419.691674	2532.791639
420.070859	2530.041689
420.449983	2531.727955
420.829045	2534.581248
421.208047	2531.801052
421.586988	2532.335414
421.965867	2531.256607
422.344686	2532.710980
422.723444	2534.286341
423.102141	2533.651156
423.480777	2537.605941
423.859352	2530.528161
424.237866	2533.247863
424.616319	2534.193080
424.994712	2536.343132
425.373044	2532.988244
425.751314	2533.189890
426.129524	2533.250384
426.507673	2532.136289
426.885762	2534.049407
427.263789	2536.862371
427.641756	2536.239788
428.019662	2531.856505
428.397508	2533.691485
428.775292	2534.064530
429.153016	2535.579397
429.530679	2534.384643
429.908282	2536.101156
430.285824	2536.050745
430.663305	2536.055786
431.040726	2534.929088
431.418086	2534.682072
431.795385	2535.034952
432.172624	2538.939326
432.549802	2536.688451
432.926920	2533.966228
433.303977	2538.188194
433.680974	2533.565456
434.057910	2536.421270
434.434786	2535.375230
434.811601	2539.012423
435.188355	2536.156609
435.565050	2537.220292
435.941683	2538.614172
436.318257	2532.726104
436.694770	2534.198121
437.071222	2536.474202
437.447614	2535.707946
437.823946	2534.664427
438.200218	2536.965714
438.576429	2538.238606
438.952580	2538.672145
439.328670	2536.827082
439.704700	2537.290869
440.080670	2537.361445
440.456580	2538.415046
440.832429	2539.113246
441.208218	2537.555529
441.583947	2539.350180
441.959616	2536.716177
442.335224	2538.583925
442.710773	2541.185160
443.086261	2538.460416
443.461689	2539.105684
443.837057	2539.123328
444.212365	2540.615510
444.587612	2538.480581
444.962800	2537.890766
445.337927	2536.746424
445.712995	2538.571322
446.088002	2540.784388
446.462949	2540.799512
446.837837	2537.585776
447.212664	2537.348842
447.587431	2539.554347
447.962139	2538.215920
448.336786	2543.695655
448.711374	2538.180632
449.085901	2542.412681
449.460369	2538.611651
449.834776	2541.626261
450.209124	2541.631302
450.583412	2539.808925
450.957640	2539.692978
451.331808	2541.810263
451.705917	2538.732639
452.079965	2540.933102
452.453954	2543.057949
452.827883	2541.054090
453.201752	2540.754141
453.575562	2542.453010
453.949311	2541.346477
454.323001	2541.210366
454.696632	2540.035777
455.070202	2543.345294
455.443713	2539.594676
455.817164	2540.852444
456.190556	2539.128369
456.563888	2540.161806
456.937160	2534.886238
457.310373	2542.427804
457.683526	2539.287166
458.056619	2544.106509
458.429653	2540.378575
458.802628	2542.493339
459.175542	2541.409491
459.548398	2544.116591
459.921194	2542.518545
460.293930	2542.591642
460.666607	2541.469985
461.039224	2543.461241
461.411782	2539.050231
461.784280	2542.909235
462.156719	2545.308824
462.529099	2544.414019
462.901419	2542.478216
463.273680	2545.235727
463.645882	2542.740356
464.018024	2542.420243
464.390106	2544.363607
464.762130	2542.543751
465.134094	2542.508463
465.505999	2544.358566
465.877845	2545.316386
466.249631	2542.798329
466.621358	2542.629451
466.993026	2545.001313
467.364634	2546.856458
467.736184	2544.429143
468.107674	2544.572815
468.479105	2542.034594
468.850477	2543.776313
469.221790	2545.323947
469.593043	2545.986859
469.964238	2545.165151
470.335373	2544.454348
470.706449	2546.286808
471.077467	2544.030891
471.448425	2546.526263
471.819324	2543.625078
472.190164	2543.562064
472.560945	2544.340922
472.931667	2544.693803
473.302330	2547.771428
473.672934	2544.542568
474.043479	2546.856458
474.413965	2545.472661
474.784393	2540.807073
475.154761	2540.744059
475.525070	2541.336395
475.895321	2539.561908
476.265513	2542.541230
476.635645	2542.659697
477.005719	2544.081303
477.375734	2548.620862
477.745691	2544.734132
478.115588	2548.033567
478.485427	2545.190357
478.855207	2546.652291
479.224928	2546.150697
479.594591	2543.882177
479.964194	2545.475182
480.333739	2547.658002
480.703226	2547.453835
481.072653	2547.199257
481.442022	2546.579195
481.811333	2546.155738
482.180584	2547.980635
482.549777	2551.035575
482.918912	2546.463248
483.287988	2546.687579
483.657005	2544.449307
484.025964	2545.162630
484.394864	2547.131201
484.763706	2548.245296
485.132489	2548.905687
485.501213	2547.466438
485.869879	2544.928217
486.238487	2546.836293
486.607036	2546.581715
486.975527	2547.957950
487.343959	2549.132539
487.712333	2546.521221
488.080648	2546.904349
488.448905	2548.832590
488.817104	2548.280584
489.185244	2547.199257
489.553326	2550.460883
489.921350	2547.710934
490.289315	2549.190512
490.657222	2550.818805
491.025070	2546.216232
491.392861	2547.156407
491.760593	2546.072559
492.128267	2546.180943
492.495883	2548.958619
492.863440	2548.671273
493.230939	2548.446942
493.598380	2553.478014
493.965763	2543.231868
494.333088	2546.511139
494.700354	2544.640871
495.067563	2547.284956
495.434713	2541.409491
495.801805	2548.494833
496.168839	2548.953578
496.535815	2548.779658
496.902733	2547.905018
497.269593	2550.216387
497.636395	2547.300080
498.003139	2549.366953
498.369825	2549.029195
498.736453	2549.130018
499.103023	2547.862168
499.469535	2548.003321
499.835989	2549.571119
500.202385	2546.322096
500.568723	2548.814946
500.935003	2548.320913
501.301226	2547.922662
501.667390	2546.349822
502.033497	2551.242262
502.399546	2548.368804
502.765537	2548.086500
503.131470	2546.281767
503.497345	2551.060780
503.863163	2548.643547
504.228923	2550.072714
504.594625	2552.280740
504.960269	2548.635985
505.325856	2551.017931
505.691385	2549.485420
506.056856	2548.706562
506.422270	2550.090358
506.787625	2547.637837
507.152924	2550.256716
507.518164	2550.372663
507.883347	2549.742519
508.248472	2551.446429
508.613540	2549.074566
508.978550	2550.032385
509.343503	2548.330996
509.708398	2550.541542
510.073236	2549.369473
510.438016	2551.300235
510.802738	2549.061963
511.167403	2551.554813
511.532010	2548.469627
511.896561	2550.629762
512.261053	2551.333003
512.625488	2546.705223
512.989866	2543.355377
513.354186	2548.840152
513.718449	2544.928217
514.082655	2548.822508
514.446803	2551.675801
514.810894	2551.295194
515.174927	2554.607232
515.538904	2551.867365
515.902822	2551.264947
516.266684	2548.963660
516.630488	2549.364432
516.994235	2551.310317
517.357925	2553.687222
517.721558	2552.215205
518.085133	2550.458363
518.448651	2552.442057
518.812112	2550.831408
519.175516	2550.211346
519.538863	2550.533980
519.902152	2552.053888
520.265385	2552.260575
520.628560	2553.213353
520.991678	2551.983312
521.354739	2552.757129
521.717743	2549.041798
522.080690	2554.193858
522.443580	2552.646223
522.806413	2553.309135
523.169189	2555.287788
523.531908	2555.950700
523.894569	2554.231666
524.257174	2554.244269
524.619722	2549.641696
524.982213	2555.965823
525.344647	2553.334341
525.707025	2555.202088
526.069345	2552.184958
526.431608	2554.266954
526.793815	2553.936759
527.155964	2554.196378
527.518057	2556.573282
527.880093	2554.385421
528.242072	2555.534804
528.603995	2556.951369
528.965860	2553.213353
529.327669	2554.249310
529.689421	2555.524722
530.051117	2557.319373
530.412755	2556.318704
530.774337	2555.267623
531.135862	2556.822819
531.497331	2553.432643
531.858743	2551.716130
532.220098	2553.520863
532.581396	2556.694270
532.942638	2553.218394
533.303824	2558.398180
533.664953	2555.239897
534.026025	2558.239383
534.387040	2556.359033
534.747999	2558.541853
535.108902	2557.936914
535.469748	2557.778118
535.830537	2558.683005
536.191270	2561.402707
536.551947	2558.713252
536.912567	2560.540670
537.273131	2558.506565
537.633638	2558.642676
537.994089	2558.549414
538.354483	2560.908674
538.714821	2558.950186
539.075103	2561.402708
539.435328	2561.276679
539.795497	2560.142419
540.155609	2562.554611
540.515665	2559.217367
540.875665	2563.809858
541.235609	2562.375650
541.595496	2560.157542
541.955328	2564.394632
542.315102	2563.605692
542.674821	2563.396484
543.034483	2562.967986
543.394090	2563.545198
543.753640	2564.752554
544.113134	2564.039231
544.472571	2565.344890
544.831953	2561.861453
545.191278	2563.167111
545.550548	2565.286917
545.909761	2562.862122
546.268918	2564.356824
546.628019	2564.364385
546.987064	2564.102245
547.346053	2567.651218
547.704986	2567.058882
548.063863	2565.546536
548.422684	2568.011660
548.781449	2566.337997
549.140158	2565.864129
549.498811	2567.134499
549.857408	2568.866136
550.215949	2563.562842
550.574434	2562.622667
550.932864	2563.769529
551.291237	2563.441854
551.649555	2566.285065
552.007817	2564.966803
552.366022	2564.545867
552.724173	2568.813204
553.082267	2566.653069
553.440305	2562.481514
553.798288	2567.109294
554.156215	2564.112328
554.514086	2565.352452
554.871902	2563.703994
555.229661	2566.121227
555.587365	2564.639128
555.945014	2567.507545
556.302606	2566.862277
556.660143	2565.896896
557.017625	2565.952349
557.375050	2568.225909
557.732421	2566.327915
558.089735	2564.916392
558.446994	2565.554098
558.804197	2565.342369
559.161345	2565.841443
559.518437	2564.230795
559.875474	2564.941597
560.232455	2565.922102
560.589381	2565.763306
560.946251	2569.624829
561.303065	2565.112997
561.659825	2565.947308
562.016528	2566.658110
562.373177	2565.768347
562.729770	2564.119889
563.086307	2565.339849
563.442789	2564.503017
563.799216	2563.797256
564.155587	2567.031156
564.511904	2563.933367
564.868164	2566.000240
565.224370	2565.914540
565.580520	2564.397153
565.936615	2562.405897
566.292654	2564.510579
566.648638	2565.228943
567.004567	2565.128120
567.360441	2563.555280
567.716260	2564.734910
568.072023	2565.791032
568.427732	2561.299364
568.783385	2563.013356
569.138982	2561.599312
569.494525	2560.994374
569.850013	2558.332645
570.205445	2564.198027
570.560823	2564.467729
570.916145	2563.913202
571.271412	2569.118193
571.626625	2563.925805
571.981782	2561.619477
572.336884	2566.088460
572.691931	2562.110990
573.046923	2563.338511
573.401860	2561.259035
573.756743	2563.961093
574.111570	2563.540157
574.466342	2565.498645
574.821059	2560.568397
575.175722	2561.175856
575.530330	2563.275496
575.884882	2562.431103
576.239380	2560.454971
576.593823	2560.691905
576.948211	2563.822461
577.302544	2561.090156
577.656823	2564.835733
578.011047	2562.874724
578.365216	2561.138047
578.719330	2561.717780
579.073389	2561.561504
579.427394	2560.056719
579.781344	2562.857080
580.135239	2561.858932
580.489080	2561.591751
580.842866	2563.295661
581.196597	2565.811197
581.550273	2559.413972
581.903895	2563.351113
582.257463	2562.302553
582.610975	2564.485373
582.964434	2564.152657
583.317837	2561.158212
583.671186	2565.365054
584.024481	2557.528581
584.377721	2562.930177
584.730906	2559.353478
585.084037	2563.325908
585.437113	2559.908005
585.790135	2563.477142
586.143103	2563.454457
586.496016	2562.350444
586.848874	2560.828016
587.201679	2558.388097
587.554428	2556.752243
587.907124	2559.993705
588.259765	2556.719476
588.612352	2564.339180
588.964884	2562.529405
589.317362	2562.726010
589.669786	2559.842470
590.022155	2561.909343
590.374470	2563.431772
590.726731	2563.220043
591.078937	2562.206772
591.431090	2564.135013
591.783188	2562.221895
592.135232	2562.617626
592.487222	2561.896741
592.839157	2561.319528
593.191038	2563.242729
593.542866	2563.562842
593.894639	2560.495300
594.246358	2564.084601
594.598022	2563.489745
594.949633	2563.981258
595.301190	2561.564024
595.652692	2559.839950
596.004141	2563.865311
596.355535	2563.739282
596.706876	2562.680640
597.058162	2564.054354
597.409395	2561.228788
597.760573	2564.540826
598.111698	2565.090312
598.462768	2565.433110
598.813785	2563.719118
599.164748	2566.211968
599.515657	2561.440516
599.866511	2564.785322
600.217312	2562.247101
600.568060	2564.198027
600.918753	2566.078378
601.269392	2564.734910
601.619978	2565.662482
601.970510	2566.007802
602.320988	2564.508058
602.671412	2566.912689
603.021783	2565.181052
603.372100	2567.525189
603.722363	2566.985785
604.072572	2567.028635
604.422728	2567.643656
604.772830	2560.404559
605.122878	2563.618295
605.472872	2564.888665
605.822813	2560.626370
606.172701	2566.295147
606.522534	2567.010991
606.872314	2569.014850
607.222041	2571.507700
607.571714	2567.245405
607.921333	2570.028122
608.270899	2570.534758
608.620411	2570.698595
608.969870	2572.306723
609.319276	2574.025757
609.668627	2573.251940
610.017926	2576.518607
610.367171	2581.020358
610.716362	2577.960377
611.065500	2577.549523
611.414585	2578.472054
611.763616	2577.942733
612.112594	2576.647157
612.461518	2574.958370
612.810389	2575.714543
613.159207	2577.065572
613.507971	2578.051118
613.856682	2581.584967
614.205340	2578.913155
614.553945	2578.267888
614.902496	2579.109760
615.250994	2582.383990
615.599439	2580.249061
615.947830	2580.299473
616.296169	2581.942889
616.644454	2583.112437
616.992686	2584.224011
617.340864	2587.823395
617.688990	2584.874320
618.037063	2586.875658
618.385082	2588.819023
618.733048	2591.568972
619.080961	2590.727099
619.428821	2593.958479
619.776628	2593.577872
620.124382	2594.727255
620.472083	2596.446288
620.819731	2596.441247
621.167326	2598.424941
621.514868	2597.396546
621.862357	2596.171546
622.209793	2597.015939
622.557176	2600.025508
622.904506	2597.739344
623.251783	2593.189703
623.599007	2598.160281
623.946179	2599.191197
624.293297	2598.119952
624.640363	2604.055910
624.987376	2602.321753
625.334336	2604.025663
625.681243	2605.253184
626.028097	2604.620519
626.374899	2607.793926
626.721647	2609.603700
627.068343	2611.451283
627.414987	2610.261571
627.761577	2612.217538
628.108115	2614.980091
628.454600	2615.098558
628.801032	2618.352622
629.147412	2619.068466
629.493739	2620.585854
629.840014	2622.042747
630.186236	2624.084414
630.532405	2623.739095
630.878521	2629.269241
631.224585	2631.356279
631.570597	2629.143212
631.916556	2636.266363
632.262462	2635.648821
632.608316	2640.586632
632.954117	2644.853968
633.299866	2643.361787
633.645562	2648.133239
633.991206	2648.171047
634.336797	2644.216262
634.682336	2650.260606
635.027823	2647.470327
635.373257	2648.055101
635.718639	2650.467293
636.063968	2651.805719
636.409245	2651.041985
636.754470	2652.846718
637.099642	2654.553148
637.444762	2656.894764
637.789829	2661.351144
638.134845	2659.024652
638.479808	2663.496155
638.824719	2663.909530
639.169577	2666.871208
639.514383	2668.786846
639.859137	2667.922288
640.203839	2674.367403
640.548489	2677.061900
640.893086	2673.822959
641.237632	2677.981911
641.582125	2679.584998
641.926566	2681.114988
642.270955	2690.413396
642.615292	2692.757533
642.959576	2698.960672
643.303809	2695.177287
643.647990	2703.696837
643.992118	2706.698844
644.336195	2706.469471
