Dividing Wavelength (nm)	Counts (n)	Blue Motor Position (mm): 1.200000	Red Motor Position (mm): 0.000000	
326.493990	2143.733029
326.888308	2143.733029
327.282561	2143.733029
327.676750	2111.116764
328.070874	2111.464603
328.464933	2112.281270
328.858929	2119.797631
329.252859	2129.156533
329.646726	2139.498460
330.040528	2157.482776
330.434265	2171.681186
330.827938	2188.967303
331.221547	2206.089582
331.615091	2225.838302
332.008571	2242.690879
332.401986	2265.696185
332.795338	2281.936262
333.188625	2304.513069
333.581847	2320.768270
333.975006	2337.467092
334.368100	2359.955679
334.761129	2375.018647
335.154095	2396.040258
335.546996	2411.395613
335.939833	2422.823909
336.332606	2439.520210
336.725315	2453.159052
337.117960	2463.843778
337.510540	2470.765282
337.903056	2480.562764
338.295508	2488.968888
338.687896	2495.988695
339.080220	2503.827689
339.472480	2512.788340
339.864676	2514.789678
340.256807	2521.514578
340.648875	2527.473222
341.040879	2525.577748
341.432818	2527.563962
341.824694	2529.411545
342.216506	2527.737882
342.608253	2529.829961
342.999937	2531.904396
343.391557	2529.930784
343.783113	2525.093797
344.174605	2527.831143
344.566033	2524.776204
344.957397	2524.650175
345.348697	2521.476769
345.739934	2521.403672
346.131106	2520.012314
346.522215	2518.051305
346.913260	2514.008300
347.304241	2512.649709
347.695159	2510.716426
348.086012	2509.541837
348.476802	2508.304234
348.867528	2509.957733
349.258191	2503.830210
349.648789	2506.098729
350.039324	2503.346259
350.429796	2504.089829
350.820203	2501.090343
351.210548	2499.406598
351.600828	2497.667399
351.991045	2497.811072
352.381198	2495.741679
352.771288	2497.049858
353.161314	2496.870897
353.551276	2496.702018
353.941175	2494.103304
354.331010	2496.888541
354.720782	2497.125475
355.110490	2493.543736
355.500135	2494.166318
355.889717	2496.190341
356.279235	2494.988026
356.668689	2496.167656
357.058080	2496.354179
357.447408	2496.255876
357.836672	2493.732779
358.225873	2498.025321
358.615010	2494.531802
359.004084	2499.436844
359.393095	2499.759478
359.782043	2498.882318
360.170927	2499.333501
360.559748	2499.436844
360.948505	2499.782163
361.337199	2503.590755
361.725830	2500.782832
362.114398	2505.556805
362.502903	2502.330467
362.891344	2503.767196
363.279722	2503.568070
363.668037	2506.693585
364.056289	2504.067144
364.444478	2505.405571
364.832603	2506.439007
365.220665	2505.463544
365.608665	2505.607217
365.996601	2507.694254
366.384474	2506.305417
366.772284	2509.231806
367.160031	2507.283400
367.547715	2508.878926
367.935336	2509.320027
368.322893	2509.824142
368.710388	2509.483864
369.097820	2511.684328
369.485189	2508.717609
369.872495	2509.725839
370.259738	2508.221055
370.646918	2508.944461
371.034035	2511.901097
371.421090	2515.011489
371.808081	2512.276663
372.195010	2513.022754
372.581875	2512.498474
372.968678	2511.112157
373.355418	2513.854544
373.742096	2513.342867
374.128710	2513.322703
374.515262	2512.430418
374.901751	2513.247085
375.288177	2512.697600
375.674540	2511.858248
376.060841	2511.132321
376.447079	2513.814215
376.833254	2512.924452
377.219367	2509.894718
377.605417	2510.439163
377.991404	2509.655263
378.377329	2510.565192
378.763191	2513.272291
379.148991	2514.547703
379.534727	2515.482837
379.920402	2516.150790
380.306013	2514.698938
380.691563	2519.036851
381.077049	2516.400327
381.462474	2519.089783
381.847835	2516.937210
382.233134	2517.705986
382.618371	2518.497447
383.003545	2519.248579
383.388657	2517.632889
383.773706	2518.590708
384.158693	2517.761439
384.543618	2517.282529
384.928480	2518.396624
385.313280	2518.275636
385.698017	2517.816891
386.082692	2515.306397
386.467305	2519.309073
386.851856	2519.246058
387.236344	2521.554907
387.620770	2521.350740
388.005133	2521.829650
388.389435	2521.499454
388.773674	2522.104393
389.157851	2517.164062
389.541965	2521.466687
389.926018	2519.830832
390.310008	2522.555576
390.693936	2522.270751
391.077802	2521.093641
391.461606	2520.206398
391.845348	2524.703108
392.229027	2520.690349
392.612645	2523.984743
392.996200	2524.975330
393.379694	2523.432737
393.763125	2523.818385
394.146494	2522.331245
394.529801	2522.744619
394.913047	2524.599764
395.296230	2523.684794
395.679351	2524.587161
396.062410	2524.256965
396.445408	2524.067922
396.828343	2526.127233
397.211217	2519.188085
397.594028	2522.212777
397.976778	2519.616583
398.359466	2521.529701
398.742092	2521.965761
399.124656	2522.525329
399.507158	2527.279137
399.889598	2525.698735
400.271977	2527.132944
400.654294	2528.738551
401.036549	2527.203520
401.418742	2527.054806
401.800874	2525.441637
402.182944	2528.254600
402.564952	2527.546318
402.946898	2530.308871
403.328783	2526.228057
403.710606	2527.193437
404.092367	2526.684281
404.474067	2527.432892
404.855705	2530.634025
405.237282	2527.697553
405.618797	2529.819879
406.000250	2527.115300
406.381642	2527.440454
406.762972	2528.181504
407.144240	2529.504807
407.525447	2529.771988
407.906593	2525.721421
408.287677	2532.063192
408.668700	2529.681247
409.049661	2531.044879
409.430560	2529.300640
409.811399	2531.659900
410.192176	2531.430527
410.572891	2533.283151
410.953545	2529.940866
411.334138	2534.034283
411.714669	2529.817358
412.095139	2529.807276
412.475547	2531.818696
412.855894	2532.484128
413.236180	2533.872966
413.616405	2531.788449
413.996568	2531.906916
414.376670	2531.727955
414.756711	2531.304498
415.136691	2532.640404
415.516609	2534.828265
415.896466	2534.780374
416.276262	2532.761392
416.655997	2529.719056
417.035670	2530.190403
417.415283	2533.850281
417.794834	2528.123530
418.174324	2529.794673
418.553753	2532.718542
418.933121	2531.980013
419.312428	2535.528985
419.691674	2535.218954
420.070859	2532.279962
420.449983	2534.891279
420.829045	2533.978831
421.208047	2534.107380
421.586988	2536.660724
421.965867	2532.806762
422.344686	2536.524613
422.723444	2535.229037
423.102141	2537.812628
423.480777	2534.840868
423.859352	2533.557894
424.237866	2537.679038
424.616319	2536.753986
424.994712	2534.457740
425.373044	2534.992103
425.751314	2536.471681
426.129524	2534.281300
426.507673	2535.264325
426.885762	2535.586959
427.263789	2537.323636
427.641756	2536.706095
428.019662	2533.492359
428.397508	2534.165353
428.775292	2535.798687
429.153016	2538.261291
429.530679	2537.502597
429.908282	2538.266332
430.285824	2536.000333
430.663305	2534.004036
431.040726	2536.174253
431.418086	2537.101825
431.795385	2537.142155
432.172624	2539.614841
432.549802	2539.221631
432.926920	2537.573173
433.303977	2538.319264
433.680974	2539.360262
434.057910	2540.449152
434.434786	2537.212731
434.811601	2539.133410
435.188355	2537.401774
435.565050	2540.340767
435.941683	2540.262629
436.318257	2536.333049
436.694770	2532.637884
437.071222	2535.634850
437.447614	2534.747607
437.823946	2533.562935
438.200218	2542.765562
438.576429	2541.112063
438.952580	2537.999151
439.328670	2541.785057
439.704700	2541.238092
440.080670	2537.179963
440.456580	2535.355066
440.832429	2542.135417
441.208218	2541.449821
441.583947	2541.971580
441.959616	2540.633154
442.335224	2539.413194
442.710773	2539.483771
443.086261	2540.393699
443.461689	2538.233564
443.837057	2539.317412
444.212365	2537.797505
444.587612	2542.541230
444.962800	2541.548123
445.337927	2541.986703
445.712995	2543.204142
446.088002	2540.733977
446.462949	2542.004348
446.837837	2543.330171
447.212664	2543.463762
447.587431	2541.525438
447.962139	2542.974770
448.336786	2543.052907
448.711374	2542.765562
449.085901	2542.631971
449.460369	2540.040818
449.834776	2542.407640
450.209124	2539.526620
450.583412	2543.917465
450.957640	2544.872764
451.331808	2542.478216
451.705917	2541.124666
452.079965	2543.347815
452.453954	2540.786909
452.827883	2543.733463
453.201752	2545.341591
453.575562	2542.914276
453.949311	2540.123997
454.323001	2543.365459
454.696632	2544.161961
455.070202	2544.986190
455.443713	2545.160110
455.817164	2543.962836
456.190556	2540.693647
456.563888	2539.670293
456.937160	2540.333205
457.310373	2543.302445
457.683526	2542.629451
458.056619	2544.109029
458.429653	2542.969728
458.802628	2546.483413
459.175542	2543.599873
459.548398	2542.261446
459.921194	2543.867054
460.293930	2544.056097
460.666607	2545.326468
461.039224	2544.630789
461.411782	2544.338402
461.784280	2546.579195
462.156719	2544.184647
462.529099	2545.349153
462.901419	2546.228834
463.273680	2544.056097
463.645882	2544.204811
464.018024	2546.985008
464.390106	2545.744884
464.762130	2548.278063
465.134094	2545.530635
465.505999	2547.100954
465.877845	2542.737835
466.249631	2546.992569
466.621358	2545.737322
466.993026	2551.290153
467.364634	2550.279402
467.736184	2544.514842
468.107674	2546.639688
468.479105	2544.696324
468.850477	2546.826211
469.221790	2547.040460
469.593043	2545.555840
469.964238	2544.771941
470.335373	2544.212373
470.706449	2548.618341
471.077467	2544.056097
471.448425	2549.429967
471.819324	2545.848227
472.190164	2548.434339
472.560945	2546.473330
472.931667	2545.707075
473.302330	2545.649102
473.672934	2547.441232
474.043479	2543.655325
474.413965	2548.656150
474.784393	2544.444266
475.154761	2542.780685
475.525070	2544.976108
475.895321	2546.864020
476.265513	2543.315047
476.635645	2548.391489
477.005719	2545.926365
477.375734	2546.969884
477.745691	2547.272353
478.115588	2549.218239
478.485427	2547.113557
478.855207	2548.366284
479.224928	2548.066335
479.594591	2549.845862
479.964194	2548.300749
480.333739	2545.875954
480.703226	2546.642209
481.072653	2550.188661
481.442022	2549.772766
481.811333	2548.998948
482.180584	2549.871068
482.549777	2550.065152
482.918912	2547.847045
483.287988	2547.221942
483.657005	2547.894936
484.025964	2550.128167
484.394864	2549.755122
484.763706	2550.367622
485.132489	2547.673125
485.501213	2548.822508
485.869879	2547.587425
486.238487	2548.610780
486.607036	2547.403423
486.975527	2550.087838
487.343959	2551.300235
487.712333	2548.333516
488.080648	2548.167158
488.448905	2546.536345
488.817104	2550.367622
489.185244	2548.446942
489.553326	2549.634134
489.921350	2547.917621
490.289315	2549.901315
490.657222	2549.654298
491.025070	2552.394166
491.392861	2549.359391
491.760593	2550.297046
492.128267	2550.231511
492.495883	2548.356201
492.863440	2548.870399
493.230939	2551.716130
493.598380	2550.712941
493.965763	2544.600542
494.333088	2545.520552
494.700354	2546.853938
495.067563	2548.973743
495.434713	2543.627599
495.801805	2550.901984
496.168839	2550.803682
496.535815	2550.460883
496.902733	2550.120605
497.269593	2552.782334
497.636395	2550.836449
498.003139	2552.628579
498.369825	2550.065153
498.736453	2548.388969
499.103023	2550.153373
499.469535	2554.077911
499.835989	2551.890050
500.202385	2549.825698
500.568723	2552.779814
500.935003	2550.223949
501.301226	2548.749411
501.667390	2550.513815
502.033497	2551.766542
502.399546	2550.208825
502.765537	2549.737477
503.131470	2550.251675
503.497345	2552.288301
503.863163	2552.769732
504.228923	2550.995245
504.594625	2551.189330
504.960269	2548.701520
505.325856	2551.491799
505.691385	2551.779145
506.056856	2549.782848
506.422270	2550.400389
506.787625	2552.767211
507.152924	2552.391645
507.518164	2552.179917
507.883347	2550.292004
508.248472	2551.544731
508.613540	2552.268137
508.978550	2551.532128
509.343503	2551.522046
509.708398	2551.466593
510.073236	2552.023641
510.438016	2550.861655
510.802738	2549.976932
511.167403	2551.385935
511.532010	2552.479865
511.896561	2551.960626
512.261053	2551.905174
512.625488	2544.895449
512.989866	2550.052550
513.354186	2548.169679
513.718449	2545.424770
514.082655	2551.809392
514.446803	2550.841490
514.810894	2551.166645
515.174927	2551.915256
515.538904	2550.581871
515.902822	2551.640513
516.266684	2553.087324
516.630488	2552.106820
516.994235	2552.915925
517.357925	2551.794268
517.721558	2553.490617
518.085133	2553.357026
518.448651	2552.265616
518.812112	2550.070194
519.175516	2553.180586
519.538863	2553.248641
519.902152	2552.797458
520.265385	2553.611604
520.628560	2552.515153
520.991678	2552.716799
521.354739	2549.281253
521.717743	2552.134546
522.080690	2551.945503
522.443580	2552.482386
522.806413	2553.475493
523.169189	2551.519525
523.531908	2552.207643
523.894569	2553.596481
524.257174	2552.530277
524.619722	2550.286963
524.982213	2551.353167
525.344647	2551.522046
525.707025	2552.510112
526.069345	2552.162272
526.431608	2553.079762
526.793815	2552.631100
527.155964	2554.120761
527.518057	2552.956254
527.880093	2552.023641
528.242072	2550.428116
528.603995	2552.883157
528.965860	2553.324258
529.327669	2553.576316
529.689421	2552.726882
530.051117	2552.951213
530.412755	2553.309135
530.774337	2552.931048
531.135862	2553.730071
531.497331	2549.006510
531.858743	2549.079607
532.220098	2549.061963
532.581396	2546.891746
532.942638	2548.046170
533.303824	2552.063970
533.664953	2553.727551
534.026025	2549.767724
534.387040	2552.658826
534.747999	2553.127653
535.108902	2550.186140
535.469748	2554.133364
535.830537	2554.481203
536.191270	2551.517005
536.551947	2553.125133
536.912567	2553.772921
537.273131	2553.483055
537.633638	2551.186809
537.994089	2553.097407
538.354483	2554.665205
538.714821	2552.026161
539.075103	2553.321738
539.435328	2551.658157
539.795497	2550.385266
540.155609	2556.071687
540.515665	2549.500543
540.875665	2555.391132
541.235609	2553.079763
541.595496	2553.435164
541.955328	2552.978939
542.315102	2552.976419
542.674821	2555.365926
543.034483	2556.066646
543.394090	2555.192006
543.753640	2553.427602
544.113134	2554.478683
544.472571	2552.986501
544.831953	2553.039433
545.191278	2553.656975
545.550548	2552.585729
545.909761	2552.784855
546.268918	2553.790565
546.628019	2553.195709
546.987064	2553.563713
547.346053	2551.849721
547.704986	2554.173693
548.063863	2553.478014
548.422684	2554.181255
548.781449	2551.524567
549.140158	2555.207129
549.498811	2554.309804
549.857408	2551.769062
550.215949	2550.977601
550.574434	2549.639175
550.932864	2550.004659
551.291237	2547.524411
551.649555	2555.101265
552.007817	2554.045143
552.366022	2552.555482
552.724173	2552.376522
553.082267	2554.836605
553.440305	2553.064639
553.798288	2557.722665
554.156215	2551.874927
554.514086	2550.959957
554.871902	2552.999104
555.229661	2554.211502
555.587365	2553.021789
555.945014	2550.778476
556.302606	2552.081614
556.660143	2552.268137
557.017625	2553.435164
557.375050	2554.904660
557.732421	2552.777293
558.089735	2554.493806
558.446994	2553.951882
558.804197	2554.019938
559.161345	2553.460370
559.518437	2552.026161
559.875474	2552.812581
560.232455	2552.870555
560.589381	2553.951882
560.946251	2557.599157
561.303065	2554.403065
561.659825	2555.958261
562.016528	2553.619166
562.373177	2551.567416
562.729770	2552.855431
563.086307	2554.723179
563.442789	2552.341233
563.799216	2555.222253
564.155587	2553.089845
564.511904	2555.570093
564.868164	2553.127653
565.224370	2551.590102
565.580520	2553.525905
565.936615	2556.096893
566.292654	2555.174362
566.648638	2553.326779
567.004567	2553.263765
567.360441	2555.134033
567.716260	2550.443239
568.072023	2552.058929
568.427732	2550.793599
568.783385	2550.544062
569.138982	2549.911397
569.494525	2552.583209
569.850013	2551.421223
570.205445	2553.709907
570.560823	2551.758980
570.916145	2555.456667
571.271412	2553.236038
571.626625	2554.536656
571.981782	2553.470452
572.336884	2554.486244
572.691931	2554.582026
573.046923	2551.532128
573.401860	2555.922973
573.756743	2554.766028
574.111570	2553.762839
574.466342	2555.151677
574.821059	2553.677139
575.175722	2552.558003
575.530330	2553.238559
575.884882	2554.191337
576.239380	2551.091027
576.593823	2554.418189
576.948211	2553.233518
577.302544	2551.781665
577.656823	2551.877447
578.011047	2555.408776
578.365216	2553.649413
578.719330	2553.503219
579.073389	2554.060267
579.427394	2552.537838
579.781344	2555.189485
580.135239	2555.406255
580.489080	2551.902653
580.842866	2553.276367
581.196597	2559.676112
581.550273	2552.963816
581.903895	2554.168652
582.257463	2554.337530
582.610975	2554.745864
582.964434	2553.430123
583.317837	2555.565051
583.671186	2554.408107
584.024481	2554.766028
584.377721	2555.905329
584.730906	2554.987839
585.084037	2556.545556
585.437113	2554.841646
585.790135	2556.406924
586.143103	2555.610422
586.496016	2554.400545
586.848874	2549.616490
587.201679	2554.471121
587.554428	2548.593136
587.907124	2554.009855
588.259765	2548.590615
588.612352	2552.258054
588.964884	2553.530946
589.317362	2554.869372
589.669786	2553.752757
590.022155	2557.881462
590.374470	2553.730071
590.726731	2552.989022
591.078937	2553.815771
591.431090	2554.342572
591.783188	2551.761501
592.135232	2554.975236
592.487222	2554.403065
592.839157	2553.893909
593.191038	2557.377346
593.542866	2556.800134
593.894639	2551.728733
594.246358	2554.244269
594.598022	2554.594629
594.949633	2552.442057
595.301190	2553.369629
595.652692	2555.711245
596.004141	2552.222766
596.355535	2554.957592
596.706876	2553.929197
597.058162	2553.225956
597.409395	2552.066491
597.760573	2553.329300
598.111698	2553.606563
598.462768	2552.545400
598.813785	2552.399207
599.164748	2553.528425
599.515657	2553.321738
599.866511	2554.317366
600.217312	2554.544218
600.568060	2554.307283
600.918753	2557.475649
601.269392	2554.153528
601.619978	2552.253013
601.970510	2555.217212
602.320988	2552.444577
602.671412	2558.468756
603.021783	2553.140256
603.372100	2555.781821
603.722363	2553.513302
604.072572	2552.951213
604.422728	2556.205278
604.772830	2550.677653
605.122878	2550.332334
605.472872	2553.339382
605.822813	2547.302600
606.172701	2552.195040
606.522534	2554.027499
606.872314	2557.213509
607.222041	2553.188147
607.571714	2551.900133
607.921333	2553.084804
608.270899	2553.024310
608.620411	2554.450956
608.969870	2554.435833
609.319276	2554.481203
609.668627	2555.607901
610.017926	2556.384239
610.367171	2556.051523
610.716362	2558.178890
611.065500	2555.481872
611.414585	2555.779300
611.763616	2554.687891
612.112594	2555.905329
612.461518	2555.398693
612.810389	2556.043961
613.159207	2552.358877
613.507971	2553.145297
613.856682	2557.158056
614.205340	2554.602191
614.553945	2556.404403
614.902496	2555.865000
615.250994	2558.425906
615.599439	2553.772921
615.947830	2554.884496
616.296169	2553.016748
616.644454	2554.826522
616.992686	2553.173024
617.340864	2555.338199
617.688990	2554.531615
618.037063	2555.928014
618.385082	2553.102448
618.733048	2555.552448
619.080961	2555.436502
619.428821	2555.393652
619.776628	2555.491955
620.124382	2555.262582
620.472083	2555.870041
620.819731	2553.125133
621.167326	2557.826009
621.514868	2554.277037
621.862357	2553.939279
622.209793	2556.785011
622.557176	2554.763508
622.904506	2555.524722
623.251783	2549.644216
623.599007	2553.296532
623.946179	2551.171686
624.293297	2552.084135
624.640363	2555.554969
624.987376	2554.188816
625.334336	2556.190154
625.681243	2557.778118
626.028097	2555.877603
626.374899	2556.911039
626.721647	2552.888199
627.068343	2553.236038
627.414987	2552.976419
627.761577	2555.252500
628.108115	2553.719989
628.454600	2555.655792
628.801032	2553.442726
629.147412	2554.463559
629.493739	2555.156718
629.840014	2554.627397
630.186236	2555.645710
630.532405	2554.723179
630.878521	2554.133364
631.224585	2554.145967
631.570597	2555.202088
631.916556	2555.108827
632.262462	2553.546069
632.608316	2554.335010
632.954117	2551.103630
633.299866	2553.268806
633.645562	2554.720658
633.991206	2554.700493
634.336797	2556.212840
634.682336	2553.707386
635.027823	2551.532128
635.373257	2554.085473
635.718639	2552.487427
636.063968	2552.147149
636.409245	2552.386604
636.754470	2552.313507
637.099642	2553.344423
637.444762	2554.423230
637.789829	2555.156718
638.134845	2554.846687
638.479808	2554.750905
638.824719	2551.572458
639.169577	2554.433312
639.514383	2553.755277
639.859137	2553.294012
640.203839	2552.840308
640.548489	2554.203940
640.893086	2551.297715
641.237632	2546.737991
641.582125	2550.382745
641.926566	2548.373845
642.270955	2552.487427
642.615292	2552.958775
642.959576	2553.893909
643.303809	2554.251831
643.647990	2553.843497
643.992118	2553.687222
644.336195	2552.711758
