Dividing Wavelength (nm)	Counts (n)	Blue Motor Position (mm): 20.800000	Red Motor Position (mm): 0.000000	
326.493990	2135.629374
326.888308	2135.629374
327.282561	2135.629374
327.676750	2099.491863
328.070874	2100.921030
328.464933	2101.760382
328.858929	2107.267843
329.252859	2120.952055
329.646726	2129.096039
330.040528	2143.480971
330.434265	2160.003353
330.827938	2177.901970
331.221547	2195.888807
331.615091	2217.817826
332.008571	2234.448593
332.401986	2254.628331
332.795338	2272.516866
333.188625	2295.214661
333.581847	2311.883236
333.975006	2329.184476
334.368100	2349.011334
334.761129	2368.691999
335.154095	2382.940820
335.546996	2402.853378
335.939833	2426.042686
336.332606	2440.379727
336.725315	2450.396500
337.117960	2460.085597
337.510540	2469.941053
337.903056	2478.314410
338.295508	2487.151553
338.687896	2494.345279
339.080220	2504.135200
339.472480	2507.734584
339.864676	2516.140708
340.256807	2519.450225
340.648875	2522.820237
341.040879	2520.350071
341.432818	2524.546832
341.824694	2525.386184
342.216506	2527.460619
342.608253	2527.669827
342.999937	2530.893644
343.391557	2531.128058
343.783113	2529.194776
344.174605	2528.468849
344.566033	2525.867614
344.957397	2519.674557
345.348697	2520.435771
345.739934	2520.244207
346.131106	2518.162210
346.522215	2515.989473
346.913260	2511.865809
347.304241	2512.904287
347.695159	2511.054183
348.086012	2507.137207
348.476802	2505.445900
348.867528	2504.485560
349.258191	2502.884994
349.648789	2504.712412
350.039324	2500.659324
350.429796	2500.669407
350.820203	2499.683861
351.210548	2498.841988
351.600828	2497.813593
351.991045	2495.756802
352.381198	2495.519868
352.771288	2498.300064
353.161314	2492.570793
353.551276	2496.744868
353.941175	2495.585403
354.331010	2492.762357
354.720782	2494.751092
355.110490	2492.089363
355.500135	2494.483911
355.889717	2494.856956
356.279235	2495.713952
356.668689	2494.060454
357.058080	2497.017091
357.447408	2491.882675
357.836672	2493.014414
358.225873	2493.362254
358.615010	2493.838643
359.004084	2496.230671
359.393095	2496.916267
359.782043	2499.648573
360.170927	2499.381392
360.559748	2500.961793
360.948505	2498.794097
361.337199	2502.940446
361.725830	2499.686382
362.114398	2503.265601
362.502903	2501.377689
362.891344	2502.060765
363.279722	2502.668224
363.668037	2504.382216
364.056289	2505.990344
364.444478	2502.287617
364.832603	2504.248626
365.220665	2504.394819
365.608665	2502.849706
365.996601	2507.016219
366.384474	2503.565549
366.772284	2506.260046
367.160031	2505.564367
367.547715	2506.733915
367.935336	2508.170643
368.322893	2508.122753
368.710388	2504.314161
369.097820	2512.029647
369.485189	2507.890859
369.872495	2509.254492
370.259738	2504.999758
370.646918	2507.540499
371.034035	2512.485871
371.421090	2509.027640
371.808081	2509.347753
372.195010	2510.943278
372.581875	2513.531911
372.968678	2509.468741
373.355418	2511.177692
373.742096	2512.256499
374.128710	2511.903618
374.515262	2511.447393
374.901751	2514.777076
375.288177	2514.030985
375.674540	2513.584843
376.060841	2514.817405
376.447079	2512.647188
376.833254	2514.958557
377.219367	2508.473113
377.605417	2510.345901
377.991404	2511.770027
378.377329	2510.640809
378.763191	2509.604852
379.148991	2514.756911
379.534727	2515.192971
379.920402	2515.540810
380.306013	2512.750532
380.691563	2516.276819
381.077049	2515.709689
381.462474	2516.105420
381.847835	2516.314627
382.233134	2514.406551
382.618371	2514.225069
383.003545	2516.672549
383.388657	2517.053157
383.773706	2520.128260
384.158693	2516.967457
384.543618	2517.653054
384.928480	2518.739422
385.313280	2518.290760
385.698017	2517.615245
386.082692	2519.223373
386.467305	2517.811850
386.851856	2522.719413
387.236344	2519.760256
387.620770	2520.382839
388.005133	2520.672705
388.389435	2520.715555
388.773674	2520.602129
389.157851	2517.748836
389.541965	2517.630369
389.926018	2522.464835
390.310008	2519.712365
390.693936	2522.535411
391.077802	2518.106758
391.461606	2522.648837
391.845348	2522.109434
392.229027	2520.163548
392.612645	2521.698580
392.996200	2524.014990
393.379694	2520.670184
393.763125	2521.824609
394.146494	2524.224198
394.529801	2524.251924
394.913047	2523.546163
395.296230	2524.027593
395.679351	2522.656399
396.062410	2525.960875
396.445408	2524.483817
396.828343	2524.007428
397.211217	2519.445184
397.594028	2523.551204
397.976778	2519.689680
398.359466	2518.946110
398.742092	2520.166069
399.124656	2524.014990
399.507158	2525.544980
399.889598	2524.627490
400.271977	2525.388704
400.654294	2526.641431
401.036549	2525.388704
401.418742	2525.073632
401.800874	2529.895496
402.182944	2528.627646
402.564952	2525.418951
402.946898	2525.882737
403.328783	2525.655886
403.710606	2525.996163
404.092367	2526.961544
404.474067	2528.728469
404.855705	2524.793848
405.237282	2529.429189
405.618797	2527.546318
406.000250	2528.214271
406.381642	2526.039013
406.762972	2531.339787
407.144240	2530.576052
407.525447	2528.602440
407.906593	2531.092770
408.287677	2530.876000
408.668700	2527.102697
409.049661	2531.755682
409.430560	2529.262831
409.811399	2530.046731
410.192176	2531.554036
410.572891	2529.426669
410.953545	2531.493542
411.334138	2531.501103
411.714669	2531.135620
412.095139	2533.585621
412.475547	2531.929602
412.855894	2530.475229
413.236180	2532.814324
413.616405	2529.799714
413.996568	2530.172759
414.376670	2533.010929
414.756711	2532.133768
415.136691	2533.701567
415.516609	2531.367513
415.896466	2531.901875
416.276262	2532.726104
416.655997	2530.903727
417.035670	2530.026566
417.415283	2532.345497
417.794834	2529.167049
418.174324	2530.432379
418.553753	2532.101001
418.933121	2533.247863
419.312428	2532.751310
419.691674	2536.106197
420.070859	2534.319108
420.449983	2533.830117
420.829045	2534.430014
421.208047	2532.625281
421.586988	2535.342463
421.965867	2537.104346
422.344686	2536.799356
422.723444	2535.256763
423.102141	2534.102339
423.480777	2533.759540
423.859352	2535.443286
424.237866	2535.579397
424.616319	2536.459078
424.994712	2535.745755
425.373044	2534.979500
425.751314	2534.548481
426.129524	2534.382123
426.507673	2537.371527
426.885762	2535.939839
427.263789	2535.839016
427.641756	2536.522093
428.019662	2538.001671
428.397508	2537.542926
428.775292	2539.047711
429.153016	2537.850437
429.530679	2536.380940
429.908282	2539.158616
430.285824	2541.243133
430.663305	2537.091743
431.040726	2537.495035
431.418086	2540.552495
431.795385	2539.108205
432.172624	2539.813966
432.549802	2538.538554
432.926920	2539.771116
433.303977	2538.417567
433.680974	2537.091743
434.057910	2537.923533
434.434786	2538.939326
434.811601	2539.025026
435.188355	2541.442259
435.565050	2540.030736
435.941683	2540.875129
436.318257	2540.005530
436.694770	2535.347504
437.071222	2536.819521
437.447614	2533.794828
437.823946	2537.396733
438.200218	2539.743390
438.576429	2542.758000
438.952580	2539.748431
439.328670	2543.463762
439.704700	2541.971580
440.080670	2544.466951
440.456580	2539.819007
440.832429	2541.278421
441.208218	2540.537372
441.583947	2541.865716
441.959616	2543.705737
442.335224	2542.962167
442.710773	2544.610624
443.086261	2542.604245
443.461689	2543.998124
443.837057	2540.492001
444.212365	2541.220448
444.587612	2542.717671
444.962800	2543.216745
445.337927	2543.925027
445.712995	2543.438556
446.088002	2545.346632
446.462949	2540.771785
446.837837	2542.042156
447.212664	2540.355890
447.587431	2544.638350
447.962139	2543.972918
448.336786	2543.458720
448.711374	2542.415202
449.085901	2543.461241
449.460369	2545.271015
449.834776	2545.097095
450.209124	2544.156920
450.583412	2544.855120
450.957640	2543.597352
451.331808	2546.067517
451.705917	2541.812784
452.079965	2546.448125
452.453954	2545.230686
452.827883	2546.483413
453.201752	2544.817311
453.575562	2546.269164
453.949311	2547.718495
454.323001	2546.037271
454.696632	2548.104144
455.070202	2547.486602
455.443713	2545.828063
455.817164	2544.557692
456.190556	2545.036602
456.563888	2542.911755
456.937160	2541.956457
457.310373	2545.780172
457.683526	2546.899308
458.056619	2546.685059
458.429653	2547.819318
458.802628	2546.490974
459.175542	2545.780172
459.548398	2549.351829
459.921194	2549.243444
460.293930	2546.178423
460.666607	2546.312013
461.039224	2549.369473
461.411782	2548.653629
461.784280	2549.286294
462.156719	2548.273022
462.529099	2548.903167
462.901419	2547.083310
463.273680	2549.860986
463.645882	2549.314021
464.018024	2550.412992
464.390106	2551.141439
464.762130	2551.809392
465.134094	2551.821995
465.505999	2554.375339
465.877845	2555.255020
466.249631	2554.009855
466.621358	2555.000442
466.993026	2555.416337
467.364634	2557.072356
467.736184	2554.962633
468.107674	2554.508930
468.479105	2555.522202
468.850477	2551.539690
469.221790	2554.090514
469.593043	2553.667057
469.964238	2555.401214
470.335373	2555.343241
470.706449	2554.229146
471.077467	2555.078580
471.448425	2557.674774
471.819324	2557.712583
472.190164	2559.844991
472.560945	2556.303580
472.931667	2556.515309
473.302330	2554.929866
473.672934	2555.701163
474.043479	2558.670402
474.413965	2556.429609
474.784393	2556.853066
475.154761	2554.892057
475.525070	2555.585216
475.895321	2554.869372
476.265513	2557.624363
476.635645	2562.758778
477.005719	2561.208623
477.375734	2561.475804
477.745691	2565.055023
478.115588	2569.239181
478.485427	2563.318346
478.855207	2570.365879
479.224928	2574.557598
479.594591	2577.141190
479.964194	2578.686303
480.333739	2581.905080
480.703226	2583.011613
481.072653	2586.149732
481.442022	2590.497727
481.811333	2595.299426
482.180584	2596.882348
482.549777	2598.540888
482.918912	2604.716301
483.287988	2608.940788
483.657005	2612.530090
484.025964	2616.159721
484.394864	2621.420165
484.763706	2626.673047
485.132489	2628.525671
485.501213	2636.926754
485.869879	2643.452527
486.238487	2646.540234
486.607036	2655.258910
486.975527	2660.940290
487.343959	2670.037052
487.712333	2680.179854
488.080648	2686.312417
488.448905	2693.743078
488.817104	2704.495859
489.185244	2718.006152
489.553326	2737.848133
489.921350	2759.676329
490.289315	2801.878349
490.657222	2822.620176
491.025070	2836.954697
491.392861	2847.828466
491.760593	2852.395752
492.128267	2855.526308
492.495883	2859.970085
492.863440	2864.255066
493.230939	2869.641539
493.598380	2888.813047
493.965763	2899.396949
494.333088	2908.990265
494.700354	2927.284613
495.067563	2946.297324
495.434713	2960.785600
495.801805	2989.653768
496.168839	3009.316788
496.535815	3030.522402
496.902733	3046.180226
497.269593	3068.948597
497.636395	3093.650251
498.003139	3124.723923
498.369825	3138.070378
498.736453	3178.427335
499.103023	3197.051878
499.469535	3231.157805
499.835989	3255.625045
500.202385	3284.659570
500.568723	3302.099442
500.935003	3348.629292
501.301226	3379.952502
501.667390	3428.319852
502.033497	3484.647185
502.399546	3496.652693
502.765537	3523.905170
503.131470	3570.364444
503.497345	3631.997591
503.863163	3618.973770
504.228923	3700.458981
504.594625	3746.673759
504.960269	3755.669698
505.325856	3825.575378
505.691385	3847.375848
506.056856	3910.808687
506.422270	3965.641317
506.787625	3987.754338
507.152924	4060.450297
507.518164	4093.444649
507.883347	4133.431082
508.248472	4166.934590
508.613540	4266.351185
508.978550	4297.906288
509.343503	4339.944470
509.708398	4417.235440
510.073236	4495.819467
510.438016	4552.028333
510.802738	4597.774283
511.167403	4669.764481
511.532010	4710.166808
511.896561	4810.367302
512.261053	4897.992639
512.625488	4923.125311
512.989866	4979.586234
513.354186	5039.686870
513.718449	5074.969906
514.082655	5189.598183
514.446803	5227.976487
514.810894	5325.033822
515.174927	5356.593966
515.538904	5415.928347
515.902822	5532.462179
516.266684	5553.380447
516.630488	5608.293736
516.994235	5680.631773
517.357925	5779.317401
517.721558	5872.074632
518.085133	5952.985151
518.448651	6016.347414
518.812112	6035.440784
519.175516	6119.738958
519.538863	6241.419809
519.902152	6257.168374
520.265385	6407.084728
520.628560	6423.286996
520.991678	6506.110633
521.354739	6587.772284
521.717743	6625.129755
522.080690	6683.987747
522.443580	6828.189953
522.806413	6878.016717
523.169189	6953.160156
523.531908	7050.121709
523.894569	7032.560850
524.257174	7107.230421
524.619722	7234.922848
524.982213	7265.583145
525.344647	7377.685804
525.707025	7409.016575
526.069345	7529.931171
526.431608	7561.534164
526.793815	7685.392794
527.155964	7640.546689
527.518057	7726.884010
527.880093	7763.399608
528.242072	7867.123869
528.603995	7879.220118
528.965860	7892.470791
529.327669	7992.530133
529.689421	8014.733895
530.051117	8060.104280
530.412755	8193.709980
530.774337	8177.369080
531.135862	8237.628512
531.497331	8297.850136
531.858743	8266.118593
532.220098	8431.927184
532.581396	8400.813183
532.942638	8442.198535
533.303824	8469.922361
533.664953	8546.663846
534.026025	8537.471302
534.387040	8662.902771
534.747999	8711.184422
535.108902	8812.267119
535.469748	8683.558899
535.830537	8815.415319
536.191270	8844.691820
536.551947	8922.854911
536.912567	8956.857493
537.273131	8947.727964
537.633638	8981.906987
537.994089	9025.036578
538.354483	9028.593113
538.714821	9180.795629
539.075103	9226.395387
539.435328	9244.674610
539.795497	9147.677769
540.155609	9316.226228
540.515665	9426.869472
540.875665	9253.524356
541.235609	9352.756949
541.595496	9392.471159
541.955328	9559.000635
542.315102	9496.424792
542.674821	9488.946241
543.034483	9526.190285
543.394090	9565.163446
543.753640	9544.214931
544.113134	9766.413869
544.472571	9671.315022
544.831953	9831.487603
545.191278	9699.694198
545.550548	9750.831662
545.909761	9903.888655
546.268918	9906.870497
546.628019	10009.891517
546.987064	9919.846427
547.346053	9874.080312
547.704986	9991.080452
548.063863	10016.790336
548.422684	10022.622951
548.781449	9977.423966
549.140158	10096.395197
549.498811	10006.657617
549.857408	9893.382890
550.215949	10123.120874
550.574434	10010.312454
550.932864	10128.547676
551.291237	10201.740189
551.649555	10174.951497
552.007817	10205.324449
552.366022	10185.510194
552.724173	10196.028561
553.082267	10200.517709
553.440305	10346.849802
553.798288	10174.812865
554.156215	10338.957876
554.514086	10334.309932
554.871902	10201.730106
555.229661	10252.948229
555.587365	10240.345345
555.945014	10155.215380
556.302606	10289.544486
556.660143	10201.425117
557.017625	10360.271874
557.375050	10274.844481
557.732421	10415.659032
558.089735	10347.999185
558.446994	10355.205515
558.804197	10404.528164
559.161345	10409.778526
559.518437	10278.958063
559.875474	10373.721673
560.232455	10415.142313
560.589381	10367.687412
560.946251	10376.108659
561.303065	10488.153344
561.659825	10432.297360
562.016528	10371.115396
562.373177	10263.035578
562.729770	10383.493949
563.086307	10306.470160
563.442789	10400.724613
563.799216	10286.429053
564.155587	10343.900727
564.511904	10304.005036
564.868164	10297.360795
565.224370	10314.599020
565.580520	10251.050235
565.936615	10259.194219
566.292654	10133.636721
566.648638	10266.768553
567.004567	10225.395803
567.360441	10217.022447
567.716260	10125.747315
568.072023	10222.643333
568.427732	10184.239823
568.783385	10092.337068
569.138982	10167.034365
569.494525	10180.859729
569.850013	10066.491072
570.205445	10144.550819
570.560823	10049.772085
570.916145	9970.794849
571.271412	10038.731958
571.626625	9986.447631
571.981782	9970.620929
572.336884	9942.985323
572.691931	9948.149986
573.046923	9899.885979
573.401860	9856.748825
573.756743	9796.262541
574.111570	9840.458337
574.466342	9822.194236
574.821059	9852.907466
575.175722	9745.891332
575.530330	9755.832487
575.884882	9753.251416
576.239380	9680.729377
576.593823	9659.559051
576.948211	9674.654787
577.302544	9554.839162
577.656823	9574.537471
578.011047	9579.049304
578.365216	9554.985356
578.719330	9474.485691
579.073389	9496.591150
579.427394	9431.905585
579.781344	9415.456300
580.135239	9364.180203
580.489080	9374.358293
580.842866	9276.118808
581.196597	9285.122308
581.550273	9323.102361
581.903895	9291.716138
582.257463	9360.411941
582.610975	9241.158406
582.964434	9267.410214
583.317837	9191.233338
583.671186	9167.229884
584.024481	9173.957304
584.377721	9081.968849
584.730906	9065.234739
585.084037	9095.937887
585.437113	9031.920274
585.790135	9051.089262
586.143103	8952.973284
586.496016	8925.438502
586.848874	8987.374118
587.201679	8976.414650
587.554428	8864.806024
587.907124	8905.006705
588.259765	8870.729380
588.612352	8884.494250
588.964884	8756.900126
589.317362	8775.260008
589.669786	8772.832693
590.022155	8822.861103
590.374470	8839.900203
590.726731	8777.699927
591.078937	8629.253069
591.431090	8743.382272
591.783188	8611.470399
592.135232	8607.818083
592.487222	8612.329916
592.839157	8662.701125
593.191038	8596.165456
593.542866	8540.027167
593.894639	8433.111856
594.246358	8490.969178
594.598022	8503.786312
594.949633	8410.162003
595.301190	8378.017085
595.652692	8407.585973
596.004141	8522.143674
596.355535	8294.843088
596.706876	8277.002444
597.058162	8220.412972
597.409395	8285.877396
597.760573	8352.256789
598.111698	8258.269517
598.462768	8246.190912
598.813785	8221.479176
599.164748	8181.112137
599.515657	8171.728029
599.866511	8082.623114
600.217312	8210.091209
600.568060	8068.520486
600.918753	8173.406733
601.269392	8146.376066
601.619978	8052.850059
601.970510	8116.910522
602.320988	8117.855738
602.671412	8171.254160
603.021783	8112.239893
603.372100	8082.940707
603.722363	8087.646624
604.072572	8056.182262
604.422728	8074.595076
604.772830	7999.048345
605.122878	8009.181064
605.472872	8003.905497
605.822813	8028.473560
606.172701	7980.113771
606.522534	8050.843680
606.872314	8055.791572
607.222041	8022.245214
607.571714	8075.386537
607.921333	8030.429527
608.270899	8043.660036
608.620411	8133.319478
608.969870	8032.750979
609.319276	8027.601440
609.668627	8044.108698
610.017926	8075.441990
610.367171	8124.915874
610.716362	8103.702699
611.065500	8092.045030
611.414585	8118.193495
611.763616	8107.818801
612.112594	8093.469156
612.461518	8102.127338
612.810389	8165.890373
613.159207	8109.121939
613.507971	8055.657982
613.856682	8173.414295
614.205340	8130.181359
614.553945	8205.486115
614.902496	8105.638502
615.250994	8154.739340
615.599439	8141.125704
615.947830	8151.192888
616.296169	8125.266234
616.644454	8138.143862
616.992686	8139.333574
617.340864	8192.386677
617.688990	8102.220599
618.037063	8190.186213
618.385082	8134.302502
618.733048	8224.372798
619.080961	8162.911051
619.428821	8182.500974
619.776628	8188.484824
620.124382	8135.247719
620.472083	8118.059905
620.819731	8144.805747
621.167326	8043.614665
621.514868	8050.190851
621.862357	7937.959642
622.209793	7958.499824
622.557176	7897.368272
622.904506	7860.865277
623.251783	7795.579814
623.599007	7749.218842
623.946179	7755.439626
624.293297	7709.741567
624.640363	7626.330635
624.987376	7611.408820
625.334336	7562.310502
625.681243	7512.264447
626.028097	7501.010071
626.374899	7475.411092
626.721647	7466.268959
627.068343	7402.037098
627.414987	7371.633899
627.761577	7325.560273
628.108115	7369.677931
628.454600	7260.030314
628.801032	7314.547873
629.147412	7267.004751
629.493739	7263.533916
629.840014	7196.599996
630.186236	7254.467401
630.532405	7136.065821
630.878521	7183.523243
631.224585	7138.062118
631.570597	7068.675676
631.916556	7104.465348
632.262462	7097.828669
632.608316	7056.264355
632.954117	7040.840945
633.299866	7025.029366
633.645562	7014.410176
633.991206	6939.591891
634.336797	6879.208950
634.682336	6836.964081
635.027823	6805.058618
635.373257	6798.676517
635.718639	6731.871147
636.063968	6736.193936
636.409245	6636.666436
636.754470	6631.864737
637.099642	6591.722028
637.444762	6535.654315
637.789829	6551.786008
638.134845	6493.164950
638.479808	6476.582075
638.824719	6480.856973
639.169577	6411.047075
639.514383	6434.490961
639.859137	6361.290886
640.203839	6368.524942
640.548489	6354.349217
640.893086	6331.220403
641.237632	6298.077337
641.582125	6321.004505
641.926566	6291.728004
642.270955	6303.960364
642.615292	6300.272760
642.959576	6314.004863
643.303809	6301.210415
643.647990	6309.077135
