Dividing Wavelength (nm)	Counts (n)	Blue Motor Position (mm): 28.600000	Red Motor Position (mm): 0.000000	
326.493990	2131.992182
326.888308	2131.992182
327.282561	2131.992182
327.676750	2102.430856
328.070874	2097.697212
328.464933	2101.989755
328.858929	2109.085179
329.252859	2115.890736
329.646726	2130.421862
330.040528	2139.858902
330.434265	2160.406645
330.827938	2176.346774
331.221547	2194.956193
331.615091	2211.700386
332.008571	2231.801987
332.401986	2253.955337
332.795338	2271.382606
333.188625	2291.295164
333.581847	2309.198822
333.975006	2329.718838
334.368100	2346.581498
334.761129	2363.222347
335.154095	2378.479399
335.546996	2401.164591
335.939833	2426.239291
336.332606	2441.309820
336.725315	2451.805502
337.117960	2461.519806
337.510540	2471.027422
337.903056	2482.566623
338.295508	2490.632469
338.687896	2497.843840
339.080220	2505.108142
339.472480	2514.199863
339.864676	2516.667508
340.256807	2522.573220
340.648875	2523.543642
341.040879	2526.598581
341.432818	2526.843077
341.824694	2528.010104
342.216506	2530.686957
342.608253	2530.119827
342.999937	2530.815507
343.391557	2530.369364
343.783113	2530.409694
344.174605	2527.939528
344.566033	2526.129754
344.957397	2525.247552
345.348697	2522.535411
345.739934	2520.171110
346.131106	2519.563651
346.522215	2518.474762
346.913260	2514.915707
347.304241	2514.358660
347.695159	2511.681807
348.086012	2510.953360
348.476802	2509.688031
348.867528	2508.122753
349.258191	2505.607217
349.648789	2504.883811
350.039324	2504.662000
350.429796	2505.705519
350.820203	2500.472802
351.210548	2500.997082
351.600828	2497.062461
351.991045	2499.666217
352.381198	2495.716473
352.771288	2498.418531
353.161314	2495.648417
353.551276	2496.848212
353.941175	2497.659838
354.331010	2494.982985
354.720782	2495.126658
355.110490	2494.249497
355.500135	2495.721514
355.889717	2496.961638
356.279235	2496.886021
356.668689	2498.073212
357.058080	2499.300733
357.447408	2493.470639
357.836672	2495.686226
358.225873	2495.194713
358.615010	2493.125320
359.004084	2498.494149
359.393095	2498.244612
359.782043	2500.981958
360.170927	2500.611433
360.559748	2500.170332
360.948505	2504.009171
361.337199	2504.601507
361.725830	2501.985148
362.114398	2502.713594
362.502903	2503.852895
362.891344	2502.675786
363.279722	2503.903307
363.668037	2507.210304
364.056289	2506.060921
364.444478	2509.178874
364.832603	2504.888852
365.220665	2508.107629
365.608665	2508.331960
365.996601	2509.312465
366.384474	2507.911024
366.772284	2508.677279
367.160031	2508.147958
367.547715	2511.185253
367.935336	2509.345232
368.322893	2511.747342
368.710388	2509.602331
369.097820	2513.383197
369.485189	2510.431601
369.872495	2512.967301
370.259738	2509.703154
370.646918	2510.761797
371.034035	2509.781292
371.421090	2514.109123
371.808081	2511.790192
372.195010	2512.042250
372.581875	2511.984276
372.968678	2513.471417
373.355418	2514.121726
373.742096	2513.720954
374.128710	2513.993176
374.515262	2516.218846
374.901751	2514.088958
375.288177	2515.563496
375.674540	2513.998217
376.060841	2515.825636
376.447079	2514.404030
376.833254	2515.853362
377.219367	2510.348422
377.605417	2516.357477
377.991404	2511.921262
378.377329	2514.101561
378.763191	2512.480830
379.148991	2514.661129
379.534727	2516.296983
379.920402	2518.429392
380.306013	2517.794206
380.691563	2516.934689
381.077049	2519.510719
381.462474	2519.223373
381.847835	2515.835718
382.233134	2519.546007
382.618371	2517.312776
383.003545	2520.314783
383.388657	2518.827643
383.773706	2520.589526
384.158693	2516.864113
384.543618	2522.600946
384.928480	2519.064577
385.313280	2520.692870
385.698017	2521.648168
386.082692	2520.271933
386.467305	2522.936183
386.851856	2522.147243
387.236344	2523.641945
387.620770	2522.600946
388.005133	2522.883251
388.389435	2521.680936
388.773674	2521.456604
389.157851	2519.934176
389.541965	2524.415762
389.926018	2522.454753
390.310008	2523.616739
390.693936	2524.272089
391.077802	2524.685463
391.461606	2523.689836
391.845348	2521.537263
392.229027	2524.630011
392.612645	2525.943231
392.996200	2524.335103
393.379694	2527.687471
393.763125	2524.264527
394.146494	2525.492048
394.529801	2528.362985
394.913047	2529.051103
395.296230	2525.920546
395.679351	2528.816689
396.062410	2525.696215
396.445408	2525.557583
396.828343	2526.737213
397.211217	2522.064063
397.594028	2525.623118
397.976778	2525.383663
398.359466	2525.527336
398.742092	2523.195803
399.124656	2528.539426
399.507158	2529.053623
399.889598	2529.653521
400.271977	2529.729138
400.654294	2531.354910
401.036549	2530.845753
401.418742	2527.649662
401.800874	2530.455064
402.182944	2530.568490
402.564952	2530.989426
402.946898	2532.232071
403.328783	2528.655372
403.710606	2531.899355
404.092367	2531.395239
404.474067	2532.582431
404.855705	2533.739376
405.237282	2533.318439
405.618797	2533.404139
406.000250	2530.704601
406.381642	2533.131917
406.762972	2529.499765
407.144240	2535.208872
407.525447	2533.507483
407.906593	2532.123686
408.287677	2535.135775
408.668700	2535.937319
409.049661	2535.213913
409.430560	2535.531506
409.811399	2537.719367
410.192176	2535.803728
410.572891	2534.858512
410.953545	2533.948584
411.334138	2536.701054
411.714669	2536.282638
412.095139	2537.890766
412.475547	2538.513348
412.855894	2539.667773
413.236180	2537.031249
413.616405	2539.907227
413.996568	2537.041332
414.376670	2537.737011
414.756711	2537.747093
415.136691	2537.860519
415.516609	2541.157434
415.896466	2540.093750
416.276262	2539.871939
416.655997	2536.005374
417.035670	2536.128883
417.415283	2538.094933
417.794834	2534.256094
418.174324	2538.999820
418.553753	2540.091230
418.933121	2542.291693
419.312428	2543.131045
419.691674	2540.852444
420.070859	2541.520397
420.449983	2539.254398
420.829045	2540.955788
421.208047	2540.204656
421.586988	2542.720191
421.965867	2541.081816
422.344686	2544.315717
422.723444	2543.367980
423.102141	2544.252702
423.480777	2544.998793
423.859352	2546.657332
424.237866	2546.667415
424.616319	2545.586087
424.994712	2545.717157
425.373044	2546.264122
425.751314	2548.336037
426.129524	2546.251520
426.507673	2547.569781
426.885762	2548.378887
427.263789	2549.215718
427.641756	2551.506923
428.019662	2552.033723
428.397508	2550.244113
428.775292	2553.167983
429.153016	2553.730071
429.530679	2555.401214
429.908282	2558.388097
430.285824	2559.363561
430.663305	2561.231308
431.040726	2563.197358
431.418086	2565.261711
431.795385	2569.771023
432.172624	2573.098184
432.549802	2581.327868
432.926920	2583.523291
433.303977	2589.300453
433.680974	2593.033427
434.057910	2601.132041
434.434786	2607.345263
434.811601	2614.125615
435.188355	2625.717748
435.565050	2633.776033
435.941683	2640.490850
436.318257	2656.985505
436.694770	2662.364416
437.071222	2676.693896
437.447614	2683.726306
437.823946	2693.044878
438.200218	2718.369115
438.576429	2723.374981
438.952580	2743.998341
439.328670	2761.654982
439.704700	2775.936571
440.080670	2788.715896
440.456580	2826.373315
440.832429	2837.867146
441.208218	2846.008610
441.583947	2877.893908
441.959616	2899.434758
442.335224	2915.979825
442.710773	2950.458797
443.086261	2981.207315
443.461689	2980.078096
443.837057	3026.497041
444.212365	3075.970925
444.587612	3088.299066
444.962800	3140.109525
445.337927	3170.868125
445.712995	3141.589104
446.088002	3268.790018
446.462949	3276.563477
446.837837	3302.056592
447.212664	3364.055223
447.587431	3444.809466
447.962139	3615.059314
448.336786	3879.472874
448.711374	3861.276830
449.085901	3682.441897
449.460369	3705.953838
449.834776	3738.983478
450.209124	3901.938777
450.583412	4013.519676
450.957640	4098.909260
451.331808	4084.635233
451.705917	3993.874299
452.079965	4012.045138
452.453954	4142.910972
452.827883	4150.571005
453.201752	4238.244232
453.575562	4211.165674
453.949311	4354.583980
454.323001	4354.594063
454.696632	4440.230664
455.070202	4566.446032
455.443713	4686.778375
455.817164	4792.556906
456.190556	4895.386362
456.563888	4996.035519
456.937160	5072.376233
457.310373	4953.359631
457.683526	5030.287639
458.056619	5028.303945
458.429653	5080.227830
458.802628	5094.353143
459.175542	5211.174321
459.548398	5482.779088
459.921194	5629.819463
460.293930	5685.216703
460.666607	6076.138019
461.039224	6335.941444
461.411782	6478.308670
461.784280	6563.045425
462.156719	6564.976187
462.529099	6555.879425
462.901419	6337.143759
463.273680	6314.259441
463.645882	6375.922835
464.018024	6347.210943
464.390106	6520.611512
464.762130	6859.308995
465.134094	7253.413800
465.505999	8074.264881
465.877845	9068.393022
466.249631	9645.131269
466.621358	9455.175551
466.993026	9053.229231
467.364634	8928.304398
467.736184	8689.910753
468.107674	8466.088563
468.479105	8551.069814
468.850477	8394.544508
469.221790	8259.156760
469.593043	8018.033330
469.964238	7940.570960
470.335373	7991.494176
470.706449	8081.627486
471.077467	8098.626257
471.448425	9308.863622
471.819324	10308.542074
472.190164	10362.676505
472.560945	9274.611503
472.931667	8584.429650
473.302330	8491.390115
473.672934	8182.105244
474.043479	8543.102271
474.413965	8513.876181
474.784393	8427.884179
475.154761	8598.086136
475.525070	8700.340900
475.895321	8552.889671
476.265513	8740.360100
476.635645	8919.928521
477.005719	8945.109084
477.375734	9063.487979
477.745691	9304.195514
478.115588	9446.706413
478.485427	9696.682108
478.855207	10240.105890
479.224928	11034.899247
479.594591	11660.077941
479.964194	11490.397743
480.333739	11442.907554
480.703226	11371.076153
481.072653	11476.980713
481.442022	11720.844009
481.811333	11913.791652
482.180584	11732.589898
482.549777	11454.421549
482.918912	11287.927361
483.287988	11315.636063
483.657005	11331.372025
484.025964	11021.404078
484.394864	11154.745117
484.763706	11137.874896
485.132489	10898.669626
485.501213	10870.628207
485.869879	10939.465163
486.238487	10787.618047
486.607036	10896.378421
486.975527	10689.086175
487.343959	10872.581654
487.712333	10925.604511
488.080648	10860.399706
488.448905	10905.132385
488.817104	10848.434528
489.185244	11109.183169
489.553326	11268.160997
489.921350	11802.082203
490.289315	12853.941639
490.657222	13194.910161
491.025070	13098.631685
491.392861	12973.142242
491.760593	12605.117847
492.128267	12258.026842
492.495883	11936.713779
492.863440	11603.861514
493.230939	11270.802561
493.598380	11206.512726
493.965763	11076.781153
494.333088	10979.285237
494.700354	10897.179965
495.067563	10961.857968
495.434713	10785.709971
495.801805	10920.724674
496.168839	10841.273568
496.535815	10779.655545
496.902733	10777.266038
497.269593	10710.463188
497.636395	10817.580145
498.003139	10801.042640
498.369825	10674.184524
498.736453	10828.847124
499.103023	10759.828687
499.469535	10782.455906
499.835989	10777.813003
500.202385	10739.354041
500.568723	10586.254198
500.935003	10819.755403
501.301226	10617.799218
501.667390	10880.604651
502.033497	10971.468928
502.399546	10828.390900
502.765537	10742.343445
503.131470	10810.799793
503.497345	10988.939047
503.863163	10600.974368
504.228923	10911.537171
504.594625	10975.146450
504.960269	10728.439943
505.325856	10947.901534
505.691385	10738.796993
506.056856	10892.957998
506.422270	10914.075392
506.787625	10813.229630
507.152924	10925.821280
507.518164	10899.299770
507.883347	10826.485344
508.248472	10745.791594
508.613540	10980.374127
508.978550	10861.135715
509.343503	10836.572693
509.708398	10954.036618
510.073236	11071.054402
510.438016	11082.757441
510.802738	11021.648574
511.167403	11077.872563
511.532010	10978.581996
511.896561	11208.067922
512.261053	11274.137285
512.625488	11146.833027
512.989866	11128.175716
513.354186	11116.659200
513.718449	11019.085147
514.082655	11218.548481
514.446803	11105.858528
514.810894	11225.883360
515.174927	11095.015006
515.538904	11113.541247
515.902822	11267.878692
516.266684	11151.909468
516.630488	11100.729154
516.994235	11151.458285
517.357925	11214.213089
517.721558	11307.754219
518.085133	11322.875160
518.448651	11332.639875
518.812112	11215.785929
519.175516	11227.811601
519.538863	11343.533808
519.902152	11266.502457
520.265385	11422.485839
520.628560	11334.789927
520.991678	11312.550877
521.354739	11379.333563
521.717743	11309.692543
522.080690	11295.410954
522.443580	11425.742425
522.806413	11385.012422
523.169189	11411.392780
523.531908	11466.981584
523.894569	11284.620364
524.257174	11293.177723
524.619722	11414.903944
524.982213	11358.586694
525.344647	11410.082080
525.707025	11363.053156
526.069345	11454.935747
526.431608	11369.480627
526.793815	11486.518576
527.155964	11269.849783
527.518057	11328.924545
527.880093	11278.369333
528.242072	11343.851401
528.603995	11248.530744
528.965860	11168.774649
529.327669	11214.631505
529.689421	11170.831439
530.051117	11138.540328
530.412755	11241.087480
530.774337	11133.852055
531.135862	11116.213058
531.497331	11137.338013
531.858743	10986.476443
532.220098	11153.315950
532.581396	11029.820284
532.942638	11012.776143
533.303824	10977.006636
533.664953	10986.637760
534.026025	10905.772611
534.387040	11002.358598
534.747999	10999.906077
535.108902	11065.181458
535.469748	10825.091465
535.830537	10929.584502
536.191270	10902.289174
536.551947	10922.146279
536.912567	10917.369786
537.273131	10855.509787
537.633638	10828.968112
537.994089	10817.577625
538.354483	10771.609863
538.714821	10914.745865
539.075103	10926.453945
539.435328	10889.015816
539.795497	10719.476771
540.155609	10872.049813
540.515665	10958.475354
540.875665	10693.749242
541.235609	10756.511608
541.595496	10758.008830
541.955328	10913.427603
542.315102	10799.744543
542.674821	10752.357697
543.034483	10742.706408
543.394090	10750.744528
543.753640	10680.281800
544.113134	10900.645758
544.472571	10752.143448
544.831953	10892.658050
545.191278	10705.235511
545.550548	10734.428833
545.909761	10865.181241
546.268918	10845.059475
546.628019	10926.199367
546.987064	10789.064859
547.346053	10713.795391
547.704986	10811.354320
548.063863	10799.588267
548.422684	10788.838007
548.781449	10706.909174
549.140158	10816.854219
549.498811	10688.753459
549.857408	10541.244256
550.215949	10773.167580
550.574434	10627.679880
550.932864	10725.117822
551.291237	10781.934147
551.649555	10727.461959
552.007817	10742.814793
552.366022	10704.817096
552.724173	10704.101252
553.082267	10684.155927
553.440305	10814.131996
553.798288	10621.900197
554.156215	10774.904257
554.514086	10759.576629
554.871902	10606.885120
555.229661	10638.525923
555.587365	10619.293921
555.945014	10506.372074
556.302606	10632.746240
556.660143	10528.512822
557.017625	10680.385143
557.375050	10581.238250
557.732421	10710.251459
558.089735	10627.493357
558.446994	10624.579570
558.804197	10662.511733
559.161345	10660.613738
559.518437	10512.728969
559.875474	10602.264903
560.232455	10632.325303
560.589381	10580.807232
560.946251	10575.992930
561.303065	10688.942502
561.659825	10621.272573
562.016528	10555.518283
562.373177	10427.798130
562.729770	10547.487725
563.086307	10465.263985
563.442789	10556.460979
563.799216	10430.265775
564.155587	10481.352828
564.511904	10433.938255
564.868164	10426.157234
565.224370	10442.092322
565.580520	10364.733295
565.936615	10369.477021
566.292654	10245.169729
566.648638	10369.769408
567.004567	10328.568058
567.360441	10311.576849
567.716260	10227.860927
568.072023	10317.419546
568.427732	10273.344738
568.783385	10172.491414
569.138982	10251.156099
569.494525	10261.818140
569.850013	10142.879676
570.205445	10217.332478
570.560823	10119.811356
570.916145	10034.877996
571.271412	10106.311146
571.626625	10055.186285
571.981782	10032.065033
572.336884	10002.412966
572.691931	10003.832050
573.046923	9961.410741
573.401860	9908.781095
573.756743	9844.841620
574.111570	9888.102282
574.466342	9865.502789
574.821059	9903.135002
575.175722	9787.687538
575.530330	9800.764291
575.884882	9789.998907
576.239380	9724.526922
576.593823	9705.272234
576.948211	9722.563392
577.302544	9597.129402
577.656823	9610.793450
578.011047	9611.899983
578.365216	9588.861910
578.719330	9517.637968
579.073389	9524.574595
579.427394	9473.419487
579.781344	9445.735990
580.135239	9401.368795
580.489080	9401.424248
580.842866	9309.813880
581.196597	9313.362852
581.550273	9356.565541
581.903895	9319.888626
582.257463	9391.825891
582.610975	9258.741950
582.964434	9295.313001
583.317837	9215.773675
583.671186	9194.245428
584.024481	9199.717600
584.377721	9109.811142
584.730906	9090.652237
585.084037	9118.910425
585.437113	9056.137977
585.790135	9072.746058
586.143103	8974.206624
586.496016	8950.664436
586.848874	9003.468002
587.201679	8994.588009
587.554428	8882.916369
587.907124	8927.318852
588.259765	8900.240294
588.612352	8903.829596
588.964884	8782.216801
589.317362	8797.602402
589.669786	8795.248183
590.022155	8839.302827
590.374470	8856.062143
590.726731	8792.377246
591.078937	8648.124629
591.431090	8763.869521
591.783188	8630.833471
592.135232	8626.329200
592.487222	8624.988253
592.839157	8681.625617
593.191038	8611.777910
593.542866	8554.752377
593.894639	8458.010114
594.246358	8512.479782
594.598022	8520.071759
594.949633	8421.504599
595.301190	8391.519816
595.652692	8429.320908
596.004141	8532.911578
596.355535	8313.490316
596.706876	8290.870659
597.058162	8231.206082
597.409395	8309.439749
597.760573	8369.817648
598.111698	8272.994727
598.462768	8263.618181
598.813785	8235.977534
599.164748	8196.901030
599.515657	8183.708331
599.866511	8102.341587
600.217312	8228.304898
600.568060	8084.823577
600.918753	8187.491717
601.269392	8152.168352
601.619978	8069.364879
601.970510	8134.836865
602.320988	8129.059702
602.671412	8184.709000
603.021783	8123.660627
603.372100	8092.498734
603.722363	8097.391174
604.072572	8074.695899
604.422728	8086.363650
604.772830	8014.444029
605.122878	8021.874689
605.472872	8016.349585
605.822813	8040.784057
606.172701	7989.772622
606.522534	8066.110814
606.872314	8065.722646
607.222041	8031.775516
607.571714	8091.823220
607.921333	8050.372332
608.270899	8054.153197
608.620411	8144.538565
608.969870	8046.901498
609.319276	8050.508443
609.668627	8057.850884
610.017926	8096.889579
610.367171	8140.286352
610.716362	8118.783310
611.065500	8113.563196
611.414585	8135.237637
611.763616	8124.878065
612.112594	8107.571784
612.461518	8117.709545
612.810389	8181.449894
613.159207	8121.261037
613.507971	8063.617964
613.856682	8188.194958
614.205340	8140.959346
614.553945	8217.010193
614.902496	8121.132488
615.250994	8178.190788
615.599439	8156.092890
615.947830	8170.591248
616.296169	8139.794840
616.644454	8155.233373
616.992686	8150.300604
617.340864	8207.053914
617.688990	8110.465407
618.037063	8205.687762
618.385082	8150.517374
618.733048	8243.105726
619.080961	8177.575767
619.428821	8192.973972
619.776628	8196.737193
620.124382	8151.253382
620.472083	8138.428687
620.819731	8157.693456
621.167326	8055.249648
621.514868	8063.950680
621.862357	7953.194009
622.209793	7967.528530
622.557176	7904.277173
622.904506	7875.963533
623.251783	7806.619941
623.599007	7763.245853
623.946179	7768.687779
624.293297	7724.633135
624.640363	7642.031309
624.987376	7626.907847
625.334336	7576.433294
625.681243	7519.148143
626.028097	7512.382914
626.374899	7490.521951
626.721647	7478.962585
627.068343	7419.156856
627.414987	7386.470015
627.761577	7339.120977
628.108115	7379.548510
628.454600	7270.624299
628.801032	7323.611867
629.147412	7286.574510
629.493739	7272.615555
629.840014	7209.792696
630.186236	7265.673886
630.532405	7152.898233
630.878521	7200.199380
631.224585	7159.310581
631.570597	7081.328972
631.916556	7119.961855
632.262462	7110.643282
632.608316	7074.415030
632.954117	7046.328241
633.299866	7038.504370
633.645562	7027.580190
633.991206	6952.749302
634.336797	6891.365692
634.682336	6850.529826
635.027823	6818.364744
635.373257	6809.056253
635.718639	6735.914152
636.063968	6753.074240
636.409245	6648.508106
636.754470	6646.680688
637.099642	6607.410099
637.444762	6551.170987
637.789829	6560.698768
638.134845	6503.048132
638.479808	6486.472818
638.824719	6489.694116
639.169577	6418.699546
639.514383	6442.556807
639.859137	6370.990066
640.203839	6378.519029
640.548489	6366.732812
