Dividing Wavelength (nm)	Counts (n)	Blue Motor Position (mm): 42.900000	Red Motor Position (mm): 0.000000	
326.493990	2127.127468
326.888308	2127.127468
327.282561	2127.127468
327.676750	2093.868456
328.070874	2095.416090
328.464933	2097.803076
328.858929	2104.233068
329.252859	2112.687083
329.646726	2125.632766
330.040528	2139.911834
330.434265	2155.362971
330.827938	2171.177071
331.221547	2190.890503
331.615091	2209.494881
332.008571	2230.967676
332.401986	2248.760428
332.795338	2268.491504
333.188625	2286.927004
333.581847	2304.959211
333.975006	2322.845225
334.368100	2342.805674
334.761129	2360.167408
335.154095	2377.372866
335.546996	2399.243912
335.939833	2424.550504
336.332606	2438.504418
336.725315	2452.808692
337.117960	2463.080043
337.510540	2469.414253
337.903056	2479.189050
338.295508	2487.746409
338.687896	2498.670589
339.080220	2505.808863
339.472480	2512.059894
339.864676	2514.398989
340.256807	2519.160359
340.648875	2519.162879
341.040879	2528.221833
341.432818	2527.155629
341.824694	2527.687471
342.216506	2528.582275
342.608253	2531.496062
342.999937	2529.794673
343.391557	2525.928108
343.783113	2527.470701
344.174605	2527.596730
344.566033	2525.297964
344.957397	2524.466173
345.348697	2519.697242
345.739934	2521.625483
346.131106	2518.900739
346.522215	2517.814371
346.913260	2514.754390
347.304241	2512.690038
347.695159	2513.138701
348.086012	2512.395130
348.476802	2507.459841
348.867528	2504.866167
349.258191	2505.171157
349.648789	2503.517658
350.039324	2502.060765
350.429796	2502.050683
350.820203	2500.722339
351.210548	2500.437513
351.600828	2498.345435
351.991045	2496.911226
352.381198	2494.925012
352.771288	2498.431134
353.161314	2495.623212
353.551276	2495.325783
353.941175	2496.162615
354.331010	2494.506596
354.720782	2497.972389
355.110490	2492.459888
355.500135	2495.960969
355.889717	2494.705722
356.279235	2498.504231
356.668689	2498.335352
357.058080	2497.228819
357.447408	2494.836792
357.836672	2492.558190
358.225873	2495.648417
358.615010	2493.407624
359.004084	2497.478356
359.393095	2498.630260
359.782043	2501.102946
360.170927	2498.663027
360.559748	2503.376506
360.948505	2503.081599
361.337199	2501.854078
361.725830	2505.208966
362.114398	2503.903307
362.502903	2503.280724
362.891344	2501.947339
363.279722	2506.824655
363.668037	2507.875736
364.056289	2508.369769
364.444478	2508.952022
364.832603	2511.210459
365.220665	2507.888339
365.608665	2508.818432
365.996601	2511.323885
366.384474	2507.590911
366.772284	2510.184584
367.160031	2512.891684
367.547715	2510.192146
367.935336	2511.500326
368.322893	2514.782117
368.710388	2511.800274
369.097820	2516.491068
369.485189	2512.811026
369.872495	2514.915707
370.259738	2512.528721
370.646918	2514.053670
371.034035	2515.424864
371.421090	2517.607683
371.808081	2514.000738
372.195010	2517.746315
372.581875	2515.308917
372.968678	2519.024248
373.355418	2518.981398
373.742096	2519.334279
374.128710	2517.690863
374.515262	2519.666995
374.901751	2519.215812
375.288177	2522.583302
375.674540	2519.614063
376.060841	2520.637417
376.447079	2519.311593
376.833254	2521.257479
377.219367	2517.521984
377.605417	2521.655730
377.991404	2518.142046
378.377329	2523.389887
378.763191	2519.382170
379.148991	2528.509179
379.534727	2531.077647
379.920402	2531.906916
380.306013	2533.872966
380.691563	2541.908566
381.077049	2545.344112
381.462474	2552.893240
381.847835	2560.538150
382.233134	2568.893862
382.618371	2576.843762
383.003545	2595.206165
383.388657	2601.847885
383.773706	2620.258179
384.158693	2635.633698
384.543618	2649.549803
384.928480	2668.610406
385.313280	2690.983047
385.698017	2706.514842
386.082692	2735.531723
386.467305	2750.584608
386.851856	2779.097375
387.236344	2798.828451
387.620770	2828.977071
388.005133	2860.275075
388.389435	2891.310939
388.773674	2916.171389
389.157851	2954.002728
389.541965	2986.518170
389.926018	2994.102586
390.310008	3050.702141
390.693936	3082.552151
391.077802	3132.462095
391.461606	3154.784324
391.845348	3211.880432
392.229027	3243.821183
392.612645	3276.243364
392.996200	3350.539889
393.379694	3403.451840
393.763125	3475.016060
394.146494	3484.062411
394.529801	3551.644119
394.913047	3617.320272
395.296230	3616.468317
395.679351	3685.164120
396.062410	3733.198754
396.445408	3747.644181
396.828343	3797.786018
397.211217	3842.163295
397.594028	3798.718631
397.976778	3879.218296
398.359466	3919.557609
398.742092	3968.784477
399.124656	3918.740942
399.507158	4007.540867
399.889598	4044.414387
400.271977	4121.342395
400.654294	4103.640383
401.036549	4131.959065
401.418742	4116.442393
401.800874	4222.331830
402.182944	4252.651850
402.564952	4328.110361
402.946898	4325.307479
403.328783	4325.988035
403.710606	4250.005244
404.092367	4444.820634
404.474067	4415.413063
404.855705	4429.419909
405.237282	4364.643603
405.618797	4476.121158
406.000250	4510.877394
406.381642	4598.255713
406.762972	4563.743974
407.144240	4570.489038
407.525447	4575.840223
407.906593	4635.945900
408.287677	4678.803269
408.668700	4611.614771
409.049661	4663.878933
409.430560	4709.864339
409.811399	4635.567813
410.192176	4794.250734
410.572891	4733.645982
410.953545	4837.329914
411.334138	4716.896748
411.714669	4791.326864
412.095139	4684.469526
412.475547	4823.071010
412.855894	4801.487310
413.236180	4815.410977
413.616405	4766.080766
413.996568	4853.801884
414.376670	4797.406496
414.756711	4755.300258
415.136691	4789.738901
415.516609	4858.467472
415.896466	4897.357453
416.276262	4935.846663
416.655997	4913.214403
417.035670	5095.747022
417.415283	5185.310682
417.794834	5130.702383
418.174324	5086.718315
418.553753	4992.388244
418.933121	5180.347666
419.312428	5243.662037
419.691674	5182.192728
420.070859	5310.764836
420.449983	5224.840889
420.829045	5338.438250
421.208047	5243.770422
421.586988	5312.824148
421.965867	5327.093133
422.344686	5461.704544
422.723444	5310.797604
423.102141	5131.146004
423.480777	5433.632879
423.859352	5199.257034
424.237866	5457.817814
424.616319	5450.334222
424.994712	5562.399072
425.373044	5439.183189
425.751314	5579.823820
426.129524	5384.801742
426.507673	5576.393315
426.885762	5662.130739
427.263789	5592.010809
427.641756	5475.895392
428.019662	5597.107416
428.397508	5599.348209
428.775292	5548.976999
429.153016	5650.387371
429.530679	5580.635446
429.908282	5659.179143
430.285824	5528.015882
430.663305	5803.199867
431.040726	5540.560793
431.418086	5540.250762
431.795385	5647.082894
432.172624	5657.480274
432.549802	5654.188401
432.926920	5660.852806
433.303977	5676.699673
433.680974	5711.095466
434.057910	5725.140121
434.434786	5732.868209
434.811601	5705.320824
435.188355	5940.203305
435.565050	5808.142719
435.941683	5794.158558
436.318257	6009.108317
436.694770	5994.136090
437.071222	6028.342839
437.447614	5959.757941
437.823946	5870.983222
438.200218	6027.523652
438.576429	5889.829576
438.952580	5991.055945
439.328670	6033.968767
439.704700	5943.913595
440.080670	5931.272901
440.456580	6198.496905
440.832429	6078.066260
441.208218	5926.020019
441.583947	6081.287557
441.959616	6090.467499
442.335224	6012.737947
442.710773	6148.150902
443.086261	6176.832546
443.461689	5973.018696
443.837057	6121.397498
444.212365	6272.543893
444.587612	6164.794271
444.962800	6323.492315
445.337927	6304.479603
445.712995	5912.660961
446.088002	6491.133365
446.462949	6322.254711
446.837837	6250.685450
447.212664	6419.251552
447.587431	6564.588018
447.962139	7110.308045
448.336786	8035.261473
448.711374	7778.439891
449.085901	6851.999322
449.460369	6770.188957
449.834776	6700.835283
450.209124	7099.169616
450.583412	7252.203923
450.957640	7393.696509
451.331808	7153.931670
451.705917	6711.625873
452.079965	6628.855168
452.453954	6843.179823
452.827883	6716.510751
453.201752	6810.523229
453.575562	6612.748681
453.949311	6815.297202
454.323001	6708.200409
454.696632	6780.740092
455.070202	6918.257728
455.443713	7077.532983
455.817164	7178.845052
456.190556	7258.676765
456.563888	7332.965728
456.937160	7371.439814
457.310373	7031.164450
457.683526	7056.052627
458.056619	6946.969619
458.429653	6935.092661
458.802628	6867.407609
459.175542	6983.550752
459.548398	7335.781213
459.921194	7497.042683
460.293930	7494.322981
460.666607	8029.433900
461.039224	8335.472267
461.411782	8456.036503
461.784280	8469.597207
462.156719	8368.547278
462.529099	8250.743074
462.901419	7838.192687
463.273680	7735.554795
463.645882	7742.246927
464.018024	7605.987059
464.390106	7774.044005
464.762130	8162.457347
465.134094	8629.666444
465.505999	9656.698197
465.877845	10878.378981
466.249631	11522.751869
466.621358	11139.248611
466.993026	10514.057313
467.364634	10250.972097
467.736184	9886.773938
468.107674	9560.780162
468.479105	9586.946271
468.850477	9353.064459
469.221790	9131.117579
469.593043	8801.065675
469.964238	8661.408069
470.335373	8670.789657
470.706449	8730.353410
471.077467	8716.633910
471.448425	10025.498930
471.819324	11091.587022
472.190164	11113.470670
472.560945	9866.016987
472.931667	9076.375689
473.302330	8942.757386
473.672934	8591.230167
474.043479	8948.542110
474.413965	8893.157473
474.784393	8781.475751
475.154761	8927.916229
475.525070	9015.249178
475.895321	8848.949075
476.265513	9019.788737
476.635645	9192.675108
477.005719	9189.476496
477.375734	9300.938928
477.745691	9542.505980
478.115588	9680.537813
478.485427	9915.798381
478.855207	10454.864085
479.224928	11269.711152
479.594591	11896.533262
479.964194	11708.097452
480.333739	11648.871456
480.703226	11565.021944
481.072653	11650.635860
481.442022	11897.342367
481.811333	12081.120151
482.180584	11882.433155
482.549777	11592.082858
482.918912	11419.471229
483.287988	11441.954776
483.657005	11450.073554
484.025964	11137.060750
484.394864	11264.617066
484.763706	11240.490103
485.132489	10986.678089
485.501213	10958.298914
485.869879	11030.120233
486.238487	10876.538960
486.607036	10989.054993
486.975527	10765.081569
487.343959	10956.564757
487.712333	11005.085863
488.080648	10935.984246
488.448905	10974.279372
488.817104	10914.687892
489.185244	11188.354490
489.553326	11338.227994
489.921350	11886.335008
490.289315	12933.861571
490.657222	13286.180252
491.025070	13188.200386
491.392861	13060.865881
491.760593	12687.344107
492.128267	12328.121566
492.495883	11998.445228
492.863440	11662.918631
493.230939	11326.585449
493.598380	11262.499781
493.965763	11131.676797
494.333088	11023.728050
494.700354	10953.620723
495.067563	11011.563745
495.434713	10844.860349
495.801805	10968.814761
496.168839	10897.933617
496.535815	10831.251755
496.902733	10831.604635
497.269593	10763.211301
497.636395	10862.322906
498.003139	10850.856802
498.369825	10720.807636
498.736453	10873.869669
499.103023	10804.697477
499.469535	10835.922384
499.835989	10820.032667
500.202385	10784.119487
500.568723	10637.810079
500.935003	10859.010868
501.301226	10663.406537
501.667390	10927.096692
502.033497	11022.961794
502.399546	10873.889834
502.765537	10786.448500
503.131470	10857.942144
503.497345	11032.310614
503.863163	10641.764864
504.228923	10955.644746
504.594625	11019.213696
504.960269	10767.375294
505.325856	10996.357105
505.691385	10781.755186
506.056856	10941.123703
506.422270	10959.516352
506.787625	10850.839158
507.152924	10964.018103
507.518164	10946.613519
507.883347	10871.432271
508.248472	10786.088057
508.613540	11020.506752
508.978550	10904.761860
509.343503	10885.678572
509.708398	10996.460448
510.073236	11113.800866
510.438016	11117.448141
510.802738	11061.148535
511.167403	11123.888215
511.532010	11013.587769
511.896561	11249.538974
512.261053	11321.836682
512.625488	11184.863491
512.989866	11168.182313
513.354186	11160.232413
513.718449	11058.940509
514.082655	11250.499314
514.446803	11151.808645
514.810894	11273.391194
515.174927	11141.068467
515.538904	11165.679380
515.902822	11314.400980
516.266684	11194.328258
516.630488	11140.934877
516.994235	11196.974863
517.357925	11255.265725
517.721558	11346.765188
518.085133	11365.707324
518.448651	11368.258148
518.812112	11252.546023
519.175516	11265.844587
519.538863	11391.185315
519.902152	11308.328911
520.265385	11463.752725
520.628560	11377.649817
520.991678	11358.069976
521.354739	11425.558423
521.717743	11359.836900
522.080690	11334.489978
522.443580	11472.415948
522.806413	11426.980028
523.169189	11455.702002
523.531908	11510.302739
523.894569	11337.247490
524.257174	11340.710762
524.619722	11449.889552
524.982213	11399.079762
525.344647	11447.260590
525.707025	11406.573437
526.069345	11501.826039
526.431608	11420.240005
526.793815	11531.165555
527.155964	11309.730351
527.518057	11367.660771
527.880093	11312.497945
528.242072	11379.313398
528.603995	11284.632967
528.965860	11212.524302
529.327669	11264.334761
529.689421	11212.914992
530.051117	11180.671772
530.412755	11283.609613
530.774337	11172.613487
531.135862	11161.354070
531.497331	11176.840495
531.858743	11029.001097
532.220098	11200.932169
532.581396	11060.916642
532.942638	11050.998171
533.303824	11012.677840
533.664953	11030.021930
534.026025	10947.664600
534.387040	11042.450895
534.747999	11046.665300
535.108902	11100.144380
535.469748	10868.112672
535.830537	10966.659668
536.191270	10943.946749
536.551947	10966.379883
536.912567	10963.387959
537.273131	10900.093752
537.633638	10865.030006
537.994089	10856.086999
538.354483	10807.878445
538.714821	10953.174581
539.075103	10960.380910
539.435328	10928.074676
539.795497	10757.388768
540.155609	10911.703529
540.515665	10997.803916
540.875665	10730.083359
541.235609	10796.198091
541.595496	10799.041302
541.955328	10951.594179
542.315102	10832.194450
542.674821	10788.812801
543.034483	10789.949581
543.394090	10793.206167
543.753640	10720.237985
544.113134	10947.009250
544.472571	10791.547627
544.831953	10939.424834
545.191278	10745.375699
545.550548	10768.335634
545.909761	10913.916595
546.268918	10886.984231
546.628019	10964.242434
546.987064	10834.410038
547.346053	10752.065310
547.704986	10851.272697
548.063863	10845.150216
548.422684	10825.303193
548.781449	10752.203942
549.140158	10852.623726
549.498811	10726.330220
549.857408	10580.250184
550.215949	10809.330297
550.574434	10665.347382
550.932864	10761.754408
551.291237	10820.267080
551.649555	10770.410069
552.007817	10787.149220
552.366022	10746.630946
552.724173	10741.516696
553.082267	10725.203522
553.440305	10861.571774
553.798288	10667.656230
554.156215	10813.040586
554.514086	10792.714654
554.871902	10635.360078
555.229661	10679.681903
555.587365	10657.531072
555.945014	10550.421677
556.302606	10675.908599
556.660143	10567.231404
557.017625	10717.551050
557.375050	10620.627306
557.732421	10753.658315
558.089735	10662.312607
558.446994	10666.204378
558.804197	10699.322238
559.161345	10706.636952
559.518437	10552.506194
559.875474	10643.163784
560.232455	10666.718575
560.589381	10619.646801
560.946251	10613.035328
561.303065	10729.493544
561.659825	10663.338482
562.016528	10586.070196
562.373177	10468.460077
562.729770	10579.413352
563.086307	10504.902578
563.442789	10598.783986
563.799216	10473.959976
564.155587	10517.810452
564.511904	10473.085336
564.868164	10468.339089
565.224370	10485.458848
565.580520	10410.975800
565.936615	10407.797352
566.292654	10278.277507
566.648638	10408.336756
567.004567	10365.154232
567.360441	10355.785247
567.716260	10260.688921
568.072023	10350.877684
568.427732	10310.009050
568.783385	10213.591941
569.138982	10288.105236
569.494525	10302.354058
569.850013	10180.348052
570.205445	10266.408110
570.560823	10159.628910
570.916145	10075.633205
571.271412	10145.508638
571.626625	10083.177291
571.981782	10067.867307
572.336884	10043.074913
572.691931	10048.315192
573.046923	9995.793931
573.401860	9950.045459
573.756743	9887.484740
574.111570	9926.606615
574.466342	9913.734028
574.821059	9946.902300
575.175722	9828.490637
575.530330	9844.569397
575.884882	9833.693108
576.239380	9756.979349
576.593823	9743.257329
576.948211	9758.458928
577.302544	9635.522830
577.656823	9651.578905
578.011047	9654.157455
578.365216	9620.175037
578.719330	9550.410509
579.073389	9553.568792
579.427394	9509.700671
579.781344	9485.094799
580.135239	9434.864742
580.489080	9439.109394
580.842866	9347.337708
581.196597	9350.070014
581.550273	9386.071414
581.903895	9364.273465
582.257463	9423.585160
582.610975	9301.657293
582.964434	9327.334410
583.317837	9250.073686
583.671186	9236.129855
584.024481	9228.242969
584.377721	9148.514601
584.730906	9125.219429
585.084037	9153.636413
585.437113	9084.678470
585.790135	9114.411195
586.143103	9014.442594
586.496016	8980.838262
586.848874	9045.969970
587.201679	9026.843832
587.554428	8914.496678
587.907124	8959.002504
588.259765	8931.830685
588.612352	8940.075492
588.964884	8812.877098
589.317362	8825.416968
589.669786	8821.361360
590.022155	8881.398982
590.374470	8888.290239
590.726731	8827.451074
591.078937	8677.867437
591.431090	8793.514026
591.783188	8664.485694
592.135232	8659.709200
592.487222	8660.218357
592.839157	8710.733239
593.191038	8641.384606
593.542866	8588.669260
593.894639	8493.182245
594.246358	8536.011888
594.598022	8560.859735
594.949633	8451.938045
595.301190	8430.644211
595.652692	8452.661450
596.004141	8566.525992
596.355535	8344.284204
596.706876	8327.484559
597.058162	8254.223991
597.409395	8338.607865
597.760573	8399.346207
598.111698	8305.527813
598.462768	8295.238818
598.813785	8262.844364
599.164748	8223.067139
599.515657	8221.970688
599.866511	8127.333107
600.217312	8249.049246
600.568060	8114.397507
600.918753	8212.770583
601.269392	8184.615738
601.619978	8096.773633
601.970510	8161.040783
602.320988	8161.035741
602.671412	8213.156231
603.021783	8146.416395
603.372100	8126.697922
603.722363	8124.804969
604.072572	8098.417049
604.422728	8112.139070
604.772830	8044.806898
605.122878	8053.147487
605.472872	8041.905714
605.822813	8072.318995
606.172701	8018.807147
606.522534	8089.577386
606.872314	8097.607944
607.222041	8061.939260
607.571714	8116.565203
607.921333	8072.918893
608.270899	8078.620438
608.620411	8163.735279
608.969870	8070.587359
609.319276	8068.643994
609.668627	8082.570182
610.017926	8119.935214
610.367171	8163.848705
610.716362	8141.851630
611.065500	8135.335939
611.414585	8158.366450
611.763616	8149.824215
612.112594	8131.149261
612.461518	8148.616859
612.810389	8205.420580
613.159207	8148.289184
613.507971	8098.061647
613.856682	8216.596818
614.205340	8169.530086
614.553945	8252.280626
614.902496	8153.491655
615.250994	8197.916823
615.599439	8184.230090
615.947830	8195.539919
616.296169	8169.346083
616.644454	8180.257661
616.992686	8176.776744
617.340864	8238.266218
617.688990	8141.816342
618.037063	8232.710867
618.385082	8185.233280
618.733048	8267.870394
619.080961	8206.995941
619.428821	8227.513437
619.776628	8230.144919
620.124382	8178.914193
620.472083	8166.661669
620.819731	8193.619239
621.167326	8082.025737
621.514868	8093.068385
621.862357	7977.411712
622.209793	7999.076071
622.557176	7931.055782
622.904506	7902.764827
623.251783	7835.233530
623.599007	7787.816437
623.946179	7792.618136
624.293297	7749.528873
624.640363	7669.213210
624.987376	7650.397104
625.334336	7600.333405
625.681243	7542.798716
626.028097	7535.975514
626.374899	7514.621187
626.721647	7510.114395
627.068343	7436.100174
627.414987	7408.522542
627.761577	7369.509052
628.108115	7401.225472
628.454600	7299.462220
628.801032	7346.859148
629.147412	7301.236706
629.493739	7292.712115
629.840014	7230.978145
630.186236	7286.418234
630.532405	7172.803229
630.878521	7224.069243
631.224585	7181.889909
631.570597	7105.498784
631.916556	7137.366438
632.262462	7134.089688
632.608316	7093.891528
632.954117	7074.233548
633.299866	7057.315436
633.645562	7049.804117
633.991206	6976.057077
634.336797	6916.137923
634.682336	6873.260388
635.027823	6840.984401
635.373257	6828.240364
635.718639	6763.015395
636.063968	6774.650378
636.409245	6667.309089
636.754470	6665.204408
637.099642	6625.033973
637.444762	6566.687658
637.789829	6581.380101
638.134845	6524.094950
638.479808	6504.910839
638.824719	6507.817064
639.169577	6435.683193
639.514383	6458.353262
639.859137	6388.553446
640.203839	6395.442183
640.548489	6384.260904
