Dividing Wavelength (nm)	Counts (n)	Blue Motor Position (mm): 29.000000	Red Motor Position (mm): 0.000000	
326.493990	2130.671399
326.888308	2130.671399
327.282561	2130.671399
327.676750	2099.310381
328.070874	2096.638570
328.464933	2101.609148
328.858929	2106.136104
329.252859	2115.850407
329.646726	2128.770884
330.040528	2141.406537
330.434265	2157.780204
330.827938	2173.997596
331.221547	2194.106759
331.615091	2211.181147
332.008571	2232.946329
332.401986	2251.704462
332.795338	2272.494181
333.188625	2288.736778
333.581847	2307.641105
333.975006	2326.585761
334.368100	2346.004286
334.761129	2364.616226
335.154095	2379.611138
335.546996	2400.816752
335.939833	2427.552511
336.332606	2439.711774
336.725315	2450.404062
337.117960	2461.875207
337.510540	2468.653038
337.903056	2481.649133
338.295508	2490.198930
338.687896	2497.334683
339.080220	2506.242402
339.472480	2512.311951
339.864676	2517.194309
340.256807	2521.680936
340.648875	2525.650844
341.040879	2526.648993
341.432818	2529.305681
341.824694	2531.309540
342.216506	2531.062523
342.608253	2530.291227
342.999937	2530.321473
343.391557	2531.460774
343.783113	2528.241998
344.174605	2524.756040
344.566033	2524.148581
344.957397	2524.478776
345.348697	2524.088087
345.739934	2520.034999
346.131106	2518.928466
346.522215	2516.332272
346.913260	2516.460821
347.304241	2513.279853
347.695159	2512.085099
348.086012	2510.093844
348.476802	2508.551251
348.867528	2507.618637
349.258191	2504.677124
349.648789	2505.597134
350.039324	2501.750734
350.429796	2504.029336
350.820203	2498.741165
351.210548	2501.463388
351.600828	2497.710249
351.991045	2495.925681
352.381198	2495.061123
352.771288	2499.903151
353.161314	2494.264621
353.551276	2498.484066
353.941175	2497.390136
354.331010	2497.896772
354.720782	2495.542553
355.110490	2497.153202
355.500135	2499.172184
355.889717	2493.281596
356.279235	2495.217399
356.668689	2499.010867
357.058080	2498.209323
357.447408	2493.702532
357.836672	2494.017604
358.225873	2497.019611
358.615010	2492.895947
359.004084	2499.986330
359.393095	2499.086484
359.782043	2499.923316
360.170927	2501.740652
360.559748	2503.696619
360.948505	2499.449447
361.337199	2505.337515
361.725830	2500.848368
362.114398	2505.755931
362.502903	2502.471619
362.891344	2505.395488
363.279722	2503.686537
363.668037	2505.352638
364.056289	2507.041425
364.444478	2506.786847
364.832603	2507.575787
365.220665	2506.416322
365.608665	2507.548061
365.996601	2507.235509
366.384474	2506.489419
366.772284	2508.836076
367.160031	2507.999244
367.547715	2509.224245
367.935336	2508.427742
368.322893	2507.409429
368.710388	2508.095026
369.097820	2514.439318
369.485189	2512.521159
369.872495	2513.037878
370.259738	2507.550582
370.646918	2510.993690
371.034035	2512.937054
371.421090	2511.870850
371.808081	2511.959071
372.195010	2512.453104
372.581875	2512.322034
372.968678	2511.770027
373.355418	2513.231962
373.742096	2514.840090
374.128710	2515.253465
374.515262	2512.861437
374.901751	2517.453928
375.288177	2515.014010
375.674540	2510.976046
376.060841	2516.465862
376.447079	2514.653567
376.833254	2514.063752
377.219367	2510.343381
377.605417	2511.979235
377.991404	2510.771879
378.377329	2510.754235
378.763191	2512.422857
379.148991	2517.088445
379.534727	2514.739267
379.920402	2517.012827
380.306013	2518.174813
380.691563	2519.467869
381.077049	2518.552900
381.462474	2517.393434
381.847835	2520.942407
382.233134	2517.973167
382.618371	2518.883095
383.003545	2520.367715
383.388657	2519.293949
383.773706	2518.033661
384.158693	2519.044412
384.543618	2520.849145
384.928480	2520.912160
385.313280	2521.814526
385.698017	2522.878210
386.082692	2521.673374
386.467305	2521.232273
386.851856	2517.953003
387.236344	2521.711183
387.620770	2520.229083
388.005133	2521.164217
388.389435	2522.595905
388.773674	2522.237983
389.157851	2521.554907
389.541965	2522.595905
389.926018	2523.263858
390.310008	2524.325021
390.693936	2524.539270
391.077802	2522.994156
391.461606	2521.877541
391.845348	2525.003056
392.229027	2526.613705
392.612645	2523.498272
392.996200	2526.684281
393.379694	2524.473735
393.763125	2527.001874
394.146494	2525.509692
394.529801	2523.762932
394.913047	2526.235618
395.296230	2525.320649
395.679351	2527.248890
396.062410	2526.454908
396.445408	2526.379291
396.828343	2525.484486
397.211217	2526.023890
397.594028	2524.743437
397.976778	2521.877541
398.359466	2527.949611
398.742092	2525.257634
399.124656	2529.053623
399.507158	2525.297964
399.889598	2531.312060
400.271977	2529.081350
400.654294	2530.064375
401.036549	2528.292409
401.418742	2531.296937
401.800874	2530.812986
402.182944	2531.843902
402.564952	2529.308202
402.946898	2533.063861
403.328783	2528.415917
403.710606	2533.237781
404.092367	2530.565969
404.474067	2533.131917
404.855705	2530.916330
405.237282	2534.833306
405.618797	2532.310209
406.000250	2529.608150
406.381642	2530.928932
406.762972	2535.634850
407.144240	2533.361289
407.525447	2536.948070
407.906593	2535.145858
408.287677	2537.772299
408.668700	2534.276259
409.049661	2534.997144
409.430560	2531.586803
409.811399	2535.697864
410.192176	2535.309695
410.572891	2535.576876
410.953545	2534.563604
411.334138	2534.694674
411.714669	2535.851619
412.095139	2537.215251
412.475547	2537.200128
412.855894	2535.637370
413.236180	2534.558563
413.616405	2538.893956
413.996568	2537.076620
414.376670	2537.532844
414.756711	2539.589635
415.136691	2539.987886
415.516609	2536.973276
415.896466	2538.795653
416.276262	2537.464788
416.655997	2536.355735
417.035670	2534.435055
417.415283	2538.384799
417.794834	2534.626619
418.174324	2539.410674
418.553753	2542.374872
418.933121	2540.572660
419.312428	2541.785057
419.691674	2543.604914
420.070859	2541.469985
420.449983	2540.232382
420.829045	2540.151723
421.208047	2545.749925
421.586988	2544.814791
421.965867	2545.339071
422.344686	2544.489636
422.723444	2545.717157
423.102141	2546.327137
423.480777	2545.124822
423.859352	2545.772610
424.237866	2545.165151
424.616319	2545.003834
424.994712	2548.991387
425.373044	2548.978784
425.751314	2548.971222
426.129524	2550.622200
426.507673	2551.212015
426.885762	2552.767211
427.263789	2555.277706
427.641756	2553.601522
428.019662	2555.653272
428.397508	2556.429609
428.775292	2561.652245
429.153016	2564.066957
429.530679	2567.005950
429.908282	2571.346383
430.285824	2571.139696
430.663305	2581.610173
431.040726	2583.364494
431.418086	2588.511512
431.795385	2597.091556
432.172624	2603.211517
432.549802	2613.054370
432.926920	2619.096193
433.303977	2626.272275
433.680974	2636.707464
434.057910	2646.998979
434.434786	2658.495331
434.811601	2667.687875
435.188355	2684.953827
435.565050	2691.146884
435.941683	2707.669266
436.318257	2728.874879
436.694770	2741.250912
437.071222	2761.231525
437.447614	2775.487908
437.823946	2782.525359
438.200218	2814.818991
438.576429	2825.077739
438.952580	2852.935155
439.328670	2877.409957
439.704700	2892.125085
440.080670	2912.758528
440.456580	2964.788277
440.832429	2976.627426
441.208218	2983.017089
441.583947	3028.964686
441.959616	3057.283367
442.335224	3078.128538
442.710773	3126.095117
443.086261	3164.440654
443.461689	3166.247908
443.837057	3225.204202
444.212365	3286.701238
444.587612	3299.851087
444.962800	3372.022767
445.337927	3408.152716
445.712995	3361.448946
446.088002	3532.898589
446.462949	3537.014691
446.837837	3563.763053
447.212664	3641.467398
447.587431	3741.635125
447.962139	3962.906491
448.336786	4301.041885
448.711374	4273.154222
449.085901	4029.905946
449.460369	4056.435018
449.834776	4086.376952
450.209124	4288.421357
450.583412	4421.711985
450.957640	4516.342004
451.331808	4489.286132
451.705917	4366.097976
452.079965	4383.041294
452.453954	4533.744068
452.827883	4533.572668
453.201752	4633.137977
453.575562	4591.518211
453.949311	4753.087192
454.323001	4744.469339
454.696632	4838.842260
455.070202	4972.122806
455.443713	5112.034990
455.817164	5227.227876
456.190556	5337.472869
456.563888	5440.871976
456.937160	5524.267784
457.310373	5369.980750
457.683526	5441.587820
458.056619	5437.139001
458.429653	5481.478470
458.802628	5486.267566
459.175542	5609.972440
459.548398	5908.978398
459.921194	6064.513118
460.293930	6117.760306
460.666607	6540.251848
461.039224	6817.825340
461.411782	6966.960315
461.784280	7049.269754
462.156719	7035.598145
462.529099	7001.988772
462.901419	6745.109217
463.273680	6714.385904
463.645882	6765.057062
464.018024	6714.988322
464.390106	6889.303861
464.762130	7251.919098
465.134094	7682.557145
465.505999	8560.295126
465.877845	9612.517524
466.249631	10229.471576
466.621358	9992.416358
466.993026	9540.565135
467.364634	9377.113284
467.736184	9101.641952
468.107674	8847.033436
468.479105	8923.616125
468.850477	8738.189883
469.221790	8573.331550
469.593043	8308.368504
469.964238	8213.609935
470.335373	8253.664423
470.706449	8328.951535
471.077467	8345.753701
471.448425	9597.383980
471.819324	10621.824580
472.190164	10665.039871
472.560945	9513.942802
472.931667	8791.285836
473.302330	8686.558386
473.672934	8365.482256
474.043479	8721.445691
474.413965	8676.337446
474.784393	8577.518228
475.154761	8747.016944
475.525070	8844.729629
475.895321	8685.744239
476.265513	8867.384574
476.635645	9038.148620
477.005719	9054.703769
477.375734	9172.351697
477.745691	9410.528572
478.115588	9555.292866
478.485427	9804.688829
478.855207	10335.464356
479.224928	11145.522327
479.594591	11764.202973
479.964194	11586.996333
480.333739	11532.403158
480.703226	11458.739297
481.072653	11551.476363
481.442022	11788.975203
481.811333	11976.541415
482.180584	11785.436313
482.549777	11505.856442
482.918912	11328.052425
483.287988	11362.707837
483.657005	11371.045906
484.025964	11068.485934
484.394864	11193.937568
484.763706	11165.686942
485.132489	10922.095867
485.501213	10895.266847
485.869879	10971.375667
486.238487	10816.075361
486.607036	10925.944788
486.975527	10711.680627
487.343959	10898.195757
487.712333	10949.328181
488.080648	10880.897038
488.448905	10931.028792
488.817104	10862.814419
489.185244	11130.247630
489.553326	11285.326126
489.921350	11829.203611
490.289315	12875.918549
490.657222	13219.773132
491.025070	13120.888379
491.392861	13000.538392
491.760593	12615.936163
492.128267	12273.810695
492.495883	11945.913884
492.863440	11615.415838
493.230939	11281.048707
493.598380	11214.830630
493.965763	11087.070148
494.333088	10994.469193
494.700354	10910.062633
495.067563	10968.396345
495.434713	10804.689915
495.801805	10932.047105
496.168839	10856.815446
496.535815	10791.063676
496.902733	10793.082658
497.269593	10727.146887
497.636395	10822.066772
498.003139	10811.505555
498.369825	10683.873622
498.736453	10839.988074
499.103023	10768.317990
499.469535	10804.541201
499.835989	10787.935640
500.202385	10751.931719
500.568723	10597.982443
500.935003	10820.345218
501.301226	10627.828594
501.667390	10890.303831
502.033497	10985.009468
502.399546	10838.879020
502.765537	10748.894424
503.131470	10828.887453
503.497345	10994.181847
503.863163	10611.830492
504.228923	10920.918758
504.594625	10992.210756
504.960269	10736.538556
505.325856	10955.102822
505.691385	10749.015412
506.056856	10901.835470
506.422270	10927.729357
506.787625	10815.341873
507.152924	10930.149111
507.518164	10917.755434
507.883347	10830.765283
508.248472	10751.200752
508.613540	10995.182516
508.978550	10872.216171
509.343503	10848.346307
509.708398	10963.950047
510.073236	11084.171484
510.438016	11086.069479
510.802738	11038.170955
511.167403	11087.511249
511.532010	10982.622481
511.896561	11211.334590
512.261053	11282.193048
512.625488	11158.034470
512.989866	11140.103086
513.354186	11126.068514
513.718449	11030.694924
514.082655	11213.061185
514.446803	11116.162647
514.810894	11236.197561
515.174927	11102.528846
515.538904	11128.450459
515.902822	11287.665221
516.266684	11168.522591
516.630488	11106.191244
516.994235	11165.734833
517.357925	11224.832279
517.721558	11313.546505
518.085133	11327.029071
518.448651	11344.458860
518.812112	11219.012267
519.175516	11235.196892
519.538863	11357.817918
519.902152	11276.531833
520.265385	11432.452201
520.628560	11345.635970
520.991678	11320.571353
521.354739	11385.511497
521.717743	11315.066413
522.080690	11300.283229
522.443580	11438.433530
522.806413	11389.665407
523.169189	11419.756055
523.531908	11478.568676
523.894569	11294.475820
524.257174	11304.464866
524.619722	11421.916189
524.982213	11364.278157
525.344647	11413.474777
525.707025	11368.217818
526.069345	11464.821449
526.431608	11376.397090
526.793815	11490.415387
527.155964	11276.993098
527.518057	11336.193888
527.880093	11280.453850
528.242072	11348.610250
528.603995	11250.002761
528.965860	11178.027687
529.327669	11222.604089
529.689421	11179.645897
530.051117	11149.124231
530.412755	11255.364028
530.774337	11141.746502
531.135862	11121.700354
531.497331	11139.006635
531.858743	10993.186219
532.220098	11160.872640
532.581396	11028.083607
532.942638	11021.315857
533.303824	10978.317336
533.664953	10995.825263
534.026025	10906.730431
534.387040	11005.650472
534.747999	11010.333704
535.108902	11070.772097
535.469748	10829.618421
535.830537	10928.719944
536.191270	10908.333517
536.551947	10933.992991
536.912567	10925.854048
537.273131	10859.646054
537.633638	10833.981539
537.994089	10821.182050
538.354483	10774.264031
538.714821	10918.045300
539.075103	10925.339850
539.435328	10890.628985
539.795497	10726.357946
540.155609	10872.052333
540.515665	10964.708741
540.875665	10699.329800
541.235609	10771.110789
541.595496	10761.401527
541.955328	10920.525548
542.315102	10808.203599
542.674821	10756.627554
543.034483	10753.131514
543.394090	10760.398337
543.753640	10688.720691
544.113134	10904.623228
544.472571	10760.910014
544.831953	10905.843188
545.191278	10708.993692
545.550548	10739.170038
545.909761	10870.918074
546.268918	10854.511638
546.628019	10931.079204
546.987064	10792.724736
547.346053	10717.805628
547.704986	10820.425877
548.063863	10801.718155
548.422684	10796.387135
548.781449	10710.916892
549.140158	10818.898407
549.498811	10692.395692
549.857408	10551.341687
550.215949	10776.308219
550.574434	10626.480085
550.932864	10728.208049
551.291237	10790.373038
551.649555	10733.657537
552.007817	10745.985678
552.366022	10709.787673
552.724173	10704.053361
553.082267	10689.597852
553.440305	10832.323000
553.798288	10627.332040
554.156215	10787.938161
554.514086	10760.073183
554.871902	10611.719587
555.229661	10647.385750
555.587365	10623.490681
555.945014	10516.633343
556.302606	10641.729576
556.660143	10531.565241
557.017625	10686.918479
557.375050	10586.541544
557.732421	10714.909486
558.089735	10630.868410
558.446994	10630.535694
558.804197	10670.607826
559.161345	10668.795531
559.518437	10516.847592
559.875474	10608.203382
560.232455	10635.546601
560.589381	10590.024981
560.946251	10590.312327
561.303065	10693.582884
561.659825	10628.068049
562.016528	10558.789992
562.373177	10440.688360
562.729770	10551.024095
563.086307	10466.433533
563.442789	10561.925590
563.799216	10436.247104
564.155587	10493.554941
564.511904	10443.561818
564.868164	10437.880438
565.224370	10450.198497
565.580520	10368.113389
565.936615	10380.141582
566.292654	10247.380275
566.648638	10375.914575
567.004567	10329.553603
567.360441	10318.344598
567.716260	10231.964427
568.072023	10326.211318
568.427732	10282.224730
568.783385	10185.268218
569.138982	10253.870761
569.494525	10268.041444
569.850013	10149.682713
570.205445	10226.872861
570.560823	10127.970464
570.916145	10036.904540
571.271412	10111.816086
571.626625	10060.504702
571.981782	10032.349858
572.336884	10007.176856
572.691931	10014.645325
573.046923	9960.188261
573.401860	9914.959029
573.756743	9854.243372
574.111570	9896.473118
574.466342	9880.059121
574.821059	9905.726155
575.175722	9796.086100
575.530330	9806.586824
575.884882	9796.998549
576.239380	9729.794927
576.593823	9707.326505
576.948211	9721.981139
577.302544	9603.561914
577.656823	9617.397361
578.011047	9620.454821
578.365216	9593.802241
578.719330	9514.898101
579.073389	9531.276809
579.427394	9476.769333
579.781344	9455.755284
580.135239	9401.615812
580.489080	9415.282380
580.842866	9316.049787
581.196597	9319.218152
581.550273	9361.914205
581.903895	9327.979678
582.257463	9394.911077
582.610975	9268.557077
582.964434	9303.416656
583.317837	9220.010765
583.671186	9201.139206
584.024481	9196.718114
584.377721	9119.235579
584.730906	9091.005118
585.084037	9125.801682
585.437113	9059.694511
585.790135	9077.784692
586.143103	8981.395310
586.496016	8956.771794
586.848874	9013.880505
587.201679	9001.270059
587.554428	8889.101865
587.907124	8929.978061
588.259765	8909.573991
588.612352	8911.091378
588.964884	8782.189074
589.317362	8797.521744
589.669786	8802.144482
590.022155	8847.764403
590.374470	8859.686732
590.726731	8796.518554
591.078937	8649.463055
591.431090	8771.373279
591.783188	8637.087022
592.135232	8627.276937
592.487222	8629.774829
592.839157	8678.273249
593.191038	8618.401986
593.542866	8560.915188
593.894639	8460.994477
594.246358	8512.741922
594.598022	8528.167853
594.949633	8427.803521
595.301190	8400.803101
595.652692	8428.484076
596.004141	8540.221251
596.355535	8316.714134
596.706876	8299.027246
597.058162	8236.572391
597.409395	8308.852454
597.760573	8371.793781
598.111698	8280.909339
598.462768	8266.746217
598.813785	8230.457471
599.164748	8198.093263
599.515657	8192.273251
599.866511	8101.477029
600.217312	8226.590906
600.568060	8085.567148
600.918753	8192.230401
601.269392	8160.798807
601.619978	8075.772186
601.970510	8134.257132
602.320988	8130.594734
602.671412	8190.120678
603.021783	8127.544836
603.372100	8092.221471
603.722363	8104.184129
604.072572	8074.151455
604.422728	8082.129081
604.772830	8016.150459
605.122878	8024.319649
605.472872	8022.272941
605.822813	8046.588946
606.172701	7989.313877
606.522534	8069.347235
606.872314	8066.546874
607.222041	8038.386989
607.571714	8090.777180
607.921333	8047.914770
608.270899	8055.743682
608.620411	8150.136767
608.969870	8051.650265
609.319276	8046.987197
609.668627	8061.278868
610.017926	8096.478725
610.367171	8137.581773
610.716362	8115.246941
611.065500	8111.579502
611.414585	8142.814491
611.763616	8128.656410
612.112594	8103.256557
612.461518	8127.413766
612.810389	8182.165738
613.159207	8123.781614
613.507971	8070.095847
613.856682	8190.665123
614.205340	8145.889595
614.553945	8221.769042
614.902496	8129.967110
615.250994	8178.571395
615.599439	8148.889081
615.947830	8170.762648
616.296169	8145.647619
616.644454	8159.036924
616.992686	8151.238259
617.340864	8209.934934
617.688990	8116.804657
618.037063	8210.355870
618.385082	8156.266810
618.733048	8244.602949
619.080961	8183.562137
619.428821	8197.621915
619.776628	8193.594033
620.124382	8153.688260
620.472083	8131.580279
620.819731	8161.907861
621.167326	8055.355513
621.514868	8067.252636
621.862357	7955.996891
622.209793	7967.437790
622.557176	7910.566012
622.904506	7872.951443
623.251783	7807.734036
623.599007	7763.409691
623.946179	7771.084847
624.293297	7723.955100
624.640363	7644.803943
624.987376	7630.797098
625.334336	7575.077224
625.681243	7522.848350
626.028097	7512.312338
626.374899	7491.084039
626.721647	7481.021896
627.068343	7413.508243
627.414987	7386.180148
627.761577	7340.555185
628.108115	7379.772842
628.454600	7272.023219
628.801032	7324.902403
629.147412	7287.499562
629.493739	7275.257120
629.840014	7210.836215
630.186236	7268.464165
630.532405	7146.105279
630.878521	7202.417488
631.224585	7160.853174
631.570597	7080.310659
631.916556	7117.801720
632.262462	7108.977181
632.608316	7077.873261
632.954117	7051.538274
633.299866	7039.315996
633.645562	7029.982300
633.991206	6945.779907
634.336797	6895.118832
634.682336	6854.403952
635.027823	6817.956410
635.373257	6808.239586
635.718639	6745.084011
636.063968	6752.933087
636.409245	6649.680174
636.754470	6647.144474
637.099642	6602.235355
637.444762	6550.550925
637.789829	6558.566360
638.134845	6503.252299
638.479808	6480.529298
638.824719	6493.825341
639.169577	6416.836840
639.514383	6438.667557
639.859137	6372.993925
640.203839	6373.472834
640.548489	6362.165526
