Dividing Wavelength (nm)	Counts (n)	Blue Motor Position (mm): 32.400000	Red Motor Position (mm): 0.000000	
326.493990	2130.003447
326.888308	2130.003447
327.282561	2130.003447
327.676750	2100.006061
328.070874	2097.724938
328.464933	2103.297934
328.858929	2106.761207
329.252859	2117.864348
329.646726	2130.399177
330.040528	2140.715898
330.434265	2156.371202
330.827938	2175.693944
331.221547	2192.009639
331.615091	2212.406147
332.008571	2232.167470
332.401986	2252.450553
332.795338	2270.412184
333.188625	2288.799793
333.581847	2309.526497
333.975006	2327.122644
334.368100	2345.772393
334.761129	2362.708149
335.154095	2375.830273
335.546996	2399.127965
335.939833	2423.330545
336.332606	2440.430139
336.725315	2453.958075
337.117960	2461.751699
337.510540	2470.639253
337.903056	2480.121663
338.295508	2487.890082
338.687896	2497.596823
339.080220	2504.019253
339.472480	2514.577950
339.864676	2515.712210
340.256807	2519.989629
340.648875	2522.913498
341.040879	2527.465660
341.432818	2528.146216
341.824694	2529.192255
342.216506	2529.872811
342.608253	2530.616381
342.999937	2527.536236
343.391557	2530.591175
343.783113	2526.510361
344.174605	2529.943387
344.566033	2525.116482
344.957397	2524.239321
345.348697	2524.214116
345.739934	2518.996521
346.131106	2520.256810
346.522215	2518.172293
346.913260	2512.753052
347.304241	2513.814215
347.695159	2512.105264
348.086012	2510.141735
348.476802	2507.568226
348.867528	2506.779285
349.258191	2506.131497
349.648789	2504.256188
350.039324	2504.500683
350.429796	2502.547236
350.820203	2499.285610
351.210548	2500.553460
351.600828	2499.537668
351.991045	2497.380054
352.381198	2496.255876
352.771288	2498.524396
353.161314	2493.707573
353.551276	2497.737976
353.941175	2494.844353
354.331010	2495.910557
354.720782	2495.890393
355.110490	2495.540032
355.500135	2494.753613
355.889717	2495.613129
356.279235	2495.958448
356.668689	2498.657986
357.058080	2495.643376
357.447408	2495.797131
357.836672	2495.555156
358.225873	2494.584734
358.615010	2494.473828
359.004084	2496.989364
359.393095	2499.041114
359.782043	2499.262925
360.170927	2499.429283
360.559748	2501.652432
360.948505	2501.014726
361.337199	2501.813748
361.725830	2503.792401
362.114398	2505.549243
362.502903	2504.137720
362.891344	2503.774757
363.279722	2505.198883
363.668037	2507.051507
364.056289	2503.126969
364.444478	2504.631753
364.832603	2504.984634
365.220665	2506.025633
365.608665	2506.658297
365.996601	2505.413132
366.384474	2507.190139
366.772284	2505.080416
367.160031	2509.554440
367.547715	2508.173164
367.935336	2510.298010
368.322893	2508.634430
368.710388	2509.491426
369.097820	2512.712723
369.485189	2512.080058
369.872495	2510.040912
370.259738	2509.090654
370.646918	2510.774399
371.034035	2508.397495
371.421090	2511.676766
371.808081	2510.154338
372.195010	2509.234327
372.581875	2512.795902
372.968678	2512.695079
373.355418	2514.981242
373.742096	2512.551406
374.128710	2513.065604
374.515262	2511.462517
374.901751	2513.383197
375.288177	2513.337826
375.674540	2514.998886
376.060841	2515.470234
376.447079	2515.021572
376.833254	2516.823784
377.219367	2511.696931
377.605417	2515.182888
377.991404	2512.402692
378.377329	2515.908815
378.763191	2510.174502
379.148991	2518.126922
379.534727	2517.022910
379.920402	2517.653054
380.306013	2516.533918
380.691563	2518.026099
381.077049	2518.429392
381.462474	2517.900070
381.847835	2517.900070
382.233134	2518.462159
382.618371	2521.234794
383.003545	2520.339989
383.388657	2520.420647
383.773706	2519.004083
384.158693	2516.964936
384.543618	2521.796882
384.928480	2521.691018
385.313280	2521.786800
385.698017	2520.377798
386.082692	2520.723117
386.467305	2521.922911
386.851856	2520.634896
387.236344	2521.244876
387.620770	2523.493231
388.005133	2523.107582
388.389435	2522.958868
388.773674	2522.674043
389.157851	2519.311593
389.541965	2524.514064
389.926018	2521.529701
390.310008	2524.231760
390.693936	2526.084384
391.077802	2523.331914
391.461606	2527.841226
391.845348	2523.629342
392.229027	2527.188396
392.612645	2524.592202
392.996200	2524.251924
393.379694	2525.965917
393.763125	2528.297450
394.146494	2527.410207
394.529801	2529.156967
394.913047	2525.865093
395.296230	2526.671678
395.679351	2524.521626
396.062410	2527.495907
396.445408	2528.191586
396.828343	2528.723428
397.211217	2525.494569
397.594028	2526.011287
397.976778	2526.165042
398.359466	2529.847605
398.742092	2525.849970
399.124656	2532.405991
399.507158	2531.937163
399.889598	2530.886083
400.271977	2532.826927
400.654294	2534.858512
401.036549	2531.085208
401.418742	2533.706608
401.800874	2533.696526
402.182944	2529.872811
402.564952	2530.656710
402.946898	2533.961187
403.328783	2534.982020
403.710606	2533.888090
404.092367	2536.312885
404.474067	2534.598893
404.855705	2533.000847
405.237282	2538.742721
405.618797	2534.157792
406.000250	2540.865047
406.381642	2536.116280
406.762972	2537.724408
407.144240	2535.856660
407.525447	2541.462423
407.906593	2538.198276
408.287677	2536.708615
408.668700	2538.021836
409.049661	2538.107536
409.430560	2539.947557
409.811399	2542.326981
410.192176	2541.843031
410.572891	2543.325130
410.953545	2545.238248
411.334138	2543.355377
411.714669	2546.995090
412.095139	2546.548948
412.475547	2548.144473
412.855894	2552.820143
413.236180	2554.624876
413.616405	2556.026317
413.996568	2561.039744
414.376670	2563.764488
414.756711	2568.553584
415.136691	2573.531724
415.516609	2582.847776
415.896466	2588.473704
416.276262	2598.220775
416.655997	2602.460385
417.035670	2614.299535
417.415283	2627.958541
417.794834	2637.065386
418.174324	2646.353712
418.553753	2657.489620
418.933121	2677.074503
419.312428	2695.930939
419.691674	2706.807228
420.070859	2729.830178
420.449983	2741.742425
420.829045	2764.125148
421.208047	2777.627878
421.586988	2802.105201
421.965867	2825.392811
422.344686	2863.811444
422.723444	2869.954090
423.102141	2871.814276
423.480777	2929.243101
423.859352	2927.289654
424.237866	2990.833398
424.616319	3018.771473
424.994712	3067.484142
425.373044	3082.080803
425.751314	3139.912920
426.129524	3134.854122
426.507673	3210.385730
426.885762	3261.772732
427.263789	3290.298101
427.641756	3289.718368
428.019662	3364.027497
428.397508	3411.489960
428.775292	3439.990123
429.153016	3510.331863
429.530679	3532.308774
429.908282	3600.003908
430.285824	3600.450050
430.663305	3747.140065
431.040726	3700.282540
431.418086	3740.493304
431.795385	3834.193231
432.172624	3884.599728
432.549802	3931.835339
432.926920	3987.177126
433.303977	4040.383985
433.680974	4104.867904
434.057910	4162.755474
434.434786	4216.083320
434.811601	4253.773506
435.188355	4425.840690
435.565050	4404.703132
435.941683	4447.552940
436.318257	4628.369046
436.694770	4671.009646
437.071222	4738.130088
437.447614	4750.944702
437.823946	4737.910798
438.200218	4894.025251
438.576429	4849.199311
438.952580	4961.299449
439.328670	5038.703845
439.704700	5017.541082
440.080670	5048.092994
440.456580	5295.472496
440.832429	5257.016054
441.208218	5177.910268
441.583947	5340.147201
441.959616	5377.076174
442.335224	5360.268967
442.710773	5508.705742
443.086261	5570.651440
443.461689	5431.170275
443.837057	5592.378813
444.212365	5756.864102
444.587612	5695.636768
444.962800	5860.984093
445.337927	5869.052460
445.712995	5553.738369
446.088002	6099.029898
446.462949	5968.799251
446.837837	5932.664260
447.212664	6113.130006
447.587431	6272.831239
447.962139	6789.927595
448.336786	7678.645209
448.711374	7451.155580
449.085901	6613.656089
449.460369	6562.813532
449.834776	6516.553383
450.209124	6907.378918
450.583412	7071.917138
450.957640	7217.059519
451.331808	7004.350553
451.705917	6589.052738
452.079965	6523.575711
452.453954	6738.507826
452.827883	6630.359952
453.201752	6729.423666
453.575562	6535.364449
453.949311	6741.656026
454.323001	6643.325800
454.696632	6722.446709
455.070202	6865.560026
455.443713	7020.048706
455.817164	7126.013760
456.190556	7206.868827
456.563888	7292.114738
456.937160	7335.146027
457.310373	6998.974162
457.683526	7023.600199
458.056619	6919.777636
458.429653	6912.818323
458.802628	6844.276274
459.175542	6954.516227
459.548398	7309.325237
459.921194	7473.669373
460.293930	7470.488405
460.666607	8003.918099
461.039224	8311.975449
461.411782	8437.936240
461.784280	8451.580123
462.156719	8346.635903
462.529099	8228.650217
462.901419	7817.740726
463.273680	7713.734161
463.645882	7724.759164
464.018024	7598.095133
464.390106	7761.478929
464.762130	8148.304307
465.134094	8620.015155
465.505999	9637.584662
465.877845	10853.142965
466.249631	11497.830925
466.621358	11123.187494
466.993026	10493.252472
467.364634	10239.006918
467.736184	9878.871929
468.107674	9544.265342
468.479105	9581.398482
468.850477	9342.858643
469.221790	9116.173078
469.593043	8784.881050
469.964238	8650.451121
470.335373	8665.221702
470.706449	8720.024086
471.077467	8701.197897
471.448425	10013.465695
471.819324	11076.319887
472.190164	11091.503843
472.560945	9854.296304
472.931667	9068.352693
473.302330	8937.444010
473.672934	8583.194567
474.043479	8934.908309
474.413965	8881.048622
474.784393	8760.643183
475.154761	8913.972397
475.525070	9005.408846
475.895321	8841.440276
476.265513	9008.546964
476.635645	9177.012243
477.005719	9175.804887
477.375734	9287.113564
477.745691	9522.830356
478.115588	9661.260441
478.485427	9902.484693
478.855207	10439.143247
479.224928	11254.771692
479.594591	11883.181766
479.964194	11688.787312
480.333739	11625.447734
480.703226	11542.997143
481.072653	11630.183898
481.442022	11863.589322
481.811333	12056.342880
482.180584	11864.491688
482.549777	11573.329765
482.918912	11399.934238
483.287988	11421.086919
483.657005	11430.302148
484.025964	11116.427307
484.394864	11243.005639
484.763706	11213.156967
485.132489	10975.453960
485.501213	10939.427354
485.869879	11007.450164
486.238487	10851.681031
486.607036	10966.997425
486.975527	10748.478529
487.343959	10941.196799
487.712333	10987.731691
488.080648	10912.200082
488.448905	10960.814450
488.817104	10894.072093
489.185244	11166.690132
489.553326	11317.972638
489.921350	11854.711850
490.289315	12910.909198
490.657222	13253.314449
491.025070	13165.316068
491.392861	13041.953992
491.760593	12656.366217
492.128267	12305.201960
492.495883	11981.166673
492.863440	11645.768626
493.230939	11311.555249
493.598380	11242.130999
493.965763	11112.207861
494.333088	11015.558860
494.700354	10934.938207
495.067563	10994.759059
495.434713	10827.995169
495.801805	10952.683068
496.168839	10879.344362
496.535815	10819.594086
496.902733	10817.933026
497.269593	10746.855278
497.636395	10849.956956
498.003139	10833.714358
498.369825	10706.634432
498.736453	10861.985149
499.103023	10784.903386
499.469535	10817.645680
499.835989	10804.422734
500.202385	10765.315983
500.568723	10618.023550
500.935003	10842.904382
501.301226	10654.912193
501.667390	10907.436192
502.033497	11006.512509
502.399546	10869.993022
502.765537	10773.359144
503.131470	10842.286840
503.497345	11017.620692
503.863163	10633.487289
504.228923	10943.102356
504.594625	11001.685604
504.960269	10752.977759
505.325856	10977.155350
505.691385	10760.307597
506.056856	10926.053173
506.422270	10944.397932
506.787625	10830.949285
507.152924	10954.167688
507.518164	10928.767835
507.883347	10853.243788
508.248472	10773.583475
508.613540	11006.136943
508.978550	10887.901721
509.343503	10866.365912
509.708398	10985.974848
510.073236	11097.306211
510.438016	11101.079514
510.802738	11049.274097
511.167403	11107.582603
511.532010	10998.731488
511.896561	11230.617003
512.261053	11303.065946
512.625488	11175.244970
512.989866	11155.735704
513.354186	11145.305557
513.718449	11045.715042
514.082655	11236.149670
514.446803	11133.650409
514.810894	11257.526683
515.174927	11123.179933
515.538904	11143.306739
515.902822	11296.527569
516.266684	11183.225116
516.630488	11126.010541
516.994235	11184.303923
517.357925	11245.190979
517.721558	11328.100316
518.085133	11346.533295
518.448651	11354.445386
518.812112	11238.569424
519.175516	11249.589386
519.538863	11377.049920
519.902152	11297.440018
520.265385	11452.112701
520.628560	11366.992818
520.991678	11338.069198
521.354739	11404.448591
521.717743	11338.580875
522.080690	11319.076651
522.443580	11455.220572
522.806413	11407.957234
523.169189	11434.337592
523.531908	11488.933288
523.894569	11317.871815
524.257174	11322.784419
524.619722	11441.987543
524.982213	11382.716177
525.344647	11435.812130
525.707025	11384.861188
526.069345	11481.001033
526.431608	11402.084290
526.793815	11507.451967
527.155964	11299.602673
527.518057	11350.188132
527.880093	11297.800461
528.242072	11367.852335
528.603995	11274.127202
528.965860	11194.489574
529.327669	11248.694581
529.689421	11195.923783
530.051117	11170.448312
530.412755	11264.869123
530.774337	11158.972125
531.135862	11137.118723
531.497331	11162.014461
531.858743	11015.057265
532.220098	11181.599344
532.581396	11055.797350
532.942638	11037.606346
533.303824	11001.420944
533.664953	11014.265804
534.026025	10928.210787
534.387040	11029.911025
534.747999	11033.487723
535.108902	11087.768347
535.469748	10844.562921
535.830537	10949.486977
536.191270	10922.957905
536.551947	10942.479773
536.912567	10953.043511
537.273131	10871.883455
537.633638	10850.529127
537.994089	10841.339103
538.354483	10795.588112
538.714821	10937.095821
539.075103	10947.518406
539.435328	10910.377705
539.795497	10741.801521
540.155609	10898.251210
540.515665	10984.457461
540.875665	10720.210259
541.235609	10786.645105
541.595496	10784.719384
541.955328	10936.997518
542.315102	10821.061062
542.674821	10780.048755
543.034483	10771.236818
543.394090	10775.773857
543.753640	10706.881448
544.113134	10927.794892
544.472571	10775.231933
544.831953	10923.583008
545.191278	10730.017824
545.550548	10755.165620
545.909761	10892.756352
546.268918	10864.238545
546.628019	10953.610641
546.987064	10816.720629
547.346053	10737.156097
547.704986	10836.202168
548.063863	10827.380148
548.422684	10815.321708
548.781449	10727.429191
549.140158	10835.062867
549.498811	10718.246729
549.857408	10568.826929
550.215949	10803.379215
550.574434	10652.721812
550.932864	10749.234702
551.291237	10808.241408
551.649555	10757.595456
552.007817	10769.260686
552.366022	10732.805582
552.724173	10720.943747
553.082267	10707.866994
553.440305	10848.893273
553.798288	10650.677624
554.156215	10802.275202
554.514086	10777.079515
554.871902	10620.531524
555.229661	10663.401496
555.587365	10644.290482
555.945014	10536.361899
556.302606	10658.433439
556.660143	10555.162882
557.017625	10708.121572
557.375050	10608.606674
557.732421	10738.829761
558.089735	10646.120421
558.446994	10651.015381
558.804197	10693.915600
559.161345	10693.953409
559.518437	10542.935563
559.875474	10623.316761
560.232455	10656.182564
560.589381	10608.062230
560.946251	10601.140726
561.303065	10711.136182
561.659825	10649.964301
562.016528	10578.243805
562.373177	10456.338622
562.729770	10576.955790
563.086307	10491.946813
563.442789	10580.308157
563.799216	10461.268871
564.155587	10506.084729
564.511904	10465.692483
564.868164	10448.640781
565.224370	10471.827568
565.580520	10395.552389
565.936615	10394.642461
566.292654	10268.505230
566.648638	10395.905270
567.004567	10355.596204
567.360441	10340.714718
567.716260	10243.894317
568.072023	10344.601447
568.427732	10294.378952
568.783385	10201.112565
569.138982	10276.709708
569.494525	10292.589343
569.850013	10169.983440
570.205445	10249.086706
570.560823	10144.018977
570.916145	10067.932842
571.271412	10132.973809
571.626625	10074.995499
571.981782	10055.294669
572.336884	10035.258603
572.691931	10036.871773
573.046923	9978.966559
573.401860	9939.358213
573.756743	9872.638542
574.111570	9916.526828
574.466342	9900.140557
574.821059	9930.384959
575.175722	9816.406992
575.530330	9831.333848
575.884882	9817.173247
576.239380	9743.272452
576.593823	9726.303928
576.948211	9742.440662
577.302544	9622.322568
577.656823	9643.525662
578.011047	9639.802769
578.365216	9614.783523
578.719330	9539.640084
579.073389	9546.382627
579.427394	9497.422941
579.781344	9479.617585
580.135239	9418.264222
580.489080	9434.441285
580.842866	9339.922171
581.196597	9341.825207
581.550273	9382.431701
581.903895	9353.553451
582.257463	9408.938088
582.610975	9283.617524
582.964434	9321.474069
583.317837	9244.099919
583.671186	9222.743071
584.024481	9219.683090
584.377721	9132.249318
584.730906	9115.300959
585.084037	9148.133994
585.437113	9081.202594
585.790135	9097.180531
586.143103	9005.005554
586.496016	8976.659146
586.848874	9034.793732
587.201679	9016.791771
587.554428	8909.314371
587.907124	8955.405641
588.259765	8921.176206
588.612352	8919.615969
588.964884	8801.174060
589.317362	8814.911204
589.669786	8821.298346
590.022155	8867.747537
590.374470	8879.732881
590.726731	8814.701996
591.078937	8671.548350
591.431090	8784.939024
591.783188	8656.175352
592.135232	8649.699989
592.487222	8649.763004
592.839157	8699.705715
593.191038	8635.078123
593.542866	8576.205008
593.894639	8476.498546
594.246358	8530.045682
594.598022	8546.068990
594.949633	8448.333620
595.301190	8421.781862
595.652692	8449.069628
596.004141	8561.300836
596.355535	8335.197524
596.706876	8320.437026
597.058162	8243.897187
597.409395	8330.587389
597.760573	8392.830516
598.111698	8303.740724
598.462768	8288.365205
598.813785	8257.982171
599.164748	8220.423054
599.515657	8206.350673
599.866511	8118.616952
600.217312	8242.853668
600.568060	8104.441228
600.918753	8208.931744
601.269392	8177.550561
601.619978	8096.012418
601.970510	8152.715317
602.320988	8157.232191
602.671412	8205.108029
603.021783	8142.265005
603.372100	8119.904967
603.722363	8119.095862
604.072572	8091.508147
604.422728	8105.391485
604.772830	8037.416567
605.122878	8049.585912
605.472872	8036.544447
605.822813	8070.438645
606.172701	8011.631065
606.522534	8088.639731
606.872314	8080.926766
607.222041	8053.147487
607.571714	8115.035212
607.921333	8070.017709
608.270899	8078.557423
608.620411	8167.231319
608.969870	8071.895538
609.319276	8059.343065
609.668627	8076.278822
610.017926	8114.878937
610.367171	8163.952049
610.716362	8133.589179
611.065500	8126.599619
611.414585	8156.249166
611.763616	8145.226683
612.112594	8128.916030
612.461518	8142.227196
612.810389	8205.309675
613.159207	8141.917165
613.507971	8092.435720
613.856682	8208.984676
614.205340	8161.885176
614.553945	8242.505829
614.902496	8135.754355
615.250994	8194.057820
615.599439	8180.512239
615.947830	8193.339455
616.296169	8166.291144
616.644454	8175.660129
616.992686	8174.001589
617.340864	8234.765137
617.688990	8140.059500
618.037063	8230.394457
618.385082	8172.479161
618.733048	8261.029548
619.080961	8197.984878
619.428821	8224.045123
619.776628	8220.385246
620.124382	8175.271960
620.472083	8154.699011
620.819731	8185.205553
621.167326	8075.923420
621.514868	8084.775687
621.862357	7971.939540
622.209793	7992.734300
622.557176	7928.482273
622.904506	7894.341059
623.251783	7829.761357
623.599007	7781.862834
623.946179	7786.137733
624.293297	7740.845486
624.640363	7662.503435
624.987376	7648.821743
625.334336	7596.887776
625.681243	7539.456431
626.028097	7529.938733
626.374899	7513.302925
626.721647	7500.833631
627.068343	7433.393075
627.414987	7408.562871
627.761577	7359.477156
628.108115	7397.757158
628.454600	7284.414376
628.801032	7341.001327
629.147412	7300.979607
629.493739	7289.805890
629.840014	7219.844757
630.186236	7281.621576
630.532405	7166.615213
630.878521	7218.793676
631.224585	7171.794999
631.570597	7105.279494
631.916556	7127.773123
632.262462	7127.032073
632.608316	7092.490087
632.954117	7069.086530
633.299866	7053.312760
633.645562	7044.389918
633.991206	6968.495346
634.336797	6909.927221
634.682336	6870.127311
635.027823	6833.258833
635.373257	6825.694581
635.718639	6754.027018
636.063968	6769.175685
636.409245	6666.315982
636.754470	6663.626526
637.099642	6613.981243
637.444762	6566.715385
637.789829	6575.534883
638.134845	6519.235277
638.479808	6499.330281
638.824719	6508.250603
639.169577	6438.440705
639.514383	6458.199507
639.859137	6381.483228
640.203839	6389.657459
640.548489	6381.100100
