Dividing Wavelength (nm)	Counts (n)	Blue Motor Position (mm): 42.200000	Red Motor Position (mm): 0.000000	
326.493990	2129.771553
326.888308	2129.771553
327.282561	2129.771553
327.676750	2097.505648
328.070874	2095.433734
328.464933	2098.397933
328.858929	2104.805239
329.252859	2115.767228
329.646726	2127.762654
330.040528	2139.821094
330.434265	2156.088897
330.827938	2173.604386
331.221547	2191.124916
331.615091	2212.743905
332.008571	2229.389795
332.401986	2251.147415
332.795338	2268.993099
333.188625	2290.244083
333.581847	2307.938533
333.975006	2323.354382
334.368100	2343.632423
334.761129	2359.290247
335.154095	2377.035108
335.546996	2400.521844
335.939833	2424.313570
336.332606	2441.095571
336.725315	2453.000256
337.117960	2463.372430
337.510540	2470.921558
337.903056	2481.107209
338.295508	2487.753970
338.687896	2499.953563
339.080220	2503.651249
339.472480	2512.155676
339.864676	2515.611387
340.256807	2519.248579
340.648875	2524.372912
341.040879	2527.566483
341.432818	2525.885258
341.824694	2529.507327
342.216506	2529.940866
342.608253	2531.952287
342.999937	2529.855167
343.391557	2530.001360
343.783113	2529.477080
344.174605	2526.399456
344.566033	2526.512882
344.957397	2525.726462
345.348697	2524.428365
345.739934	2523.490710
346.131106	2522.893333
346.522215	2519.172962
346.913260	2515.780265
347.304241	2513.105933
347.695159	2512.737929
348.086012	2511.646519
348.476802	2510.086282
348.867528	2507.026302
349.258191	2505.637464
349.648789	2506.801970
350.039324	2504.372134
350.429796	2502.915241
350.820203	2501.728049
351.210548	2500.727380
351.600828	2500.921464
351.991045	2498.138747
352.381198	2499.530106
352.771288	2499.396515
353.161314	2499.918275
353.551276	2497.932060
353.941175	2494.443582
354.331010	2496.170177
354.720782	2499.121772
355.110490	2497.571618
355.500135	2496.240753
355.889717	2497.727893
356.279235	2498.448778
356.668689	2498.174035
357.058080	2500.724859
357.447408	2496.712101
357.836672	2493.697491
358.225873	2499.522544
358.615010	2493.947028
359.004084	2498.022801
359.393095	2499.164622
359.782043	2501.692761
360.170927	2504.150323
360.559748	2500.719818
360.948505	2500.566063
361.337199	2504.442710
361.725830	2504.596465
362.114398	2506.577639
362.502903	2504.886332
362.891344	2504.926661
363.279722	2504.631753
363.668037	2510.764317
364.056289	2506.597803
364.444478	2510.688700
364.832603	2505.473626
365.220665	2509.468741
365.608665	2507.059069
365.996601	2512.453104
366.384474	2509.259533
366.772284	2509.922444
367.160031	2511.863289
367.547715	2511.946468
367.935336	2510.590397
368.322893	2514.076355
368.710388	2511.384379
369.097820	2517.958044
369.485189	2514.187261
369.872495	2516.932169
370.259738	2511.835562
370.646918	2513.819256
371.034035	2514.346057
371.421090	2515.966788
371.808081	2515.555934
372.195010	2517.375790
372.581875	2515.860924
372.968678	2519.046933
373.355418	2514.802281
373.742096	2519.727489
374.128710	2518.807478
374.515262	2519.248579
374.901751	2517.973167
375.288177	2518.615914
375.674540	2518.605832
376.060841	2520.466018
376.447079	2521.824609
376.833254	2522.548014
377.219367	2519.692201
377.605417	2521.532222
377.991404	2517.763959
378.377329	2520.130781
378.763191	2519.984588
379.148991	2525.265196
379.534727	2524.408200
379.920402	2527.964734
380.306013	2528.942718
380.691563	2529.852646
381.077049	2529.141843
381.462474	2533.439427
381.847835	2537.260622
382.233134	2540.978473
382.618371	2544.535007
383.003545	2553.601522
383.388657	2557.876420
383.773706	2566.900086
384.158693	2579.384503
384.543618	2588.700556
384.928480	2602.684716
385.313280	2618.385390
385.698017	2630.622791
386.082692	2650.487458
386.467305	2663.044972
386.851856	2684.711851
387.236344	2701.811445
387.620770	2723.962275
388.005133	2747.854824
388.389435	2771.676796
388.773674	2793.356278
389.157851	2822.259734
389.541965	2850.769979
389.926018	2862.664582
390.310008	2908.344998
390.693936	2936.184770
391.077802	2977.466778
391.461606	2999.947804
391.845348	3054.167934
392.229027	3082.713468
392.612645	3114.422326
392.996200	3179.624609
393.379694	3226.658575
393.763125	3289.451187
394.146494	3306.467602
394.529801	3372.418497
394.913047	3429.804472
395.296230	3440.136317
395.679351	3510.704909
396.062410	3556.584450
396.445408	3574.830906
396.828343	3630.966675
397.211217	3674.892769
397.594028	3646.753048
397.976778	3724.926221
398.359466	3772.570166
398.742092	3824.887261
399.124656	3791.741674
399.507158	3878.537740
399.889598	3926.731171
400.271977	4001.330166
400.654294	3999.759846
401.036549	4028.360833
401.418742	4017.408926
401.800874	4130.030823
402.182944	4165.908715
402.564952	4243.529882
402.946898	4248.477774
403.328783	4257.388014
403.710606	4190.355791
404.092367	4387.812746
404.474067	4364.600753
404.855705	4380.475347
405.237282	4324.649609
405.618797	4439.570273
406.000250	4476.988237
406.381642	4566.657761
406.762972	4536.307494
407.144240	4552.076223
407.525447	4555.216862
407.906593	4619.489053
408.287677	4668.161394
408.668700	4599.858800
409.049661	4652.528776
409.430560	4699.252710
409.811399	4627.443994
410.192176	4785.327891
410.572891	4730.744798
410.953545	4834.340510
411.334138	4715.712077
411.714669	4782.146923
412.095139	4676.869987
412.475547	4823.696113
412.855894	4805.623577
413.236180	4816.830062
413.616405	4767.245272
413.996568	4855.571329
414.376670	4798.180313
414.756711	4752.620885
415.136691	4786.920896
415.516609	4866.200602
415.896466	4901.229059
416.276262	4937.001087
416.655997	4917.794291
417.035670	5099.679122
417.415283	5193.401733
417.794834	5132.355881
418.174324	5090.113532
418.553753	4996.574923
418.933121	5178.989075
419.312428	5246.810238
419.691674	5191.927196
420.070859	5313.408921
420.449983	5225.458431
420.829045	5337.354402
421.208047	5247.352162
421.586988	5320.577442
421.965867	5331.720913
422.344686	5464.267971
422.723444	5315.879087
423.102141	5137.449967
423.480777	5432.871665
423.859352	5202.072518
424.237866	5463.758814
424.616319	5455.082988
424.994712	5565.890071
425.373044	5442.812820
425.751314	5584.935550
426.129524	5387.511362
426.507673	5578.306432
426.885762	5664.255585
427.263789	5593.969297
427.641756	5476.908664
428.019662	5596.706644
428.397508	5607.928252
428.775292	5556.463113
429.153016	5655.574718
429.530679	5584.179377
429.908282	5659.267363
430.285824	5535.234814
430.663305	5801.188447
431.040726	5547.976330
431.418086	5543.469539
431.795385	5654.233771
432.172624	5665.886398
432.549802	5656.693854
432.926920	5670.420916
433.303977	5679.694119
433.680974	5714.248708
434.057910	5732.354012
434.434786	5738.559672
434.811601	5704.688159
435.188355	5944.964675
435.565050	5810.935518
435.941683	5796.510256
436.318257	6013.610067
436.694770	5997.249002
437.071222	6031.811153
437.447614	5965.381348
437.823946	5877.264500
438.200218	6029.104053
438.576429	5897.214866
438.952580	5996.964177
439.328670	6040.106372
439.704700	5949.199244
440.080670	5934.169044
440.456580	6205.703234
440.832429	6084.990285
441.208218	5929.899187
441.583947	6090.908600
441.959616	6092.073106
442.335224	6018.076529
442.710773	6156.458723
443.086261	6183.481828
443.461689	5978.591692
443.837057	6128.772706
444.212365	6282.580831
444.587612	6171.567061
444.962800	6327.411812
445.337927	6310.919677
445.712995	5924.106901
446.088002	6497.770044
446.462949	6325.241595
446.837837	6259.953612
447.212664	6430.090033
447.587431	6574.085552
447.962139	7117.605115
448.336786	8044.539717
448.711374	7780.995756
449.085901	6857.181628
449.460369	6779.424351
449.834776	6714.012859
450.209124	7104.472910
450.583412	7255.679799
450.957640	7401.190184
451.331808	7160.165057
451.705917	6716.619136
452.079965	6640.525439
452.453954	6851.376740
452.827883	6729.290076
453.201752	6814.740154
453.575562	6619.092973
453.949311	6823.196690
454.323001	6712.777776
454.696632	6786.068592
455.070202	6921.721000
455.443713	7083.226967
455.817164	7182.588109
456.190556	7265.411746
456.563888	7341.533169
456.937160	7379.062039
457.310373	7044.394959
457.683526	7062.931281
458.056619	6954.838861
458.429653	6941.691531
458.802628	6875.052519
459.175542	6981.138560
459.548398	7344.298242
459.921194	7499.684248
460.293930	7505.360587
460.666607	8032.370372
461.039224	8342.749173
461.411782	8466.252401
461.784280	8484.002304
462.156719	8374.203452
462.529099	8255.131398
462.901419	7846.346754
463.273680	7737.127635
463.645882	7747.875375
464.018024	7620.997094
464.390106	7786.515819
464.762130	8172.509408
465.134094	8637.583576
465.505999	9660.340430
465.877845	10882.099353
466.249631	11534.664115
466.621358	11146.374282
466.993026	10520.056287
467.364634	10262.221432
467.736184	9899.379343
468.107674	9566.882479
468.479105	9601.696687
468.850477	9365.858908
469.221790	9138.822982
469.593043	8806.595821
469.964238	8669.882249
470.335373	8678.253085
470.706449	8743.263805
471.077467	8713.311789
471.448425	10036.554180
471.819324	11105.485483
472.190164	11124.117587
472.560945	9869.117296
472.931667	9081.918438
473.302330	8955.193912
473.672934	8598.507072
474.043479	8955.503943
474.413965	8893.855673
474.784393	8781.621944
475.154761	8934.994009
475.525070	9028.101600
475.895321	8852.377059
476.265513	9031.622846
476.635645	9196.372795
477.005719	9206.190442
477.375734	9314.913007
477.745691	9553.949399
478.115588	9684.429584
478.485427	9935.418552
478.855207	10466.524274
479.224928	11279.566607
479.594591	11908.034654
479.964194	11722.973897
480.333739	11659.835965
480.703226	11577.967627
481.072653	11670.319045
481.442022	11902.559961
481.811333	12093.090371
482.180584	11903.986608
482.549777	11615.042793
482.918912	11437.798344
483.287988	11456.180912
483.657005	11467.778086
484.025964	11150.560960
484.394864	11281.351176
484.763706	11248.792884
485.132489	11002.882878
485.501213	10965.772424
485.869879	11043.471729
486.238487	10890.959181
486.607036	11000.931952
486.975527	10781.450196
487.343959	10968.976078
487.712333	11011.863694
488.080648	10946.873139
488.448905	10991.142031
488.817104	10923.583008
489.185244	11198.746829
489.553326	11351.017401
489.921350	11889.760472
490.289315	12953.421248
490.657222	13297.384216
491.025070	13199.789998
491.392861	13080.352461
491.760593	12699.894059
492.128267	12340.580778
492.495883	12016.142199
492.863440	11679.050323
493.230939	11341.227481
493.598380	11279.322111
493.965763	11145.320680
494.333088	11038.675071
494.700354	10967.330141
495.067563	11022.248471
495.434713	10857.380055
495.801805	10987.797226
496.168839	10905.404607
496.535815	10845.261121
496.902733	10847.045690
497.269593	10781.982038
497.636395	10870.545028
498.003139	10860.263595
498.369825	10739.502755
498.736453	10889.640919
499.103023	10816.909672
499.469535	10847.685916
499.835989	10834.667136
500.202385	10801.579523
500.568723	10642.508434
500.935003	10870.008145
501.301226	10678.529999
501.667390	10933.723289
502.033497	11031.791375
502.399546	10891.899356
502.765537	10794.547113
503.131470	10870.459329
503.497345	11043.464167
503.863163	10655.471761
504.228923	10968.073711
504.594625	11028.537310
504.960269	10780.726790
505.325856	11000.901705
505.691385	10799.222784
506.056856	10950.969076
506.422270	10972.386418
506.787625	10862.340550
507.152924	10982.814045
507.518164	10952.602410
507.883347	10882.031297
508.248472	10798.494337
508.613540	11035.289936
508.978550	10920.719633
509.343503	10892.975642
509.708398	11008.405463
510.073236	11131.394493
510.438016	11131.318876
510.802738	11075.596482
511.167403	11133.347940
511.532010	11026.936744
511.896561	11260.470717
512.261053	11337.698673
512.625488	11202.855369
512.989866	11182.859632
513.354186	11172.573158
513.718449	11074.893241
514.082655	11270.323652
514.446803	11157.427011
514.810894	11280.612647
515.174927	11152.373255
515.538904	11172.575679
515.902822	11326.222486
516.266684	11201.670698
516.630488	11150.288738
516.994235	11206.931142
517.357925	11268.304670
517.721558	11357.341529
518.085133	11377.652338
518.448651	11380.906403
518.812112	11267.097313
519.175516	11284.297730
519.538863	11407.420351
519.902152	11317.067751
520.265385	11484.981024
520.628560	11389.330171
520.991678	11369.523477
521.354739	11430.632344
521.717743	11366.498785
522.080690	11348.761485
522.443580	11482.127731
522.806413	11443.454519
523.169189	11464.932355
523.531908	11529.355780
523.894569	11343.007008
524.257174	11349.895745
524.619722	11473.328397
524.982213	11418.160529
525.344647	11469.411420
525.707025	11417.873184
526.069345	11515.832885
526.431608	11433.843559
526.793815	11544.935466
527.155964	11327.041674
527.518057	11378.905064
527.880093	11333.287663
528.242072	11400.584547
528.603995	11302.002262
528.965860	11224.055942
529.327669	11274.202820
529.689421	11228.938299
530.051117	11194.706344
530.412755	11303.698611
530.774337	11189.483709
531.135862	11173.588951
531.497331	11192.846158
531.858743	11042.750844
532.220098	11211.034641
532.581396	11078.474980
532.942638	11061.239275
533.303824	11025.739470
533.664953	11043.638087
534.026025	10953.343460
534.387040	11052.167719
534.747999	11060.185674
535.108902	11110.178797
535.469748	10868.183248
535.830537	10977.929167
536.191270	10957.217586
536.551947	10986.776392
536.912567	10974.924639
537.273131	10904.540049
537.633638	10884.483819
537.994089	10872.755574
538.354483	10823.553913
538.714821	10963.135901
539.075103	10977.823303
539.435328	10941.499269
539.795497	10767.012331
540.155609	10926.217011
540.515665	11009.585092
540.875665	10745.680689
541.235609	10812.072685
541.595496	10809.531943
541.955328	10965.865686
542.315102	10847.522079
542.674821	10799.147166
543.034483	10797.773452
543.394090	10805.776284
543.753640	10731.068904
544.113134	10946.217789
544.472571	10809.957921
544.831953	10947.667120
545.191278	10757.643347
545.550548	10785.999837
545.909761	10930.985942
546.268918	10900.416385
546.628019	10976.043775
546.987064	10837.018835
547.346053	10765.184913
547.704986	10861.813750
548.063863	10853.407626
548.422684	10844.076450
548.781449	10761.973698
549.140158	10861.501198
549.498811	10740.949566
549.857408	10597.974881
550.215949	10826.729840
550.574434	10683.692140
550.932864	10775.259659
551.291237	10840.013280
551.649555	10779.990782
552.007817	10791.066197
552.366022	10761.731723
552.724173	10755.508418
553.082267	10737.743392
553.440305	10873.978054
553.798288	10672.793166
554.156215	10826.737401
554.514086	10796.475355
554.871902	10648.257870
555.229661	10686.583242
555.587365	10664.729840
555.945014	10556.483664
556.302606	10685.297748
556.660143	10576.577703
557.017625	10735.099307
557.375050	10625.860023
557.732421	10763.498647
558.089735	10670.391056
558.446994	10684.624754
558.804197	10715.433766
559.161345	10722.438449
559.518437	10565.777031
559.875474	10653.750207
560.232455	10685.116266
560.589381	10636.569955
560.946251	10628.584767
561.303065	10738.620553
561.659825	10677.511686
562.016528	10602.491755
562.373177	10477.977775
562.729770	10597.604356
563.086307	10516.739207
563.442789	10604.813206
563.799216	10482.650925
564.155587	10535.184789
564.511904	10493.789354
564.868164	10479.769906
565.224370	10496.244396
565.580520	10421.325288
565.936615	10422.898128
566.292654	10297.857348
566.648638	10430.190157
567.004567	10380.731397
567.360441	10369.570282
567.716260	10276.261045
568.072023	10369.696311
568.427732	10321.409619
568.783385	10227.124919
569.138982	10301.645776
569.494525	10315.846706
569.850013	10195.663078
570.205445	10273.785839
570.560823	10163.530763
570.916145	10084.296428
571.271412	10155.656481
571.626625	10098.031051
571.981782	10075.870139
572.336884	10056.963291
572.691931	10057.164937
573.046923	10000.749385
573.401860	9955.419329
573.756743	9894.643179
574.111570	9938.148336
574.466342	9920.685779
574.821059	9953.831366
575.175722	9838.635959
575.530330	9853.517446
575.884882	9848.478812
576.239380	9766.860011
576.593823	9755.499771
576.948211	9770.295557
577.302544	9644.092791
577.656823	9663.629783
578.011047	9661.605760
578.365216	9632.155339
578.719330	9564.382067
579.073389	9571.023787
579.427394	9524.942600
579.781344	9496.497889
580.135239	9440.072254
580.489080	9455.493144
580.842866	9352.053708
581.196597	9361.296663
581.550273	9402.472808
581.903895	9370.935350
582.257463	9439.363972
582.610975	9311.137183
582.964434	9336.206841
583.317837	9267.052292
583.671186	9245.922296
584.024481	9233.019463
584.377721	9157.339141
584.730906	9131.571283
585.084037	9169.712653
585.437113	9102.196479
585.790135	9117.418243
586.143103	9022.183285
586.496016	8998.124379
586.848874	9051.358963
587.201679	9043.353611
587.554428	8925.070498
587.907124	8968.437024
588.259765	8937.660779
588.612352	8951.087893
588.964884	8817.434301
589.317362	8839.630502
589.669786	8833.092125
590.022155	8882.417295
590.374470	8899.864728
590.726731	8838.846602
591.078937	8686.669291
591.431090	8794.643245
591.783188	8676.783588
592.135232	8662.050816
592.487222	8664.112648
592.839157	8722.249755
593.191038	8658.668202
593.542866	8595.951207
593.894639	8496.743820
594.246358	8547.253661
594.598022	8566.674706
594.949633	8458.408366
595.301190	8440.844986
595.652692	8465.327349
596.004141	8579.237262
596.355535	8348.851490
596.706876	8335.336156
597.058162	8267.638501
597.409395	8346.640944
597.760573	8404.221003
598.111698	8317.487951
598.462768	8300.121176
598.813785	8265.949715
599.164748	8239.687824
599.515657	8229.149292
599.866511	8134.978017
600.217312	8261.826051
600.568060	8123.859752
600.918753	8220.196202
601.269392	8189.223353
601.619978	8109.805015
601.970510	8172.920262
602.320988	8170.689551
602.671412	8220.697797
603.021783	8158.890730
603.372100	8134.229406
603.722363	8136.974314
604.072572	8110.019264
604.422728	8119.247097
604.772830	8047.607259
605.122878	8061.089825
605.472872	8052.474493
605.822813	8076.571209
606.172701	8024.528857
606.522534	8100.914941
606.872314	8102.727235
607.222041	8064.936226
607.571714	8129.342007
607.921333	8083.472548
608.270899	8090.769618
608.620411	8179.279677
608.969870	8078.403668
609.319276	8078.726302
609.668627	8096.713139
610.017926	8126.992829
610.367171	8171.954881
610.716362	8152.100296
611.065500	8143.447156
611.414585	8168.191659
611.763616	8162.452306
612.112594	8146.267681
612.461518	8156.856625
612.810389	8221.154022
613.159207	8159.488107
613.507971	8103.203624
613.856682	8224.524033
614.205340	8176.459152
614.553945	8257.634331
614.902496	8155.384608
615.250994	8207.462248
615.599439	8188.378960
615.947830	8204.243471
616.296169	8179.967795
616.644454	8190.702932
616.992686	8182.543824
617.340864	8249.089576
617.688990	8149.289853
618.037063	8240.973318
618.385082	8192.268210
618.733048	8268.671938
619.080961	8214.547589
619.428821	8231.959735
619.776628	8237.530210
620.124382	8187.809309
620.472083	8167.629571
620.819731	8198.496556
621.167326	8092.629804
621.514868	8092.793642
621.862357	7988.174576
622.209793	8000.442224
622.557176	7939.333357
622.904506	7907.110302
623.251783	7840.773758
623.599007	7794.551418
623.946179	7796.245246
624.293297	7753.178669
624.640363	7677.170672
624.987376	7654.954307
625.334336	7609.904035
625.681243	7554.090901
626.028097	7544.497585
626.374899	7516.655292
626.721647	7512.024992
627.068343	7441.179137
627.414987	7419.124089
627.761577	7369.007458
628.108115	7405.197901
628.454600	7298.577497
628.801032	7352.837957
629.147412	7308.357336
629.493739	7303.598487
629.840014	7238.718837
630.186236	7291.219933
630.532405	7174.789444
630.878521	7229.765747
631.224585	7183.992070
631.570597	7108.697397
631.916556	7143.199053
632.262462	7134.505584
632.608316	7097.337156
632.954117	7074.079793
633.299866	7067.480923
633.645562	7051.278654
633.991206	6976.299052
634.336797	6914.847387
634.682336	6878.664505
635.027823	6842.781572
635.373257	6832.835376
635.718639	6763.300220
636.063968	6779.104238
636.409245	6674.167579
636.754470	6670.913514
637.099642	6633.598893
637.444762	6572.482465
637.789829	6583.441933
638.134845	6527.827924
638.479808	6510.483834
638.824719	6513.324524
639.169577	6444.301046
639.514383	6463.520445
639.859137	6392.714919
640.203839	6399.086937
640.548489	6381.818465
