Dividing Wavelength (nm)	Counts (n)	Blue Motor Position (mm): 2.900000	Red Motor Position (mm): 0.000000	
326.493990	2144.222021
326.888308	2144.222021
327.282561	2144.222021
327.676750	2111.719182
328.070874	2111.262957
328.464933	2113.155910
328.858929	2120.052209
329.252859	2130.530247
329.646726	2138.586011
330.040528	2153.822898
330.434265	2170.935095
330.827938	2188.309432
331.221547	2208.990766
331.615091	2225.626573
332.008571	2244.397310
332.401986	2264.708118
332.795338	2283.035233
333.188625	2302.272276
333.581847	2322.983857
333.975006	2339.995231
334.368100	2358.493745
334.761129	2374.426311
335.154095	2393.602861
335.546996	2411.188926
335.939833	2425.117634
336.332606	2438.610282
336.725315	2453.174176
337.117960	2457.771708
337.510540	2468.012812
337.903056	2482.934627
338.295508	2484.560399
338.687896	2495.290495
339.080220	2503.663852
339.472480	2512.710202
339.864676	2516.677591
340.256807	2518.686490
340.648875	2522.326203
341.040879	2526.084384
341.432818	2527.321987
341.824694	2525.555062
342.216506	2529.867770
342.608253	2530.588655
342.999937	2527.773170
343.391557	2527.203520
343.783113	2526.646472
344.174605	2525.229908
344.566033	2525.877696
344.957397	2521.993487
345.348697	2520.715555
345.739934	2520.589526
346.131106	2517.937879
346.522215	2516.460821
346.913260	2514.250275
347.304241	2512.989987
347.695159	2510.686179
348.086012	2509.173833
348.476802	2506.716271
348.867528	2506.083606
349.258191	2502.401043
349.648789	2506.118894
350.039324	2503.149654
350.429796	2501.594458
350.820203	2500.208141
351.210548	2498.668068
351.600828	2498.113542
351.991045	2497.369971
352.381198	2497.523727
352.771288	2495.550115
353.161314	2496.515496
353.551276	2498.254694
353.941175	2494.703201
354.331010	2495.633294
354.720782	2496.094559
355.110490	2494.730927
355.500135	2496.235712
355.889717	2494.128509
356.279235	2496.512975
356.668689	2496.757471
357.058080	2495.534991
357.447408	2494.620022
357.836672	2495.071205
358.225873	2494.698160
358.615010	2493.848725
359.004084	2499.020949
359.393095	2501.705364
359.782043	2499.842657
360.170927	2500.248470
360.559748	2498.552122
360.948505	2502.776609
361.337199	2499.416680
361.725830	2500.671927
362.114398	2501.349962
362.502903	2500.775271
362.891344	2505.085457
363.279722	2503.716784
363.668037	2505.249295
364.056289	2505.370283
364.444478	2504.203255
364.832603	2506.852382
365.220665	2504.503204
365.608665	2507.036384
365.996601	2508.561333
366.384474	2508.566374
366.772284	2508.044615
367.160031	2504.737618
367.547715	2507.280880
367.935336	2505.312309
368.322893	2508.755417
368.710388	2509.831704
369.097820	2509.594769
369.485189	2510.524862
369.872495	2508.523524
370.259738	2508.233658
370.646918	2508.619306
371.034035	2509.146107
371.421090	2510.139214
371.808081	2507.800119
372.195010	2511.122239
372.581875	2508.939419
372.968678	2511.737260
373.355418	2509.803977
373.742096	2514.139370
374.128710	2511.467558
374.515262	2511.991838
374.901751	2512.470748
375.288177	2513.877230
375.674540	2513.007631
376.060841	2516.387724
376.447079	2512.299348
376.833254	2512.274143
377.219367	2509.602331
377.605417	2512.584174
377.991404	2508.987310
378.377329	2512.039729
378.763191	2512.324554
379.148991	2512.107785
379.534727	2514.908146
379.920402	2514.134328
380.306013	2512.039729
380.691563	2513.952847
381.077049	2514.920748
381.462474	2517.794206
381.847835	2517.842097
382.233134	2515.538290
382.618371	2514.368742
383.003545	2517.527025
383.388657	2514.577950
383.773706	2517.648013
384.158693	2517.907632
384.543618	2515.727333
384.928480	2518.187416
385.313280	2517.453928
385.698017	2518.525173
386.082692	2519.566172
386.467305	2519.977026
386.851856	2517.136336
387.236344	2519.364526
387.620770	2520.486182
388.005133	2521.857376
388.389435	2520.637417
388.773674	2522.666481
389.157851	2519.631707
389.541965	2519.825791
389.926018	2521.930473
390.310008	2523.614218
390.693936	2522.026255
391.077802	2520.171110
391.461606	2524.551873
391.845348	2520.569361
392.229027	2521.975843
392.612645	2521.300329
392.996200	2521.383508
393.379694	2520.990298
393.763125	2522.558097
394.146494	2520.541635
394.529801	2525.081194
394.913047	2523.019362
395.296230	2524.551873
395.679351	2521.902747
396.062410	2519.871162
396.445408	2521.955679
396.828343	2527.042203
397.211217	2522.585823
397.594028	2520.614732
397.976778	2520.692870
398.359466	2523.243693
398.742092	2520.249248
399.124656	2524.390556
399.507158	2525.396266
399.889598	2527.044723
400.271977	2525.149250
400.654294	2527.997502
401.036549	2524.967768
401.418742	2526.492717
401.800874	2526.593540
402.182944	2526.069260
402.564952	2526.470032
402.946898	2525.171935
403.328783	2526.780063
403.710606	2529.093952
404.092367	2526.139836
404.474067	2526.039013
404.855705	2528.153777
405.237282	2527.546318
405.618797	2528.368026
406.000250	2527.942049
406.381642	2527.863911
406.762972	2527.984899
407.144240	2527.279137
407.525447	2530.651669
407.906593	2526.686802
408.287677	2525.572707
408.668700	2529.159487
409.049661	2529.484642
409.430560	2527.730320
409.811399	2529.456916
410.192176	2528.176463
410.572891	2530.828109
410.953545	2530.051772
411.334138	2529.716535
411.714669	2531.798532
412.095139	2531.654859
412.475547	2529.121679
412.855894	2529.212420
413.236180	2531.584283
413.616405	2528.501617
413.996568	2531.249046
414.376670	2531.052441
414.756711	2531.818696
415.136691	2532.519417
415.516609	2529.093953
415.896466	2531.193593
416.276262	2531.922040
416.655997	2526.291071
417.035670	2527.659744
417.415283	2530.971782
417.794834	2528.683098
418.174324	2531.622091
418.553753	2532.133768
418.933121	2535.370189
419.312428	2533.290713
419.691674	2534.432534
420.070859	2530.379447
420.449983	2534.162833
420.829045	2534.798018
421.208047	2532.831968
421.586988	2532.524458
421.965867	2533.653676
422.344686	2532.635363
422.723444	2534.024201
423.102141	2533.179808
423.480777	2536.391023
423.859352	2533.116793
424.237866	2535.665097
424.616319	2536.459078
424.994712	2532.892462
425.373044	2532.993285
425.751314	2536.408667
426.129524	2534.200641
426.507673	2534.823224
426.885762	2533.656197
427.263789	2534.175436
427.641756	2535.700385
428.019662	2535.796167
428.397508	2536.522093
428.775292	2534.787936
429.153016	2534.881197
429.530679	2537.300951
429.908282	2534.757689
430.285824	2535.574356
430.663305	2537.847916
431.040726	2537.220292
431.418086	2536.310364
431.795385	2537.787422
432.172624	2537.454706
432.549802	2539.072917
432.926920	2537.159799
433.303977	2536.872453
433.680974	2539.077958
434.057910	2535.276928
434.434786	2539.675334
434.811601	2539.148534
435.188355	2537.565612
435.565050	2538.266332
435.941683	2539.960160
436.318257	2534.518234
436.694770	2535.995292
437.071222	2539.224151
437.447614	2538.359593
437.823946	2536.590148
438.200218	2536.829603
438.576429	2540.335726
438.952580	2539.544264
439.328670	2539.856816
439.704700	2539.209028
440.080670	2539.002340
440.456580	2539.362783
440.832429	2540.635674
441.208218	2539.826569
441.583947	2542.654656
441.959616	2541.452341
442.335224	2540.708771
442.710773	2540.716333
443.086261	2542.067362
443.461689	2538.906558
443.837057	2541.399409
444.212365	2539.622402
444.587612	2540.355890
444.962800	2536.736342
445.337927	2543.428473
445.712995	2539.088040
446.088002	2543.584749
446.462949	2539.607279
446.837837	2541.689275
447.212664	2541.215407
447.587431	2540.199614
447.962139	2539.801363
448.336786	2543.824204
448.711374	2541.064172
449.085901	2544.003165
449.460369	2542.841179
449.834776	2541.694317
450.209124	2539.123328
450.583412	2539.319933
450.957640	2541.046528
451.331808	2541.543082
451.705917	2540.325643
452.079965	2543.567105
452.453954	2541.916127
452.827883	2544.469472
453.201752	2543.453679
453.575562	2541.195242
453.949311	2542.765562
454.323001	2544.076262
454.696632	2544.235058
455.070202	2545.202960
455.443713	2544.124153
455.817164	2540.174409
456.190556	2538.399922
456.563888	2539.977804
456.937160	2538.611651
457.310373	2543.738504
457.683526	2542.052238
458.056619	2543.846889
458.429653	2541.976621
458.802628	2542.866385
459.175542	2544.025850
459.548398	2544.139276
459.921194	2543.637681
460.293930	2544.401416
460.666607	2542.274049
461.039224	2544.068700
461.411782	2545.170192
461.784280	2543.282280
462.156719	2546.357384
462.529099	2542.170706
462.901419	2546.402754
463.273680	2544.519883
463.645882	2543.405788
464.018024	2545.039122
464.390106	2543.304965
464.762130	2544.741694
465.134094	2544.971067
465.505999	2543.993083
465.877845	2546.541386
466.249631	2544.368649
466.621358	2544.393854
466.993026	2548.683876
467.364634	2547.957950
467.736184	2546.392672
468.107674	2546.266643
468.479105	2546.919473
468.850477	2545.858310
469.221790	2544.217414
469.593043	2541.520397
469.964238	2546.412837
470.335373	2544.446787
470.706449	2548.121788
471.077467	2543.025181
471.448425	2544.565254
471.819324	2545.046684
472.190164	2545.729760
472.560945	2548.857796
472.931667	2547.622713
473.302330	2546.939637
473.672934	2547.171530
474.043479	2545.717157
474.413965	2546.001983
474.784393	2540.345808
475.154761	2542.672300
475.525070	2543.640202
475.895321	2543.304965
476.265513	2541.434697
476.635645	2546.367466
477.005719	2546.402754
477.375734	2546.737991
477.745691	2546.972405
478.115588	2547.063145
478.485427	2548.240255
478.855207	2546.007024
479.224928	2546.629606
479.594591	2548.673794
479.964194	2547.768907
480.333739	2548.245296
480.703226	2547.796633
481.072653	2547.526932
481.442022	2545.817980
481.811333	2545.482744
482.180584	2549.205636
482.549777	2549.175389
482.918912	2548.273022
483.287988	2547.017775
483.657005	2548.063814
484.025964	2549.437529
484.394864	2548.159596
484.763706	2549.447611
485.132489	2547.156407
485.501213	2549.578681
485.869879	2546.251520
486.238487	2546.261602
486.607036	2547.980635
486.975527	2549.354350
487.343959	2547.274874
487.712333	2547.496685
488.080648	2547.453835
488.448905	2548.371325
488.817104	2547.058104
489.185244	2549.185471
489.553326	2550.498692
489.921350	2550.844011
490.289315	2548.872920
490.657222	2548.983825
491.025070	2547.176571
491.392861	2547.572302
491.760593	2548.008362
492.128267	2546.775800
492.495883	2545.694472
492.863440	2549.414844
493.230939	2549.823177
493.598380	2547.358053
493.965763	2546.710265
494.333088	2546.440563
494.700354	2542.299255
495.067563	2546.460727
495.434713	2545.868392
495.801805	2546.513660
496.168839	2548.550286
496.535815	2550.216387
496.902733	2549.366953
497.269593	2550.493651
497.636395	2546.251520
498.003139	2548.696479
498.369825	2551.146480
498.736453	2549.193033
499.103023	2549.152704
499.469535	2548.051212
499.835989	2552.096737
500.202385	2549.097251
500.568723	2549.490461
500.935003	2550.596994
501.301226	2546.652291
501.667390	2554.090514
502.033497	2549.510626
502.399546	2548.711603
502.765537	2546.990049
503.131470	2550.851572
503.497345	2551.189330
503.863163	2551.015410
504.228923	2548.270502
504.594625	2552.903322
504.960269	2552.043805
505.325856	2549.399720
505.691385	2550.392828
506.056856	2551.625390
506.422270	2549.913918
506.787625	2551.058260
507.152924	2551.143959
507.518164	2549.619010
507.883347	2549.316541
508.248472	2551.811912
508.613540	2549.324103
508.978550	2550.912066
509.343503	2551.479196
509.708398	2547.690769
510.073236	2552.419371
510.438016	2549.697148
510.802738	2549.414844
511.167403	2549.064483
511.532010	2549.203115
511.896561	2552.036244
512.261053	2551.554813
512.625488	2549.306459
512.989866	2547.506767
513.354186	2546.685059
513.718449	2546.982487
514.082655	2548.918290
514.446803	2552.593291
514.810894	2552.991542
515.174927	2551.204453
515.538904	2554.219063
515.902822	2552.958775
516.266684	2550.901984
516.630488	2550.720502
516.994235	2550.836449
517.357925	2549.382076
517.721558	2548.348640
518.085133	2551.509443
518.448651	2549.087169
518.812112	2551.942982
519.175516	2551.511964
519.538863	2553.117571
519.902152	2550.576830
520.265385	2549.160265
520.628560	2552.520194
520.991678	2550.125646
521.354739	2551.025492
521.717743	2552.593291
522.080690	2552.532797
522.443580	2549.800492
522.806413	2551.625390
523.169189	2551.839639
523.531908	2549.646737
523.894569	2551.794268
524.257174	2552.426933
524.619722	2553.077242
524.982213	2552.310987
525.344647	2551.834598
525.707025	2549.853424
526.069345	2551.159083
526.431608	2551.380894
526.793815	2550.007179
527.155964	2553.825853
527.518057	2551.164124
527.880093	2553.702345
528.242072	2551.335523
528.603995	2550.680173
528.965860	2551.189330
529.327669	2552.815102
529.689421	2553.019269
530.051117	2548.643547
530.412755	2550.284443
530.774337	2552.638662
531.135862	2552.731923
531.497331	2548.285625
531.858743	2546.178423
532.220098	2548.946016
532.581396	2548.159596
532.942638	2546.450645
533.303824	2552.686553
533.664953	2553.306614
534.026025	2551.038095
534.387040	2554.327448
534.747999	2550.050029
535.108902	2552.109340
535.469748	2552.709238
535.830537	2555.033210
536.191270	2550.596994
536.551947	2553.278888
536.912567	2552.106820
537.273131	2550.221428
537.633638	2554.196378
537.994089	2553.535987
538.354483	2554.670247
538.714821	2552.439536
539.075103	2552.956254
539.435328	2551.401058
539.795497	2549.898794
540.155609	2552.386604
540.515665	2553.188147
540.875665	2556.606050
541.235609	2553.006666
541.595496	2555.179403
541.955328	2551.091027
542.315102	2552.731923
542.674821	2553.465411
543.034483	2553.810730
543.394090	2551.912735
543.753640	2555.025648
544.113134	2552.643703
544.472571	2551.978270
544.831953	2552.167314
545.191278	2554.607232
545.550548	2551.393497
545.909761	2552.994063
546.268918	2551.844680
546.628019	2552.439536
546.987064	2550.823846
547.346053	2551.879968
547.704986	2551.716130
548.063863	2554.161090
548.422684	2551.184289
548.781449	2551.390976
549.140158	2551.206974
549.498811	2553.193188
549.857408	2553.046995
550.215949	2551.098589
550.574434	2548.837632
550.932864	2549.238403
551.291237	2546.798485
551.649555	2552.595812
552.007817	2551.275029
552.366022	2551.751418
552.724173	2552.084135
553.082267	2552.484906
553.440305	2552.457180
553.798288	2553.233518
554.156215	2552.134546
554.514086	2551.940462
554.871902	2552.137067
555.229661	2553.722510
555.587365	2552.973898
555.945014	2551.973229
556.302606	2553.167983
556.660143	2553.291491
557.017625	2550.914587
557.375050	2550.080276
557.732421	2549.571119
558.089735	2555.887685
558.446994	2553.561193
558.804197	2551.315359
559.161345	2552.351316
559.518437	2553.493137
559.875474	2553.505740
560.232455	2554.773590
560.589381	2552.767211
560.946251	2556.737120
561.303065	2553.389793
561.659825	2552.890719
562.016528	2553.669577
562.373177	2550.085317
562.729770	2552.263096
563.086307	2554.957592
563.442789	2553.122612
563.799216	2552.288301
564.155587	2552.527756
564.511904	2555.703683
564.868164	2551.554813
565.224370	2555.146636
565.580520	2551.988353
565.936615	2554.239228
566.292654	2552.968857
566.648638	2550.612118
567.004567	2552.076573
567.360441	2555.202088
567.716260	2552.812581
568.072023	2552.404248
568.427732	2549.578681
568.783385	2552.386604
569.138982	2549.011551
569.494525	2550.322251
569.850013	2549.067004
570.205445	2553.261244
570.560823	2553.583878
570.916145	2552.605894
571.271412	2550.654968
571.626625	2556.565720
571.981782	2553.500699
572.336884	2554.604712
572.691931	2553.750236
573.046923	2553.906512
573.401860	2553.999773
573.756743	2554.284598
574.111570	2550.939793
574.466342	2554.019938
574.821059	2554.645041
575.175722	2555.779300
575.530330	2553.876265
575.884882	2552.835267
576.239380	2556.033879
576.593823	2555.116389
576.948211	2554.226625
577.302544	2554.183775
577.656823	2552.232849
578.011047	2556.616132
578.365216	2553.495658
578.719330	2555.723848
579.073389	2554.760987
579.427394	2551.814433
579.781344	2554.420709
580.135239	2555.267623
580.489080	2553.084804
580.842866	2554.471121
581.196597	2553.001625
581.550273	2551.806871
581.903895	2554.304763
582.257463	2553.803168
582.610975	2556.633776
582.964434	2553.203271
583.317837	2556.719476
583.671186	2556.177552
584.024481	2552.847869
584.377721	2553.470452
584.730906	2554.513971
585.084037	2554.881975
585.437113	2553.067160
585.790135	2552.820143
586.143103	2553.296532
586.496016	2553.362067
586.848874	2550.405430
587.201679	2552.494989
587.554428	2549.450132
587.907124	2551.552293
588.259765	2553.369629
588.612352	2553.626728
588.964884	2553.760318
589.317362	2555.570092
589.669786	2555.693601
590.022155	2554.836605
590.374470	2554.370298
590.726731	2555.116389
591.078937	2555.040771
591.431090	2554.289639
591.783188	2553.064639
592.135232	2554.370298
592.487222	2551.529608
592.839157	2553.286450
593.191038	2553.868703
593.542866	2554.468600
593.894639	2554.859290
594.246358	2549.964329
594.598022	2551.771583
594.949633	2554.942469
595.301190	2556.963972
595.652692	2552.953734
596.004141	2552.510112
596.355535	2555.418858
596.706876	2553.898950
597.058162	2551.592622
597.409395	2554.922304
597.760573	2551.789227
598.111698	2550.738147
598.462768	2554.365257
598.813785	2552.273178
599.164748	2553.294012
599.515657	2551.988353
599.866511	2552.477345
600.217312	2550.564227
600.568060	2554.806358
600.918753	2554.884496
601.269392	2551.892571
601.619978	2555.386090
601.970510	2553.755277
602.320988	2551.761501
602.671412	2556.724517
603.021783	2553.372149
603.372100	2555.524722
603.722363	2554.884496
604.072572	2554.879454
604.422728	2557.153015
604.772830	2554.120761
605.122878	2549.782848
605.472872	2550.453321
605.822813	2548.814946
606.172701	2553.397355
606.522534	2550.964998
606.872314	2553.788045
607.222041	2552.091696
607.571714	2552.177396
607.921333	2556.860628
608.270899	2551.695966
608.620411	2552.615976
608.969870	2555.801986
609.319276	2556.016235
609.668627	2557.437840
610.017926	2559.630742
610.367171	2563.535116
610.716362	2561.566545
611.065500	2560.379353
611.414585	2555.532284
611.763616	2556.283416
612.112594	2555.517160
612.461518	2555.242417
612.810389	2554.670247
613.159207	2555.552448
613.507971	2556.452294
613.856682	2554.982798
614.205340	2554.355174
614.553945	2552.817622
614.902496	2556.117058
615.250994	2557.117727
615.599439	2554.002294
615.947830	2553.785524
616.296169	2554.271995
616.644454	2556.348951
616.992686	2553.052036
617.340864	2552.565565
617.688990	2553.432643
618.037063	2555.887685
618.385082	2551.428785
618.733048	2550.478527
619.080961	2553.140256
619.428821	2551.993394
619.776628	2552.374001
620.124382	2554.143446
620.472083	2551.746377
620.819731	2553.173024
621.167326	2551.106151
621.514868	2556.379198
621.862357	2553.422561
622.209793	2553.838456
622.557176	2553.737633
622.904506	2551.186809
623.251783	2552.789896
623.599007	2553.921635
623.946179	2551.416182
624.293297	2550.836449
624.640363	2551.370811
624.987376	2553.876265
625.334336	2554.889537
625.681243	2552.535318
626.028097	2554.319886
626.374899	2551.625390
626.721647	2553.994732
627.068343	2554.730740
627.414987	2555.597819
627.761577	2554.786193
628.108115	2551.811912
628.454600	2555.156718
628.801032	2554.304763
629.147412	2554.398024
629.493739	2554.813919
629.840014	2553.046995
630.186236	2554.357695
630.532405	2552.787376
630.878521	2552.870555
631.224585	2554.365257
631.570597	2551.859803
631.916556	2551.058260
632.262462	2553.041954
632.608316	2554.040102
632.954117	2551.101110
633.299866	2551.504402
633.645562	2552.255534
633.991206	2553.276367
634.336797	2553.150339
634.682336	2552.595812
635.027823	2552.658826
635.373257	2553.218394
635.718639	2551.595143
636.063968	2553.044474
636.409245	2552.510112
636.754470	2553.707386
637.099642	2553.132695
637.444762	2553.765359
637.789829	2553.283929
638.134845	2555.008004
638.479808	2551.136398
638.824719	2552.550441
639.169577	2550.828887
639.514383	2553.452808
639.859137	2553.427602
640.203839	2555.948179
640.548489	2553.120092
640.893086	2552.079093
641.237632	2551.217056
641.582125	2550.039947
641.926566	2547.625234
642.270955	2552.182437
642.615292	2549.636654
642.959576	2556.049002
643.303809	2553.326779
643.647990	2551.779145
643.992118	2551.769063
644.336195	2551.751418
