Dividing Wavelength (nm)	Counts (n)	Blue Motor Position (mm): 45.600000	Red Motor Position (mm): 0.000000	
326.493990	2129.090998
326.888308	2129.090998
327.282561	2129.090998
327.676750	2097.624115
328.070874	2094.266707
328.464933	2097.777871
328.858929	2102.715681
329.252859	2114.048195
329.646726	2128.788528
330.040528	2141.819911
330.434265	2157.994453
330.827938	2173.443069
331.221547	2192.508713
331.615091	2211.702906
332.008571	2229.515823
332.401986	2250.297980
332.795338	2269.867739
333.188625	2290.866666
333.581847	2306.368214
333.975006	2323.855977
334.368100	2343.392968
334.761129	2361.858715
335.154095	2379.621220
335.546996	2400.481515
335.939833	2426.947573
336.332606	2439.615992
336.725315	2451.218208
337.117960	2462.719600
337.510540	2468.234623
337.903056	2483.398413
338.295508	2486.965030
338.687896	2499.489777
339.080220	2502.668224
339.472480	2509.849348
339.864676	2516.932169
340.256807	2520.713034
340.648875	2523.455422
341.040879	2525.161853
341.432818	2528.466329
341.824694	2527.841226
342.216506	2530.984385
342.608253	2530.303829
342.999937	2529.668644
343.391557	2529.315763
343.783113	2527.730320
344.174605	2529.295599
344.566033	2524.929959
344.957397	2524.156142
345.348697	2521.411234
345.739934	2522.356450
346.131106	2520.193795
346.522215	2519.359484
346.913260	2515.598784
347.304241	2514.482168
347.695159	2512.493433
348.086012	2511.001251
348.476802	2508.841117
348.867528	2509.100736
349.258191	2505.665190
349.648789	2503.822648
350.039324	2503.552947
350.429796	2502.121259
350.820203	2501.717967
351.210548	2500.969355
351.600828	2501.483553
351.991045	2499.439365
352.381198	2499.336021
352.771288	2497.846360
353.161314	2497.448109
353.551276	2499.444406
353.941175	2497.448109
354.331010	2496.119765
354.720782	2495.582882
355.110490	2498.340393
355.500135	2497.354848
355.889717	2497.463233
356.279235	2498.305105
356.668689	2501.864160
357.058080	2498.083295
357.447408	2495.855105
357.836672	2495.313181
358.225873	2499.724190
358.615010	2496.023983
359.004084	2498.622698
359.393095	2499.245281
359.782043	2503.888183
360.170927	2502.118738
360.559748	2505.922289
360.948505	2505.483708
361.337199	2503.500014
361.725830	2505.977742
362.114398	2507.684172
362.502903	2508.110150
362.891344	2509.307424
363.279722	2507.661487
363.668037	2510.040912
364.056289	2509.708195
364.444478	2509.884636
364.832603	2512.642147
365.220665	2510.971004
365.608665	2512.143073
365.996601	2509.536796
366.384474	2512.443021
366.772284	2515.316479
367.160031	2515.200532
367.547715	2515.644154
367.935336	2511.245747
368.322893	2513.887312
368.710388	2514.010820
369.097820	2516.551562
369.485189	2515.800430
369.872495	2517.012827
370.259738	2517.244720
370.646918	2515.613907
371.034035	2515.785306
371.421090	2517.852179
371.808081	2520.589526
372.195010	2520.566841
372.581875	2519.253620
372.968678	2522.235463
373.355418	2524.478776
373.742096	2526.991791
374.128710	2529.015815
374.515262	2531.929602
374.901751	2538.281455
375.288177	2542.337064
375.674540	2547.111036
376.060841	2555.270144
376.447079	2564.629046
376.833254	2573.919892
377.219367	2579.296283
377.605417	2600.547267
377.991404	2602.629264
378.377329	2621.397479
378.763191	2630.965589
379.148991	2652.750936
379.534727	2672.287927
379.920402	2690.294929
380.306013	2704.493339
380.691563	2735.302351
381.077049	2756.689446
381.462474	2775.465223
381.847835	2805.477733
382.233134	2829.277020
382.618371	2844.193794
383.003545	2893.773542
383.388657	2911.939340
383.773706	2947.469393
384.158693	2972.075264
384.543618	3007.703619
384.928480	3045.633261
385.313280	3090.827205
385.698017	3108.526696
386.082692	3160.576610
386.467305	3183.266843
386.851856	3221.708162
387.236344	3255.395672
387.620770	3296.453350
388.005133	3335.444154
388.389435	3374.104763
388.773674	3396.295922
389.157851	3449.273408
389.541965	3477.314826
389.926018	3459.267496
390.310008	3537.818755
390.693936	3564.675502
391.077802	3616.652319
391.461606	3620.395375
391.845348	3688.085469
392.229027	3696.655430
392.612645	3717.707289
392.996200	3802.459167
393.379694	3845.697144
393.763125	3917.573915
394.146494	3892.763877
394.529801	3960.829536
394.913047	4012.042618
395.296230	3984.540603
395.679351	4044.815159
396.062410	4070.552770
396.445408	4058.917787
396.828343	4091.793672
397.211217	4118.327785
397.594028	4046.009912
397.976778	4112.238071
398.359466	4136.067605
398.742092	4170.312163
399.124656	4095.118312
399.507158	4174.468595
399.889598	4204.097976
400.271977	4264.062501
400.654294	4234.740630
401.036549	4246.635233
401.418742	4215.664904
401.800874	4317.718022
402.182944	4338.936239
402.564952	4402.250611
402.946898	4389.904825
403.328783	4387.575812
403.710606	4300.676402
404.092367	4493.316534
404.474067	4459.054332
404.855705	4465.116320
405.237282	4398.280702
405.618797	4504.361702
406.000250	4536.395714
406.381642	4619.715905
406.762972	4577.876849
407.144240	4587.346656
407.525447	4592.949899
407.906593	4651.949043
408.287677	4690.828942
408.668700	4623.166575
409.049661	4672.872352
409.430560	4717.365576
409.811399	4639.164677
410.192176	4802.707269
410.572891	4740.451540
410.953545	4844.480791
411.334138	4723.598962
411.714669	4792.400630
412.095139	4686.407850
412.475547	4825.883974
412.855894	4812.653466
413.236180	4816.724197
413.616405	4772.651910
413.996568	4858.565774
414.376670	4802.946724
414.756711	4755.343108
415.136691	4788.839055
415.516609	4867.460890
415.896466	4907.102004
416.276262	4938.710038
416.655997	4918.631123
417.035670	5098.950675
417.415283	5192.224624
417.794834	5132.449142
418.174324	5090.000106
418.553753	4996.635417
418.933121	5182.404456
419.312428	5250.391978
419.691674	5183.402605
420.070859	5315.291792
420.449983	5226.867433
420.829045	5342.821533
421.208047	5246.830402
421.586988	5317.835054
421.965867	5333.119833
422.344686	5462.279236
422.723444	5314.878418
423.102141	5136.696314
423.480777	5439.407521
423.859352	5201.414648
424.237866	5465.326613
424.616319	5457.706909
424.994712	5561.221962
425.373044	5442.563283
425.751314	5585.527885
426.129524	5387.292072
426.507673	5580.232153
426.885762	5660.376417
427.263789	5594.881746
427.641756	5477.206092
428.019662	5595.990800
428.397508	5601.576399
428.775292	5552.309202
429.153016	5654.064892
429.530679	5581.895734
429.908282	5666.811450
430.285824	5533.969484
430.663305	5805.896885
431.040726	5543.300660
431.418086	5544.366864
431.795385	5645.250435
432.172624	5660.915821
432.549802	5656.212424
432.926920	5669.105175
433.303977	5676.152708
433.680974	5716.181990
434.057910	5733.004321
434.434786	5740.412296
434.811601	5705.401483
435.188355	5940.593995
435.565050	5818.000695
435.941683	5800.039064
436.318257	6014.867835
436.694770	5998.252192
437.071222	6034.815681
437.447614	5961.451769
437.823946	5874.295260
438.200218	6024.090626
438.576429	5895.483230
438.952580	5993.853785
439.328670	6035.710486
439.704700	5944.243790
440.080670	5931.093940
440.456580	6198.582605
440.832429	6084.251756
441.208218	5928.618734
441.583947	6087.473053
441.959616	6092.098312
442.335224	6020.854205
442.710773	6157.129197
443.086261	6181.470408
443.461689	5976.237473
443.837057	6120.721983
444.212365	6278.177383
444.587612	6174.125447
444.962800	6327.535320
445.337927	6303.242000
445.712995	5916.565335
446.088002	6498.193501
446.462949	6328.369631
446.837837	6260.089723
447.212664	6430.079951
447.587431	6568.709161
447.962139	7115.883561
448.336786	8038.676855
448.711374	7779.017103
449.085901	6857.552153
449.460369	6774.846983
449.834776	6708.679318
450.209124	7099.832527
450.583412	7252.685353
450.957640	7396.292703
451.331808	7165.186046
451.705917	6716.372119
452.079965	6635.227186
452.453954	6852.145516
452.827883	6724.271607
453.201752	6819.093190
453.575562	6616.534588
453.949311	6829.656928
454.323001	6712.331634
454.696632	6789.816689
455.070202	6923.480363
455.443713	7083.126144
455.817164	7180.435536
456.190556	7263.831344
456.563888	7334.067220
456.937160	7380.665126
457.310373	7039.152159
457.683526	7063.319450
458.056619	6950.556400
458.429653	6945.432068
458.802628	6873.852724
459.175542	6982.003118
459.548398	7339.667942
459.921194	7498.857498
460.293930	7499.338929
460.666607	8035.125362
461.039224	8341.390582
461.411782	8463.104200
461.784280	8489.295515
462.156719	8376.033391
462.529099	8254.445802
462.901419	7839.279056
463.273680	7737.175526
463.645882	7743.325734
464.018024	7616.407124
464.390106	7784.708566
464.762130	8168.163933
465.134094	8638.969893
465.505999	9663.720524
465.877845	10883.626823
466.249631	11531.440298
466.621358	11149.444344
466.993026	10513.906079
467.364634	10263.990877
467.736184	9903.697091
468.107674	9565.627232
468.479105	9601.968910
468.850477	9363.005615
469.221790	9134.873238
469.593043	8813.008168
469.964238	8662.766660
470.335373	8673.542127
470.706449	8736.612002
471.077467	8721.770845
471.448425	10029.161328
471.819324	11107.383477
472.190164	11124.518359
472.560945	9878.796312
472.931667	9088.771887
473.302330	8957.016290
473.672934	8596.112524
474.043479	8956.829767
474.413965	8899.766426
474.784393	8779.250082
475.154761	8937.408722
475.525070	9021.384263
475.895321	8845.447993
476.265513	9032.258031
476.635645	9195.228453
477.005719	9191.150159
477.375734	9316.296804
477.745691	9552.699193
478.115588	9681.357001
478.485427	9928.829763
478.855207	10467.111568
479.224928	11278.797831
479.594591	11912.092783
479.964194	11713.375540
480.333739	11658.043835
480.703226	11579.578276
481.072653	11666.472644
481.442022	11899.600804
481.811333	12084.792632
482.180584	11902.280177
482.549777	11607.481062
482.918912	11426.019688
483.287988	11446.214551
483.657005	11467.062242
484.025964	11143.553756
484.394864	11271.495720
484.763706	11247.096535
485.132489	11002.555203
485.501213	10967.927518
485.869879	11041.591378
486.238487	10892.511856
486.607036	10993.095478
486.975527	10771.869483
487.343959	10970.201078
487.712333	11013.103818
488.080648	10941.920205
488.448905	10994.151600
488.817104	10927.517628
489.185244	11196.362363
489.553326	11350.788029
489.921350	11886.566901
490.289315	12955.525930
490.657222	13288.592444
491.025070	13205.509187
491.392861	13074.945823
491.760593	12691.419880
492.128267	12340.658916
492.495883	12011.998370
492.863440	11676.063440
493.230939	11339.836122
493.598380	11270.200143
493.965763	11141.406224
494.333088	11038.337313
494.700354	10968.560183
495.067563	11024.040601
495.434713	10852.782523
495.801805	10975.574948
496.168839	10906.997612
496.535815	10839.559576
496.902733	10841.760040
497.269593	10771.700604
497.636395	10868.702487
498.003139	10863.494975
498.369825	10734.837167
498.736453	10892.607638
499.103023	10813.038066
499.469535	10845.659372
499.835989	10833.190078
500.202385	10796.261106
500.568723	10645.686882
500.935003	10870.610563
501.301226	10675.301140
501.667390	10935.752353
502.033497	11033.500326
502.399546	10884.831658
502.765537	10795.225149
503.131470	10870.812209
503.497345	11043.081039
503.863163	10654.027471
504.228923	10965.006169
504.594625	11028.265088
504.960269	10772.005594
505.325856	10998.277784
505.691385	10787.620568
506.056856	10945.557398
506.422270	10968.454318
506.787625	10859.089006
507.152924	10971.879782
507.518164	10954.268511
507.883347	10880.103056
508.248472	10806.267796
508.613540	11031.511591
508.978550	10912.142109
509.343503	10891.400282
509.708398	11015.377378
510.073236	11125.105653
510.438016	11133.776438
510.802738	11080.637635
511.167403	11129.773762
511.532010	11029.900943
511.896561	11262.219997
512.261053	11342.344096
512.625488	11200.607015
512.989866	11182.514313
513.354186	11166.564103
513.718449	11081.746689
514.082655	11261.569688
514.446803	11154.762762
514.810894	11288.847372
515.174927	11146.659107
515.538904	11173.848570
515.902822	11319.283338
516.266684	11206.923580
516.630488	11149.325877
516.994235	11209.386184
517.357925	11268.140832
517.721558	11357.898576
518.085133	11373.977337
518.448651	11377.916998
518.812112	11264.571695
519.175516	11280.216916
519.538863	11402.769887
519.902152	11316.145220
520.265385	11473.061215
520.628560	11384.001671
520.991678	11368.900895
521.354739	11431.653178
521.717743	11363.582477
522.080690	11343.387615
522.443580	11476.252266
522.806413	11434.708117
523.169189	11466.575771
523.531908	11524.153310
523.894569	11340.385608
524.257174	11345.089004
524.619722	11467.347067
524.982213	11410.470249
525.344647	11464.624844
525.707025	11412.975703
526.069345	11507.978768
526.431608	11427.549678
526.793815	11532.360308
527.155964	11329.494195
527.518057	11376.376926
527.880093	11323.270891
528.242072	11388.521065
528.603995	11292.103957
528.965860	11222.919162
529.327669	11276.562080
529.689421	11215.319622
530.051117	11196.029647
530.412755	11297.568568
530.774337	11187.726867
531.135862	11160.189564
531.497331	11190.277690
531.858743	11037.185410
532.220098	11205.582633
532.581396	11078.558159
532.942638	11059.926055
533.303824	11031.486385
533.664953	11039.685822
534.026025	10945.547315
534.387040	11047.423993
534.747999	11052.906248
535.108902	11117.722884
535.469748	10868.178207
535.830537	10975.834568
536.191270	10951.498397
536.551947	10974.092849
536.912567	10968.600512
537.273131	10903.451160
537.633638	10877.905113
537.994089	10871.359175
538.354483	10818.230454
538.714821	10962.848555
539.075103	10972.033538
539.435328	10935.270923
539.795497	10761.076373
540.155609	10918.683006
540.515665	11001.786428
540.875665	10740.097611
541.235609	10813.471605
541.595496	10809.206789
541.955328	10961.086672
542.315102	10847.567449
542.674821	10794.065683
543.034483	10799.129522
543.394090	10802.615480
543.753640	10729.664943
544.113134	10949.998654
544.472571	10807.270986
544.831953	10943.412387
545.191278	10750.749569
545.550548	10780.207551
545.909761	10917.654611
546.268918	10890.848275
546.628019	10975.852212
546.987064	10844.406646
547.346053	10760.917576
547.704986	10863.227793
548.063863	10845.291368
548.422684	10838.594195
548.781449	10755.954560
549.140158	10859.872906
549.498811	10736.188196
549.857408	10590.193860
550.215949	10825.320837
550.574434	10677.942704
550.932864	10775.804103
551.291237	10836.474390
551.649555	10776.454412
552.007817	10787.623089
552.366022	10753.580177
552.724173	10749.678324
553.082267	10733.697866
553.440305	10874.784639
553.798288	10668.430047
554.156215	10819.783130
554.514086	10801.082969
554.871902	10646.604372
555.229661	10688.682883
555.587365	10658.294807
555.945014	10559.349560
556.302606	10678.497231
556.660143	10574.336911
557.017625	10735.225336
557.375050	10628.572164
557.732421	10766.389749
558.089735	10675.505307
558.446994	10674.633187
558.804197	10711.463857
559.161345	10714.405370
559.518437	10560.604807
559.875474	10650.629733
560.232455	10676.148054
560.589381	10632.663061
560.946251	10628.672987
561.303065	10740.818496
561.659825	10666.123719
562.016528	10601.599471
562.373177	10479.974072
562.729770	10599.809861
563.086307	10515.216779
563.442789	10599.809861
563.799216	10481.972890
564.155587	10529.243789
564.511904	10484.019598
564.868164	10473.067692
565.224370	10492.418161
565.580520	10418.134238
565.936615	10421.085834
566.292654	10295.251072
566.648638	10423.172871
567.004567	10380.101253
567.360441	10362.951247
567.716260	10274.121076
568.072023	10358.880516
568.427732	10317.275873
568.783385	10227.112316
569.138982	10297.441453
569.494525	10306.833123
569.850013	10188.860041
570.205445	10265.568758
570.560823	10159.419702
570.916145	10090.804557
571.271412	10158.154373
571.626625	10095.631462
571.981782	10076.548174
572.336884	10061.633920
572.691931	10053.605883
573.046923	10001.992029
573.401860	9953.765831
573.756743	9896.568899
574.111570	9935.990723
574.466342	9918.971787
574.821059	9953.526376
575.175722	9836.236370
575.530330	9838.895579
575.884882	9845.885139
576.239380	9763.371533
576.593823	9745.064582
576.948211	9761.924721
577.302544	9640.856371
577.656823	9656.052929
578.011047	9657.961006
578.365216	9634.043251
578.719330	9560.059277
579.073389	9569.423221
579.427394	9521.310448
579.781344	9496.505451
580.135239	9441.060320
580.489080	9451.379562
580.842866	9352.976239
581.196597	9357.412454
581.550273	9399.387622
581.903895	9373.362665
582.257463	9431.983723
582.610975	9309.037542
582.964434	9330.767436
583.317837	9260.955017
583.671186	9242.247295
584.024481	9235.908044
584.377721	9152.411413
584.730906	9129.655644
585.084037	9164.883227
585.437113	9100.623639
585.790135	9116.573850
586.143103	9016.771607
586.496016	8996.554059
586.848874	9048.246051
587.201679	9034.203917
587.554428	8921.340044
587.907124	8968.857960
588.259765	8935.924102
588.612352	8943.548847
588.964884	8821.106782
589.317362	8830.934511
589.669786	8832.116662
590.022155	8881.245227
590.374470	8900.704081
590.726731	8836.142023
591.078937	8689.731792
591.431090	8802.187332
591.783188	8672.690172
592.135232	8667.258328
592.487222	8662.817072
592.839157	8719.083910
593.191038	8654.022779
593.542866	8595.510106
593.894639	8495.748192
594.246358	8544.937251
594.598022	8564.139006
594.949633	8463.890620
595.301190	8434.863657
595.652692	8464.273748
596.004141	8573.916324
596.355535	8352.100513
596.706876	8328.414652
597.058162	8266.416021
597.409395	8342.179523
597.760573	8406.509687
598.111698	8320.328641
598.462768	8296.486504
598.813785	8267.265456
599.164748	8235.231444
599.515657	8227.614260
599.866511	8133.367368
600.217312	8261.485773
600.568060	8118.314483
600.918753	8217.819298
601.269392	8199.187194
601.619978	8100.970393
601.970510	8168.801639
602.320988	8164.839292
602.671412	8220.143270
603.021783	8156.385277
603.372100	8131.436607
603.722363	8134.957852
604.072572	8107.382741
604.422728	8114.584029
604.772830	8050.258906
605.122878	8052.744195
605.472872	8048.446611
605.822813	8079.167403
606.172701	8020.566510
606.522534	8098.172553
606.872314	8098.459899
607.222041	8068.341525
607.571714	8125.069629
607.921333	8084.785769
608.270899	8084.989936
608.620411	8174.414964
608.969870	8081.987928
609.319276	8077.337464
609.668627	8094.613498
610.017926	8128.323694
610.367171	8174.296497
610.716362	8147.916138
611.065500	8137.657390
611.414585	8171.917072
611.763616	8159.135226
612.112594	8143.560582
612.461518	8160.254362
612.810389	8213.483906
613.159207	8150.610635
613.507971	8105.346115
613.856682	8217.297539
614.205340	8170.394643
614.553945	8249.389524
614.902496	8153.073239
615.250994	8209.894604
615.599439	8193.258797
615.947830	8206.789254
616.296169	8175.367742
616.644454	8189.475411
616.992686	8191.653189
617.340864	8243.385510
617.688990	8152.264134
618.037063	8238.160354
618.385082	8185.258486
618.733048	8276.316848
619.080961	8212.523566
619.428821	8231.359838
619.776628	8235.914520
620.124382	8183.347888
620.472083	8170.687030
620.819731	8196.893469
621.167326	8088.909433
621.514868	8097.083664
621.862357	7985.598546
622.209793	8005.107812
622.557176	7938.446114
622.904506	7908.912514
623.251783	7843.548913
623.599007	7795.778939
623.946179	7798.009650
624.293297	7752.903926
624.640363	7672.275711
624.987376	7657.116962
625.334336	7601.886080
625.681243	7556.324132
626.028097	7542.218983
626.374899	7521.391456
626.721647	7510.615990
627.068343	7440.566637
627.414987	7417.163080
627.761577	7366.237344
628.108115	7405.492809
628.454600	7298.564894
628.801032	7350.166145
629.147412	7310.335989
629.493739	7297.549102
629.840014	7235.978969
630.186236	7295.303268
630.532405	7176.601739
630.878521	7227.900520
631.224585	7181.146339
631.570597	7107.404341
631.916556	7136.383413
632.262462	7138.566233
632.608316	7097.135510
632.954117	7078.112716
633.299866	7063.332053
633.645562	7056.133285
633.991206	6972.820656
634.336797	6918.565238
634.682336	6876.277519
635.027823	6839.925759
635.373257	6836.379307
635.718639	6765.684686
636.063968	6781.334948
636.409245	6674.689338
636.754470	6671.226066
637.099642	6631.791640
637.444762	6574.461118
637.789829	6580.253403
638.134845	6524.084867
638.479808	6509.725141
638.824719	6511.915522
639.169577	6444.275840
639.514383	6461.952646
639.859137	6389.367592
640.203839	6398.061062
640.548489	6386.925153
