Dividing Wavelength (nm)	Counts (n)	Blue Motor Position (mm): 22.500000	Red Motor Position (mm): 0.000000	
326.493990	2133.597789
326.888308	2133.597789
327.282561	2133.597789
327.676750	2098.871801
328.070874	2098.607140
328.464933	2102.408170
328.858929	2107.719026
329.252859	2117.904677
329.646726	2130.278189
330.040528	2141.623306
330.434265	2158.261634
330.827938	2177.964984
331.221547	2193.073322
331.615091	2214.755325
332.008571	2234.322564
332.401986	2257.148908
332.795338	2272.272370
333.188625	2291.290123
333.581847	2309.433235
333.975006	2328.647593
334.368100	2347.226766
334.761129	2366.574714
335.154095	2382.882847
335.546996	2401.782133
335.939833	2425.556214
336.332606	2437.622216
336.725315	2452.516305
337.117960	2457.743982
337.510540	2468.950467
337.903056	2479.748618
338.295508	2487.005359
338.687896	2494.526761
339.080220	2503.716784
339.472480	2509.977897
339.864676	2512.082579
340.256807	2517.675739
340.648875	2524.395597
341.040879	2523.830988
341.432818	2527.455578
341.824694	2526.084384
342.216506	2528.942718
342.608253	2530.008922
342.999937	2529.066226
343.391557	2528.410876
343.783113	2527.949611
344.174605	2524.453570
344.566033	2524.070443
344.957397	2524.370391
345.348697	2517.320338
345.739934	2519.472910
346.131106	2518.835204
346.522215	2517.027951
346.913260	2511.908659
347.304241	2510.199708
347.695159	2510.451766
348.086012	2509.062928
348.476802	2507.497649
348.867528	2506.270128
349.258191	2503.472288
349.648789	2503.948677
350.039324	2499.968686
350.429796	2502.393481
350.820203	2496.102121
351.210548	2497.606906
351.600828	2497.944663
351.991045	2497.349807
352.381198	2496.664210
352.771288	2495.436689
353.161314	2496.984323
353.551276	2494.680516
353.941175	2495.794611
354.331010	2497.110352
354.720782	2494.851915
355.110490	2494.670433
355.500135	2494.798983
355.889717	2493.697491
356.279235	2495.761843
356.668689	2498.166474
357.058080	2493.717655
357.447408	2495.524909
357.836672	2490.249342
358.225873	2498.027842
358.615010	2491.257572
359.004084	2499.212513
359.393095	2497.768222
359.782043	2496.139930
360.170927	2499.073881
360.559748	2498.877276
360.948505	2500.412308
361.337199	2501.811228
361.725830	2503.036228
362.114398	2503.515138
362.502903	2501.042452
362.891344	2502.529592
363.279722	2505.665190
363.668037	2500.936588
364.056289	2505.491270
364.444478	2503.915910
364.832603	2505.919768
365.220665	2503.714263
365.608665	2503.779798
365.996601	2505.755931
366.384474	2506.272649
366.772284	2507.575787
367.160031	2504.876249
367.547715	2505.584532
367.935336	2506.736435
368.322893	2509.030160
368.710388	2507.522855
369.097820	2511.018895
369.485189	2508.873884
369.872495	2508.483195
370.259738	2510.797085
370.646918	2509.539317
371.034035	2507.709378
371.421090	2512.921931
371.808081	2507.527896
372.195010	2508.967146
372.581875	2506.630571
372.968678	2512.712723
373.355418	2510.577794
373.742096	2509.665346
374.128710	2512.737929
374.515262	2513.965450
374.901751	2511.843124
375.288177	2509.713237
375.674540	2512.841273
376.060841	2514.121726
376.447079	2512.110305
376.833254	2513.478978
377.219367	2508.939419
377.605417	2513.224400
377.991404	2508.926817
378.377329	2513.279853
378.763191	2511.260871
379.148991	2513.453773
379.534727	2513.184071
379.920402	2516.511232
380.306013	2515.853362
380.691563	2519.314114
381.077049	2515.500481
381.462474	2513.698269
381.847835	2518.174813
382.233134	2517.159021
382.618371	2513.826818
383.003545	2517.673218
383.388657	2518.026099
383.773706	2516.281860
384.158693	2516.901922
384.543618	2517.451408
384.928480	2514.887981
385.313280	2518.643641
385.698017	2517.108609
386.082692	2517.708507
386.467305	2516.428053
386.851856	2518.131963
387.236344	2520.483662
387.620770	2519.956861
388.005133	2520.667664
388.389435	2522.490041
388.773674	2517.839577
389.157851	2517.718589
389.541965	2521.149094
389.926018	2522.217819
390.310008	2520.511388
390.693936	2520.113137
391.077802	2518.154649
391.461606	2522.474918
391.845348	2521.998528
392.229027	2521.479290
392.612645	2523.480628
392.996200	2522.210257
393.379694	2521.164218
393.763125	2525.580268
394.146494	2521.499454
394.529801	2523.624301
394.913047	2523.861235
395.296230	2522.542973
395.679351	2523.916687
396.062410	2527.387522
396.445408	2523.273940
396.828343	2525.502130
397.211217	2520.193795
397.594028	2521.706142
397.976778	2520.929804
398.359466	2525.469363
398.742092	2520.869310
399.124656	2525.363499
399.507158	2525.451719
399.889598	2527.339631
400.271977	2525.497089
400.654294	2527.828623
401.036549	2524.748478
401.418742	2527.009435
401.800874	2527.566483
402.182944	2527.390042
402.564952	2525.915505
402.946898	2528.239477
403.328783	2526.419620
403.710606	2525.542460
404.092367	2526.107069
404.474067	2525.791997
404.855705	2526.298633
405.237282	2527.208561
405.618797	2529.202337
406.000250	2528.703263
406.381642	2528.405835
406.762972	2528.186545
407.144240	2527.266534
407.525447	2531.186031
407.906593	2529.235105
408.287677	2527.062368
408.668700	2528.620084
409.049661	2530.258459
409.430560	2528.420958
409.811399	2530.341638
410.192176	2527.004394
410.572891	2532.690816
410.953545	2529.620753
411.334138	2529.088911
411.714669	2530.475229
412.095139	2533.073943
412.475547	2533.275590
412.855894	2532.416073
413.236180	2531.894313
413.616405	2532.733666
413.996568	2532.037986
414.376670	2535.498738
414.756711	2530.873480
415.136691	2530.828109
415.516609	2530.351720
415.896466	2531.357431
416.276262	2529.847605
416.655997	2528.725948
417.035670	2530.835671
417.415283	2531.732997
417.794834	2528.816689
418.174324	2532.607637
418.553753	2533.444468
418.933121	2532.761392
419.312428	2536.970755
419.691674	2535.355066
420.070859	2534.150230
420.449983	2537.384130
420.829045	2533.197452
421.208047	2536.416228
421.586988	2534.056968
421.965867	2534.608975
422.344686	2534.641742
422.723444	2533.164684
423.102141	2535.508821
423.480777	2538.745242
423.859352	2536.038142
424.237866	2538.321785
424.616319	2535.637370
424.994712	2536.852288
425.373044	2534.971938
425.751314	2534.924047
426.129524	2536.123842
426.507673	2537.144675
426.885762	2537.593338
427.263789	2540.723894
427.641756	2537.658873
428.019662	2540.066024
428.397508	2538.898997
428.775292	2539.158616
429.153016	2534.102339
429.530679	2540.552495
429.908282	2539.385468
430.285824	2538.558719
430.663305	2538.518390
431.040726	2539.264480
431.418086	2539.876981
431.795385	2538.730118
432.172624	2540.635674
432.549802	2541.038967
432.926920	2539.997968
433.303977	2540.275232
433.680974	2540.325643
434.057910	2540.542413
434.434786	2539.811446
434.811601	2541.517876
435.188355	2541.666590
435.565050	2542.140459
435.941683	2539.541744
436.318257	2538.788091
436.694770	2535.690302
437.071222	2537.300951
437.447614	2538.084850
437.823946	2539.566950
438.200218	2541.366642
438.576429	2539.395550
438.952580	2541.817825
439.328670	2541.210366
439.704700	2541.107022
440.080670	2541.976621
440.456580	2543.025181
440.832429	2544.197249
441.208218	2540.824718
441.583947	2545.150028
441.959616	2542.347146
442.335224	2543.050387
442.710773	2542.263967
443.086261	2544.454348
443.461689	2543.781354
443.837057	2544.794626
444.212365	2544.275387
444.587612	2546.503577
444.962800	2544.136756
445.337927	2545.336550
445.712995	2545.286139
446.088002	2545.243289
446.462949	2548.139432
446.837837	2544.713968
447.212664	2544.061138
447.587431	2546.473330
447.962139	2544.918134
448.336786	2545.865871
448.711374	2547.673125
449.085901	2545.812939
449.460369	2545.366797
449.834776	2545.891077
450.209124	2546.574153
450.583412	2547.035419
450.957640	2548.658671
451.331808	2549.099772
451.705917	2546.962322
452.079965	2549.901315
452.453954	2549.808054
452.827883	2549.689587
453.201752	2546.349822
453.575562	2548.512477
453.949311	2547.862168
454.323001	2546.647250
454.696632	2546.599359
455.070202	2549.485420
455.443713	2548.653629
455.817164	2546.591797
456.190556	2547.428629
456.563888	2547.022816
456.937160	2547.330327
457.310373	2550.407951
457.683526	2549.992056
458.056619	2551.799309
458.429653	2552.719320
458.802628	2549.170348
459.175542	2550.334854
459.548398	2552.689073
459.921194	2550.866696
460.293930	2555.585216
460.666607	2553.543549
461.039224	2554.992880
461.411782	2552.207643
461.784280	2556.842984
462.156719	2556.220401
462.529099	2557.468087
462.901419	2556.306101
463.273680	2556.041440
463.645882	2560.175187
464.018024	2557.410114
464.390106	2556.374157
464.762130	2561.750547
465.134094	2561.695094
465.505999	2571.230437
465.877845	2573.519121
466.249631	2574.575242
466.621358	2573.758576
466.993026	2579.543300
467.364634	2579.772672
467.736184	2579.926427
468.107674	2581.698393
468.479105	2582.394072
468.850477	2587.833477
469.221790	2587.682242
469.593043	2588.723241
469.964238	2594.502924
470.335373	2595.420414
470.706449	2602.982144
471.077467	2607.710747
471.448425	2629.307050
471.819324	2645.370687
472.190164	2651.082314
472.560945	2643.087044
472.931667	2639.989255
473.302330	2644.251550
473.672934	2647.614000
474.043479	2661.767039
474.413965	2665.938594
474.784393	2671.133503
475.154761	2684.757222
475.525070	2694.194262
475.895321	2701.879501
476.265513	2713.141438
476.635645	2729.341186
477.005719	2745.505646
477.375734	2758.665578
477.745691	2777.002775
478.115588	2796.922895
478.485427	2820.893581
478.855207	2860.751464
479.224928	2924.353182
479.594591	2968.856488
479.964194	2981.240082
480.333739	2985.706544
480.703226	3011.945750
481.072653	3041.668393
481.442022	3095.833071
481.811333	3131.479070
482.180584	3144.601193
482.549777	3158.217350
482.918912	3170.495080
483.287988	3207.466902
483.657005	3237.156778
484.025964	3246.321595
484.394864	3286.517236
484.763706	3318.505877
485.132489	3327.438802
485.501213	3360.420551
485.869879	3397.654513
486.238487	3428.728186
486.607036	3469.800987
486.975527	3494.568175
487.343959	3549.763769
487.712333	3598.299998
488.080648	3629.192189
488.448905	3687.909028
488.817104	3724.391859
489.185244	3806.605516
489.553326	3886.495202
489.921350	4033.676729
490.289315	4268.357564
490.657222	4377.128020
491.025070	4435.305456
491.392861	4470.593533
491.760593	4465.948110
492.128267	4458.247747
492.495883	4454.988642
492.863440	4451.101912
493.230939	4447.678968
493.598380	4493.573633
493.965763	4535.952093
494.333088	4561.324220
494.700354	4619.967963
495.067563	4685.150082
495.434713	4716.606882
495.801805	4810.848733
496.168839	4858.285990
496.535815	4918.716822
496.902733	4973.005008
497.269593	5033.899626
497.636395	5116.594713
498.003139	5202.314493
498.369825	5216.311257
498.736453	5346.786401
499.103023	5380.695722
499.469535	5469.374660
499.835989	5526.531262
500.202385	5596.492395
500.568723	5611.099138
500.935003	5752.248925
501.301226	5780.789418
501.667390	5932.616369
502.033497	6051.428803
502.399546	6061.440535
502.765537	6103.171206
503.131470	6210.157094
503.497345	6363.181319
503.863163	6263.177429
504.228923	6479.135419
504.594625	6572.500109
504.960269	6535.112391
505.325856	6708.545728
505.691385	6692.764396
506.056856	6833.150448
506.422270	6928.009840
506.787625	6927.571259
507.152924	7070.470327
507.518164	7130.664224
507.883347	7168.886253
508.248472	7186.028697
508.613540	7393.656179
508.978550	7405.137407
509.343503	7458.782846
509.708398	7602.047397
510.073236	7746.224397
510.438016	7821.471180
510.802738	7869.213427
511.167403	7964.773540
511.532010	7984.333217
511.896561	8175.128287
512.261053	8295.306874
512.625488	8283.371942
512.989866	8342.056014
513.354186	8404.377279
513.718449	8407.608658
514.082655	8592.581196
514.446803	8594.746371
514.810894	8738.951098
515.174927	8719.671205
515.538904	8790.229715
515.902822	8968.056417
516.266684	8944.539434
516.630488	8962.768246
516.994235	9056.052278
517.357925	9167.325666
517.721558	9287.489130
518.085133	9363.194658
518.448651	9419.343029
518.812112	9387.031754
519.175516	9460.985481
519.538863	9605.593499
519.902152	9585.655736
520.265385	9775.498028
520.628560	9746.090457
520.991678	9787.037229
521.354739	9876.961332
521.717743	9867.098314
522.080690	9897.226770
522.443580	10062.067460
522.806413	10069.868645
523.169189	10138.438420
523.531908	10236.105734
523.894569	10113.472105
524.257174	10170.333800
524.619722	10313.162292
524.982213	10293.716041
525.344647	10390.612059
525.707025	10380.577642
526.069345	10495.067287
526.431608	10463.302977
526.793815	10593.521022
527.155964	10440.464029
527.518057	10514.505976
527.880093	10500.972999
528.242072	10594.226783
528.603995	10541.118227
528.965860	10495.952009
529.327669	10572.015459
529.689421	10551.623992
530.051117	10546.668538
530.412755	10668.881230
530.774337	10590.622358
531.135862	10595.973543
531.497331	10634.896292
531.858743	10517.180308
532.220098	10692.337719
532.581396	10595.146794
532.942638	10599.956054
533.303824	10579.098280
533.664953	10613.725966
534.026025	10548.203569
534.387040	10658.700620
534.747999	10677.980513
535.108902	10746.199928
535.469748	10525.036947
535.830537	10641.348969
536.191270	10636.484255
536.551947	10669.375263
536.912567	10682.008395
537.273131	10619.442635
537.633638	10610.439134
537.994089	10612.705133
538.354483	10568.496734
538.714821	10720.089271
539.075103	10737.362785
539.435328	10710.337159
539.795497	10550.895545
540.155609	10710.876562
540.515665	10805.728393
540.875665	10555.379652
541.235609	10632.539552
541.595496	10624.133428
541.955328	10784.011102
542.315102	10675.966572
542.674821	10635.039965
543.034483	10644.340893
543.394090	10651.496811
543.753640	10585.382079
544.113134	10805.960286
544.472571	10667.958699
544.831953	10817.285238
545.191278	10619.651842
545.550548	10655.890177
545.909761	10788.989241
546.268918	10776.116655
546.628019	10854.415857
546.987064	10723.350898
547.346053	10650.559157
547.704986	10752.017419
548.063863	10743.737324
548.422684	10734.292722
548.781449	10651.143931
549.140158	10755.521021
549.498811	10637.431992
549.857408	10494.961423
550.215949	10716.870494
550.574434	10580.688764
550.932864	10678.343476
551.291237	10743.359237
551.649555	10692.007524
552.007817	10704.799452
552.366022	10666.579944
552.724173	10664.087093
553.082267	10645.543209
553.440305	10783.391040
553.798288	10586.836452
554.156215	10740.463094
554.514086	10724.384334
554.871902	10570.697197
555.229661	10606.252456
555.587365	10582.730432
555.945014	10480.316871
556.302606	10606.113824
556.660143	10496.927473
557.017625	10650.856585
557.375050	10556.271936
557.732421	10692.879643
558.089735	10594.488923
558.446994	10605.534091
558.804197	10640.262600
559.161345	10641.419545
559.518437	10494.169962
559.875474	10583.675648
560.232455	10610.300502
560.589381	10562.656557
560.946251	10567.894316
561.303065	10669.261838
561.659825	10600.346744
562.016528	10532.618842
562.373177	10413.748434
562.729770	10533.800993
563.086307	10446.062230
563.442789	10528.785044
563.799216	10414.784391
564.155587	10467.167021
564.511904	10413.004864
564.868164	10413.075440
565.224370	10428.458521
565.580520	10350.232416
565.936615	10355.026554
566.292654	10227.568540
566.648638	10355.949085
567.004567	10312.398557
567.360441	10297.201998
567.716260	10210.393329
568.072023	10304.864552
568.427732	10253.124670
568.783385	10169.295323
569.138982	10233.249921
569.494525	10248.219627
569.850013	10132.459611
570.205445	10214.408608
570.560823	10106.875756
570.916145	10025.604794
571.271412	10093.970402
571.626625	10038.878152
571.981782	10020.611531
572.336884	9994.405093
572.691931	9999.632769
573.046923	9943.265107
573.401860	9896.359692
573.756743	9837.020270
574.111570	9881.090037
574.466342	9865.916163
574.821059	9888.374504
575.175722	9784.405747
575.530330	9797.812696
575.884882	9780.849213
576.239380	9715.294048
576.593823	9696.485503
576.948211	9707.553357
577.302544	9587.200850
577.656823	9603.241801
578.011047	9605.260783
578.365216	9577.330270
578.719330	9498.514351
579.073389	9512.495991
579.427394	9462.828023
579.781344	9440.233571
580.135239	9388.899501
580.489080	9399.064988
580.842866	9300.268455
581.196597	9306.751379
581.550273	9339.599537
581.903895	9312.531062
582.257463	9378.008088
582.610975	9259.631714
582.964434	9284.671125
583.317837	9210.417449
583.671186	9185.998100
584.024481	9182.776803
584.377721	9105.352242
584.730906	9081.293335
585.084037	9108.374413
585.437113	9045.354949
585.790135	9067.309174
586.143103	8966.332342
586.496016	8947.803581
586.848874	8996.309563
587.201679	8990.759253
587.554428	8877.048466
587.907124	8925.693080
588.259765	8889.936176
588.612352	8891.221670
588.964884	8773.757744
589.317362	8788.041854
589.669786	8788.482955
590.022155	8831.279830
590.374470	8850.219445
590.726731	8789.486144
591.078937	8640.096591
591.431090	8747.100123
591.783188	8626.107389
592.135232	8619.024568
592.487222	8618.104558
592.839157	8664.836054
593.191038	8603.386909
593.542866	8552.614928
593.894639	8444.590563
594.246358	8502.596600
594.598022	8514.745780
594.949633	8414.812467
595.301190	8392.727172
595.652692	8419.755318
596.004141	8529.405456
596.355535	8306.402454
596.706876	8287.717417
597.058162	8221.867345
597.409395	8297.371227
597.760573	8353.592695
598.111698	8273.481198
598.462768	8248.038495
598.813785	8217.693269
599.164748	8190.133281
599.515657	8182.034668
599.866511	8091.213240
600.217312	8212.415181
600.568060	8076.485509
600.918753	8181.969133
601.269392	8145.955130
601.619978	8053.956592
601.970510	8125.036862
602.320988	8118.112837
602.671412	8170.349273
603.021783	8112.680994
603.372100	8083.424657
603.722363	8089.743744
604.072572	8063.431441
604.422728	8074.859737
604.772830	8004.432297
605.122878	8011.484871
605.472872	8009.145776
605.822813	8033.071092
606.172701	7982.767938
606.522534	8061.258704
606.872314	8049.732106
607.222041	8024.654886
607.571714	8077.211435
607.921333	8034.812811
608.270899	8043.440746
608.620411	8133.286710
608.969870	8041.020992
609.319276	8032.448510
609.668627	8046.646919
610.017926	8085.395748
610.367171	8129.347048
610.716362	8104.501722
611.065500	8097.302954
611.414585	8125.455277
611.763616	8108.698482
612.112594	8092.211388
612.461518	8108.217052
612.810389	8169.313316
613.159207	8114.067311
613.507971	8060.366420
613.856682	8175.307248
614.205340	8131.807131
614.553945	8210.194553
614.902496	8111.493802
615.250994	8158.857963
615.599439	8146.633165
615.947830	8156.660020
616.296169	8126.392932
616.644454	8145.957650
616.992686	8142.262484
617.340864	8194.418262
617.688990	8107.130683
618.037063	8193.551184
618.385082	8141.097978
618.733048	8228.821617
619.080961	8164.985485
619.428821	8187.355606
619.776628	8182.160697
620.124382	8138.809294
620.472083	8121.424875
620.819731	8150.600553
621.167326	8046.316724
621.514868	8051.771252
621.862357	7940.376876
622.209793	7959.407232
622.557176	7888.889051
622.904506	7861.497942
623.251783	7798.773385
623.599007	7755.081704
623.946179	7758.391222
624.293297	7714.548307
624.640363	7632.674927
624.987376	7615.666074
625.334336	7562.618012
625.681243	7509.302769
626.028097	7501.297417
626.374899	7476.557954
626.721647	7470.256512
627.068343	7403.695637
627.414987	7373.710854
627.761577	7327.743093
628.108115	7364.886314
628.454600	7264.748834
628.801032	7313.965619
629.147412	7267.796212
629.493739	7260.292454
629.840014	7193.368617
630.186236	7253.466732
630.532405	7136.595142
630.878521	7188.057761
631.224585	7141.878271
631.570597	7074.896460
631.916556	7102.700944
632.262462	7099.898062
632.608316	7062.580921
632.954117	7035.404061
633.299866	7024.268152
633.645562	7018.934611
633.991206	6938.934020
634.336797	6882.483179
634.682336	6837.629513
635.027823	6807.622045
635.373257	6800.309851
635.718639	6733.567495
636.063968	6745.237766
636.409245	6642.874617
636.754470	6633.556044
637.099642	6596.879129
637.444762	6537.779162
637.789829	6547.720317
638.134845	6490.457851
638.479808	6474.699204
638.824719	6482.684391
639.169577	6409.832157
639.514383	6427.219096
639.859137	6356.418611
640.203839	6371.373194
640.548489	6358.500607
640.893086	6331.384241
641.237632	6300.333254
641.582125	6322.169012
641.926566	6294.573736
642.270955	6309.503113
