Dividing Wavelength (nm)	Counts (n)	Blue Motor Position (mm): 1.100000	Red Motor Position (mm): 0.000000	
326.493990	2143.654891
326.888308	2143.654891
327.282561	2143.654891
327.676750	2114.340582
328.070874	2110.209356
328.464933	2114.073400
328.858929	2119.737137
329.252859	2129.053189
329.646726	2140.327730
330.040528	2155.476397
330.434265	2170.519200
330.827938	2187.812878
331.221547	2208.927751
331.615091	2225.044320
332.008571	2242.653070
332.401986	2264.471184
332.795338	2282.362239
333.188625	2301.072482
333.581847	2321.100986
333.975006	2343.413133
334.368100	2360.686647
334.761129	2377.236755
335.154095	2394.706873
335.546996	2410.586508
335.939833	2423.481779
336.332606	2437.851588
336.725315	2449.491613
337.117960	2462.767491
337.510540	2471.382823
337.903056	2481.845738
338.295508	2489.170535
338.687896	2497.712770
339.080220	2506.519666
339.472480	2512.014523
339.864676	2516.700276
340.256807	2521.121368
340.648875	2522.721934
341.040879	2525.613036
341.432818	2527.785773
341.824694	2528.690660
342.216506	2529.552698
342.608253	2527.233767
342.999937	2529.230064
343.391557	2530.782739
343.783113	2528.678057
344.174605	2527.939528
344.566033	2524.183869
344.957397	2525.212264
345.348697	2523.412572
345.739934	2521.050792
346.131106	2519.445184
346.522215	2516.271778
346.913260	2513.083248
347.304241	2514.078876
347.695159	2511.918741
348.086012	2513.572240
348.476802	2507.124604
348.867528	2505.607217
349.258191	2504.974552
349.648789	2505.745848
350.039324	2501.692761
350.429796	2502.847185
350.820203	2496.795280
351.210548	2499.487256
351.600828	2498.693274
351.991045	2498.632780
352.381198	2496.417193
352.771288	2497.906854
353.161314	2493.999960
353.551276	2496.407111
353.941175	2497.261587
354.331010	2496.759992
354.720782	2493.253869
355.110490	2496.205465
355.500135	2496.296206
355.889717	2494.385608
356.279235	2495.489621
356.668689	2498.264776
357.058080	2497.637152
357.447408	2498.194200
357.836672	2492.722027
358.225873	2494.647748
358.615010	2494.783859
359.004084	2497.201093
359.393095	2498.574807
359.782043	2501.044973
360.170927	2499.706546
360.559748	2498.695795
360.948505	2500.099756
361.337199	2502.700992
361.725830	2504.374655
362.114398	2502.680827
362.502903	2503.593276
362.891344	2502.269973
363.279722	2504.230982
363.668037	2503.772237
364.056289	2504.041938
364.444478	2506.988493
364.832603	2502.030518
365.220665	2505.839110
365.608665	2505.382885
365.996601	2506.897752
366.384474	2506.227279
366.772284	2506.980931
367.160031	2508.515963
367.547715	2509.993021
367.935336	2510.378669
368.322893	2510.660973
368.710388	2509.577125
369.097820	2510.928155
369.485189	2507.517814
369.872495	2511.442352
370.259738	2508.329440
370.646918	2509.365397
371.034035	2506.693585
371.421090	2514.257837
371.808081	2508.742814
372.195010	2512.004441
372.581875	2509.690551
372.968678	2510.378669
373.355418	2513.335306
373.742096	2511.510408
374.128710	2510.693741
374.515262	2512.811026
374.901751	2511.568381
375.288177	2511.255830
375.674540	2512.737929
376.060841	2512.858917
376.447079	2514.830008
376.833254	2516.652385
377.219367	2510.608041
377.605417	2512.889163
377.991404	2510.860099
378.377329	2512.359842
378.763191	2510.769358
379.148991	2517.489216
379.534727	2513.312620
379.920402	2516.231448
380.306013	2519.228414
380.691563	2514.620800
381.077049	2516.806140
381.462474	2518.215143
381.847835	2518.600791
382.233134	2515.923938
382.618371	2517.312776
383.003545	2518.631038
383.388657	2516.269257
383.773706	2516.697755
384.158693	2518.376459
384.543618	2519.291429
384.928480	2516.412930
385.313280	2517.317817
385.698017	2520.639937
386.082692	2518.585667
386.467305	2519.825791
386.851856	2519.283867
387.236344	2518.996521
387.620770	2520.471059
388.005133	2520.385359
388.389435	2519.677077
388.773674	2521.196985
389.157851	2523.069774
389.541965	2517.985770
389.926018	2519.977026
390.310008	2520.040040
390.693936	2523.253776
391.077802	2521.055833
391.461606	2523.641945
391.845348	2521.759074
392.229027	2523.778056
392.612645	2522.590864
392.996200	2523.498272
393.379694	2521.391069
393.763125	2523.445340
394.146494	2525.484486
394.529801	2527.236287
394.913047	2521.512057
395.296230	2527.790814
395.679351	2523.422654
396.062410	2526.591020
396.445408	2524.945083
396.828343	2524.287212
397.211217	2520.748322
397.594028	2523.256296
397.976778	2519.273785
398.359466	2522.916018
398.742092	2521.277643
399.124656	2525.824764
399.507158	2524.403159
399.889598	2524.798889
400.271977	2528.347862
400.654294	2524.952645
401.036549	2527.022038
401.418742	2527.019518
401.800874	2524.002387
402.182944	2528.025228
402.564952	2526.066740
402.946898	2527.672347
403.328783	2527.274096
403.710606	2526.165042
404.092367	2527.279137
404.474067	2528.887265
404.855705	2525.842408
405.237282	2530.197965
405.618797	2528.980527
406.000250	2526.933818
406.381642	2530.520599
406.762972	2527.553880
407.144240	2529.391381
407.525447	2530.787780
407.906593	2528.047913
408.287677	2530.167718
408.668700	2532.365661
409.049661	2532.796680
409.430560	2529.550177
409.811399	2532.385826
410.192176	2532.355579
410.572891	2529.474560
410.953545	2529.640918
411.334138	2529.162008
411.714669	2529.822399
412.095139	2530.974303
412.475547	2531.969931
412.855894	2530.155115
413.236180	2531.319622
413.616405	2533.567977
413.996568	2533.333563
414.376670	2530.697039
414.756711	2532.156453
415.136691	2534.732483
415.516609	2531.095291
415.896466	2533.986392
416.276262	2534.878677
416.655997	2528.204189
417.035670	2529.015815
417.415283	2529.817358
417.794834	2531.458254
418.174324	2533.618388
418.553753	2533.182328
418.933121	2530.487832
419.312428	2533.257946
419.691674	2532.612678
420.070859	2534.414890
420.449983	2534.976979
420.829045	2536.053265
421.208047	2533.759540
421.586988	2533.545291
421.965867	2536.678368
422.344686	2534.976979
422.723444	2533.691485
423.102141	2536.723739
423.480777	2533.081505
423.859352	2534.011598
424.237866	2536.068389
424.616319	2535.120652
424.994712	2537.069058
425.373044	2537.681558
425.751314	2536.391023
426.129524	2533.661238
426.507673	2535.629808
426.885762	2535.642411
427.263789	2536.086033
427.641756	2536.721218
428.019662	2537.474871
428.397508	2536.668286
428.775292	2535.100487
429.153016	2537.547967
429.530679	2536.915303
429.908282	2539.178781
430.285824	2538.054603
430.663305	2538.536034
431.040726	2537.001002
431.418086	2536.653163
431.795385	2539.834131
432.172624	2536.741383
432.549802	2541.250695
432.926920	2540.582742
433.303977	2540.456713
433.680974	2538.029398
434.057910	2538.135262
434.434786	2537.323636
434.811601	2539.002340
435.188355	2542.321940
435.565050	2540.560057
435.941683	2537.255581
436.318257	2537.200128
436.694770	2535.516383
437.071222	2538.581404
437.447614	2536.156609
437.823946	2536.421270
438.200218	2540.081147
438.576429	2540.507125
438.952580	2539.604758
439.328670	2541.326312
439.704700	2538.326826
440.080670	2539.912269
440.456580	2541.974101
440.832429	2540.282793
441.208218	2540.492001
441.583947	2542.450490
441.959616	2543.120963
442.335224	2539.982845
442.710773	2541.827907
443.086261	2540.610468
443.461689	2540.229861
443.837057	2541.689275
444.212365	2541.046528
444.587612	2541.442259
444.962800	2538.475540
445.337927	2541.371683
445.712995	2542.359749
446.088002	2539.826569
446.462949	2543.289842
446.837837	2543.509132
447.212664	2542.150541
447.587431	2541.996786
447.962139	2541.389327
448.336786	2546.579195
448.711374	2541.792619
449.085901	2542.692465
449.460369	2541.563247
449.834776	2541.953936
450.209124	2542.873947
450.583412	2543.388144
450.957640	2543.279759
451.331808	2543.559543
451.705917	2543.831766
452.079965	2542.079965
452.453954	2543.718340
452.827883	2541.994265
453.201752	2543.279759
453.575562	2542.689944
453.949311	2543.912424
454.323001	2545.979297
454.696632	2544.293031
455.070202	2543.917465
455.443713	2543.554502
455.817164	2538.173071
456.190556	2537.961342
456.563888	2542.609286
456.937160	2538.475540
457.310373	2543.960315
457.683526	2543.574667
458.056619	2545.888557
458.429653	2544.915614
458.802628	2547.773948
459.175542	2544.839997
459.548398	2546.392672
459.921194	2545.071890
460.293930	2542.379913
460.666607	2544.847558
461.039224	2545.492826
461.411782	2544.774462
461.784280	2545.944009
462.156719	2546.919472
462.529099	2546.808567
462.901419	2543.292362
463.273680	2543.887218
463.645882	2545.460058
464.018024	2546.241437
464.390106	2546.274205
464.762130	2545.744884
465.134094	2544.845038
465.505999	2547.375697
465.877845	2547.589946
466.249631	2548.315872
466.621358	2546.163299
466.993026	2548.651109
467.364634	2548.484751
467.736184	2546.236396
468.107674	2542.379913
468.479105	2547.375697
468.850477	2549.419885
469.221790	2550.034906
469.593043	2547.879812
469.964238	2547.025337
470.335373	2546.306972
470.706449	2546.274205
471.077467	2543.700696
471.448425	2545.633978
471.819324	2546.188505
472.190164	2547.925183
472.560945	2544.666077
472.931667	2549.616490
473.302330	2545.591128
473.672934	2548.134391
474.043479	2548.333516
474.413965	2547.141283
474.784393	2541.606096
475.154761	2543.622558
475.525070	2542.034594
475.895321	2545.770089
476.265513	2543.110881
476.635645	2545.626417
477.005719	2545.502908
477.375734	2548.436860
477.745691	2544.214893
478.115588	2545.737322
478.485427	2543.975439
478.855207	2549.132539
479.224928	2547.675646
479.594591	2548.699000
479.964194	2545.374359
480.333739	2545.298742
480.703226	2548.888043
481.072653	2546.115408
481.442022	2547.748742
481.811333	2548.046170
482.180584	2549.979453
482.549777	2548.220090
482.918912	2549.205636
483.287988	2550.115564
483.657005	2550.889381
484.025964	2549.024154
484.394864	2547.131201
484.763706	2551.229659
485.132489	2548.867878
485.501213	2548.704041
485.869879	2549.205636
486.238487	2547.993238
486.607036	2549.069525
486.975527	2550.337375
487.343959	2548.588094
487.712333	2546.518701
488.080648	2549.248486
488.448905	2548.562889
488.817104	2549.339226
489.185244	2548.005841
489.553326	2547.244627
489.921350	2546.029709
490.289315	2548.028526
490.657222	2549.868548
491.025070	2549.664381
491.392861	2550.662529
491.760593	2551.239741
492.128267	2548.756973
492.495883	2548.298228
492.863440	2548.457024
493.230939	2549.855945
493.598380	2550.435677
493.965763	2544.943340
494.333088	2546.526262
494.700354	2547.297559
495.067563	2548.895605
495.434713	2545.868392
495.801805	2549.855945
496.168839	2549.336706
496.535815	2550.576830
496.902733	2552.016079
497.269593	2550.201264
497.636395	2549.248486
498.003139	2548.946016
498.369825	2547.347971
498.736453	2551.486758
499.103023	2550.844011
499.469535	2548.603218
499.835989	2551.247303
500.202385	2548.041129
500.568723	2550.657488
500.935003	2548.998948
501.301226	2550.662529
501.667390	2550.702858
502.033497	2550.682694
502.399546	2549.787889
502.765537	2550.039947
503.131470	2552.043805
503.497345	2553.830894
503.863163	2552.540359
504.228923	2550.191181
504.594625	2552.502550
504.960269	2550.649926
505.325856	2552.883157
505.691385	2551.557334
506.056856	2552.280740
506.422270	2553.057077
506.787625	2551.766542
507.152924	2547.721016
507.518164	2549.553475
507.883347	2550.765873
508.248472	2552.321069
508.613540	2553.604043
508.978550	2552.174875
509.343503	2552.260575
509.708398	2553.112530
510.073236	2552.406768
510.438016	2550.685214
510.802738	2554.365257
511.167403	2551.333003
511.532010	2551.282591
511.896561	2551.292673
512.261053	2552.842828
512.625488	2547.363094
512.989866	2549.694628
513.354186	2549.876109
513.718449	2546.571633
514.082655	2551.602704
514.446803	2550.397869
514.810894	2554.571944
515.174927	2552.051367
515.538904	2551.524567
515.902822	2547.695810
516.266684	2551.310317
516.630488	2549.475337
516.994235	2551.637993
517.357925	2556.384239
517.721558	2551.073383
518.085133	2551.801830
518.448651	2550.861655
518.812112	2553.150339
519.175516	2552.668908
519.538863	2552.318548
519.902152	2551.290153
520.265385	2549.868547
520.628560	2551.471634
520.991678	2550.753270
521.354739	2550.211346
521.717743	2552.678991
522.080690	2551.214536
522.443580	2552.167314
522.806413	2552.830225
523.169189	2548.686397
523.531908	2552.076573
523.894569	2553.223435
524.257174	2552.472303
524.619722	2551.622869
524.982213	2553.903991
525.344647	2553.664536
525.707025	2553.349464
526.069345	2553.230997
526.431608	2553.392314
526.793815	2551.958106
527.155964	2554.312325
527.518057	2549.306459
527.880093	2548.827549
528.242072	2553.357026
528.603995	2553.863662
528.965860	2555.333158
529.327669	2553.278888
529.689421	2551.466593
530.051117	2554.188816
530.412755	2554.771070
530.774337	2551.438867
531.135862	2551.723692
531.497331	2550.531459
531.858743	2549.739998
532.220098	2552.648744
532.581396	2549.114895
532.942638	2551.761501
533.303824	2551.612787
533.664953	2553.563713
534.026025	2551.834597
534.387040	2549.815615
534.747999	2552.598332
535.108902	2557.586554
535.469748	2552.978939
535.830537	2552.467262
536.191270	2552.056408
536.551947	2553.470452
536.912567	2553.886347
537.273131	2553.200750
537.633638	2553.568754
537.994089	2551.499361
538.354483	2553.631769
538.714821	2553.583878
539.075103	2552.321069
539.435328	2555.214691
539.795497	2552.573127
540.155609	2556.845504
540.515665	2551.751418
540.875665	2551.837118
541.235609	2552.666388
541.595496	2553.165462
541.955328	2551.995914
542.315102	2553.064639
542.674821	2550.947354
543.034483	2557.281564
543.394090	2552.615976
543.753640	2556.318704
544.113134	2554.458518
544.472571	2553.609084
544.831953	2553.467931
545.191278	2555.295350
545.550548	2554.400545
545.909761	2553.679660
546.268918	2553.941800
546.628019	2553.984650
546.987064	2552.673950
547.346053	2552.381563
547.704986	2553.266285
548.063863	2555.287788
548.422684	2554.786193
548.781449	2551.262427
549.140158	2553.561193
549.498811	2555.575134
549.857408	2553.861141
550.215949	2550.909546
550.574434	2550.163455
550.932864	2549.339226
551.291237	2547.143804
551.649555	2554.869372
552.007817	2553.727551
552.366022	2552.492468
552.724173	2551.269988
553.082267	2553.470452
553.440305	2555.239897
553.798288	2554.720658
554.156215	2551.945503
554.514086	2552.842828
554.871902	2553.357026
555.229661	2550.831408
555.587365	2554.284598
555.945014	2551.587581
556.302606	2553.173024
556.660143	2554.521532
557.017625	2554.748384
557.375050	2554.592109
557.732421	2553.014227
558.089735	2554.876934
558.446994	2553.861141
558.804197	2556.046482
559.161345	2555.975905
559.518437	2555.091183
559.875474	2553.533466
560.232455	2552.764690
560.589381	2552.421892
560.946251	2555.244938
561.303065	2551.277550
561.659825	2553.735112
562.016528	2554.728220
562.373177	2554.768549
562.729770	2553.367108
563.086307	2555.285267
563.442789	2552.774773
563.799216	2555.496996
564.155587	2554.733261
564.511904	2556.570762
564.868164	2551.937941
565.224370	2554.576985
565.580520	2555.214691
565.936615	2551.204453
566.292654	2555.154197
566.648638	2553.745195
567.004567	2555.491955
567.360441	2555.466749
567.716260	2554.798796
568.072023	2552.356357
568.427732	2548.895605
568.783385	2552.132026
569.138982	2551.983312
569.494525	2553.004145
569.850013	2549.813095
570.205445	2555.045813
570.560823	2555.194527
570.916145	2555.076059
571.271412	2554.582026
571.626625	2556.149825
571.981782	2553.634289
572.336884	2552.825184
572.691931	2552.331151
573.046923	2552.845349
573.401860	2553.041954
573.756743	2551.834598
574.111570	2556.205278
574.466342	2554.264434
574.821059	2556.159907
575.175722	2553.566234
575.530330	2552.845349
575.884882	2555.859959
576.239380	2552.565565
576.593823	2555.068498
576.948211	2550.607077
577.302544	2553.430123
577.656823	2554.050185
578.011047	2553.321738
578.365216	2552.842828
578.719330	2558.279713
579.073389	2554.004814
579.427394	2554.476162
579.781344	2555.270144
580.135239	2555.202088
580.489080	2555.635628
580.842866	2555.035730
581.196597	2558.239383
581.550273	2554.410627
581.903895	2555.030689
582.257463	2555.302911
582.610975	2555.325597
582.964434	2553.377191
583.317837	2553.931717
583.671186	2554.133364
584.024481	2555.076059
584.377721	2555.411296
584.730906	2555.718807
585.084037	2556.880792
585.437113	2554.569423
585.790135	2554.733261
586.143103	2554.289639
586.496016	2555.723848
586.848874	2550.039947
587.201679	2552.719320
587.554428	2550.400389
587.907124	2550.831408
588.259765	2550.743188
588.612352	2553.664536
588.964884	2554.627397
589.317362	2555.713765
589.669786	2553.319217
590.022155	2555.635627
590.374470	2555.408776
590.726731	2553.843497
591.078937	2554.342572
591.431090	2553.513302
591.783188	2555.244938
592.135232	2552.893240
592.487222	2555.065977
592.839157	2555.859959
593.191038	2554.806358
593.542866	2553.276367
593.894639	2553.349464
594.246358	2555.597819
594.598022	2553.041954
594.949633	2551.985832
595.301190	2552.941131
595.652692	2555.426420
596.004141	2552.774773
596.355535	2554.501368
596.706876	2555.658313
597.058162	2556.253169
597.409395	2554.299722
597.760573	2554.140925
598.111698	2555.413817
598.462768	2555.512119
598.813785	2557.203426
599.164748	2556.172510
599.515657	2557.397511
599.866511	2556.270813
600.217312	2551.499361
600.568060	2552.492468
600.918753	2554.481203
601.269392	2554.332489
601.619978	2555.255020
601.970510	2554.715617
602.320988	2553.800648
602.671412	2554.869372
603.021783	2556.212840
603.372100	2555.673436
603.722363	2554.405586
604.072572	2556.825340
604.422728	2554.357695
604.772830	2552.840308
605.122878	2549.024154
605.472872	2550.773435
605.822813	2550.024823
606.172701	2553.795606
606.522534	2553.432643
606.872314	2553.346944
607.222041	2553.591440
607.571714	2555.134033
607.921333	2554.448436
608.270899	2555.996070
608.620411	2556.081770
608.969870	2556.459856
609.319276	2555.023127
609.668627	2557.405073
610.017926	2561.019580
610.367171	2560.444888
610.716362	2563.310784
611.065500	2559.749209
611.414585	2558.990515
611.763616	2559.149312
612.112594	2558.471277
612.461518	2556.815258
612.810389	2555.822150
613.159207	2555.325597
613.507971	2554.884496
613.856682	2552.847869
614.205340	2554.884496
614.553945	2559.298026
614.902496	2552.868034
615.250994	2557.379867
615.599439	2554.955072
615.947830	2554.609753
616.296169	2555.063457
616.644454	2553.788045
616.992686	2555.643189
617.340864	2553.891388
617.688990	2554.622356
618.037063	2555.000442
618.385082	2553.548590
618.733048	2555.673436
619.080961	2552.893240
619.428821	2555.716286
619.776628	2553.891388
620.124382	2556.623694
620.472083	2557.024465
620.819731	2556.081770
621.167326	2553.601522
621.514868	2555.991029
621.862357	2555.328117
622.209793	2554.496327
622.557176	2556.212840
622.904506	2550.864175
623.251783	2552.837787
623.599007	2552.237890
623.946179	2552.323589
624.293297	2549.828218
624.640363	2556.197716
624.987376	2554.007335
625.334336	2556.230484
625.681243	2555.222253
626.028097	2553.546069
626.374899	2555.827191
626.721647	2555.567572
627.068343	2552.875596
627.414987	2553.518343
627.761577	2553.984650
628.108115	2554.627397
628.454600	2555.837274
628.801032	2551.360729
629.147412	2553.727551
629.493739	2554.274516
629.840014	2555.857438
630.186236	2553.409958
630.532405	2555.842315
630.878521	2554.992880
631.224585	2555.509599
631.570597	2551.133877
631.916556	2553.470452
632.262462	2554.556821
632.608316	2556.701832
632.954117	2551.433826
633.299866	2553.568754
633.645562	2555.660833
633.991206	2556.480021
634.336797	2554.914743
634.682336	2552.870555
635.027823	2553.959444
635.373257	2552.865513
635.718639	2556.558159
636.063968	2555.149156
636.409245	2554.703014
636.754470	2553.704866
637.099642	2552.981460
637.444762	2553.818292
637.789829	2554.453477
638.134845	2554.100596
638.479808	2551.743857
638.824719	2556.326266
639.169577	2552.401727
639.514383	2551.781665
639.859137	2555.940617
640.203839	2554.329969
640.548489	2553.722510
640.893086	2553.354505
641.237632	2550.846531
641.582125	2553.339382
641.926566	2548.570450
642.270955	2550.508774
642.615292	2552.628579
642.959576	2554.934907
643.303809	2552.459701
643.647990	2555.723848
643.992118	2554.612273
644.336195	2553.737633
