Dividing Wavelength (nm)	Counts (n)	Blue Motor Position (mm): 48.300000	Red Motor Position (mm): 0.000000	
326.493990	2130.237860
326.888308	2130.237860
327.282561	2130.237860
327.676750	2097.971955
328.070874	2093.719742
328.464933	2096.988930
328.858929	2105.405136
329.252859	2115.560541
329.646726	2125.698301
330.040528	2137.545013
330.434265	2157.767601
330.827938	2174.811743
331.221547	2192.115503
331.615091	2211.745756
332.008571	2230.576986
332.401986	2252.236304
332.795338	2271.130548
333.188625	2288.484721
333.581847	2308.016671
333.975006	2323.203147
334.368100	2343.627382
334.761129	2361.926770
335.154095	2378.098792
335.546996	2403.861609
335.939833	2424.343817
336.332606	2438.106167
336.725315	2453.000256
337.117960	2462.540639
337.510540	2468.721094
337.903056	2483.511839
338.295508	2487.738847
338.687896	2494.879641
339.080220	2505.496311
339.472480	2513.209277
339.864676	2519.362005
340.256807	2521.305370
340.648875	2521.000380
341.040879	2528.703263
341.432818	2529.197296
341.824694	2529.645959
342.216506	2533.633512
342.608253	2533.121834
342.999937	2529.416586
343.391557	2530.376926
343.783113	2530.510517
344.174605	2526.104548
344.566033	2526.926256
344.957397	2524.032634
345.348697	2522.948786
345.739934	2526.202851
346.131106	2520.314783
346.522215	2519.999711
346.913260	2517.196829
347.304241	2515.475275
347.695159	2512.732888
348.086012	2511.303721
348.476802	2511.137362
348.867528	2508.750376
349.258191	2506.691065
349.648789	2508.226096
350.039324	2503.731908
350.429796	2505.624861
350.820203	2504.288955
351.210548	2503.671414
351.600828	2500.631598
351.991045	2499.792246
352.381198	2499.686382
352.771288	2499.913233
353.161314	2501.100425
353.551276	2497.579179
353.941175	2495.754282
354.331010	2499.104128
354.720782	2497.838799
355.110490	2501.879283
355.500135	2499.517503
355.889717	2500.654283
356.279235	2500.258553
356.668689	2499.998933
357.058080	2500.082112
357.447408	2500.553460
357.836672	2499.237719
358.225873	2499.623367
358.615010	2499.522544
359.004084	2503.227792
359.393095	2502.574963
359.782043	2504.601507
360.170927	2503.358862
360.559748	2504.127638
360.948505	2504.619151
361.337199	2507.467402
361.725830	2507.381703
362.114398	2508.447907
362.502903	2505.725684
362.891344	2507.968997
363.279722	2510.199708
363.668037	2509.970335
364.056289	2511.432270
364.444478	2512.276663
364.832603	2513.345388
365.220665	2512.614421
365.608665	2510.018226
365.996601	2514.283042
366.384474	2514.058711
366.772284	2514.330933
367.160031	2515.129956
367.547715	2514.454442
367.935336	2516.334792
368.322893	2516.153311
368.710388	2518.898219
369.097820	2521.847294
369.485189	2522.868127
369.872495	2524.962727
370.259738	2526.976668
370.646918	2532.219468
371.034035	2535.662576
371.421090	2544.161961
371.808081	2550.075235
372.195010	2558.617470
372.581875	2567.101732
372.968678	2572.243709
373.355418	2580.901891
373.742096	2595.576689
374.128710	2608.025819
374.515262	2619.086110
374.901751	2634.716208
375.288177	2647.092241
375.674540	2667.834068
376.060841	2682.319824
376.447079	2697.796166
376.833254	2721.179558
377.219367	2732.509551
377.605417	2766.890221
377.991404	2775.210645
378.377329	2800.088739
378.763191	2817.458035
379.148991	2853.000690
379.534727	2876.933568
379.920402	2911.462951
380.306013	2924.569951
380.691563	2974.419401
381.077049	2996.106445
381.462474	3017.712830
381.847835	3057.714386
382.233134	3079.174578
382.618371	3086.264961
383.003545	3155.472441
383.388657	3167.916530
383.773706	3203.897765
384.158693	3226.081363
384.543618	3253.651433
384.928480	3290.114099
385.313280	3336.739731
385.698017	3340.036645
386.082692	3398.413207
386.467305	3404.487797
386.851856	3440.191769
387.236344	3463.751602
387.620770	3497.708814
388.005133	3524.227804
388.389435	3556.037485
388.773674	3568.829413
389.157851	3612.339612
389.541965	3629.098927
389.926018	3596.664144
390.310008	3667.439423
390.693936	3684.972556
391.077802	3730.718507
391.461606	3716.782237
391.845348	3782.375210
392.229027	3779.416053
392.612645	3794.458856
392.996200	3871.243191
393.379694	3913.470416
393.763125	3977.097339
394.146494	3945.736321
394.529801	4008.171012
394.913047	4053.511149
395.296230	4017.776930
395.679351	4073.942946
396.062410	4096.839867
396.445408	4080.541816
396.828343	4115.681179
397.211217	4136.927122
397.594028	4060.203281
397.976778	4128.906646
398.359466	4152.577384
398.742092	4178.284748
399.124656	4105.155250
399.507158	4183.184750
399.889598	4207.881362
400.271977	4274.361579
400.654294	4241.399994
401.036549	4248.208073
401.418742	4221.303434
401.800874	4318.605265
402.182944	4342.341538
402.564952	4402.817740
402.946898	4395.681987
403.328783	4390.224938
403.710606	4302.965086
404.092367	4496.341227
404.474067	4459.061894
404.855705	4468.113286
405.237282	4400.092997
405.618797	4505.919419
406.000250	4540.302609
406.381642	4619.569712
406.762972	4581.428342
407.144240	4595.225980
407.525447	4596.052729
407.906593	4650.925689
408.287677	4696.434705
408.668700	4626.226555
409.049661	4673.235315
409.430560	4718.709043
409.811399	4645.594668
410.192176	4806.493176
410.572891	4742.430193
410.953545	4844.889124
411.334138	4730.147421
411.714669	4796.872134
412.095139	4687.831976
412.475547	4832.331610
412.855894	4811.982992
413.236180	4818.102953
413.616405	4775.517806
413.996568	4862.545765
414.376670	4805.444616
414.756711	4759.106330
415.136691	4792.743429
415.516609	4870.626735
415.896466	4907.507817
416.276262	4942.095173
416.655997	4920.173716
417.035670	5102.507209
417.415283	5192.481723
417.794834	5134.347137
418.174324	5091.882977
418.553753	5000.330582
418.933121	5182.500238
419.312428	5253.792236
419.691674	5188.836969
420.070859	5315.596782
420.449983	5227.147217
420.829045	5346.219271
421.208047	5252.224437
421.586988	5323.299665
421.965867	5338.949927
422.344686	5465.366942
422.723444	5319.329757
423.102141	5142.221419
423.480777	5440.496410
423.859352	5209.679619
424.237866	5468.225277
424.616319	5456.814625
424.994712	5567.699845
425.373044	5443.258962
425.751314	5587.995530
426.129524	5391.589656
426.507673	5585.641311
426.885762	5671.038457
427.263789	5597.561120
427.641756	5479.489735
428.019662	5599.635554
428.397508	5607.855156
428.775292	5552.016815
429.153016	5658.223844
429.530679	5581.747020
429.908282	5669.485782
430.285824	5535.015524
430.663305	5808.661958
431.040726	5546.330394
431.418086	5545.569179
431.795385	5652.814686
432.172624	5668.177603
432.549802	5659.191746
432.926920	5671.096431
433.303977	5682.870046
433.680974	5717.165015
434.057910	5735.885340
434.434786	5738.206791
434.811601	5713.709304
435.188355	5946.151867
435.565050	5813.776208
435.941683	5804.308921
436.318257	6018.366396
436.694770	5994.859495
437.071222	6035.617224
437.447614	5966.719775
437.823946	5879.215426
438.200218	6032.249733
438.576429	5897.769393
438.952580	6004.495661
439.328670	6038.959509
439.704700	5950.923319
440.080670	5934.093427
440.456580	6202.587801
440.832429	6087.631850
441.208218	5933.879178
441.583947	6089.585297
441.959616	6091.004382
442.335224	6022.928640
442.710773	6157.819835
443.086261	6183.864956
443.461689	5977.447350
443.837057	6129.430577
444.212365	6283.137878
444.587612	6174.748029
444.962800	6330.035732
445.337927	6310.173586
445.712995	5921.908958
446.088002	6500.320868
446.462949	6325.972562
446.837837	6258.685761
447.212664	6431.919972
447.587431	6577.057312
447.962139	7119.339272
448.336786	8043.632309
448.711374	7780.509284
449.085901	6854.726586
449.460369	6780.142715
449.834776	6716.732562
450.209124	7102.673218
450.583412	7253.925477
450.957640	7408.467089
451.331808	7159.827299
451.705917	6715.179886
452.079965	6640.230531
452.453954	6854.464446
452.827883	6726.678758
453.201752	6822.715259
453.575562	6619.554239
453.949311	6822.203582
454.323001	6717.387912
454.696632	6792.102853
455.070202	6927.636794
455.443713	7080.787048
455.817164	7184.168511
456.190556	7261.492249
456.563888	7342.964857
456.937160	7384.980354
457.310373	7042.585184
457.683526	7067.007054
458.056619	6953.195444
458.429653	6942.054494
458.802628	6879.934876
459.175542	6989.204406
459.548398	7348.946186
459.921194	7503.815473
460.293930	7510.956268
460.666607	8035.720218
461.039224	8345.040377
461.411782	8465.675189
461.784280	8492.244590
462.156719	8380.479689
462.529099	8254.433199
462.901419	7847.604522
463.273680	7739.675938
463.645882	7752.762774
464.018024	7620.213195
464.390106	7788.421375
464.762130	8173.512597
465.134094	8650.103282
465.505999	9664.058281
465.877845	10893.706610
466.249631	11541.837677
466.621358	11155.362659
466.993026	10527.733964
467.364634	10268.023800
467.736184	9904.228933
468.107674	9573.052851
468.479105	9607.040311
468.850477	9371.623467
469.221790	9141.388930
469.593043	8812.183940
469.964238	8676.584463
470.335373	8683.745422
470.706449	8743.969566
471.077467	8726.144046
471.448425	10040.367813
471.819324	11113.495876
472.190164	11128.175716
472.560945	9876.691630
472.931667	9094.090304
473.302330	8958.959654
473.672934	8605.078216
474.043479	8957.482596
474.413965	8902.886900
474.784393	8784.452552
475.154761	8939.059700
475.525070	9033.364565
475.895321	8855.568110
476.265513	9036.059061
476.635645	9202.749854
477.005719	9204.186583
477.375734	9319.656733
477.745691	9554.224142
478.115588	9684.797588
478.485427	9934.412841
478.855207	10466.834305
479.224928	11286.599017
479.594591	11915.561097
479.964194	11721.532127
480.333739	11658.890749
480.703226	11580.367216
481.072653	11671.097903
481.442022	11906.320662
481.811333	12093.201276
482.180584	11896.268601
482.549777	11609.288316
482.918912	11436.734661
483.287988	11452.057248
483.657005	11465.824639
484.025964	11153.028605
484.394864	11280.859663
484.763706	11250.017884
485.132489	11007.921512
485.501213	10971.978085
485.869879	11046.277131
486.238487	10890.296269
486.607036	11004.861531
486.975527	10780.981368
487.343959	10976.381533
487.712333	11022.195539
488.080648	10948.080495
488.448905	10992.228400
488.817104	10926.900087
489.185244	11201.360667
489.553326	11350.924140
489.921350	11893.667366
490.289315	12954.084160
490.657222	13301.898569
491.025070	13208.491030
491.392861	13080.760794
491.760593	12699.062269
492.128267	12346.678053
492.495883	12013.709842
492.863440	11678.054695
493.230939	11340.930052
493.598380	11277.232553
493.965763	11140.231636
494.333088	11045.974662
494.700354	10964.862496
495.067563	11029.051508
495.434713	10857.503563
495.801805	10987.358645
496.168839	10911.280072
496.535815	10846.362613
496.902733	10844.305823
497.269593	10782.304671
497.636395	10876.236491
498.003139	10868.626869
498.369825	10738.383618
498.736453	10890.820549
499.103023	10822.575929
499.469535	10846.720535
499.835989	10840.280461
500.202385	10801.682867
500.568723	10651.222068
500.935003	10874.950997
501.301226	10676.626963
501.667390	10936.818557
502.033497	11037.608867
502.399546	10897.086703
502.765537	10795.681373
503.131470	10875.823116
503.497345	11050.110928
503.863163	10657.208439
504.228923	10971.471449
504.594625	11031.123422
504.960269	10786.909765
505.325856	11003.858342
505.691385	10792.308841
506.056856	10947.861205
506.422270	10974.675102
506.787625	10862.269974
507.152924	10980.152316
507.518164	10959.334871
507.883347	10880.828982
508.248472	10801.380398
508.613540	11032.431602
508.978550	10911.781667
509.343503	10889.819880
509.708398	11012.269507
510.073236	11125.161106
510.438016	11131.588577
510.802738	11084.630229
511.167403	11132.616973
511.532010	11028.728874
511.896561	11256.813359
512.261053	11338.404434
512.625488	11204.697911
512.989866	11188.001609
513.354186	11175.222284
513.718449	11076.065309
514.082655	11270.217788
514.446803	11164.603094
514.810894	11282.359407
515.174927	11150.404684
515.538904	11174.503920
515.902822	11329.290028
516.266684	11212.567152
516.630488	11162.420274
516.994235	11209.055988
517.357925	11269.602767
517.721558	11361.790347
518.085133	11372.442305
518.448651	11382.930426
518.812112	11263.646643
519.175516	11286.236054
519.538863	11409.603171
519.902152	11318.527165
520.265385	11485.883390
520.628560	11389.990562
520.991678	11366.662622
521.354739	11435.600401
521.717743	11373.006914
522.080690	11348.519510
522.443580	11486.851292
522.806413	11439.577872
523.169189	11475.022224
523.531908	11519.701971
523.894569	11350.856084
524.257174	11349.084119
524.619722	11465.151645
524.982213	11417.404356
525.344647	11469.492078
525.707025	11419.143554
526.069345	11514.340704
526.431608	11437.826071
526.793815	11544.426310
527.155964	11334.316059
527.518057	11384.074768
527.880093	11328.054946
528.242072	11397.310317
528.603995	11301.845987
528.965860	11225.855634
529.327669	11282.886207
529.689421	11224.517207
530.051117	11195.414626
530.412755	11304.890844
530.774337	11191.606034
531.135862	11173.127685
531.497331	11199.036695
531.858743	11049.163191
532.220098	11208.728313
532.581396	11085.462020
532.942638	11064.087527
533.303824	11030.926817
533.664953	11046.622450
534.026025	10955.591814
534.387040	11054.814325
534.747999	11059.197608
535.108902	11119.066351
535.469748	10874.925791
535.830537	10977.021759
536.191270	10959.372680
536.551947	10982.176339
536.912567	10981.221040
537.273131	10910.901985
537.633638	10885.366021
537.994089	10872.395132
538.354483	10824.365538
538.714821	10975.395987
539.075103	10978.846657
539.435328	10936.027096
539.795497	10770.969637
540.155609	10927.835221
540.515665	11008.622232
540.875665	10743.155071
541.235609	10817.262553
541.595496	10814.900772
541.955328	10974.299536
542.315102	10852.618685
542.674821	10804.319390
543.034483	10797.435695
543.394090	10807.976747
543.753640	10734.204502
544.113134	10952.844385
544.472571	10806.126644
544.831953	10957.376383
545.191278	10757.000600
545.550548	10784.868098
545.909761	10926.043091
546.268918	10898.319265
546.628019	10983.822276
546.987064	10842.022180
547.346053	10765.615932
547.704986	10875.203054
548.063863	10851.497028
548.422684	10847.401091
548.781449	10762.684501
549.140158	10870.603002
549.498811	10741.932591
549.857408	10606.645666
550.215949	10830.785448
550.574434	10674.391212
550.932864	10779.216965
551.291237	10841.800369
551.649555	10786.362800
552.007817	10803.056581
552.366022	10763.034861
552.724173	10754.888356
553.082267	10736.871272
553.440305	10873.673064
553.798288	10674.081181
554.156215	10825.761938
554.514086	10805.012549
554.871902	10656.827832
555.229661	10691.415188
555.587365	10670.053299
555.945014	10558.099354
556.302606	10686.754641
556.660143	10582.455689
557.017625	10738.101314
557.375050	10636.378391
557.732421	10772.875193
558.089735	10676.329535
558.446994	10686.913438
558.804197	10722.219159
559.161345	10721.309230
559.518437	10562.666639
559.875474	10655.270115
560.232455	10686.769765
560.589381	10634.992074
560.946251	10630.139963
561.303065	10742.829916
561.659825	10674.862559
562.016528	10602.983267
562.373177	10486.598148
562.729770	10604.770356
563.086307	10509.797538
563.442789	10607.588361
563.799216	10493.643161
564.155587	10533.296877
564.511904	10495.205919
564.868164	10485.446245
565.224370	10492.733233
565.580520	10418.613148
565.936615	10427.261247
566.292654	10293.050608
566.648638	10429.071021
567.004567	10379.334997
567.360441	10369.524912
567.716260	10282.237333
568.072023	10374.283761
568.427732	10320.446759
568.783385	10235.034489
569.138982	10303.153081
569.494525	10321.404578
569.850013	10196.126864
570.205445	10277.375140
570.560823	10171.878914
570.916145	10094.290515
571.271412	10163.724847
571.626625	10104.564387
571.981782	10082.703423
572.336884	10053.008506
572.691931	10057.812726
573.046923	10005.604016
573.401860	9961.115833
573.756743	9903.765147
574.111570	9944.510273
574.466342	9923.201315
574.821059	9953.138207
575.175722	9845.741466
575.530330	9859.206388
575.884882	9842.938584
576.239380	9772.395198
576.593823	9754.872147
576.948211	9770.028376
577.302544	9645.859716
577.656823	9662.072067
578.011047	9666.833436
578.365216	9642.416608
578.719330	9560.296212
579.073389	9574.605527
579.427394	9524.125933
579.781344	9501.660031
580.135239	9448.536351
580.489080	9455.732598
580.842866	9358.791210
581.196597	9363.451757
581.550273	9403.133199
581.903895	9378.512204
582.257463	9441.466133
582.610975	9313.622472
582.964434	9340.983334
583.317837	9264.781253
583.671186	9247.719467
584.024481	9237.811079
584.377721	9159.123709
584.730906	9136.405749
585.084037	9167.451695
585.437113	9103.827293
585.790135	9123.598698
586.143103	9022.309314
586.496016	8991.094490
586.848874	9053.846773
587.201679	9042.852016
587.554428	8929.937732
587.907124	8975.169485
588.259765	8941.156820
588.612352	8946.558416
588.964884	8823.571906
589.317362	8833.578597
589.669786	8832.731683
590.022155	8885.207574
590.374470	8900.807424
590.726731	8840.583280
591.078937	8694.026855
591.431090	8801.945356
591.783188	8682.016306
592.135232	8670.497270
592.487222	8667.573400
592.839157	8728.788132
593.191038	8655.978747
593.542866	8594.660672
593.894639	8501.747165
594.246358	8547.939258
594.598022	8565.084222
594.949633	8465.559242
595.301190	8438.636960
595.652692	8469.239285
596.004141	8579.524607
596.355535	8357.562603
596.706876	8341.390582
597.058162	8274.000437
597.409395	8350.754525
597.760573	8416.884381
598.111698	8317.808064
598.462768	8303.387844
598.813785	8269.231506
599.164748	8241.192608
599.515657	8222.013538
599.866511	8137.463306
600.217312	8265.995085
600.568060	8122.967468
600.918753	8230.948983
601.269392	8194.897172
601.619978	8112.514636
601.970510	8170.750045
602.320988	8167.642173
602.671412	8226.807676
603.021783	8161.854929
603.372100	8134.146227
603.722363	8139.900704
604.072572	8109.797454
604.422728	8118.052343
604.772830	8049.124647
605.122878	8055.791572
605.472872	8055.947848
605.822813	8086.751819
606.172701	8029.746451
606.522534	8102.865867
606.872314	8102.097091
607.222041	8072.127432
607.571714	8124.220195
607.921333	8083.777538
608.270899	8091.482942
608.620411	8181.432250
608.969870	8087.288702
609.319276	8077.786127
609.668627	8097.991071
610.017926	8129.916699
610.367171	8176.665839
610.716362	8151.598701
611.065500	8147.036457
611.414585	8171.783481
611.763616	8161.832244
612.112594	8139.893142
612.461518	8160.947521
612.810389	8220.050009
613.159207	8159.997264
613.507971	8105.056248
613.856682	8224.125782
614.205340	8181.959050
614.553945	8263.454343
614.902496	8158.542891
615.250994	8218.487251
615.599439	8193.659568
615.947830	8207.701703
616.296169	8187.751336
616.644454	8192.401801
616.992686	8195.192079
617.340864	8253.931604
617.688990	8154.499885
618.037063	8247.027744
618.385082	8190.680247
618.733048	8279.626365
619.080961	8218.247796
619.428821	8237.053821
619.776628	8236.620282
620.124382	8187.209412
620.472083	8172.847165
620.819731	8201.564098
621.167326	8090.749454
621.514868	8101.237574
621.862357	7990.916964
622.209793	8007.847679
622.557176	7937.601721
622.904506	7909.766990
623.251783	7844.438677
623.599007	7801.359497
623.946179	7802.466030
624.293297	7758.923064
624.640363	7676.061618
624.987376	7658.410018
625.334336	7606.675176
625.681243	7558.229688
626.028097	7543.587657
626.374899	7522.969337
626.721647	7516.103286
627.068343	7442.719209
627.414987	7419.373626
627.761577	7369.869495
628.108115	7411.174189
628.454600	7306.149310
628.801032	7360.974379
629.147412	7312.304559
629.493739	7304.246275
629.840014	7239.621203
630.186236	7297.846530
630.532405	7179.084507
630.878521	7234.514514
631.224585	7186.003491
631.570597	7108.641944
631.916556	7150.677605
632.262462	7144.081255
632.608316	7094.682989
632.954117	7078.087510
633.299866	7067.768268
633.645562	7061.905407
633.991206	6979.106975
634.336797	6927.757782
634.682336	6881.825309
635.027823	6849.259455
635.373257	6840.366860
635.718639	6773.564009
636.063968	6782.806965
636.409245	6681.532705
636.754470	6673.638258
637.099642	6632.189891
637.444762	6577.276602
637.789829	6587.149702
638.134845	6527.245671
638.479808	6516.099680
638.824719	6514.531881
639.169577	6446.050326
639.514383	6465.746114
639.859137	6389.344907
640.203839	6397.193984
640.548489	6387.179732
