Dividing Wavelength (nm)	Counts (n)	Blue Motor Position (mm): 4.600000	Red Motor Position (mm): 0.000000	
326.493990	2144.451393
326.888308	2144.451393
327.282561	2144.451393
327.676750	2111.235231
328.070874	2108.938985
328.464933	2111.023502
328.858929	2121.486417
329.252859	2131.256173
329.646726	2142.175313
330.040528	2152.391211
330.434265	2168.555671
330.827938	2187.674247
331.221547	2207.727957
331.615091	2225.288816
332.008571	2243.137021
332.401986	2262.200144
332.795338	2282.324431
333.188625	2302.967956
333.581847	2318.729123
333.975006	2339.080261
334.368100	2356.154649
334.761129	2376.064686
335.154095	2391.004146
335.546996	2410.387382
335.939833	2423.779207
336.332606	2438.083482
336.725315	2450.603187
337.117960	2461.504682
337.510540	2467.964921
337.903056	2479.683083
338.295508	2488.573158
338.687896	2499.411639
339.080220	2503.860457
339.472480	2508.253822
339.864676	2513.398320
340.256807	2521.948117
340.648875	2522.149763
341.040879	2525.797038
341.432818	2526.898530
341.824694	2528.115969
342.216506	2527.132944
342.608253	2529.149405
342.999937	2531.110414
343.391557	2529.063706
343.783113	2526.545649
344.174605	2525.779394
344.566033	2522.285874
344.957397	2522.573220
345.348697	2521.431399
345.739934	2517.862262
346.131106	2516.193640
346.522215	2516.254134
346.913260	2513.980573
347.304241	2512.334637
347.695159	2510.207270
348.086012	2507.570746
348.476802	2507.774913
348.867528	2506.149141
349.258191	2502.264932
349.648789	2503.247957
350.039324	2500.739983
350.429796	2501.891886
350.820203	2498.970538
351.210548	2499.925836
351.600828	2497.795949
351.991045	2498.663027
352.381198	2493.105155
352.771288	2495.096411
353.161314	2492.202789
353.551276	2496.238232
353.941175	2494.783859
354.331010	2497.415342
354.720782	2492.848056
355.110490	2493.919302
355.500135	2494.640187
355.889717	2495.499703
356.279235	2495.388798
356.668689	2497.410301
357.058080	2494.728407
357.447408	2494.186483
357.836672	2492.565752
358.225873	2497.256545
358.615010	2492.043992
359.004084	2496.707060
359.393095	2498.539519
359.782043	2498.272338
360.170927	2500.213182
360.559748	2499.797287
360.948505	2500.256032
361.337199	2499.336021
361.725830	2500.369458
362.114398	2502.864829
362.502903	2502.050683
362.891344	2500.190497
363.279722	2502.864829
363.668037	2504.730056
364.056289	2506.207114
364.444478	2504.304078
364.832603	2505.072854
365.220665	2504.357011
365.608665	2504.193173
365.996601	2508.762979
366.384474	2506.451610
366.772284	2508.924296
367.160031	2506.396157
367.547715	2504.800632
367.935336	2508.233658
368.322893	2509.211642
368.710388	2510.053514
369.097820	2511.112157
369.485189	2509.872033
369.872495	2509.168792
370.259738	2510.260202
370.646918	2508.410098
371.034035	2507.190139
371.421090	2509.322547
371.808081	2508.468072
372.195010	2510.381189
372.581875	2512.644668
372.968678	2511.863289
373.355418	2511.528052
373.742096	2511.684328
374.128710	2512.279184
374.515262	2510.469410
374.901751	2510.683659
375.288177	2511.349091
375.674540	2511.918741
376.060841	2512.322034
376.447079	2512.475789
376.833254	2512.952178
377.219367	2509.814060
377.605417	2511.870850
377.991404	2510.706344
378.377329	2510.522342
378.763191	2510.403875
379.148991	2511.926303
379.534727	2514.867816
379.920402	2512.097702
380.306013	2513.864627
380.691563	2512.193484
381.077049	2514.971160
381.462474	2515.528208
381.847835	2516.138187
382.233134	2517.806809
382.618371	2512.987466
383.003545	2515.223218
383.388657	2516.279339
383.773706	2516.566685
384.158693	2516.591891
384.543618	2516.453259
384.928480	2516.642303
385.313280	2516.619617
385.698017	2518.643641
386.082692	2518.000893
386.467305	2518.562982
386.851856	2519.026768
387.236344	2518.409227
387.620770	2519.024248
388.005133	2517.310255
388.389435	2519.190606
388.773674	2518.925945
389.157851	2518.517612
389.541965	2521.015503
389.926018	2520.546676
390.310008	2521.280164
390.693936	2520.488703
391.077802	2517.673218
391.461606	2522.142201
391.845348	2520.370236
392.229027	2521.806965
392.612645	2520.902078
392.996200	2521.940555
393.379694	2519.447705
393.763125	2522.439629
394.146494	2521.930473
394.529801	2522.853004
394.913047	2524.173786
395.296230	2521.524660
395.679351	2524.866945
396.062410	2523.175638
396.445408	2523.336955
396.828343	2525.441637
397.211217	2516.909484
397.594028	2522.066584
397.976778	2519.684639
398.359466	2522.963909
398.742092	2520.677746
399.124656	2526.906092
399.507158	2522.674043
399.889598	2526.313756
400.271977	2524.012469
400.654294	2526.228057
401.036549	2522.779907
401.418742	2527.949611
401.800874	2524.196472
402.182944	2526.974147
402.564952	2527.689991
402.946898	2528.806607
403.328783	2523.515916
403.710606	2524.642614
404.092367	2525.434075
404.474067	2526.142357
404.855705	2527.137985
405.237282	2529.484642
405.618797	2527.170752
406.000250	2528.017666
406.381642	2530.306350
406.762972	2527.271575
407.144240	2527.783252
407.525447	2531.271731
407.906593	2527.828623
408.287677	2529.988757
408.668700	2525.376102
409.049661	2529.151926
409.430560	2524.887110
409.811399	2527.493386
410.192176	2526.782583
410.572891	2528.017666
410.953545	2527.188396
411.334138	2528.352903
411.714669	2527.926925
412.095139	2533.187369
412.475547	2529.126720
412.855894	2529.620753
413.236180	2532.700898
413.616405	2531.554036
413.996568	2530.059333
414.376670	2530.006401
414.756711	2530.810465
415.136691	2532.716022
415.516609	2532.365661
415.896466	2531.750641
416.276262	2531.785929
416.655997	2529.870290
417.035670	2526.865762
417.415283	2530.122348
417.794834	2528.879703
418.174324	2531.354910
418.553753	2533.668800
418.933121	2532.766433
419.312428	2532.839530
419.691674	2531.493542
420.070859	2533.310878
420.449983	2531.717873
420.829045	2533.908254
421.208047	2534.112421
421.586988	2534.437576
421.965867	2534.251053
422.344686	2532.272400
422.723444	2537.099305
423.102141	2533.898172
423.480777	2534.500590
423.859352	2534.606454
424.237866	2532.965559
424.616319	2535.914634
424.994712	2536.264994
425.373044	2533.850281
425.751314	2536.643080
426.129524	2534.477905
426.507673	2534.866074
426.885762	2535.178625
427.263789	2534.944212
427.641756	2535.208872
428.019662	2533.000847
428.397508	2536.532175
428.775292	2538.868750
429.153016	2538.392361
429.530679	2537.893287
429.908282	2538.137782
430.285824	2536.259953
430.663305	2536.058307
431.040726	2539.098122
431.418086	2537.479912
431.795385	2539.198945
432.172624	2535.511341
432.549802	2537.817669
432.926920	2536.358255
433.303977	2540.494522
433.680974	2538.898997
434.057910	2538.425128
434.434786	2538.263811
434.811601	2537.744572
435.188355	2538.778009
435.565050	2537.875643
435.941683	2536.244829
436.318257	2537.661393
436.694770	2534.072092
437.071222	2536.627957
437.447614	2536.549819
437.823946	2533.497400
438.200218	2536.910262
438.576429	2536.859850
438.952580	2538.044521
439.328670	2534.800539
439.704700	2541.749769
440.080670	2538.835982
440.456580	2539.675334
440.832429	2539.602238
441.208218	2539.680376
441.583947	2538.929244
441.959616	2534.805580
442.335224	2539.723225
442.710773	2540.456713
443.086261	2540.741538
443.461689	2538.326826
443.837057	2541.038967
444.212365	2542.251364
444.587612	2541.273380
444.962800	2538.843544
445.337927	2540.318082
445.712995	2539.206507
446.088002	2539.254398
446.462949	2541.865716
446.837837	2541.802701
447.212664	2540.237423
447.587431	2543.269677
447.962139	2538.563760
448.336786	2543.181457
448.711374	2541.412012
449.085901	2540.948226
449.460369	2540.844882
449.834776	2539.632485
450.209124	2540.441590
450.583412	2542.236241
450.957640	2540.050900
451.331808	2540.406302
451.705917	2541.895963
452.079965	2542.039636
452.453954	2540.058462
452.827883	2541.797660
453.201752	2541.298586
453.575562	2543.945192
453.949311	2542.621889
454.323001	2541.732125
454.696632	2541.245654
455.070202	2542.964687
455.443713	2541.774975
455.817164	2541.157434
456.190556	2536.322967
456.563888	2541.714481
456.937160	2538.062165
457.310373	2544.260264
457.683526	2542.155582
458.056619	2544.487116
458.429653	2541.575849
458.802628	2546.135573
459.175542	2541.739687
459.548398	2544.477033
459.921194	2541.480067
460.293930	2541.984183
460.666607	2545.399565
461.039224	2545.235727
461.411782	2541.628782
461.784280	2547.562220
462.156719	2545.432332
462.529099	2543.690613
462.901419	2541.848072
463.273680	2545.601211
463.645882	2542.372352
464.018024	2540.673483
464.390106	2545.790254
464.762130	2543.383103
465.134094	2543.927548
465.505999	2546.788403
465.877845	2545.518032
466.249631	2545.780172
466.621358	2544.494677
466.993026	2548.663712
467.364634	2548.731767
467.736184	2543.612476
468.107674	2546.238917
468.479105	2541.807743
468.850477	2546.438042
469.221790	2542.803370
469.593043	2544.822353
469.964238	2542.021992
470.335373	2544.587939
470.706449	2545.344112
471.077467	2548.320913
471.448425	2545.311344
471.819324	2548.517518
472.190164	2547.063145
472.560945	2543.022661
472.931667	2544.968546
473.302330	2544.938299
473.672934	2546.523742
474.043479	2547.584905
474.413965	2545.472661
474.784393	2544.048535
475.154761	2544.038453
475.525070	2543.466282
475.895321	2542.359749
476.265513	2545.954092
476.635645	2545.780172
477.005719	2547.025337
477.375734	2546.707744
477.745691	2547.073228
478.115588	2548.015923
478.485427	2546.135573
478.855207	2548.144473
479.224928	2546.990049
479.594591	2543.914945
479.964194	2546.208670
480.333739	2547.302600
480.703226	2546.438042
481.072653	2545.434853
481.442022	2549.445091
481.811333	2548.104144
482.180584	2547.042981
482.549777	2546.669935
482.918912	2544.764379
483.287988	2546.385110
483.657005	2545.560882
484.025964	2547.209339
484.394864	2548.267981
484.763706	2547.829401
485.132489	2548.013403
485.501213	2548.492313
485.869879	2547.806716
486.238487	2547.247148
486.607036	2547.998279
486.975527	2549.379556
487.343959	2549.056922
487.712333	2546.566592
488.080648	2546.750594
488.448905	2547.214380
488.817104	2549.056922
489.185244	2546.864020
489.553326	2546.004503
489.921350	2549.757642
490.289315	2546.362425
490.657222	2549.818136
491.025070	2547.221942
491.392861	2548.608259
491.760593	2547.461397
492.128267	2548.706562
492.495883	2547.151366
492.863440	2547.295038
493.230939	2549.152704
493.598380	2548.986346
493.965763	2544.807229
494.333088	2547.940306
494.700354	2546.695141
495.067563	2547.829401
495.434713	2545.616334
495.801805	2547.542055
496.168839	2548.517518
496.535815	2549.021634
496.902733	2546.680018
497.269593	2551.123795
497.636395	2550.707900
498.003139	2549.230842
498.369825	2547.726057
498.736453	2547.509287
499.103023	2545.394523
499.469535	2550.528939
499.835989	2547.710934
500.202385	2550.085317
500.568723	2548.570450
500.935003	2551.640513
501.301226	2548.739329
501.667390	2548.303269
502.033497	2550.191181
502.399546	2551.385935
502.765537	2551.713610
503.131470	2549.182951
503.497345	2548.036088
503.863163	2550.657488
504.228923	2550.518856
504.594625	2549.082127
504.960269	2551.232180
505.325856	2551.821995
505.691385	2548.593136
506.056856	2550.435677
506.422270	2550.309648
506.787625	2546.954761
507.152924	2549.432488
507.518164	2551.796789
507.883347	2549.876109
508.248472	2549.364432
508.613540	2549.182951
508.978550	2549.913918
509.343503	2551.680842
509.708398	2551.519525
510.073236	2549.303938
510.438016	2549.256047
510.802738	2549.530790
511.167403	2551.902653
511.532010	2551.632951
511.896561	2550.155893
512.261053	2551.459032
512.625488	2547.877292
512.989866	2544.779503
513.354186	2547.675646
513.718449	2545.974256
514.082655	2549.619010
514.446803	2550.087838
514.810894	2551.695966
515.174927	2548.958619
515.538904	2552.381563
515.902822	2548.875440
516.266684	2548.976263
516.630488	2550.796120
516.994235	2551.229659
517.357925	2550.110523
517.721558	2548.336037
518.085133	2549.331665
518.448651	2548.152035
518.812112	2551.058260
519.175516	2548.285625
519.538863	2550.488609
519.902152	2551.615307
520.265385	2552.063970
520.628560	2551.403579
520.991678	2550.050029
521.354739	2550.181099
521.717743	2554.082952
522.080690	2552.074052
522.443580	2553.331820
522.806413	2553.460370
523.169189	2553.621687
523.531908	2550.349978
523.894569	2550.307128
524.257174	2550.216387
524.619722	2551.264947
524.982213	2552.063970
525.344647	2552.255534
525.707025	2551.383414
526.069345	2550.453321
526.431608	2554.299722
526.793815	2549.573640
527.155964	2551.017931
527.518057	2550.851573
527.880093	2549.460214
528.242072	2549.984494
528.603995	2551.189330
528.965860	2552.535318
529.327669	2550.150852
529.689421	2549.994576
530.051117	2552.762170
530.412755	2550.254196
530.774337	2551.275029
531.135862	2549.674463
531.497331	2549.006510
531.858743	2546.687579
532.220098	2549.243444
532.581396	2548.048691
532.942638	2551.370811
533.303824	2548.532642
533.664953	2551.572458
534.026025	2548.623382
534.387040	2552.817622
534.747999	2552.381563
535.108902	2551.942982
535.469748	2550.289484
535.830537	2550.992725
536.191270	2551.615307
536.551947	2550.405430
536.912567	2550.486089
537.273131	2553.178065
537.633638	2550.677653
537.994089	2549.528270
538.354483	2552.132026
538.714821	2550.349978
539.075103	2553.432643
539.435328	2552.374001
539.795497	2554.040102
540.155609	2552.535318
540.515665	2552.189999
540.875665	2552.260575
541.235609	2551.973229
541.595496	2554.498847
541.955328	2551.922818
542.315102	2548.525080
542.674821	2552.232849
543.034483	2553.563713
543.394090	2555.121430
543.753640	2552.479865
544.113134	2552.129505
544.472571	2550.985163
544.831953	2554.274516
545.191278	2550.702858
545.550548	2552.830225
545.909761	2555.441543
546.268918	2553.770401
546.628019	2551.585060
546.987064	2551.552293
547.346053	2551.650595
547.704986	2551.201933
548.063863	2553.747715
548.422684	2553.150339
548.781449	2553.122612
549.140158	2552.696635
549.498811	2554.161090
549.857408	2551.524567
550.215949	2549.377035
550.574434	2549.324103
550.932864	2549.808054
551.291237	2550.448280
551.649555	2553.052036
552.007817	2554.168652
552.366022	2554.783673
552.724173	2552.099258
553.082267	2551.433826
553.440305	2553.052036
553.798288	2551.264947
554.156215	2550.866696
554.514086	2551.937941
554.871902	2550.826367
555.229661	2553.861141
555.587365	2553.329300
555.945014	2552.273178
556.302606	2554.692932
556.660143	2551.847200
557.017625	2549.561037
557.375050	2554.037582
557.732421	2555.738971
558.089735	2551.522046
558.446994	2555.146636
558.804197	2555.010524
559.161345	2551.794268
559.518437	2551.290153
559.875474	2551.448949
560.232455	2553.530946
560.589381	2553.394835
560.946251	2556.739640
561.303065	2553.856100
561.659825	2553.891388
562.016528	2553.689742
562.373177	2551.695966
562.729770	2554.771070
563.086307	2552.396686
563.442789	2553.087324
563.799216	2550.360060
564.155587	2553.480534
564.511904	2552.421892
564.868164	2554.398024
565.224370	2551.479196
565.580520	2552.280740
565.936615	2551.176727
566.292654	2550.909546
566.648638	2553.281409
567.004567	2552.583209
567.360441	2553.752757
567.716260	2551.965668
568.072023	2553.462890
568.427732	2549.863506
568.783385	2551.244783
569.138982	2548.593136
569.494525	2550.065152
569.850013	2548.449463
570.205445	2550.695297
570.560823	2554.093034
570.916145	2554.753426
571.271412	2551.025492
571.626625	2554.186296
571.981782	2553.571275
572.336884	2554.266954
572.691931	2554.302242
573.046923	2551.610266
573.401860	2551.252344
573.756743	2553.122612
574.111570	2555.360885
574.466342	2551.940462
574.821059	2555.139074
575.175722	2551.116233
575.530330	2551.771583
575.884882	2552.978939
576.239380	2552.983981
576.593823	2554.181255
576.948211	2551.479196
577.302544	2553.339382
577.656823	2552.101779
578.011047	2553.515822
578.365216	2554.191337
578.719330	2553.946841
579.073389	2551.532128
579.427394	2555.096224
579.781344	2553.936759
580.135239	2553.888868
580.489080	2551.655637
580.842866	2553.268806
581.196597	2556.540515
581.550273	2552.341233
581.903895	2554.181255
582.257463	2550.745708
582.610975	2552.991542
582.964434	2554.392983
583.317837	2552.757129
583.671186	2554.178734
584.024481	2552.797458
584.377721	2551.610266
584.730906	2554.208981
585.084037	2554.491286
585.437113	2554.118240
585.790135	2553.349464
586.143103	2554.070349
586.496016	2552.487427
586.848874	2549.717313
587.201679	2553.654454
587.554428	2551.025492
587.907124	2552.454659
588.259765	2550.438198
588.612352	2552.338713
588.964884	2554.957592
589.317362	2551.358208
589.669786	2551.645554
590.022155	2554.637479
590.374470	2554.594629
590.726731	2552.119423
591.078937	2551.191850
591.431090	2556.714434
591.783188	2554.713096
592.135232	2554.713096
592.487222	2553.052036
592.839157	2553.621687
593.191038	2553.533466
593.542866	2555.050854
593.894639	2553.296532
594.246358	2555.186965
594.598022	2553.810730
594.949633	2552.162273
595.301190	2553.631769
595.652692	2555.149156
596.004141	2552.396686
596.355535	2551.481717
596.706876	2551.849721
597.058162	2552.999104
597.409395	2551.441387
597.760573	2553.276367
598.111698	2552.210163
598.462768	2552.522715
598.813785	2555.035730
599.164748	2554.576985
599.515657	2555.595298
599.866511	2552.121943
600.217312	2552.696635
600.568060	2552.147149
600.918753	2553.072201
601.269392	2552.676470
601.619978	2553.619166
601.970510	2552.280740
602.320988	2552.431974
602.671412	2552.321069
603.021783	2553.921635
603.372100	2553.442726
603.722363	2554.093034
604.072572	2550.957437
604.422728	2557.652089
604.772830	2549.485420
605.122878	2551.580019
605.472872	2548.867878
605.822813	2546.929555
606.172701	2551.537169
606.522534	2555.209650
606.872314	2554.027499
607.222041	2553.745195
607.571714	2554.024979
607.921333	2552.230328
608.270899	2554.115720
608.620411	2551.179248
608.969870	2553.712427
609.319276	2558.612429
609.668627	2558.259548
610.017926	2562.209292
610.367171	2560.560835
610.716362	2558.393139
611.065500	2558.327604
611.414585	2557.304249
611.763616	2555.930535
612.112594	2558.284754
612.461518	2555.738971
612.810389	2555.318035
613.159207	2556.270813
613.507971	2554.977757
613.856682	2556.905998
614.205340	2552.956254
614.553945	2554.539177
614.902496	2553.783003
615.250994	2553.626728
615.599439	2552.555482
615.947830	2553.452808
616.296169	2551.723692
616.644454	2552.134546
616.992686	2552.381563
617.340864	2552.031202
617.688990	2554.410627
618.037063	2554.208981
618.385082	2549.813095
618.733048	2552.174875
619.080961	2555.678477
619.428821	2553.679660
619.776628	2553.054557
620.124382	2554.027499
620.472083	2550.922149
620.819731	2554.869372
621.167326	2554.609753
621.514868	2553.525905
621.862357	2552.742005
622.209793	2553.641851
622.557176	2550.901984
622.904506	2551.428785
623.251783	2550.226469
623.599007	2551.481717
623.946179	2550.382745
624.293297	2551.244782
624.640363	2552.862993
624.987376	2553.036913
625.334336	2553.397355
625.681243	2555.741492
626.028097	2552.416851
626.374899	2555.060936
626.721647	2554.113199
627.068343	2552.063970
627.414987	2553.563713
627.761577	2554.934907
628.108115	2554.730740
628.454600	2552.492468
628.801032	2553.538508
629.147412	2551.683363
629.493739	2556.101934
629.840014	2553.732592
630.186236	2552.343754
630.532405	2553.503219
630.878521	2554.662685
631.224585	2556.106975
631.570597	2551.068342
631.916556	2553.863662
632.262462	2554.372818
632.608316	2552.167314
632.954117	2554.206460
633.299866	2552.709238
633.645562	2553.470452
633.991206	2555.265103
634.336797	2552.079093
634.682336	2551.574978
635.027823	2552.230328
635.373257	2555.330638
635.718639	2552.815102
636.063968	2550.392827
636.409245	2552.300904
636.754470	2555.328117
637.099642	2552.593291
637.444762	2554.158569
637.789829	2556.162428
638.134845	2553.614125
638.479808	2552.721841
638.824719	2550.428116
639.169577	2553.505740
639.514383	2551.219577
639.859137	2549.064483
640.203839	2553.551110
640.548489	2552.119423
640.893086	2549.573640
641.237632	2548.058773
641.582125	2550.536500
641.926566	2546.947199
642.270955	2551.852242
642.615292	2550.108002
642.959576	2551.942982
643.303809	2554.468600
643.647990	2555.368446
643.992118	2552.043805
644.336195	2552.016079
