Dividing Wavelength (nm)	Counts (n)	Blue Motor Position (mm): 31.300000	Red Motor Position (mm): 0.000000	
326.493990	2132.045114
326.888308	2132.045114
327.282561	2132.045114
327.676750	2101.021853
328.070874	2096.497418
328.464933	2101.142841
328.858929	2107.701382
329.252859	2115.973915
329.646726	2127.608898
330.040528	2140.693213
330.434265	2157.195430
330.827938	2173.712771
331.221547	2191.089628
331.615091	2210.639223
332.008571	2232.348952
332.401986	2252.793351
332.795338	2269.948398
333.188625	2289.656789
333.581847	2310.416260
333.975006	2327.490648
334.368100	2344.854903
334.761129	2362.960207
335.154095	2379.008720
335.546996	2400.403377
335.939833	2424.323652
336.332606	2439.595828
336.725315	2451.934052
337.117960	2460.045268
337.510540	2472.393575
337.903056	2480.623258
338.295508	2486.740698
338.687896	2497.995074
339.080220	2504.838441
339.472480	2509.902280
339.864676	2516.428053
340.256807	2519.747653
340.648875	2522.585823
341.040879	2526.691843
341.432818	2526.782583
341.824694	2529.464477
342.216506	2531.977492
342.608253	2532.632842
342.999937	2530.742410
343.391557	2529.338448
343.783113	2525.413910
344.174605	2527.402645
344.566033	2525.978519
344.957397	2525.413910
345.348697	2524.418282
345.739934	2521.822088
346.131106	2522.038858
346.522215	2518.842766
346.913260	2515.659277
347.304241	2514.509894
347.695159	2507.764831
348.086012	2513.612569
348.476802	2509.292300
348.867528	2509.675428
349.258191	2505.418173
349.648789	2504.440190
350.039324	2502.340549
350.429796	2504.966990
350.820203	2500.152688
351.210548	2499.608244
351.600828	2498.857112
351.991045	2499.416680
352.381198	2497.654797
352.771288	2496.664210
353.161314	2498.156391
353.551276	2497.009529
353.941175	2497.790908
354.331010	2494.748571
354.720782	2495.197234
355.110490	2499.076402
355.500135	2497.380054
355.889717	2498.166474
356.279235	2496.215547
356.668689	2498.552122
357.058080	2501.692761
357.447408	2492.492655
357.836672	2492.762357
358.225873	2495.766884
358.615010	2494.846874
359.004084	2501.055055
359.393095	2500.187976
359.782043	2500.306443
360.170927	2500.971876
360.559748	2501.284427
360.948505	2501.614623
361.337199	2503.331136
361.725830	2503.099243
362.114398	2504.198214
362.502903	2505.496311
362.891344	2501.939777
363.279722	2504.518328
363.668037	2506.149141
364.056289	2508.614265
364.444478	2506.648215
364.832603	2506.252484
365.220665	2508.137876
365.608665	2508.163082
365.996601	2507.724501
366.384474	2506.907834
366.772284	2509.539317
367.160031	2508.725170
367.547715	2509.536796
367.935336	2510.353463
368.322893	2510.570233
368.710388	2510.910511
369.097820	2512.800943
369.485189	2511.283556
369.872495	2511.628875
370.259738	2509.193998
370.646918	2510.597959
371.034035	2507.653925
371.421090	2512.964781
371.808081	2511.409585
372.195010	2512.347239
372.581875	2513.226921
372.968678	2511.974194
373.355418	2514.792199
373.742096	2511.817918
374.128710	2512.594256
374.515262	2514.860255
374.901751	2513.841942
375.288177	2516.216325
375.674540	2514.746829
376.060841	2513.521828
376.447079	2513.612569
376.833254	2513.978053
377.219367	2509.730881
377.605417	2511.066786
377.991404	2510.219872
378.377329	2513.083248
378.763191	2511.459996
379.148991	2516.382683
379.534727	2515.820594
379.920402	2515.566016
380.306013	2517.930317
380.691563	2518.792355
381.077049	2518.323527
381.462474	2519.084742
381.847835	2514.628362
382.233134	2516.516274
382.618371	2519.987108
383.003545	2517.368229
383.388657	2518.804957
383.773706	2518.583147
384.158693	2520.211439
384.543618	2519.147756
384.928480	2520.236645
385.313280	2522.525329
385.698017	2521.625483
386.082692	2523.677233
386.467305	2520.826460
386.851856	2523.813344
387.236344	2520.632376
387.620770	2522.938704
388.005133	2524.080525
388.389435	2524.188910
388.773674	2521.867458
389.157851	2521.794362
389.541965	2523.258817
389.926018	2526.646472
390.310008	2524.745957
390.693936	2525.539939
391.077802	2523.490710
391.461606	2523.271420
391.845348	2524.085566
392.229027	2526.366688
392.612645	2525.950793
392.996200	2523.561286
393.379694	2526.162522
393.763125	2529.524971
394.146494	2528.519261
394.529801	2527.753006
394.913047	2528.083201
395.296230	2527.266534
395.679351	2528.073119
396.062410	2530.003881
396.445408	2528.254600
396.828343	2530.727286
397.211217	2525.504651
397.594028	2525.701256
397.976778	2527.964734
398.359466	2528.461288
398.742092	2527.269055
399.124656	2528.398273
399.507158	2530.770136
399.889598	2530.868439
400.271977	2530.389529
400.654294	2532.542102
401.036549	2531.473377
401.418742	2534.107380
401.800874	2530.656710
402.182944	2532.776515
402.564952	2533.706608
402.946898	2532.037986
403.328783	2531.833820
403.710606	2535.168543
404.092367	2531.110414
404.474067	2533.573018
404.855705	2534.944212
405.237282	2535.924716
405.618797	2536.368337
406.000250	2535.355066
406.381642	2537.363965
406.762972	2533.903213
407.144240	2537.096784
407.525447	2539.234233
407.906593	2538.503266
408.287677	2540.166847
408.668700	2537.343801
409.049661	2539.675334
409.430560	2538.639377
409.811399	2537.663914
410.192176	2538.745242
410.572891	2537.966383
410.953545	2535.828934
411.334138	2541.361600
411.714669	2538.649460
412.095139	2539.884542
412.475547	2541.724563
412.855894	2541.744728
413.236180	2542.407640
413.616405	2544.230017
413.996568	2544.005686
414.376670	2541.974101
414.756711	2544.696324
415.136691	2543.993083
415.516609	2544.071221
415.896466	2546.705223
416.276262	2549.198074
416.655997	2548.615821
417.035670	2546.695141
417.415283	2553.281409
417.794834	2551.327962
418.174324	2557.193344
418.553753	2561.004456
418.933121	2563.419169
419.312428	2569.491239
419.691674	2575.530541
420.070859	2583.840883
420.449983	2588.382963
420.829045	2596.839498
421.208047	2603.801332
421.586988	2615.494288
421.965867	2625.725310
422.344686	2638.577732
422.723444	2644.241468
423.102141	2647.661891
423.480777	2670.069820
423.859352	2672.537465
424.237866	2699.227854
424.616319	2713.403578
424.994712	2735.403174
425.373044	2746.854155
425.751314	2771.782660
426.129524	2774.656118
426.507673	2809.724905
426.885762	2831.832885
427.263789	2850.119671
427.641756	2859.319776
428.019662	2896.997360
428.397508	2922.331679
428.775292	2944.595935
429.153016	2979.972232
429.530679	2997.936384
429.908282	3037.844678
430.285824	3048.874723
430.663305	3123.471197
431.040726	3112.179012
431.418086	3139.638177
431.795385	3198.768391
432.172624	3234.500090
432.549802	3271.119031
432.926920	3313.258036
433.303977	3352.984849
433.680974	3397.432703
434.057910	3447.037656
434.434786	3491.626662
434.811601	3521.621527
435.188355	3636.632932
435.565050	3639.977737
435.941683	3679.265970
436.318257	3806.487049
436.694770	3848.066486
437.071222	3909.581166
437.447614	3935.989250
437.823946	3947.034418
438.200218	4061.372829
438.576429	4056.394689
438.952580	4155.367663
439.328670	4224.474320
439.704700	4231.642841
440.080670	4269.370836
440.456580	4465.249910
440.832429	4464.150939
441.208218	4426.385135
441.583947	4560.991504
441.959616	4616.933188
442.335224	4622.337305
442.710773	4756.222790
443.086261	4830.070652
443.461689	4747.171398
443.837057	4892.550713
444.212365	5041.529412
444.587612	5013.823231
444.962800	5169.617570
445.337927	5203.529412
445.712995	4977.221933
446.088002	5437.010452
446.462949	5354.670766
446.837837	5350.975600
447.212664	5515.937277
447.587431	5680.210837
447.962139	6147.785418
448.336786	6910.159114
448.711374	6755.302430
449.085901	6067.023613
449.460369	6049.543412
449.834776	6033.983890
450.209124	6402.588018
450.583412	6571.948103
450.957640	6726.383851
451.331808	6565.465179
451.705917	6213.484255
452.079965	6172.575292
452.453954	6393.440845
452.827883	6308.898174
453.201752	6421.935967
453.575562	6260.772799
453.949311	6478.298587
454.323001	6396.105095
454.696632	6482.608774
455.070202	6640.391848
455.443713	6800.508977
455.817164	6912.256234
456.190556	7011.715679
456.563888	7100.001406
456.937160	7161.004409
457.310373	6845.188723
457.683526	6890.536423
458.056619	6795.329191
458.429653	6794.099150
458.802628	6746.666933
459.175542	6862.989038
459.548398	7224.122176
459.921194	7382.565641
460.293930	7387.561424
460.666607	7916.501971
461.039224	8221.380873
461.411782	8353.398610
461.784280	8382.017241
462.156719	8288.818909
462.529099	8175.098040
462.901419	7768.912110
463.273680	7672.303438
463.645882	7687.671395
464.018024	7565.436017
464.390106	7728.262766
464.762130	8114.510932
465.134094	8582.672808
465.505999	9599.458415
465.877845	10812.735597
466.249631	11459.813063
466.621358	11076.476163
466.993026	10461.236103
467.364634	10208.197907
467.736184	9844.045118
468.107674	9517.257361
468.479105	9557.084997
468.850477	9319.618924
469.221790	9098.892003
469.593043	8774.105584
469.964238	8632.744068
470.335373	8641.407291
470.706449	8707.448927
471.077467	8689.431843
471.448425	10000.209981
471.819324	11063.777496
472.190164	11079.493293
472.560945	9837.925157
472.931667	9054.486999
473.302330	8924.372298
473.672934	8574.191067
474.043479	8926.671064
474.413965	8865.884831
474.784393	8749.668591
475.154761	8905.299092
475.525070	8995.578596
475.895321	8822.417482
476.265513	8992.190941
476.635645	9163.766612
477.005719	9168.396912
477.375734	9279.801370
477.745691	9515.603862
478.115588	9649.930447
478.485427	9893.133353
478.855207	10427.830897
479.224928	11240.845505
479.594591	11862.979342
479.964194	11678.485714
480.333739	11618.453133
480.703226	11532.007427
481.072653	11626.597118
481.442022	11863.052439
481.811333	12050.598485
482.180584	11854.104391
482.549777	11559.446428
482.918912	11391.399564
483.287988	11414.152812
483.657005	11421.843092
484.025964	11112.880855
484.394864	11233.371994
484.763706	11218.084695
485.132489	10963.723195
485.501213	10934.542476
485.869879	11011.321770
486.238487	10850.345125
486.607036	10953.882863
486.975527	10736.467980
487.343959	10931.406879
487.712333	10973.805503
488.080648	10906.576675
488.448905	10956.257247
488.817104	10891.957329
489.185244	11151.430559
489.553326	11312.558439
489.921350	11856.574556
490.289315	12905.626068
490.657222	13249.223553
491.025070	13154.102021
491.392861	13025.545036
491.760593	12648.244918
492.128267	12301.317751
492.495883	11971.933800
492.863440	11637.014662
493.230939	11306.108282
493.598380	11239.983467
493.965763	11112.633839
494.333088	11008.420586
494.700354	10934.885275
495.067563	10990.214459
495.434713	10822.268418
495.801805	10944.687798
496.168839	10866.227280
496.535815	10814.295834
496.902733	10804.820985
497.269593	10740.566438
497.636395	10841.331542
498.003139	10827.604480
498.369825	10696.365601
498.736453	10862.370797
499.103023	10787.887749
499.469535	10814.172325
499.835989	10802.872579
500.202385	10770.841087
500.568723	10615.787798
500.935003	10840.678712
501.301226	10646.559001
501.667390	10909.258569
502.033497	11005.766418
502.399546	10858.330313
502.765537	10769.212795
503.131470	10839.060502
503.497345	11017.025836
503.863163	10625.459252
504.228923	10936.011973
504.594625	10999.200316
504.960269	10751.692265
505.325856	10969.207971
505.691385	10765.192475
506.056856	10919.792060
506.422270	10947.762902
506.787625	10827.715385
507.152924	10943.228384
507.518164	10926.947978
507.883347	10847.128869
508.248472	10768.673391
508.613540	10997.342650
508.978550	10886.797708
509.343503	10864.969512
509.708398	10982.773716
510.073236	11096.360994
510.438016	11095.204049
510.802738	11049.042204
511.167403	11101.124885
511.532010	10995.336271
511.896561	11227.400747
512.261053	11300.230297
512.625488	11165.601242
512.989866	11150.112297
513.354186	11138.474793
513.718449	11041.803107
514.082655	11231.189174
514.446803	11133.675615
514.810894	11243.035886
515.174927	11119.877977
515.538904	11145.597944
515.902822	11291.282249
516.266684	11179.061123
516.630488	11119.681372
516.994235	11178.128510
517.357925	11239.111348
517.721558	11330.446973
518.085133	11336.377891
518.448651	11353.041425
518.812112	11242.461194
519.175516	11248.568552
519.538863	11367.416275
519.902152	11283.899479
520.265385	11443.832605
520.628560	11359.781447
520.991678	11336.856800
521.354739	11403.014383
521.717743	11331.079638
522.080690	11321.967752
522.443580	11449.473657
522.806413	11399.117571
523.169189	11432.280801
523.531908	11489.162661
523.894569	11309.296812
524.257174	11316.790487
524.619722	11430.962540
524.982213	11381.039993
525.344647	11428.633527
525.707025	11390.976107
526.069345	11474.001391
526.431608	11397.393496
526.793815	11503.567758
527.155964	11289.026332
527.518057	11340.783859
527.880093	11288.993565
528.242072	11364.096675
528.603995	11266.457087
528.965860	11186.305261
529.327669	11238.324928
529.689421	11189.493791
530.051117	11159.655201
530.412755	11264.906932
530.774337	11149.734211
531.135862	11136.808692
531.497331	11158.195787
531.858743	11004.483445
532.220098	11178.902327
532.581396	11049.518593
532.942638	11033.797754
533.303824	10995.598411
533.664953	11008.085349
534.026025	10920.765003
534.387040	11016.040290
534.747999	11025.293328
535.108902	11074.200082
535.469748	10844.295740
535.830537	10943.283837
536.191270	10918.168809
536.551947	10940.715369
536.912567	10942.021028
537.273131	10866.101251
537.633638	10844.741882
537.994089	10843.337921
538.354483	10786.254415
538.714821	10928.062073
539.075103	10939.152612
539.435328	10907.766388
539.795497	10729.581764
540.155609	10884.319981
540.515665	10974.269289
540.875665	10708.988650
541.235609	10783.469178
541.595496	10778.319639
541.955328	10932.533577
542.315102	10816.783643
542.674821	10764.030489
543.034483	10766.021744
543.394090	10769.404359
543.753640	10697.545231
544.113134	10919.066134
544.472571	10775.292426
544.831953	10914.125803
545.191278	10721.710002
545.550548	10755.236196
545.909761	10879.205731
546.268918	10857.001968
546.628019	10941.874835
546.987064	10801.839143
547.346053	10730.831970
547.704986	10829.104223
548.063863	10818.164919
548.422684	10809.625205
548.781449	10723.875178
549.140158	10823.627009
549.498811	10700.700993
549.857408	10558.691690
550.215949	10789.130394
550.574434	10645.638991
550.932864	10741.118444
551.291237	10796.908894
551.649555	10743.341593
552.007817	10760.605025
552.366022	10720.235465
552.724173	10719.754034
553.082267	10702.309122
553.440305	10835.085552
553.798288	10634.268668
554.156215	10780.303333
554.514086	10757.897925
554.871902	10613.494073
555.229661	10652.467233
555.587365	10630.639037
555.945014	10522.347491
556.302606	10645.999433
556.660143	10539.787363
557.017625	10694.704541
557.375050	10594.680487
557.732421	10730.544624
558.089735	10638.296550
558.446994	10648.683848
558.804197	10673.834164
559.161345	10673.488845
559.518437	10528.101968
559.875474	10620.680238
560.232455	10647.176543
560.589381	10600.256003
560.946251	10596.812895
561.303065	10704.076046
561.659825	10634.286312
562.016528	10563.669829
562.373177	10448.282859
562.729770	10559.488192
563.086307	10481.967849
563.442789	10573.336242
563.799216	10449.739752
564.155587	10495.152987
564.511904	10456.038674
564.868164	10437.426734
565.224370	10459.330547
565.580520	10378.480522
565.936615	10382.803311
566.292654	10263.428788
566.648638	10389.417305
567.004567	10351.127221
567.360441	10323.529424
567.716260	10233.915353
568.072023	10332.447226
568.427732	10284.856213
568.783385	10197.520743
569.138982	10266.324931
569.494525	10281.778588
569.850013	10158.255196
570.205445	10237.156815
570.560823	10132.096648
570.916145	10053.860461
571.271412	10125.502819
571.626625	10065.039220
571.981782	10045.494666
572.336884	10016.439976
572.691931	10023.671511
573.046923	9963.578437
573.401860	9927.554352
573.756743	9863.509012
574.111570	9905.471577
574.466342	9887.262929
574.821059	9916.375593
575.175722	9809.959356
575.530330	9822.695831
575.884882	9808.963728
576.239380	9741.084591
576.593823	9718.626251
576.948211	9731.960103
577.302544	9610.906876
577.656823	9631.442016
578.011047	9633.428230
578.365216	9605.288510
578.719330	9529.623311
579.073389	9540.925578
579.427394	9488.777362
579.781344	9464.375657
580.135239	9411.438500
580.489080	9423.812012
580.842866	9327.281478
581.196597	9336.363117
581.550273	9371.101708
581.903895	9336.789094
582.257463	9402.243436
582.610975	9281.822873
582.964434	9306.254825
583.317837	9223.930262
583.671186	9209.915855
584.024481	9212.136483
584.377721	9126.167166
584.730906	9104.434752
585.084037	9129.741344
585.437113	9068.070388
585.790135	9090.175848
586.143103	8990.199685
586.496016	8963.315211
586.848874	9018.314200
587.201679	9007.861367
587.554428	8899.224502
587.907124	8942.366697
588.259765	8907.643229
588.612352	8916.162779
588.964884	8796.503431
589.317362	8807.576325
589.669786	8807.122621
590.022155	8855.757153
590.374470	8869.159060
590.726731	8807.409967
591.078937	8662.454109
591.431090	8779.991131
591.783188	8645.311665
592.135232	8640.174729
592.487222	8635.310016
592.839157	8692.166669
593.191038	8622.548335
593.542866	8571.834327
593.894639	8468.858678
594.246358	8523.038478
594.598022	8535.585910
594.949633	8437.628729
595.301190	8408.682424
595.652692	8439.120911
596.004141	8547.331799
596.355535	8324.275865
596.706876	8308.449162
597.058162	8240.446517
597.409395	8323.111358
597.760573	8376.552630
598.111698	8288.529043
598.462768	8274.549923
598.813785	8239.927278
599.164748	8211.243113
599.515657	8198.675517
599.866511	8113.109492
600.217312	8239.498780
600.568060	8090.459587
600.918753	8198.456226
601.269392	8171.264243
601.619978	8079.260664
601.970510	8145.287177
602.320988	8145.065366
602.671412	8196.003705
603.021783	8132.578428
603.372100	8104.131197
603.722363	8104.247143
604.072572	8080.704955
604.422728	8100.796473
604.772830	8025.653034
605.122878	8026.353755
605.472872	8030.268211
605.822813	8062.861791
606.172701	8001.415167
606.522534	8075.394099
606.872314	8076.956857
607.222041	8048.791930
607.571714	8099.972245
607.921333	8056.716624
608.270899	8070.380672
608.620411	8154.252869
608.969870	8060.232829
609.319276	8051.657826
609.668627	8069.647184
610.017926	8104.375693
610.367171	8149.937641
610.716362	8129.047100
611.065500	8117.512940
611.414585	8146.184502
611.763616	8136.316443
612.112594	8118.281716
612.461518	8129.281513
612.810389	8194.675361
613.159207	8131.212275
613.507971	8081.524142
613.856682	8197.263993
614.205340	8157.002818
614.553945	8234.578614
614.902496	8128.638766
615.250994	8185.797889
615.599439	8165.393819
615.947830	8185.848301
616.296169	8153.489134
616.644454	8165.482039
616.992686	8165.923140
617.340864	8224.748364
617.688990	8123.630380
618.037063	8222.240390
618.385082	8166.296185
618.733048	8251.587467
619.080961	8191.484311
619.428821	8208.475520
619.776628	8210.514666
620.124382	8161.688571
620.472083	8142.025550
620.819731	8170.586207
621.167326	8064.653921
621.514868	8073.632216
621.862357	7970.205383
622.209793	7982.334399
622.557176	7918.205881
622.904506	7886.406283
623.251783	7823.522930
623.599007	7770.996627
623.946179	7781.656147
624.293297	7730.571614
624.640363	7650.064388
624.987376	7636.544013
625.334336	7581.976043
625.681243	7532.993672
626.028097	7526.346910
626.374899	7500.115266
626.721647	7493.518917
627.068343	7424.525685
627.414987	7398.188177
627.761577	7349.914087
628.108115	7388.967906
628.454600	7285.437730
628.801032	7334.251222
629.147412	7293.092722
629.493739	7281.119982
629.840014	7218.990281
630.186236	7279.731144
630.532405	7158.680437
630.878521	7210.064918
631.224585	7167.338619
631.570597	7087.832061
631.916556	7122.648790
632.262462	7119.107379
632.608316	7082.944662
632.954117	7062.291055
633.299866	7049.604991
633.645562	7038.224586
633.991206	6958.665096
634.336797	6902.330202
634.682336	6862.638677
635.027823	6828.701630
635.373257	6821.162584
635.718639	6752.562563
636.063968	6767.118894
636.409245	6656.369785
636.754470	6652.984651
637.099642	6609.040913
637.444762	6564.792185
637.789829	6565.339150
638.134845	6508.119533
638.479808	6495.776268
638.824719	6499.771382
639.169577	6425.157264
639.514383	6450.451254
639.859137	6375.393514
640.203839	6386.045472
640.548489	6370.662391
