Dividing Wavelength (nm)	Counts (n)	Blue Motor Position (mm): 11.900000	Red Motor Position (mm): 0.000000	
326.493990	2137.305558
326.888308	2137.305558
327.282561	2137.305558
327.676750	2106.536875
328.070874	2103.670979
328.464933	2105.447986
328.858929	2113.758328
329.252859	2123.737292
329.646726	2136.098202
330.040528	2147.614718
330.434265	2167.486946
330.827938	2182.754080
331.221547	2201.933150
331.615091	2219.012579
332.008571	2238.171485
332.401986	2258.341141
332.795338	2277.840324
333.188625	2297.578962
333.581847	2317.617549
333.975006	2335.007009
334.368100	2352.169617
334.761129	2371.769623
335.154095	2386.416696
335.546996	2405.028636
335.939833	2420.595719
336.332606	2437.355035
336.725315	2451.908846
337.117960	2462.301185
337.510540	2467.450723
337.903056	2479.302476
338.295508	2485.465287
338.687896	2496.147492
339.080220	2504.614109
339.472480	2512.349760
339.864676	2512.586694
340.256807	2518.469721
340.648875	2522.089269
341.040879	2525.504651
341.432818	2526.800227
341.824694	2529.915661
342.216506	2531.251566
342.608253	2529.509848
342.999937	2525.058509
343.391557	2530.613860
343.783113	2526.540608
344.174605	2528.282327
344.566033	2527.027079
344.957397	2524.244363
345.348697	2521.814526
345.739934	2521.786800
346.131106	2519.498116
346.522215	2514.149452
346.913260	2515.253465
347.304241	2514.882940
347.695159	2509.632578
348.086012	2508.014368
348.476802	2505.579490
348.867528	2507.790036
349.258191	2507.096878
349.648789	2501.317195
350.039324	2502.295179
350.429796	2498.383243
350.820203	2500.487925
351.210548	2496.694457
351.600828	2495.277893
351.991045	2497.858963
352.381198	2494.005001
352.771288	2494.325114
353.161314	2496.361741
353.551276	2495.726555
353.941175	2495.870228
354.331010	2492.389311
354.720782	2495.519868
355.110490	2497.279231
355.500135	2494.609940
355.889717	2492.742192
356.279235	2496.117245
356.668689	2493.894096
357.058080	2496.664210
357.447408	2492.747233
357.836672	2491.892758
358.225873	2495.701349
358.615010	2493.808396
359.004084	2498.479025
359.393095	2497.692605
359.782043	2497.498521
360.170927	2496.792759
360.559748	2499.517503
360.948505	2500.797956
361.337199	2502.403563
361.725830	2500.508090
362.114398	2501.090343
362.502903	2499.683861
362.891344	2501.642349
363.279722	2502.161588
363.668037	2501.614623
364.056289	2504.185611
364.444478	2505.382885
364.832603	2505.486229
365.220665	2503.482370
365.608665	2503.936074
365.996601	2505.461023
366.384474	2507.651405
366.772284	2505.574449
367.160031	2506.504542
367.547715	2507.966477
367.935336	2508.059738
368.322893	2508.200890
368.710388	2507.351456
369.097820	2508.609224
369.485189	2506.701147
369.872495	2508.508401
370.259738	2511.001251
370.646918	2508.851199
371.034035	2511.676766
371.421090	2510.756755
371.808081	2509.554440
372.195010	2512.238855
372.581875	2508.616786
372.968678	2512.132990
373.355418	2509.309944
373.742096	2509.655263
374.128710	2509.874553
374.515262	2512.264060
374.901751	2510.630727
375.288177	2512.339678
375.674540	2510.424039
376.060841	2513.733557
376.447079	2512.979904
376.833254	2512.816067
377.219367	2508.876405
377.605417	2510.640809
377.991404	2509.680469
378.377329	2510.628206
378.763191	2509.196518
379.148991	2512.337157
379.534727	2513.869668
379.920402	2514.555265
380.306013	2514.227590
380.691563	2515.326561
381.077049	2513.400841
381.462474	2516.324710
381.847835	2513.534431
382.233134	2515.591222
382.618371	2516.236490
383.003545	2515.641633
383.388657	2517.000224
383.773706	2515.434946
384.158693	2515.404699
384.543618	2516.380163
384.928480	2519.397293
385.313280	2518.124402
385.698017	2517.837056
386.082692	2517.839577
386.467305	2519.830832
386.851856	2519.384690
387.236344	2516.964936
387.620770	2516.745646
388.005133	2518.449556
388.389435	2518.484844
388.773674	2520.440812
389.157851	2518.116840
389.541965	2520.143384
389.926018	2517.698424
390.310008	2518.265554
390.693936	2519.737571
391.077802	2518.779752
391.461606	2521.010462
391.845348	2518.936028
392.229027	2523.228570
392.612645	2518.701614
392.996200	2520.773528
393.379694	2523.359640
393.763125	2521.607839
394.146494	2521.902747
394.529801	2523.949455
394.913047	2524.546832
395.296230	2524.493900
395.679351	2523.442819
396.062410	2523.077335
396.445408	2523.362161
396.828343	2524.309898
397.211217	2517.506860
397.594028	2521.116327
397.976778	2520.062725
398.359466	2521.393590
398.742092	2519.556089
399.124656	2522.923580
399.507158	2523.452901
399.889598	2526.467511
400.271977	2526.323838
400.654294	2526.175124
401.036549	2525.804600
401.418742	2524.874507
401.800874	2525.285361
402.182944	2524.466173
402.564952	2525.849970
402.946898	2528.426000
403.328783	2525.371060
403.710606	2526.727131
404.092367	2525.398787
404.474067	2526.154960
404.855705	2527.485824
405.237282	2525.744106
405.618797	2527.095135
406.000250	2527.611853
406.381642	2527.682429
406.762972	2528.168901
407.144240	2528.902389
407.525447	2530.681916
407.906593	2528.146216
408.287677	2530.739889
408.668700	2529.497245
409.049661	2529.025897
409.430560	2529.915661
409.811399	2529.446833
410.192176	2528.247039
410.572891	2527.304343
410.953545	2530.913809
411.334138	2527.962213
411.714669	2530.001360
412.095139	2530.240815
412.475547	2528.136133
412.855894	2528.327697
413.236180	2528.604961
413.616405	2532.466484
413.996568	2529.043541
414.376670	2534.782895
414.756711	2531.518748
415.136691	2532.363141
415.516609	2529.540095
415.896466	2530.563449
416.276262	2531.715352
416.655997	2529.784591
417.035670	2528.632687
417.415283	2531.160826
417.794834	2528.221833
418.174324	2531.501103
418.553753	2531.911957
418.933121	2532.131248
419.312428	2530.855836
419.691674	2533.076464
420.070859	2533.179808
420.449983	2531.881711
420.829045	2532.688295
421.208047	2532.252235
421.586988	2535.723070
421.965867	2535.569315
422.344686	2536.920344
422.723444	2536.509490
423.102141	2532.600075
423.480777	2533.600744
423.859352	2534.515713
424.237866	2534.997144
424.616319	2533.762061
424.994712	2532.718542
425.373044	2536.028060
425.751314	2536.244829
426.129524	2535.423121
426.507673	2534.777853
426.885762	2534.354397
427.263789	2533.918337
427.641756	2534.404808
428.019662	2531.768285
428.397508	2534.021680
428.775292	2535.975128
429.153016	2534.117462
429.530679	2536.043183
429.908282	2536.234747
430.285824	2536.655683
430.663305	2534.808100
431.040726	2536.098636
431.418086	2535.297092
431.795385	2535.571835
432.172624	2537.568132
432.549802	2535.077802
432.926920	2535.070240
433.303977	2536.786753
433.680974	2536.509490
434.057910	2539.261960
434.434786	2539.801363
434.811601	2535.544109
435.188355	2538.306661
435.565050	2538.772968
435.941683	2538.548637
436.318257	2536.517052
436.694770	2533.278110
437.071222	2537.023688
437.447614	2531.859025
437.823946	2535.387833
438.200218	2537.295910
438.576429	2537.003523
438.952580	2535.413039
439.328670	2539.350180
439.704700	2539.463606
440.080670	2537.794984
440.456580	2539.640046
440.832429	2538.808256
441.208218	2537.351363
441.583947	2537.263142
441.959616	2538.094933
442.335224	2540.113915
442.710773	2540.378575
443.086261	2537.971424
443.461689	2539.196425
443.837057	2539.536703
444.212365	2540.413863
444.587612	2540.423946
444.962800	2539.380427
445.337927	2539.146013
445.712995	2541.013761
446.088002	2540.043339
446.462949	2541.855633
446.837837	2540.365973
447.212664	2541.517876
447.587431	2540.844882
447.962139	2540.136600
448.336786	2542.730274
448.711374	2542.901673
449.085901	2540.071065
449.460369	2539.264480
449.834776	2540.986034
450.209124	2541.343956
450.583412	2541.185160
450.957640	2542.556354
451.331808	2539.584594
451.705917	2542.289173
452.079965	2542.510983
452.453954	2543.113401
452.827883	2540.310520
453.201752	2540.272711
453.575562	2539.584594
453.949311	2540.660880
454.323001	2540.512166
454.696632	2543.027702
455.070202	2544.388813
455.443713	2542.810932
455.817164	2538.898997
456.190556	2539.095602
456.563888	2540.532331
456.937160	2535.821372
457.310373	2541.502753
457.683526	2541.550644
458.056619	2543.614996
458.429653	2542.684903
458.802628	2542.642053
459.175542	2544.615665
459.548398	2541.356559
459.921194	2545.223124
460.293930	2542.536189
460.666607	2541.422094
461.039224	2543.672969
461.411782	2543.373021
461.784280	2543.307486
462.156719	2542.684903
462.529099	2543.824204
462.901419	2543.302445
463.273680	2541.540561
463.645882	2543.332692
464.018024	2542.939482
464.390106	2545.550799
464.762130	2546.927034
465.134094	2543.073072
465.505999	2544.025850
465.877845	2544.209852
466.249631	2543.710778
466.621358	2545.931406
466.993026	2547.917621
467.364634	2548.285625
467.736184	2547.620193
468.107674	2545.268495
468.479105	2544.968546
468.850477	2545.026519
469.221790	2545.694472
469.593043	2544.340922
469.964238	2547.113557
470.335373	2544.466951
470.706449	2546.637168
471.077467	2547.784030
471.448425	2545.787733
471.819324	2545.810419
472.190164	2544.829914
472.560945	2545.150028
472.931667	2543.998124
473.302330	2546.254040
473.672934	2547.695810
474.043479	2544.845038
474.413965	2546.647250
474.784393	2545.384441
475.154761	2546.889226
475.525070	2540.597866
475.895321	2542.016950
476.265513	2542.563916
476.635645	2546.937117
477.005719	2550.060111
477.375734	2548.215049
477.745691	2546.622044
478.115588	2547.552137
478.485427	2544.938299
478.855207	2549.102292
479.224928	2546.538865
479.594591	2546.574153
479.964194	2545.787733
480.333739	2550.002138
480.703226	2549.031716
481.072653	2547.479041
481.442022	2547.781510
481.811333	2549.563558
482.180584	2545.344112
482.549777	2548.696479
482.918912	2544.897970
483.287988	2549.051881
483.657005	2548.888043
484.025964	2547.481561
484.394864	2547.274874
484.763706	2548.946016
485.132489	2549.863506
485.501213	2549.871068
485.869879	2548.482230
486.238487	2549.273691
486.607036	2547.829401
486.975527	2548.620862
487.343959	2550.042467
487.712333	2549.576161
488.080648	2548.825029
488.448905	2549.533311
488.817104	2547.705892
489.185244	2548.220090
489.553326	2551.562375
489.921350	2547.836963
490.289315	2551.537169
490.657222	2549.077086
491.025070	2550.992725
491.392861	2551.229659
491.760593	2552.885678
492.128267	2549.934082
492.495883	2547.428629
492.863440	2551.093548
493.230939	2552.046326
493.598380	2550.798640
493.965763	2545.349153
494.333088	2547.728578
494.700354	2546.266643
495.067563	2548.578012
495.434713	2549.036757
495.801805	2549.954247
496.168839	2550.050029
496.535815	2549.840821
496.902733	2552.164793
497.269593	2549.881150
497.636395	2548.094061
498.003139	2554.266954
498.369825	2550.738147
498.736453	2550.970040
499.103023	2551.842159
499.469535	2551.595143
499.835989	2549.429967
500.202385	2550.934752
500.568723	2549.150183
500.935003	2549.828218
501.301226	2550.707900
501.667390	2550.357539
502.033497	2551.053219
502.399546	2551.698486
502.765537	2549.397200
503.131470	2551.476676
503.497345	2549.752601
503.863163	2551.370811
504.228923	2552.421892
504.594625	2553.004145
504.960269	2551.960626
505.325856	2550.418033
505.691385	2552.348795
506.056856	2549.205636
506.422270	2548.978784
506.787625	2552.207643
507.152924	2550.067673
507.518164	2552.583209
507.883347	2551.451470
508.248472	2550.788558
508.613540	2550.849052
508.978550	2550.264278
509.343503	2552.578168
509.708398	2551.829556
510.073236	2550.647406
510.438016	2551.244782
510.802738	2554.420709
511.167403	2553.026830
511.532010	2553.999773
511.896561	2550.226469
512.261053	2554.652602
512.625488	2550.042467
512.989866	2549.916438
513.354186	2550.423074
513.718449	2548.333516
514.082655	2551.622869
514.446803	2552.273178
514.810894	2554.453477
515.174927	2552.593291
515.538904	2554.796275
515.902822	2551.978270
516.266684	2556.495144
516.630488	2555.617983
516.994235	2555.217212
517.357925	2555.219732
517.721558	2554.340051
518.085133	2556.807696
518.448651	2555.988508
518.812112	2555.260062
519.175516	2553.223435
519.538863	2557.490772
519.902152	2553.803168
520.265385	2556.260731
520.628560	2556.051523
520.991678	2554.657644
521.354739	2556.112017
521.717743	2556.132181
522.080690	2555.726368
522.443580	2554.498847
522.806413	2556.994218
523.169189	2561.054868
523.531908	2558.846843
523.894569	2558.919939
524.257174	2557.886503
524.619722	2559.776935
524.982213	2561.412790
525.344647	2560.160063
525.707025	2558.594785
526.069345	2556.805175
526.431608	2558.756102
526.793815	2559.552604
527.155964	2561.838767
527.518057	2563.230126
527.880093	2563.159550
528.242072	2562.153839
528.603995	2562.163922
528.965860	2562.476473
529.327669	2561.347255
529.689421	2562.776422
530.051117	2563.668706
530.412755	2563.391443
530.774337	2565.463357
531.135862	2562.610064
531.497331	2563.252811
531.858743	2557.609239
532.220098	2561.180897
532.581396	2560.656617
532.942638	2559.451781
533.303824	2562.166442
533.664953	2565.284396
534.026025	2565.861608
534.387040	2564.311453
534.747999	2564.500497
535.108902	2565.672565
535.469748	2562.723490
535.830537	2566.953018
536.191270	2564.916392
536.551947	2567.245405
536.912567	2570.683472
537.273131	2567.620971
537.633638	2567.230281
537.994089	2568.803121
538.354483	2565.702812
538.714821	2568.467885
539.075103	2566.789180
539.435328	2569.710529
539.795497	2568.089798
540.155609	2569.387895
540.515665	2570.675910
540.875665	2569.831517
541.235609	2571.051476
541.595496	2570.635581
541.955328	2571.147258
542.315102	2571.258163
542.674821	2569.125755
543.034483	2573.002403
543.394090	2569.834037
543.753640	2569.680282
544.113134	2569.153482
544.472571	2570.479305
544.831953	2570.721280
545.191278	2568.687175
545.550548	2574.320664
545.909761	2573.317475
546.268918	2572.876374
546.628019	2574.998699
546.987064	2573.314954
547.346053	2574.739080
547.704986	2574.103895
548.063863	2572.336970
548.422684	2573.052814
548.781449	2572.437793
549.140158	2570.917885
549.498811	2574.865109
549.857408	2572.188256
550.215949	2572.087433
550.574434	2569.377813
550.932864	2569.077864
551.291237	2569.695406
551.649555	2575.651529
552.007817	2575.356621
552.366022	2577.158834
552.724173	2572.140365
553.082267	2572.125242
553.440305	2572.520972
553.798288	2572.616754
554.156215	2573.529203
554.514086	2574.030798
554.871902	2571.439645
555.229661	2573.466189
555.587365	2572.931826
555.945014	2574.013154
556.302606	2572.689851
556.660143	2575.492732
557.017625	2573.057855
557.375050	2574.797053
557.732421	2573.088102
558.089735	2574.991138
558.446994	2576.450552
558.804197	2571.245560
559.161345	2573.773699
559.518437	2572.614234
559.875474	2577.090778
560.232455	2575.926272
560.589381	2574.020716
560.946251	2579.608835
561.303065	2575.248237
561.659825	2577.579770
562.016528	2575.023905
562.373177	2574.297979
562.729770	2572.412587
563.086307	2574.832341
563.442789	2575.076837
563.799216	2574.086251
564.155587	2574.204718
564.511904	2573.579615
564.868164	2578.104050
565.224370	2572.853688
565.580520	2573.972825
565.936615	2575.739749
566.292654	2576.327043
566.648638	2573.738411
567.004567	2574.287897
567.360441	2574.754203
567.716260	2574.776889
568.072023	2574.416446
568.427732	2569.859243
568.783385	2571.691702
569.138982	2571.671538
569.494525	2571.926116
569.850013	2569.120714
570.205445	2575.996848
570.560823	2572.526013
570.916145	2575.273442
571.271412	2576.621951
571.626625	2574.839903
571.981782	2575.477609
572.336884	2575.540623
572.691931	2576.553895
573.046923	2575.822928
573.401860	2575.127249
573.756743	2578.076324
574.111570	2575.606158
574.466342	2577.917528
574.821059	2576.498443
575.175722	2578.701427
575.530330	2578.983732
575.884882	2579.354256
576.239380	2578.409040
576.593823	2577.970460
576.948211	2577.710840
577.302544	2579.054308
577.656823	2579.387024
578.011047	2579.997003
578.365216	2581.514391
578.719330	2582.177302
579.073389	2580.712847
579.427394	2581.549679
579.781344	2578.971129
580.135239	2581.310224
580.489080	2582.467169
580.842866	2581.743763
581.196597	2588.501430
581.550273	2584.523960
581.903895	2584.347519
582.257463	2583.891295
582.610975	2586.303487
582.964434	2586.610997
583.317837	2588.140987
583.671186	2587.515884
584.024481	2588.209043
584.377721	2591.289188
584.730906	2591.561410
585.084037	2590.880855
585.437113	2591.737851
585.790135	2593.948397
586.143103	2591.052254
586.496016	2596.438727
586.848874	2591.203488
587.201679	2592.015114
587.554428	2592.942687
587.907124	2595.516196
588.259765	2595.226329
588.612352	2598.760178
588.964884	2600.648090
589.317362	2602.480550
589.669786	2604.091198
590.022155	2605.613627
590.374470	2604.986003
590.726731	2605.333843
591.078937	2605.666559
591.431090	2609.414657
591.783188	2609.391972
592.135232	2614.289452
592.487222	2612.862806
592.839157	2614.528907
593.191038	2616.817591
593.542866	2618.009824
593.894639	2616.263064
594.246358	2617.631737
594.598022	2619.229783
594.949633	2623.083745
595.301190	2622.501492
595.652692	2625.238839
596.004141	2631.628501
596.355535	2627.091463
596.706876	2630.942904
597.058162	2629.788480
597.409395	2634.600261
597.760573	2636.069758
598.111698	2635.363996
598.462768	2637.418266
598.813785	2640.226189
599.164748	2643.341622
599.515657	2646.222642
599.866511	2648.125677
600.217312	2651.087355
600.568060	2651.757828
600.918753	2654.170021
601.269392	2657.615649
601.619978	2660.877276
601.970510	2667.196362
602.320988	2666.357010
602.671412	2670.762978
603.021783	2672.245078
603.372100	2673.570901
603.722363	2677.744977
604.072572	2683.121367
604.422728	2687.461801
604.772830	2684.474917
605.122878	2686.524146
605.472872	2691.144363
605.822813	2694.421113
606.172701	2700.011753
606.522534	2705.166333
606.872314	2711.866026
607.222041	2715.067159
607.571714	2718.442212
607.921333	2722.961606
608.270899	2726.654251
608.620411	2734.911661
608.969870	2741.530696
609.319276	2744.777199
609.668627	2755.419075
610.017926	2760.772780
610.367171	2774.429266
610.716362	2772.203597
611.065500	2780.408075
611.414585	2787.516102
611.763616	2789.741771
612.112594	2797.414407
612.461518	2805.961683
612.810389	2811.723722
613.159207	2819.177068
613.507971	2821.352326
613.856682	2835.848164
614.205340	2840.894359
614.553945	2849.867613
614.902496	2853.285515
615.250994	2866.337062
615.599439	2870.750593
615.947830	2880.961450
616.296169	2890.794220
616.644454	2902.411559
616.992686	2909.688465
617.340864	2927.196392
617.688990	2930.054727
618.037063	2943.171809
618.385082	2952.172789
618.733048	2970.036118
619.080961	2972.622230
619.428821	2985.401555
619.776628	2998.193483
620.124382	3002.410408
620.472083	3013.185874
620.819731	3022.201978
621.167326	3022.816998
621.514868	3030.340921
621.862357	3031.704553
622.209793	3040.231664
622.557176	3045.668549
622.904506	3047.866492
623.251783	3048.267264
623.599007	3055.534087
623.946179	3061.056671
624.293297	3067.106056
624.640363	3067.710994
624.987376	3080.185329
625.334336	3080.550813
625.681243	3090.212184
626.028097	3095.225612
626.374899	3103.036880
626.721647	3113.260340
627.068343	3116.363170
627.414987	3123.783748
627.761577	3133.722383
628.108115	3143.605565
628.454600	3147.512459
628.801032	3169.101201
629.147412	3168.193793
629.493739	3179.511183
629.840014	3183.032429
630.186236	3203.963300
630.532405	3194.301929
630.878521	3217.340002
631.224585	3222.602967
631.570597	3220.644478
631.916556	3244.466451
632.262462	3251.380393
632.608316	3261.069491
632.954117	3265.901437
633.299866	3272.185235
633.645562	3286.401289
633.991206	3282.242337
634.336797	3281.236627
634.682336	3282.512039
635.027823	3285.816515
635.373257	3291.182823
635.718639	3290.799696
636.063968	3301.859987
636.409245	3291.258441
636.754470	3302.563228
637.099642	3303.410142
637.444762	3308.985658
637.789829	3320.318172
638.134845	3318.707523
638.479808	3328.126919
638.824719	3333.415090
639.169577	3332.986592
639.514383	3350.527287
639.859137	3343.512521
640.203839	3357.690766
640.548489	3364.950028
640.893086	3366.417003
641.237632	3373.741800
641.582125	3385.661608
641.926566	3393.379615
642.270955	3406.421080
642.615292	3421.284922
642.959576	3436.877211
643.303809	3441.000875
643.647990	3457.215746
643.992118	3458.110551
644.336195	3460.250521
