Dividing Wavelength (nm)	Counts (n)	Blue Motor Position (mm): 19.000000	Red Motor Position (mm): 0.000000	
326.493990	2133.920423
326.888308	2133.920423
327.282561	2133.920423
327.676750	2103.048397
328.070874	2098.511358
328.464933	2103.623088
328.858929	2106.990579
329.252859	2121.589761
329.646726	2129.763992
330.040528	2144.153965
330.434265	2160.285658
330.827938	2177.420540
331.221547	2194.648683
331.615091	2213.142156
332.008571	2235.300548
332.401986	2252.843763
332.795338	2272.955446
333.188625	2293.039403
333.581847	2313.725778
333.975006	2328.410659
334.368100	2347.267095
334.761129	2364.313757
335.154095	2381.340254
335.546996	2402.687020
335.939833	2419.922725
336.332606	2438.224634
336.725315	2453.743826
337.117960	2459.488221
337.510540	2468.995837
337.903056	2479.294914
338.295508	2486.576861
338.687896	2494.312512
339.080220	2503.265601
339.472480	2506.973369
339.864676	2513.360511
340.256807	2518.464680
340.648875	2519.853518
341.040879	2523.894002
341.432818	2526.147398
341.824694	2526.654034
342.216506	2527.367357
342.608253	2527.808458
342.999937	2525.789476
343.391557	2524.428365
343.783113	2523.014321
344.174605	2523.508354
344.566033	2523.490710
344.957397	2522.936183
345.348697	2518.046264
345.739934	2520.423168
346.131106	2516.322189
346.522215	2513.431088
346.913260	2514.439318
347.304241	2510.323216
347.695159	2505.513955
348.086012	2509.158710
348.476802	2506.882629
348.867528	2505.856754
349.258191	2501.481032
349.648789	2504.956908
350.039324	2499.641011
350.429796	2502.212000
350.820203	2496.717142
351.210548	2497.677482
351.600828	2495.388798
351.991045	2495.885352
352.381198	2493.132882
352.771288	2495.721514
353.161314	2494.287306
353.551276	2493.947028
353.941175	2493.629435
354.331010	2494.869559
354.720782	2492.321256
355.110490	2493.246308
355.500135	2495.119096
355.889717	2492.089363
356.279235	2493.790752
356.668689	2495.540033
357.058080	2494.677995
357.447408	2495.194713
357.836672	2491.998622
358.225873	2494.519199
358.615010	2489.205823
359.004084	2496.616319
359.393095	2494.809065
359.782043	2500.324087
360.170927	2495.040958
360.559748	2499.928357
360.948505	2500.747544
361.337199	2501.591938
361.725830	2496.742348
362.114398	2500.026659
362.502903	2499.293172
362.891344	2501.165960
363.279722	2500.918944
363.668037	2503.870539
364.056289	2503.394150
364.444478	2504.430107
364.832603	2499.126813
365.220665	2504.321723
365.608665	2501.443224
365.996601	2506.388596
366.384474	2503.056393
366.772284	2505.415653
367.160031	2503.890704
367.547715	2505.080416
367.935336	2506.509583
368.322893	2505.314830
368.710388	2504.568739
369.097820	2509.393123
369.485189	2505.760972
369.872495	2506.131497
370.259738	2507.807680
370.646918	2505.266939
371.034035	2505.559326
371.421090	2508.052176
371.808081	2507.323730
372.195010	2509.304903
372.581875	2508.276508
372.968678	2509.115860
373.355418	2510.882784
373.742096	2509.335150
374.128710	2510.340860
374.515262	2507.714419
374.901751	2510.529903
375.288177	2508.921775
375.674540	2507.225427
376.060841	2511.258350
376.447079	2511.003772
376.833254	2511.273474
377.219367	2508.631909
377.605417	2509.486385
377.991404	2508.697444
378.377329	2512.506036
378.763191	2508.974707
379.148991	2511.109636
379.534727	2513.224400
379.920402	2513.859586
380.306013	2514.945954
380.691563	2515.172806
381.077049	2517.252282
381.462474	2515.558454
381.847835	2512.974863
382.233134	2514.693897
382.618371	2511.578463
383.003545	2514.640964
383.388657	2513.549555
383.773706	2513.975532
384.158693	2514.149452
384.543618	2516.208763
384.928480	2515.969308
385.313280	2513.635254
385.698017	2517.214473
386.082692	2516.110461
386.467305	2518.505009
386.851856	2520.080369
387.236344	2516.662467
387.620770	2517.040554
388.005133	2520.912160
388.389435	2518.167252
388.773674	2518.046264
389.157851	2518.351254
389.541965	2520.017355
389.926018	2520.544156
390.310008	2517.063239
390.693936	2520.014834
391.077802	2519.329237
391.461606	2519.843435
391.845348	2518.792355
392.229027	2519.460307
392.612645	2521.441481
392.996200	2519.757736
393.379694	2522.086749
393.763125	2520.884433
394.146494	2521.471728
394.529801	2524.090607
394.913047	2521.771677
395.296230	2522.913498
395.679351	2522.989115
396.062410	2520.554238
396.445408	2520.939886
396.828343	2521.905267
397.211217	2521.809485
397.594028	2521.141532
397.976778	2519.104906
398.359466	2520.236645
398.742092	2520.135822
399.124656	2520.423168
399.507158	2525.613036
399.889598	2524.461132
400.271977	2524.995494
400.654294	2527.105217
401.036549	2524.614887
401.418742	2525.640762
401.800874	2524.438447
402.182944	2525.247552
402.564952	2523.021883
402.946898	2525.469363
403.328783	2524.806451
403.710606	2526.878365
404.092367	2524.415762
404.474067	2526.487676
404.855705	2526.220495
405.237282	2526.429703
405.618797	2527.730320
406.000250	2528.481452
406.381642	2525.928108
406.762972	2525.502130
407.144240	2526.991791
407.525447	2528.499096
407.906593	2526.412059
408.287677	2526.646472
408.668700	2526.681760
409.049661	2526.107069
409.430560	2523.846111
409.811399	2526.737213
410.192176	2526.928777
410.572891	2531.352389
410.953545	2529.033459
411.334138	2529.724097
411.714669	2528.584796
412.095139	2528.839374
412.475547	2529.081350
412.855894	2529.976154
413.236180	2529.572862
413.616405	2530.399611
413.996568	2530.888603
414.376670	2527.702594
414.756711	2528.211751
415.136691	2528.526823
415.516609	2528.030269
415.896466	2530.170239
416.276262	2530.112266
416.655997	2528.625125
417.035670	2525.045906
417.415283	2528.806607
417.794834	2527.929446
418.174324	2528.577234
418.553753	2531.622091
418.933121	2530.119827
419.312428	2532.164015
419.691674	2532.562266
420.070859	2530.749972
420.449983	2531.135620
420.829045	2531.412883
421.208047	2533.320960
421.586988	2530.258459
421.965867	2530.762574
422.344686	2532.342976
422.723444	2536.965714
423.102141	2531.843902
423.480777	2534.412370
423.859352	2530.810465
424.237866	2535.844057
424.616319	2533.787267
424.994712	2535.105528
425.373044	2531.584283
425.751314	2535.715508
426.129524	2535.256763
426.507673	2533.358769
426.885762	2533.691485
427.263789	2535.733152
427.641756	2535.264325
428.019662	2533.762061
428.397508	2534.883718
428.775292	2536.159130
429.153016	2533.880528
429.530679	2538.830941
429.908282	2531.697708
430.285824	2535.649973
430.663305	2535.665097
431.040726	2536.887576
431.418086	2533.560415
431.795385	2535.662576
432.172624	2538.200797
432.549802	2536.196938
432.926920	2534.929088
433.303977	2534.752648
433.680974	2533.628470
434.057910	2539.796322
434.434786	2536.506969
434.811601	2537.968904
435.188355	2539.463606
435.565050	2537.018646
435.941683	2539.042670
436.318257	2537.071578
436.694770	2532.698378
437.071222	2537.326157
437.447614	2534.482946
437.823946	2533.406660
438.200218	2537.802546
438.576429	2539.400592
438.952580	2537.116949
439.328670	2535.647452
439.704700	2540.562577
440.080670	2538.415046
440.456580	2537.724408
440.832429	2538.135262
441.208218	2537.739531
441.583947	2539.183822
441.959616	2539.508976
442.335224	2538.848585
442.710773	2541.381765
443.086261	2539.748431
443.461689	2537.379089
443.837057	2538.435211
444.212365	2540.217258
444.587612	2539.357742
444.962800	2541.225489
445.337927	2540.890252
445.712995	2541.681714
446.088002	2541.626261
446.462949	2540.542413
446.837837	2542.095088
447.212664	2544.290511
447.587431	2540.814635
447.962139	2540.421425
448.336786	2542.936961
448.711374	2541.633823
449.085901	2542.735315
449.460369	2540.877650
449.834776	2544.681200
450.209124	2543.365459
450.583412	2543.317568
450.957640	2542.974770
451.331808	2543.506611
451.705917	2543.869574
452.079965	2539.912269
452.453954	2540.887732
452.827883	2544.091385
453.201752	2543.597352
453.575562	2541.545603
453.949311	2543.579708
454.323001	2540.179450
454.696632	2544.865202
455.070202	2542.223638
455.443713	2542.321940
455.817164	2543.085675
456.190556	2538.659542
456.563888	2541.792619
456.937160	2540.123997
457.310373	2546.312013
457.683526	2541.374203
458.056619	2542.377393
458.429653	2545.470141
458.802628	2542.929399
459.175542	2543.758669
459.548398	2543.060469
459.921194	2545.089534
460.293930	2547.942827
460.666607	2546.420398
461.039224	2546.523742
461.411782	2543.146169
461.784280	2544.414019
462.156719	2544.630789
462.529099	2547.531973
462.901419	2543.904862
463.273680	2546.357384
463.645882	2547.894936
464.018024	2548.343598
464.390106	2547.652960
464.762130	2546.674977
465.134094	2545.795295
465.505999	2548.273022
465.877845	2546.695141
466.249631	2549.003990
466.621358	2547.289997
466.993026	2548.744370
467.364634	2553.989691
467.736184	2547.784030
468.107674	2547.524411
468.479105	2548.434339
468.850477	2549.162786
469.221790	2547.887374
469.593043	2549.409803
469.964238	2549.669422
470.335373	2545.044163
470.706449	2549.704710
471.077467	2549.366953
471.448425	2551.960626
471.819324	2550.571788
472.190164	2551.194371
472.560945	2550.647406
472.931667	2551.065822
473.302330	2547.882333
473.672934	2551.096068
474.043479	2550.939793
474.413965	2549.818136
474.784393	2545.928886
475.154761	2550.090358
475.525070	2545.742363
475.895321	2546.513660
476.265513	2545.777651
476.635645	2551.096068
477.005719	2555.670916
477.375734	2553.097407
477.745691	2552.888199
478.115588	2553.508261
478.485427	2550.249155
478.855207	2553.825853
479.224928	2552.129505
479.594591	2554.755946
479.964194	2553.485575
480.333739	2554.309804
480.703226	2553.563713
481.072653	2556.550597
481.442022	2556.651420
481.811333	2554.796275
482.180584	2556.686708
482.549777	2557.226112
482.918912	2553.747715
483.287988	2557.011863
483.657005	2556.966492
484.025964	2554.897098
484.394864	2555.549928
484.763706	2558.002449
485.132489	2558.352809
485.501213	2558.073025
485.869879	2558.262069
486.238487	2554.695452
486.607036	2558.309960
486.975527	2557.458005
487.343959	2561.352296
487.712333	2559.519837
488.080648	2557.994887
488.448905	2559.134188
488.817104	2559.774415
489.185244	2560.210475
489.553326	2562.753737
489.921350	2563.963614
490.289315	2564.203068
490.657222	2565.690209
491.025070	2568.130127
491.392861	2568.571228
491.760593	2564.608881
492.128267	2568.079716
492.495883	2569.340004
492.863440	2567.557956
493.230939	2568.122566
493.598380	2568.808162
493.965763	2566.373285
494.333088	2568.530899
494.700354	2568.926630
495.067563	2574.187074
495.434713	2569.372772
495.801805	2579.729822
496.168839	2578.638412
496.535815	2579.134966
496.902733	2580.261664
497.269593	2586.860534
497.636395	2588.541759
498.003139	2589.590319
498.369825	2593.290526
498.736453	2597.391505
499.103023	2598.989551
499.469535	2602.639346
499.835989	2606.430294
500.202385	2607.930037
500.568723	2613.865996
500.935003	2618.390431
501.301226	2622.541821
501.667390	2628.268572
502.033497	2639.412043
502.399546	2640.238792
502.765537	2644.884215
503.131470	2649.257416
503.497345	2656.904847
503.863163	2663.231495
504.228923	2667.823986
504.594625	2680.671366
504.960269	2683.489371
505.325856	2693.342307
505.691385	2700.631815
506.056856	2710.459544
506.422270	2720.269630
506.787625	2727.785990
507.152924	2739.622619
507.518164	2747.007910
507.883347	2755.106523
508.248472	2766.018101
508.613540	2781.628034
508.978550	2792.383336
509.343503	2801.971610
509.708398	2817.400062
510.073236	2835.044100
510.438016	2847.750328
510.802738	2862.634335
511.167403	2880.454814
511.532010	2894.842267
511.896561	2916.138621
512.261053	2937.213165
512.625488	2945.699948
512.989866	2962.028245
513.354186	2975.641881
513.718449	2994.175683
514.082655	3022.398583
514.446803	3038.164791
514.810894	3067.020356
515.174927	3085.256730
515.538904	3106.142230
515.902822	3139.638177
516.266684	3151.628562
516.630488	3179.347346
516.994235	3204.200234
517.357925	3238.664083
517.721558	3266.476128
518.085133	3294.452012
518.448651	3324.671208
518.812112	3342.365658
519.175516	3375.672562
519.538863	3420.405241
519.902152	3437.978703
520.265385	3493.247393
520.628560	3506.346831
520.991678	3544.833520
521.354739	3583.186619
521.717743	3606.244857
522.080690	3637.477325
522.443580	3699.060061
522.806413	3725.407651
523.169189	3767.486162
523.531908	3810.792194
523.894569	3828.015297
524.257174	3870.189590
524.619722	3932.203344
524.982213	3955.415337
525.344647	4015.833565
525.707025	4042.649983
526.069345	4100.141822
526.431608	4137.416114
526.793815	4195.273437
527.155964	4205.902709
527.518057	4248.757558
527.880093	4289.873209
528.242072	4345.404039
528.603995	4383.232858
528.965860	4410.805449
529.327669	4467.067246
529.689421	4501.465559
530.051117	4541.658679
530.412755	4623.915186
530.774337	4635.850118
531.135862	4691.975804
531.497331	4733.154470
531.858743	4759.066000
532.220098	4850.885577
532.581396	4867.304615
532.942638	4908.621912
533.303824	4951.290238
533.664953	5016.421945
534.026025	5041.410945
534.387040	5121.882884
534.747999	5171.797869
535.108902	5248.791411
535.469748	5221.816197
535.830537	5304.304598
536.191270	5352.341752
536.551947	5418.295168
536.912567	5470.287108
537.273131	5490.870140
537.633638	5535.708682
537.994089	5592.303196
538.354483	5631.208301
538.714821	5727.393516
539.075103	5787.355521
539.435328	5832.274722
539.795497	5809.375281
540.155609	5934.539569
540.515665	6017.146437
540.875665	5968.433767
541.235609	6057.314350
541.595496	6103.274550
541.955328	6229.061421
542.315102	6227.780968
542.674821	6268.047184
543.034483	6316.003681
543.394090	6373.170365
543.753640	6396.009313
544.113134	6556.963273
544.472571	6543.836108
544.831953	6666.595766
545.191278	6628.101515
545.550548	6691.027718
545.909761	6806.192878
546.268918	6863.714964
546.628019	6951.362985
546.987064	6944.174300
547.346053	6940.993332
547.704986	7059.513379
548.063863	7104.273784
548.422684	7144.955896
548.781449	7158.322515
549.140158	7270.752849
549.498811	7259.579131
549.857408	7209.364198
550.215949	7407.960453
550.574434	7365.022426
550.932864	7486.947773
551.291237	7559.762199
551.649555	7599.395750
552.007817	7651.768298
552.366022	7667.083323
552.724173	7718.014100
553.082267	7753.397959
553.440305	7913.729337
553.798288	7803.486864
554.156215	7973.643450
554.514086	8005.332143
554.871902	7940.603728
555.229661	8018.492075
555.587365	8043.329840
555.945014	8009.987649
556.302606	8155.243456
556.660143	8111.934903
557.017625	8279.409595
557.375050	8244.159327
557.732421	8386.619814
558.089735	8370.939305
558.446994	8403.268225
558.804197	8479.717323
559.161345	8524.412193
559.518437	8449.054505
559.875474	8561.588182
560.232455	8623.070094
560.589381	8622.021534
560.946251	8671.797887
561.303065	8777.210935
561.659825	8773.851006
562.016528	8757.207636
562.373177	8688.363119
562.729770	8831.620108
563.086307	8800.183473
563.442789	8900.648628
563.799216	8854.350671
564.155587	8922.020600
564.511904	8923.507740
564.868164	8941.476933
565.224370	8991.190272
565.580520	8970.902148
565.936615	8992.841249
566.292654	8927.762474
566.648638	9057.584788
567.004567	9062.941014
567.360441	9075.843848
567.716260	9027.962968
568.072023	9140.174012
568.427732	9128.889389
568.783385	9070.205317
569.138982	9158.070108
569.494525	9205.136841
569.850013	9122.287998
570.205445	9222.596877
570.560823	9149.167430
570.916145	9109.546482
571.271412	9186.477010
571.626625	9156.409048
571.981782	9159.703442
572.336884	9163.872476
572.691931	9191.984470
573.046923	9168.830451
573.401860	9143.012181
573.756743	9115.449673
574.111570	9173.690123
574.466342	9172.167695
574.821059	9219.325168
575.175722	9145.905804
575.530330	9167.993619
575.884882	9178.330505
576.239380	9129.320408
576.593823	9120.538717
576.948211	9161.258638
577.302544	9052.072287
577.656823	9096.134492
578.011047	9109.949774
578.365216	9094.380170
578.719330	9038.927478
579.073389	9064.201303
579.427394	9029.974389
579.781344	9020.008028
580.135239	8984.989652
580.489080	8999.558587
580.842866	8924.931866
581.196597	8939.311757
581.550273	8984.495619
581.903895	8974.998085
582.257463	9038.352786
582.610975	8940.806459
582.964434	8969.167991
583.317837	8906.009895
583.671186	8895.373060
584.024481	8910.133559
584.377721	8838.108073
584.730906	8822.157862
585.084037	8853.806226
585.437113	8805.121283
585.790135	8837.707302
586.143103	8739.397240
586.496016	8726.726300
586.848874	8792.422617
587.201679	8783.696379
587.554428	8679.198301
587.907124	8733.874656
588.259765	8708.384061
588.612352	8721.770845
588.964884	8602.532433
589.317362	8622.253427
589.669786	8626.450188
590.022155	8677.925410
590.374470	8693.149694
590.726731	8641.568608
591.078937	8502.291610
591.431090	8618.560782
591.783188	8499.544181
592.135232	8499.720621
592.487222	8498.026794
592.839157	8553.298004
593.191038	8496.252308
593.542866	8443.995707
593.894639	8349.320317
594.246358	8403.220334
594.598022	8421.756657
594.949633	8322.851739
595.301190	8309.046539
595.652692	8332.200558
596.004141	8451.350750
596.355535	8231.574087
596.706876	8212.528607
597.058162	8152.894278
597.409395	8229.953356
597.760573	8290.124568
598.111698	8205.801188
598.462768	8193.573869
598.813785	8158.603385
599.164748	8132.021380
599.515657	8127.575083
599.866511	8039.117956
600.217312	8161.391143
600.568060	8024.922067
600.918753	8129.919219
601.269392	8097.106349
601.619978	8014.953185
601.970510	8081.093124
602.320988	8079.616066
602.671412	8127.088611
603.021783	8069.450579
603.372100	8045.631127
603.722363	8046.946868
604.072572	8026.389043
604.422728	8038.845734
604.772830	7965.426369
605.122878	7978.959347
605.472872	7972.854509
605.822813	8005.589242
606.172701	7942.068183
606.522534	8021.925101
606.872314	8025.151439
607.222041	7995.481728
607.571714	8052.729072
607.921333	8013.503853
608.270899	8016.241200
608.620411	8100.105835
608.969870	8017.234307
609.319276	8006.468923
609.668627	8022.535081
610.017926	8054.138074
610.367171	8105.348635
610.716362	8084.682425
611.065500	8075.915859
611.414585	8101.746731
611.763616	8093.058302
612.112594	8074.038029
612.461518	8092.181142
612.810389	8144.833473
613.159207	8085.972961
613.507971	8035.548819
613.856682	8156.067684
614.205340	8108.413657
614.553945	8198.375568
614.902496	8090.666275
615.250994	8143.966394
615.599439	8128.762274
615.947830	8136.205538
616.296169	8110.535983
616.644454	8126.556770
616.992686	8119.451263
617.340864	8181.402003
617.688990	8090.802386
618.037063	8175.226589
618.385082	8127.519630
618.733048	8210.880150
619.080961	8151.976788
619.428821	8170.462699
619.776628	8169.484715
620.124382	8119.758774
620.472083	8107.014737
620.819731	8136.404664
621.167326	8029.544805
621.514868	8036.609982
621.862357	7928.401615
622.209793	7947.245448
622.557176	7878.973101
622.904506	7854.236159
623.251783	7789.046478
623.599007	7738.702996
623.946179	7740.885815
624.293297	7700.334774
624.640363	7617.216229
624.987376	7607.330526
625.334336	7555.275572
625.681243	7502.875298
626.028097	7492.372054
626.374899	7468.038404
626.721647	7456.869728
627.068343	7395.970069
627.414987	7365.148454
627.761577	7320.314953
628.108115	7357.377516
628.454600	7250.595795
628.801032	7300.888866
629.147412	7261.272959
629.493739	7249.224601
629.840014	7189.494490
630.186236	7243.185299
630.532405	7127.561394
630.878521	7179.976791
631.224585	7140.799464
631.570597	7062.253246
631.916556	7097.226251
632.262462	7092.515293
632.608316	7048.934518
632.954117	7028.845520
633.299866	7019.239601
633.645562	7013.631317
633.991206	6934.863288
634.336797	6874.999587
634.682336	6829.331774
635.027823	6802.885881
635.373257	6794.925899
635.718639	6726.867801
636.063968	6736.531693
636.409245	6636.439584
636.754470	6631.022864
637.099642	6591.061637
637.444762	6541.043309
637.789829	6542.076745
638.134845	6487.163457
638.479808	6472.034954
638.824719	6480.604915
639.169577	6398.030815
639.514383	6429.018788
639.859137	6354.954156
640.203839	6366.700044
640.548489	6349.935687
640.893086	6326.625392
641.237632	6294.067100
641.582125	6315.265152
641.926566	6289.840092
642.270955	6301.623789
642.615292	6294.314116
642.959576	6312.023690
643.303809	6299.529190
643.647990	6308.734337
643.992118	6301.212935
644.336195	6245.044399
