Dividing Wavelength (nm)	Counts (n)	Blue Motor Position (mm): 16.900000	Red Motor Position (mm): 0.000000	
326.493990	2133.411267
326.888308	2133.411267
327.282561	2133.411267
327.676750	2101.732656
328.070874	2102.052769
328.464933	2103.754158
328.858929	2109.748090
329.252859	2117.927363
329.646726	2130.449589
330.040528	2144.070786
330.434265	2160.000833
330.827938	2179.507577
331.221547	2198.159847
331.615091	2214.599049
332.008571	2233.891545
332.401986	2253.383166
332.795338	2274.435025
333.188625	2294.150978
333.581847	2313.733340
333.975006	2330.079281
334.368100	2351.065604
334.761129	2366.839375
335.154095	2381.617517
335.546996	2405.217679
335.939833	2421.614032
336.332606	2436.253543
336.725315	2451.190482
337.117960	2458.505196
337.510540	2466.258490
337.903056	2479.799030
338.295508	2484.847745
338.687896	2493.160608
339.080220	2502.448934
339.472480	2510.355984
339.864676	2511.636437
340.256807	2517.433764
340.648875	2520.481141
341.040879	2522.369053
341.432818	2525.560104
341.824694	2527.647141
342.216506	2524.682943
342.608253	2528.239477
342.999937	2526.464991
343.391557	2528.216792
343.783113	2526.921215
344.174605	2527.140505
344.566033	2523.715041
344.957397	2521.232273
345.348697	2519.334279
345.739934	2518.242869
346.131106	2518.036182
346.522215	2516.266737
346.913260	2514.000738
347.304241	2511.984276
347.695159	2510.303052
348.086012	2506.083606
348.476802	2507.288442
348.867528	2504.039418
349.258191	2502.542195
349.648789	2504.677124
350.039324	2499.262925
350.429796	2499.809890
350.820203	2497.387615
351.210548	2498.736124
351.600828	2496.911226
351.991045	2494.236894
352.381198	2493.730258
352.771288	2495.073726
353.161314	2494.907368
353.551276	2495.514827
353.941175	2493.362254
354.331010	2489.677171
354.720782	2491.907881
355.110490	2493.120279
355.500135	2494.148674
355.889717	2495.671103
356.279235	2492.532984
356.668689	2494.562049
357.058080	2495.756802
357.447408	2491.280257
357.836672	2490.261944
358.225873	2494.771257
358.615010	2489.687253
359.004084	2496.636483
359.393095	2496.858294
359.782043	2496.704539
360.170927	2498.184118
360.559748	2497.629591
360.948505	2499.303254
361.337199	2499.688902
361.725830	2496.843171
362.114398	2500.800477
362.502903	2500.162771
362.891344	2500.303923
363.279722	2500.908861
363.668037	2503.416835
364.056289	2501.939777
364.444478	2502.451454
364.832603	2504.649397
365.220665	2504.430107
365.608665	2503.547905
365.996601	2505.395488
366.384474	2503.850375
366.772284	2506.575118
367.160031	2507.404388
367.547715	2506.010509
367.935336	2508.901611
368.322893	2508.095026
368.710388	2510.282887
369.097820	2510.398833
369.485189	2505.087978
369.872495	2506.010509
370.259738	2507.994203
370.646918	2508.699965
371.034035	2507.580828
371.421090	2510.093844
371.808081	2506.217196
372.195010	2509.735922
372.581875	2505.380365
372.968678	2510.126611
373.355418	2510.184584
373.742096	2511.059225
374.128710	2507.457320
374.515262	2509.642660
374.901751	2509.224245
375.288177	2510.779441
375.674540	2510.245078
376.060841	2512.523680
376.447079	2511.848165
376.833254	2512.027126
377.219367	2508.747856
377.605417	2510.660973
377.991404	2506.323061
378.377329	2511.268432
378.763191	2507.066631
379.148991	2514.278001
379.534727	2514.056191
379.920402	2511.510408
380.306013	2512.947137
380.691563	2515.860924
381.077049	2515.344205
381.462474	2516.118022
381.847835	2513.685666
382.233134	2514.398989
382.618371	2513.400841
383.003545	2516.435615
383.388657	2514.819925
383.773706	2513.741118
384.158693	2518.694052
384.543618	2515.623989
384.928480	2517.839577
385.313280	2515.825636
385.698017	2516.296983
386.082692	2518.134484
386.467305	2518.855369
386.851856	2518.716737
387.236344	2515.596263
387.620770	2516.972498
388.005133	2516.695235
388.389435	2521.149094
388.773674	2517.693383
389.157851	2517.229597
389.541965	2516.748167
389.926018	2519.977026
390.310008	2518.779752
390.693936	2519.722447
391.077802	2517.945441
391.461606	2519.843435
391.845348	2521.007942
392.229027	2519.001562
392.612645	2519.931655
392.996200	2520.665143
393.379694	2520.501306
393.763125	2519.493075
394.146494	2521.073477
394.529801	2522.540453
394.913047	2520.687828
395.296230	2521.015503
395.679351	2524.330062
396.062410	2524.244362
396.445408	2521.907788
396.828343	2522.600946
397.211217	2518.016017
397.594028	2520.818898
397.976778	2517.658095
398.359466	2523.011800
398.742092	2520.740761
399.124656	2524.700587
399.507158	2521.912829
399.889598	2523.037006
400.271977	2520.592047
400.654294	2524.935001
401.036549	2524.098169
401.418742	2527.271575
401.800874	2522.358971
402.182944	2525.572707
402.564952	2524.428365
402.946898	2525.550021
403.328783	2524.478776
403.710606	2524.647655
404.092367	2524.428365
404.474067	2527.193438
404.855705	2525.038344
405.237282	2527.034641
405.618797	2527.692512
406.000250	2524.418282
406.381642	2527.621936
406.762972	2528.516740
407.144240	2524.874507
407.525447	2527.074970
407.906593	2529.535053
408.287677	2526.286030
408.668700	2526.253262
409.049661	2527.768129
409.430560	2526.225536
409.811399	2529.852646
410.192176	2531.072605
410.572891	2528.993129
410.953545	2529.403983
411.334138	2529.353572
411.714669	2528.824251
412.095139	2528.105886
412.475547	2529.426669
412.855894	2528.625125
413.236180	2528.877183
413.616405	2530.170239
413.996568	2528.184024
414.376670	2532.000178
414.756711	2529.527492
415.136691	2529.371216
415.516609	2530.455064
415.896466	2529.729138
416.276262	2531.460774
416.655997	2527.261493
417.035670	2525.970958
417.415283	2530.107224
417.794834	2525.028262
418.174324	2526.989271
418.553753	2531.508665
418.933121	2532.277441
419.312428	2530.276103
419.691674	2532.983203
420.070859	2530.797862
420.449983	2530.238294
420.829045	2531.972451
421.208047	2532.900024
421.586988	2532.736186
421.965867	2533.958666
422.344686	2532.975641
422.723444	2529.477080
423.102141	2531.906916
423.480777	2531.801052
423.859352	2534.044366
424.237866	2534.712318
424.616319	2533.283151
424.994712	2536.282638
425.373044	2533.021011
425.751314	2533.167205
426.129524	2533.542771
426.507673	2532.015301
426.885762	2533.996475
427.263789	2534.873635
427.641756	2535.115611
428.019662	2533.424304
428.397508	2535.425642
428.775292	2536.328008
429.153016	2534.397246
429.530679	2537.187525
429.908282	2533.434386
430.285824	2535.539068
430.663305	2536.582587
431.040726	2535.138296
431.418086	2533.961187
431.795385	2534.374561
432.172624	2536.179294
432.549802	2537.089223
432.926920	2536.794315
433.303977	2537.474871
433.680974	2535.455889
434.057910	2536.839685
434.434786	2537.023687
434.811601	2534.780374
435.188355	2536.030580
435.565050	2537.938657
435.941683	2535.226516
436.318257	2535.702905
436.694770	2534.805580
437.071222	2537.719367
437.447614	2535.619726
437.823946	2534.634181
438.200218	2537.177443
438.576429	2537.341280
438.952580	2537.086702
439.328670	2537.263142
439.704700	2537.227854
440.080670	2537.908410
440.456580	2538.692309
440.832429	2538.062165
441.208218	2537.646270
441.583947	2541.482588
441.959616	2537.994110
442.335224	2537.328677
442.710773	2537.618544
443.086261	2538.528472
443.461689	2539.045190
443.837057	2539.398071
444.212365	2536.312885
444.587612	2539.592155
444.962800	2538.364634
445.337927	2540.739018
445.712995	2538.657021
446.088002	2539.214069
446.462949	2540.532331
446.837837	2540.774306
447.212664	2539.382947
447.587431	2540.106353
447.962139	2540.028215
448.336786	2543.418391
448.711374	2542.236241
449.085901	2543.083154
449.460369	2539.960160
449.834776	2540.204656
450.209124	2542.841179
450.583412	2542.430325
450.957640	2540.517207
451.331808	2541.482588
451.705917	2538.626774
452.079965	2540.434028
452.453954	2543.637681
452.827883	2542.382434
453.201752	2540.575180
453.575562	2542.747918
453.949311	2539.478729
454.323001	2542.639533
454.696632	2540.837320
455.070202	2542.758000
455.443713	2543.118442
455.817164	2539.025026
456.190556	2539.647608
456.563888	2540.980993
456.937160	2537.910931
457.310373	2541.991745
457.683526	2543.196580
458.056619	2543.236910
458.429653	2542.994934
458.802628	2544.950902
459.175542	2544.093906
459.548398	2544.570295
459.921194	2545.719678
460.293930	2545.175233
460.666607	2543.042825
461.039224	2547.496685
461.411782	2542.364790
461.784280	2545.855789
462.156719	2545.434853
462.529099	2544.484595
462.901419	2544.033412
463.273680	2546.879143
463.645882	2543.196580
464.018024	2547.090872
464.390106	2545.223124
464.762130	2546.075079
465.134094	2546.266643
465.505999	2546.564071
465.877845	2546.349822
466.249631	2549.298897
466.621358	2546.170861
466.993026	2548.797302
467.364634	2549.316541
467.736184	2547.378217
468.107674	2546.430481
468.479105	2545.361756
468.850477	2547.400903
469.221790	2548.572971
469.593043	2545.507949
469.964238	2548.852755
470.335373	2543.806560
470.706449	2546.561551
471.077467	2548.537683
471.448425	2548.109185
471.819324	2547.620193
472.190164	2547.852086
472.560945	2547.564740
472.931667	2546.559030
473.302330	2549.792930
473.672934	2544.698844
474.043479	2547.791592
474.413965	2548.336037
474.784393	2543.236910
475.154761	2544.040974
475.525070	2546.440563
475.895321	2544.802188
476.265513	2544.121632
476.635645	2549.087169
477.005719	2547.625234
477.375734	2550.470965
477.745691	2548.671273
478.115588	2548.676315
478.485427	2547.882333
478.855207	2549.029195
479.224928	2549.324103
479.594591	2548.976263
479.964194	2552.270657
480.333739	2550.828887
480.703226	2550.556665
481.072653	2551.758980
481.442022	2549.704710
481.811333	2550.307128
482.180584	2551.017931
482.549777	2551.983312
482.918912	2553.213353
483.287988	2548.686397
483.657005	2553.450287
484.025964	2553.115051
484.394864	2549.785368
484.763706	2552.835267
485.132489	2551.811912
485.501213	2553.906512
485.869879	2552.580688
486.238487	2551.325441
486.607036	2549.465255
486.975527	2550.803682
487.343959	2551.345606
487.712333	2553.974567
488.080648	2551.529608
488.448905	2550.533980
488.817104	2553.387273
489.185244	2551.295194
489.553326	2551.675801
489.921350	2554.365257
490.289315	2555.688560
490.657222	2551.393497
491.025070	2556.855587
491.392861	2556.023796
491.760593	2555.653272
492.128267	2555.605381
492.495883	2554.634958
492.863440	2555.925494
493.230939	2554.944989
493.598380	2556.376677
493.965763	2549.263609
494.333088	2550.982642
494.700354	2550.697817
495.067563	2552.515153
495.434713	2552.769732
495.801805	2555.192006
496.168839	2556.258210
496.535815	2555.013045
496.902733	2554.748384
497.269593	2555.625545
497.636395	2555.247459
498.003139	2556.782490
498.369825	2559.129147
498.736453	2556.293498
499.103023	2553.838456
499.469535	2558.670402
499.835989	2557.962120
500.202385	2555.557490
500.568723	2558.700649
500.935003	2559.338355
501.301226	2557.251317
501.667390	2561.826164
502.033497	2561.327090
502.399546	2559.358520
502.765537	2559.038406
503.131470	2558.365412
503.497345	2562.224416
503.863163	2561.609395
504.228923	2560.404559
504.594625	2559.045968
504.960269	2561.168294
505.325856	2558.957748
505.691385	2558.917419
506.056856	2563.298181
506.422270	2562.085784
506.787625	2562.421021
507.152924	2560.517985
507.518164	2563.451937
507.883347	2561.742985
508.248472	2563.729200
508.613540	2562.524364
508.978550	2565.831361
509.343503	2565.170970
509.708398	2568.372103
510.073236	2566.655590
510.438016	2564.591237
510.802738	2567.278172
511.167403	2567.426886
511.532010	2567.900755
511.896561	2569.667679
512.261053	2572.442834
512.625488	2567.341187
512.989866	2565.465877
513.354186	2567.983934
513.718449	2569.816393
514.082655	2569.629871
514.446803	2575.512897
514.810894	2579.402147
515.174927	2577.010120
515.538904	2579.392065
515.902822	2580.685121
516.266684	2581.474062
516.630488	2582.663774
516.994235	2586.837849
517.357925	2584.891964
517.721558	2588.375401
518.085133	2592.002511
518.448651	2591.294229
518.812112	2595.871597
519.175516	2596.683223
519.538863	2597.905702
519.902152	2602.162957
520.265385	2605.248143
520.628560	2608.671087
520.991678	2609.248299
521.354739	2615.181737
521.717743	2617.442694
522.080690	2619.383538
522.443580	2624.699435
522.806413	2630.416104
523.169189	2631.220168
523.531908	2637.982876
523.894569	2637.509007
524.257174	2642.978659
524.619722	2646.625934
524.982213	2654.331337
525.344647	2661.557832
525.707025	2665.172339
526.069345	2674.480829
526.431608	2678.445697
526.793815	2682.317303
527.155964	2686.105730
527.518057	2694.181659
527.880093	2698.605271
528.242072	2707.044163
528.603995	2715.611604
528.965860	2718.888354
529.327669	2729.378995
529.689421	2738.264028
530.051117	2741.770151
530.412755	2752.293560
530.774337	2756.329003
531.135862	2769.015067
531.497331	2772.034718
531.858743	2779.147786
532.220098	2796.748975
532.581396	2800.635704
532.942638	2809.314051
533.303824	2819.187151
533.664953	2833.970334
534.026025	2840.211283
534.387040	2859.317256
534.747999	2867.695653
535.108902	2883.781975
535.469748	2886.340361
535.830537	2902.162022
536.191270	2916.506626
536.551947	2931.753595
536.912567	2947.343364
537.273131	2959.568162
537.633638	2972.019812
537.994089	2987.836432
538.354483	3001.288751
538.714821	3021.206350
539.075103	3036.949873
539.435328	3054.475445
539.795497	3061.898544
540.155609	3094.328286
540.515665	3113.237654
540.875665	3117.968777
541.235609	3146.733601
541.595496	3161.516785
541.955328	3192.885365
542.315102	3203.025646
542.674821	3222.124057
543.034483	3239.395050
543.394090	3260.731734
543.753640	3279.487347
544.113134	3322.279181
544.472571	3329.775377
544.831953	3369.968496
545.191278	3372.849516
545.550548	3398.249369
545.909761	3431.279009
546.268918	3463.393680
546.628019	3491.866117
546.987064	3507.460926
547.346053	3521.324099
547.704986	3568.315215
548.063863	3590.113164
548.422684	3610.033284
548.781449	3638.399856
549.140158	3677.690609
549.498811	3697.454453
549.857408	3698.508054
550.215949	3766.661934
550.574434	3776.744241
550.932864	3826.533197
551.291237	3853.644523
551.649555	3897.008528
552.007817	3919.792023
552.366022	3943.215744
552.724173	3983.875171
553.082267	4006.903161
553.440305	4079.987289
553.798288	4065.680495
554.156215	4138.676402
554.514086	4167.332841
554.871902	4173.717463
555.229661	4215.032239
555.587365	4250.171602
555.945014	4260.810957
556.302606	4330.235207
556.660143	4334.507585
557.017625	4422.243827
557.375050	4432.860497
557.732421	4499.993542
558.089735	4527.692162
558.446994	4556.963622
558.804197	4605.154532
559.161345	4649.685565
559.518437	4636.598729
559.875474	4713.395667
560.232455	4758.461062
560.589381	4776.894041
560.946251	4836.901416
561.303065	4884.797418
561.659825	4916.644908
562.016528	4934.546045
562.373177	4928.042957
562.729770	5017.525958
563.086307	5024.545765
563.442789	5091.547741
563.799216	5112.816369
564.155587	5160.520808
564.511904	5186.346639
564.868164	5224.833328
565.224370	5258.611579
565.580520	5298.040964
565.936615	5315.006967
566.292654	5330.884081
566.648638	5403.907715
567.004567	5436.231594
567.360441	5465.518177
567.716260	5485.251774
568.072023	5558.257764
568.427732	5585.442186
568.783385	5572.882151
569.138982	5661.825749
569.494525	5703.188416
569.850013	5694.343712
570.205445	5779.135919
570.560823	5767.531183
570.916145	5785.419718
571.271412	5853.984451
571.626625	5872.785434
571.981782	5905.620990
572.336884	5937.269354
572.691931	5962.205421
573.046923	5994.869578
573.401860	6013.363051
573.756743	6029.283014
574.111570	6085.244863
574.466342	6111.781497
574.821059	6169.066649
575.175722	6157.744217
575.530330	6206.643410
575.884882	6229.570577
576.239380	6241.634058
576.593823	6266.491988
576.948211	6318.246994
577.302544	6276.912053
577.656823	6341.867320
578.011047	6373.059460
578.365216	6398.789509
578.719330	6387.215020
579.073389	6440.873061
579.427394	6439.080931
579.781344	6460.122707
580.135239	6469.529500
580.489080	6506.445870
580.842866	6489.457182
581.196597	6528.639550
581.550273	6579.456901
581.903895	6608.889678
582.257463	6670.101888
582.610975	6645.075080
582.964434	6683.806265
583.317837	6682.495565
583.671186	6693.271032
584.024481	6728.609520
584.377721	6706.221756
584.730906	6725.864612
585.084037	6778.032992
585.437113	6761.558502
585.790135	6816.255021
586.143103	6776.003928
586.496016	6788.274096
586.848874	6857.652976
587.201679	6877.492437
587.554428	6840.278639
587.907124	6892.666310
588.259765	6901.571508
588.612352	6938.150121
588.964884	6870.071859
589.317362	6912.581388
589.669786	6941.615914
590.022155	6992.592062
590.374470	7042.983436
590.726731	7020.305805
591.078937	6950.195958
591.431090	7060.178811
591.783188	6983.220557
592.135232	7015.211719
592.487222	7024.679006
592.839157	7094.975376
593.191038	7075.874444
593.542866	7054.951135
593.894639	7008.012951
594.246358	7071.591984
594.598022	7110.154290
594.949633	7056.042545
595.301190	7063.760551
595.652692	7101.627178
596.004141	7217.719910
596.355535	7060.914820
596.706876	7070.984525
597.058162	7044.367232
597.409395	7118.268027
597.760573	7191.785694
598.111698	7143.917418
598.462768	7148.338510
598.813785	7139.695452
599.164748	7146.561503
599.515657	7148.686349
599.866511	7101.463341
600.217312	7217.288892
600.568060	7122.981506
600.918753	7225.246353
601.269392	7217.999694
601.619978	7164.455079
601.970510	7235.111891
602.320988	7246.071359
602.671412	7316.299674
603.021783	7273.248220
603.372100	7272.179495
603.722363	7294.138761
604.072572	7279.554703
604.422728	7308.904301
604.772830	7262.606344
605.122878	7287.360930
605.472872	7297.675131
605.822813	7334.795667
606.172701	7298.718650
606.522534	7383.087400
606.872314	7394.669451
607.222041	7382.220322
607.571714	7446.812626
607.921333	7423.956035
608.270899	7439.664270
608.620411	7530.921758
608.969870	7458.371992
609.319276	7467.123435
609.668627	7488.417269
610.017926	7534.848816
610.367171	7589.714214
610.716362	7583.735406
611.065500	7579.556289
611.414585	7619.719162
611.763616	7613.110209
612.112594	7608.331195
612.461518	7637.191801
612.810389	7702.925927
613.159207	7660.867580
613.507971	7615.741692
613.856682	7740.419508
614.205340	7705.544806
614.553945	7793.018908
614.902496	7703.820732
615.250994	7765.912623
615.599439	7750.428719
615.947830	7775.304293
616.296169	7756.246211
616.644454	7773.630630
616.992686	7783.985160
617.340864	7839.289138
617.688990	7757.193948
618.037063	7848.784152
618.385082	7811.182185
618.733048	7893.688229
619.080961	7843.143100
619.428821	7872.371710
619.776628	7877.659881
620.124382	7837.673448
620.472083	7830.562901
620.819731	7867.660752
621.167326	7776.887215
621.514868	7785.580685
621.862357	7690.287754
622.209793	7708.635033
622.557176	7660.885224
622.904506	7633.461347
623.251783	7577.113850
623.599007	7540.053808
623.946179	7550.002525
624.293297	7519.372474
624.640363	7441.322810
624.987376	7432.894000
625.334336	7392.773978
625.681243	7341.780186
626.028097	7334.195770
626.374899	7326.152609
626.721647	7312.299518
627.068343	7253.665858
627.414987	7233.171047
627.761577	7192.254522
628.108115	7226.824234
628.454600	7129.529965
628.801032	7187.919129
629.147412	7144.217367
629.493739	7133.898125
629.840014	7082.372491
630.186236	7137.782334
630.532405	7026.312340
630.878521	7080.101451
631.224585	7037.329782
631.570597	6967.114070
631.916556	7009.679053
632.262462	6996.642629
632.608316	6966.488967
632.954117	6946.175638
633.299866	6927.034377
633.645562	6927.001609
633.991206	6855.976793
634.336797	6809.081459
634.682336	6761.117401
635.027823	6737.439101
635.373257	6720.992337
635.718639	6659.517986
636.063968	6678.394587
636.409245	6578.599905
636.754470	6575.310552
637.099642	6538.782351
637.444762	6487.864177
637.789829	6494.853737
638.134845	6437.268636
638.479808	6423.894455
638.824719	6430.452996
639.169577	6362.707450
639.514383	6384.029011
639.859137	6310.269368
640.203839	6322.514331
640.548489	6312.300953
640.893086	6288.531913
641.237632	6261.763386
641.582125	6283.175687
641.926566	6252.588486
642.270955	6268.236227
642.615292	6268.074910
642.959576	6278.439523
643.303809	6269.189005
643.647990	6281.920439
643.992118	6273.393328
644.336195	6214.744544
