Dividing Wavelength (nm)	Counts (n)	Blue Motor Position (mm): 46.200000	Red Motor Position (mm): 0.000000	
326.493990	2131.979579
326.888308	2131.979579
327.282561	2131.979579
327.676750	2098.173601
328.070874	2098.196286
328.464933	2101.145361
328.858929	2105.069900
329.252859	2113.516353
329.646726	2126.182252
330.040528	2139.924437
330.434265	2156.726603
330.827938	2174.952895
331.221547	2192.070133
331.615091	2211.080324
332.008571	2231.154198
332.401986	2248.858731
332.795338	2269.141813
333.188625	2288.371295
333.581847	2308.941723
333.975006	2325.869918
334.368100	2345.343895
334.761129	2362.544312
335.154095	2378.421426
335.546996	2401.058727
335.939833	2424.111924
336.332606	2439.605910
336.725315	2454.628548
337.117960	2466.271093
337.510540	2471.849130
337.903056	2481.669298
338.295508	2490.297232
338.687896	2498.300064
339.080220	2506.499501
339.472480	2514.313289
339.864676	2518.071470
340.256807	2523.823426
340.648875	2524.163704
341.040879	2527.241328
341.432818	2525.867614
341.824694	2531.697708
342.216506	2529.477080
342.608253	2531.904396
342.999937	2532.113604
343.391557	2533.754499
343.783113	2527.243849
344.174605	2531.768285
344.566033	2527.569003
344.957397	2524.882068
345.348697	2523.377284
345.739934	2523.183200
346.131106	2523.072294
346.522215	2518.177334
346.913260	2517.587519
347.304241	2512.843793
347.695159	2513.587363
348.086012	2512.314472
348.476802	2510.499657
348.867528	2510.088803
349.258191	2507.772392
349.648789	2505.513955
350.039324	2504.326764
350.429796	2502.779129
350.820203	2503.192504
351.210548	2501.735611
351.600828	2499.255363
351.991045	2499.260404
352.381198	2501.085302
352.771288	2499.709067
353.161314	2499.081443
353.551276	2497.329642
353.941175	2500.228306
354.331010	2502.559839
354.720782	2498.849550
355.110490	2498.786536
355.500135	2500.225785
355.889717	2502.504387
356.279235	2499.482215
356.668689	2502.948008
357.058080	2499.797287
357.447408	2498.486587
357.836672	2494.408293
358.225873	2501.289468
358.615010	2495.083808
359.004084	2503.989006
359.393095	2503.994048
359.782043	2505.685355
360.170927	2505.443379
360.559748	2506.577639
360.948505	2505.730725
361.337199	2506.512104
361.725830	2506.983452
362.114398	2507.686693
362.502903	2510.812208
362.891344	2510.524862
363.279722	2509.418329
363.668037	2509.350273
364.056289	2509.713237
364.444478	2511.538134
364.832603	2513.635254
365.220665	2514.068793
365.608665	2510.913031
365.996601	2510.991169
366.384474	2513.846983
366.772284	2517.411078
367.160031	2513.897394
367.547715	2517.227076
367.935336	2515.986953
368.322893	2517.295132
368.710388	2514.822446
369.097820	2519.853517
369.485189	2514.688855
369.872495	2519.891326
370.259738	2519.067098
370.646918	2517.789165
371.034035	2520.798734
371.421090	2520.458456
371.808081	2523.311749
372.195010	2524.388035
372.581875	2525.658406
372.968678	2529.794673
373.355418	2532.232071
373.742096	2538.417567
374.128710	2541.013761
374.515262	2549.414844
374.901751	2556.263251
375.288177	2560.613767
375.674540	2571.681620
376.060841	2582.313414
376.447079	2591.291709
376.833254	2606.357197
377.219367	2613.853393
377.605417	2634.048255
377.991404	2644.019657
378.377329	2657.270330
378.763191	2677.608865
379.148991	2703.333873
379.534727	2722.182748
379.920402	2742.382651
380.306013	2757.927049
380.691563	2798.253759
381.077049	2819.247644
381.462474	2840.841427
381.847835	2875.625388
382.233134	2902.585479
382.618371	2913.456728
383.003545	2974.505101
383.388657	2986.056905
383.773706	3026.547452
384.158693	3049.121739
384.543618	3084.568612
384.928480	3125.003707
385.313280	3175.032118
385.698017	3186.142821
386.082692	3242.573498
386.467305	3261.495468
386.851856	3303.712611
387.236344	3333.830985
387.620770	3373.640977
388.005133	3407.832603
388.389435	3445.870629
388.773674	3466.914926
389.157851	3520.202443
389.541965	3542.451575
389.926018	3518.385107
390.310008	3593.959565
390.693936	3618.920838
391.077802	3670.975792
391.461606	3668.757685
391.845348	3731.472159
392.229027	3740.528592
392.612645	3753.106271
392.996200	3838.558870
393.379694	3883.919172
393.763125	3949.640695
394.146494	3925.934669
394.529801	3987.729133
394.913047	4038.949776
395.296230	4009.340559
395.679351	4062.865010
396.062410	4089.046243
396.445408	4074.810024
396.828343	4106.428141
397.211217	4132.669868
397.594028	4052.742373
397.976778	4121.533959
398.359466	4150.467661
398.742092	4178.950180
399.124656	4099.526802
399.507158	4184.656767
399.889598	4208.756003
400.271977	4270.293368
400.654294	4240.351434
401.036549	4251.744442
401.418742	4221.071541
401.800874	4321.609793
402.182944	4341.108976
402.564952	4406.807814
402.946898	4394.527563
403.328783	4389.095720
403.710606	4305.185714
404.092367	4495.753932
404.474067	4458.837562
404.855705	4470.838029
405.237282	4397.259868
405.618797	4506.723483
406.000250	4542.288823
406.381642	4626.183706
406.762972	4585.824228
407.144240	4599.364767
407.525447	4595.089869
407.906593	4657.915248
408.287677	4698.741033
408.668700	4623.269919
409.049661	4676.920398
409.430560	4718.557809
409.811399	4646.930574
410.192176	4806.462929
410.572891	4744.930605
410.953545	4850.542778
411.334138	4728.236824
411.714669	4792.740908
412.095139	4693.654509
412.475547	4832.535777
412.855894	4814.566584
413.236180	4826.098223
413.616405	4777.758599
413.996568	4864.955437
414.376670	4806.954441
414.756711	4759.055918
415.136691	4796.748625
415.516609	4871.503896
415.896466	4910.078805
416.276262	4943.085760
416.655997	4922.021298
417.035670	5108.110452
417.415283	5197.343916
417.794834	5139.219412
418.174324	5094.501857
418.553753	5004.353423
418.933121	5186.850754
419.312428	5254.787864
419.691674	5194.392320
420.070859	5322.152803
420.449983	5231.727106
420.829045	5347.376216
421.208047	5254.155199
421.586988	5324.691024
421.965867	5338.657540
422.344686	5468.736954
422.723444	5323.234130
423.102141	5141.578672
423.480777	5442.535557
423.859352	5208.245411
424.237866	5472.394311
424.616319	5457.177588
424.994712	5567.208332
425.373044	5444.899858
425.751314	5589.633905
426.129524	5393.021343
426.507673	5588.126600
426.885762	5668.621224
427.263789	5601.364670
427.641756	5483.260518
428.019662	5602.604794
428.397508	5611.386484
428.775292	5559.205501
429.153016	5657.520603
429.530679	5586.609213
429.908282	5668.676677
430.285824	5541.354775
430.663305	5816.695036
431.040726	5549.861722
431.418086	5547.613367
431.795385	5655.163864
432.172624	5669.468138
432.549802	5663.857334
432.926920	5674.199261
433.303977	5681.559346
433.680974	5721.618875
434.057910	5737.584209
434.434786	5752.153143
434.811601	5713.021187
435.188355	5950.363751
435.565050	5826.079144
435.941683	5805.060053
436.318257	6019.316653
436.694770	6000.616493
437.071222	6033.610845
437.447614	5967.942254
437.823946	5878.207195
438.200218	6036.133943
438.576429	5900.168982
438.952580	5996.586091
439.328670	6048.809924
439.704700	5955.717456
440.080670	5941.425785
440.456580	6213.000305
440.832429	6092.199135
441.208218	5938.665753
441.583947	6088.193938
441.959616	6099.196257
442.335224	6025.119021
442.710773	6162.172871
443.086261	6185.977199
443.461689	5977.560776
443.837057	6130.882429
444.212365	6285.867663
444.587612	6176.698956
444.962800	6336.889181
445.337927	6312.341282
445.712995	5921.228402
446.088002	6503.617783
446.462949	6332.624365
446.837837	6269.642709
447.212664	6432.398882
447.587431	6583.583086
447.962139	7124.602237
448.336786	8044.300262
448.711374	7793.240718
449.085901	6859.243460
449.460369	6786.333252
449.834776	6719.270783
450.209124	7110.673529
450.583412	7258.034017
450.957640	7404.613127
451.331808	7171.205184
451.705917	6722.247584
452.079965	6645.576675
452.453954	6858.454520
452.827883	6734.898359
453.201752	6829.538461
453.575562	6623.256966
453.949311	6834.751014
454.323001	6720.762964
454.696632	6795.714839
455.070202	6935.715243
455.443713	7087.461536
455.817164	7188.685385
456.190556	7272.988600
456.563888	7348.895774
456.937160	7389.325828
457.310373	7042.842283
457.683526	7066.434883
458.056619	6961.150385
458.429653	6945.215298
458.802628	6884.043417
459.175542	6990.777246
459.548398	7346.440732
459.921194	7511.770414
460.293930	7515.090014
460.666607	8046.697331
461.039224	8347.623969
461.411782	8473.856982
461.784280	8492.239549
462.156719	8388.321204
462.529099	8264.157584
462.901419	7855.176335
463.273680	7744.477637
463.645882	7758.965913
464.018024	7626.058413
464.390106	7794.480842
464.762130	8183.083228
465.134094	8649.417685
465.505999	9674.813583
465.877845	10894.493030
466.249631	11546.329345
466.621358	11162.420274
466.993026	10533.422906
467.364634	10273.836250
467.736184	9912.839223
468.107674	9590.611190
468.479105	9612.116752
468.850477	9378.658397
469.221790	9149.351432
469.593043	8823.612235
469.964238	8683.942027
470.335373	8700.587917
470.706449	8757.076566
471.077467	8735.016477
471.448425	10043.725221
471.819324	11114.824220
472.190164	11139.934207
472.560945	9895.225432
472.931667	9100.618598
473.302330	8967.033062
473.672934	8609.889997
474.043479	8973.137900
474.413965	8911.295545
474.784393	8792.460425
475.154761	8947.964898
475.525070	9042.801605
475.895321	8862.081280
476.265513	9041.511069
476.635645	9209.983910
477.005719	9210.354435
477.375734	9323.263678
477.745691	9567.724352
478.115588	9699.411893
478.485427	9940.494993
478.855207	10477.914761
479.224928	11295.292487
479.594591	11927.080134
479.964194	11729.540000
480.333739	11673.613439
480.703226	11591.883732
481.072653	11686.672548
481.442022	11923.218610
481.811333	12104.896753
482.180584	11917.973289
482.549777	11615.698143
482.918912	11442.572317
483.287988	11467.901594
483.657005	11472.559621
484.025964	11159.367856
484.394864	11290.710078
484.763706	11262.474575
485.132489	11012.224137
485.501213	10981.828499
485.869879	11057.861702
486.238487	10900.219780
486.607036	11005.768939
486.975527	10787.655856
487.343959	10976.862963
487.712333	11025.384069
488.080648	10957.807401
488.448905	11004.644762
488.817104	10937.927611
489.185244	11201.774042
489.553326	11359.330264
489.921350	11903.585836
490.289315	12965.386427
490.657222	13303.201708
491.025070	13215.992267
491.392861	13090.205396
491.760593	12705.088968
492.128267	12354.343128
492.495883	12027.164682
492.863440	11689.402333
493.230939	11353.099398
493.598380	11286.664552
493.965763	11154.538430
494.333088	11050.511700
494.700354	10973.825668
495.067563	11033.034020
495.434713	10864.152845
495.801805	10992.840900
496.168839	10919.595455
496.535815	10851.381082
496.902733	10853.011895
497.269593	10786.708119
497.636395	10882.192614
498.003139	10878.517613
498.369825	10742.119113
498.736453	10899.839173
499.103023	10823.672380
499.469535	10859.724192
499.835989	10842.609474
500.202385	10806.298043
500.568723	10660.248254
500.935003	10886.926258
501.301226	10686.374034
501.667390	10946.432038
502.033497	11041.218333
502.399546	10906.695143
502.765537	10806.227467
503.131470	10878.681451
503.497345	11055.005889
503.863163	10665.589357
504.228923	10974.065123
504.594625	11050.236957
504.960269	10791.973604
505.325856	11009.237253
505.691385	10807.089504
506.056856	10960.201949
506.422270	10977.495628
506.787625	10870.489576
507.152924	10992.369552
507.518164	10970.059926
507.883347	10891.153265
508.248472	10810.953549
508.613540	11039.852180
508.978550	10927.830180
509.343503	10905.175235
509.708398	11021.719150
510.073236	11139.445216
510.438016	11145.595423
510.802738	11089.822618
511.167403	11142.220371
511.532010	11037.969309
511.896561	11276.199117
512.261053	11343.831237
512.625488	11213.325846
512.989866	11190.144100
513.354186	11182.564725
513.718449	11081.890362
514.082655	11281.174735
514.446803	11174.082984
514.810894	11294.213680
515.174927	11160.166878
515.538904	11187.489932
515.902822	11333.678353
516.266684	11214.374406
516.630488	11162.125367
516.994235	11220.466640
517.357925	11277.542584
517.721558	11371.965916
518.085133	11386.330684
518.448651	11398.610935
518.812112	11272.677871
519.175516	11293.855758
519.538863	11408.305074
519.902152	11336.577016
520.265385	11491.078299
520.628560	11400.841645
520.991678	11375.648479
521.354739	11446.922833
521.717743	11376.999508
522.080690	11359.098371
522.443580	11490.586787
522.806413	11448.868718
523.169189	11483.516568
523.531908	11536.783921
523.894569	11360.036026
524.257174	11359.191632
524.619722	11479.960034
524.982213	11428.217631
525.344647	11479.748306
525.707025	11424.542630
526.069345	11522.479647
526.431608	11439.512337
526.793815	11548.817155
527.155964	11340.080618
527.518057	11391.238247
527.880093	11339.064826
528.242072	11406.152501
528.603995	11309.916874
528.965860	11232.126829
529.327669	11287.335025
529.689421	11236.331151
530.051117	11198.036026
530.412755	11316.838378
530.774337	11199.172806
531.135862	11175.227326
531.497331	11205.905267
531.858743	11052.414736
532.220098	11213.078829
532.581396	11090.039387
532.942638	11078.343910
533.303824	11036.787159
533.664953	11052.896166
534.026025	10969.356685
534.387040	11064.710110
534.747999	11065.216746
535.108902	11127.016251
535.469748	10884.516586
535.830537	10993.239151
536.191270	10966.609256
536.551947	10991.431898
536.912567	10993.607155
537.273131	10918.632595
537.633638	10896.096117
537.994089	10883.218489
538.354483	10823.289252
538.714821	10973.750050
539.075103	10980.432100
539.435328	10946.217789
539.795497	10773.691860
540.155609	10931.865624
540.515665	11023.355004
540.875665	10761.126784
541.235609	10820.819087
541.595496	10817.519652
541.955328	10971.358023
542.315102	10859.325940
542.674821	10805.209154
543.034483	10811.513117
543.394090	10808.009515
543.753640	10745.037942
544.113134	10969.386932
544.472571	10814.774743
544.831953	10955.919489
545.191278	10769.447208
545.550548	10792.986876
545.909761	10933.383011
546.268918	10904.731613
546.628019	10990.819397
546.987064	10853.412667
547.346053	10777.185380
547.704986	10876.057530
548.063863	10863.389110
548.422684	10855.688748
548.781449	10770.064750
549.140158	10872.281706
549.498811	10747.608930
549.857408	10605.826478
550.215949	10839.320121
550.574434	10689.363438
550.932864	10786.098140
551.291237	10852.714467
551.649555	10793.372525
552.007817	10808.944649
552.366022	10777.079515
552.724173	10768.035685
553.082267	10747.354352
553.440305	10884.627492
553.798288	10679.918837
554.156215	10838.924391
554.514086	10819.669704
554.871902	10663.923256
555.229661	10700.549759
555.587365	10678.474546
555.945014	10572.307846
556.302606	10698.853411
556.660143	10595.776938
557.017625	10748.823848
557.375050	10645.633949
557.732421	10779.446337
558.089735	10690.651453
558.446994	10691.944509
558.804197	10728.432381
559.161345	10728.210570
559.518437	10570.987064
559.875474	10668.457773
560.232455	10694.447442
560.589381	10644.628239
560.946251	10641.238063
561.303065	10752.372820
561.659825	10685.060814
562.016528	10619.258633
562.373177	10496.461166
562.729770	10610.706315
563.086307	10528.449808
563.442789	10621.355753
563.799216	10492.897070
564.155587	10542.920440
564.511904	10499.904274
564.868164	10490.263067
565.224370	10500.536939
565.580520	10431.659654
565.936615	10439.813720
566.292654	10308.214399
566.648638	10435.962279
567.004567	10394.458459
567.360441	10374.593792
567.716260	10285.849320
568.072023	10385.439835
568.427732	10332.681639
568.783385	10242.472712
569.138982	10314.394854
569.494525	10323.156379
569.850013	10206.516682
570.205445	10288.296800
570.560823	10184.020533
570.916145	10096.385114
571.271412	10171.344552
571.626625	10110.036559
571.981782	10089.277088
572.336884	10063.267254
572.691931	10062.362367
573.046923	10006.314819
573.401860	9974.661414
573.756743	9902.406556
574.111570	9950.801633
574.466342	9939.756464
574.821059	9963.346544
575.175722	9849.797074
575.530330	9865.495227
575.884882	9855.279329
576.239380	9784.587228
576.593823	9765.272048
576.948211	9779.954408
577.302544	9656.483948
577.656823	9674.168315
578.011047	9669.578345
578.365216	9645.935333
578.719330	9564.860976
579.073389	9581.431249
579.427394	9527.150625
579.781344	9504.853602
580.135239	9456.458525
580.489080	9466.072005
580.842866	9364.729689
581.196597	9373.841575
581.550273	9405.729393
581.903895	9380.826093
582.257463	9445.988048
582.610975	9324.418103
582.964434	9351.093368
583.317837	9272.632850
583.671186	9258.936035
584.024481	9245.387934
584.377721	9169.143002
584.730906	9141.981265
585.084037	9170.733486
585.437113	9114.144014
585.790135	9133.194534
586.143103	9030.997743
586.496016	9002.855502
586.848874	9059.303822
587.201679	9058.403976
587.554428	8939.440307
587.907124	8978.267274
588.259765	8949.731822
588.612352	8956.179458
588.964884	8834.140685
589.317362	8849.685083
589.669786	8845.647119
590.022155	8896.419100
590.374470	8902.755830
590.726731	8845.354732
591.078937	8697.235550
591.431090	8814.581008
591.783188	8689.262965
592.135232	8672.065068
592.487222	8673.204369
592.839157	8731.626301
593.191038	8663.716918
593.542866	8609.600131
593.894639	8508.535079
594.246358	8561.310918
594.598022	8575.005213
594.949633	8475.301272
595.301190	8451.033158
595.652692	8477.108526
596.004141	8587.918128
596.355535	8366.180456
596.706876	8345.957867
597.058162	8280.564020
597.409395	8359.962193
597.760573	8422.669105
598.111698	8325.402563
598.462768	8312.081313
598.813785	8280.470758
599.164748	8243.849296
599.515657	8238.987103
599.866511	8146.066035
600.217312	8273.861806
600.568060	8136.802915
600.918753	8237.683965
601.269392	8211.233031
601.619978	8117.880944
601.970510	8181.046602
602.320988	8176.824635
602.671412	8230.134837
603.021783	8167.538830
603.372100	8140.563616
603.722363	8148.362281
604.072572	8116.902960
604.422728	8127.368395
604.772830	8061.238539
605.122878	8068.288593
605.472872	8067.030825
605.822813	8089.844567
606.172701	8034.162502
606.522534	8106.122452
606.872314	8114.838607
607.222041	8084.475738
607.571714	8137.160837
607.921333	8092.022345
608.270899	8100.398222
608.620411	8191.859877
608.969870	8096.307326
609.319276	8087.167714
609.668627	8104.819314
610.017926	8138.108574
610.367171	8182.314452
610.716362	8160.975247
611.065500	8153.466449
611.414585	8180.366046
611.763616	8163.994899
612.112594	8146.280284
612.461518	8165.144282
612.810389	8228.693067
613.159207	8167.536309
613.507971	8111.798792
613.856682	8239.113132
614.205340	8195.799538
614.553945	8263.842512
614.902496	8172.020416
615.250994	8229.108962
615.599439	8198.131072
615.947830	8216.241417
616.296169	8188.545318
616.644454	8202.794139
616.992686	8198.743572
617.340864	8256.230370
617.688990	8162.943818
618.037063	8257.515864
618.385082	8195.219806
618.733048	8289.645658
619.080961	8220.052529
619.428821	8242.352073
619.776628	8251.191737
620.124382	8202.806742
620.472083	8183.607508
620.819731	8211.613638
621.167326	8098.437213
621.514868	8114.901622
621.862357	8000.611102
622.209793	8019.807816
622.557176	7950.635624
622.904506	7925.533198
623.251783	7853.341355
623.599007	7808.812843
623.946179	7810.226886
624.293297	7761.909947
624.640363	7685.294491
624.987376	7663.110894
625.334336	7614.410827
625.681243	7560.911582
626.028097	7551.535036
626.374899	7532.242540
626.721647	7520.859614
627.068343	7451.458049
627.414987	7427.313443
627.761577	7382.326186
628.108115	7417.740292
628.454600	7307.550751
628.801032	7361.634770
629.147412	7327.433062
629.493739	7308.296842
629.840014	7247.624035
630.186236	7304.475647
630.532405	7186.583223
630.878521	7239.719506
631.224585	7192.683020
631.570597	7121.673327
631.916556	7153.997205
632.262462	7153.654407
632.608316	7105.949968
632.954117	7087.544715
633.299866	7073.663898
633.645562	7066.013947
633.991206	6984.959755
634.336797	6925.925323
634.682336	6885.596092
635.027823	6852.805907
635.373257	6849.498910
635.718639	6773.478310
636.063968	6790.494725
636.409245	6679.233939
636.754470	6681.212592
637.099642	6641.992415
637.444762	6582.290030
637.789829	6596.576660
638.134845	6535.215735
638.479808	6518.065730
638.824719	6520.394743
639.169577	6450.191634
639.514383	6475.460418
639.859137	6403.525673
640.203839	6408.375263
640.548489	6396.387399
