Dividing Wavelength (nm)	Counts (n)	Blue Motor Position (mm): 39.200000	Red Motor Position (mm): 0.000000	
326.493990	2130.726852
326.888308	2130.726852
327.282561	2130.726852
327.676750	2097.132603
328.070874	2097.906420
328.464933	2099.048241
328.858929	2107.479571
329.252859	2115.772269
329.646726	2126.255349
330.040528	2139.526186
330.434265	2158.380102
330.827938	2172.336536
331.221547	2191.192972
331.615091	2212.317927
332.008571	2231.890207
332.401986	2250.313104
332.795338	2269.887904
333.188625	2286.957251
333.581847	2306.398461
333.975006	2325.196923
334.368100	2342.404902
334.761129	2364.308716
335.154095	2377.660212
335.546996	2402.455127
335.939833	2423.723755
336.332606	2441.264450
336.725315	2455.041923
337.117960	2464.698253
337.510540	2470.616568
337.903056	2481.785244
338.295508	2490.133395
338.687896	2497.432986
339.080220	2509.582167
339.472480	2513.146262
339.864676	2516.382683
340.256807	2519.813188
340.648875	2523.311749
341.040879	2527.682429
341.432818	2527.165711
341.824694	2529.124199
342.216506	2530.853315
342.608253	2527.899199
342.999937	2532.458923
343.391557	2531.906916
343.783113	2528.461288
344.174605	2529.434230
344.566033	2526.081863
344.957397	2525.310567
345.348697	2523.644465
345.739934	2519.109947
346.131106	2519.278826
346.522215	2517.521984
346.913260	2515.981911
347.304241	2512.231293
347.695159	2512.092661
348.086012	2512.117867
348.476802	2508.387413
348.867528	2510.850017
349.258191	2503.963801
349.648789	2505.561846
350.039324	2501.171001
350.429796	2504.183091
350.820203	2504.914058
351.210548	2500.112359
351.600828	2502.562360
351.991045	2498.476505
352.381198	2498.660507
352.771288	2498.894920
353.161314	2500.712256
353.551276	2496.752430
353.941175	2498.373161
354.331010	2496.888541
354.720782	2496.654127
355.110490	2495.610609
355.500135	2494.335197
355.889717	2497.175887
356.279235	2497.185969
356.668689	2499.633449
357.058080	2498.988182
357.447408	2495.766884
357.836672	2494.027686
358.225873	2496.875938
358.615010	2493.838643
359.004084	2499.658655
359.393095	2502.844664
359.782043	2503.275683
360.170927	2498.756289
360.559748	2501.284427
360.948505	2502.232164
361.337199	2503.409274
361.725830	2503.404233
362.114398	2503.721825
362.502903	2506.645694
362.891344	2502.799294
363.279722	2506.141579
363.668037	2508.488236
364.056289	2505.788698
364.444478	2508.989831
364.832603	2507.885818
365.220665	2507.338853
365.608665	2507.215345
365.996601	2510.935716
366.384474	2510.761797
366.772284	2510.504698
367.160031	2510.824811
367.547715	2512.616941
367.935336	2509.874553
368.322893	2510.655932
368.710388	2510.847496
369.097820	2512.775737
369.485189	2513.438649
369.872495	2511.780110
370.259738	2512.589215
370.646918	2510.260202
371.034035	2513.337826
371.421090	2515.021572
371.808081	2513.821777
372.195010	2516.082734
372.581875	2514.678773
372.968678	2515.122395
373.355418	2515.215656
373.742096	2518.200019
374.128710	2516.659947
374.515262	2515.228259
374.901751	2517.189268
375.288177	2516.244051
375.674540	2519.956861
376.060841	2517.295132
376.447079	2514.179699
376.833254	2517.544669
377.219367	2514.018382
377.605417	2517.045595
377.991404	2517.542148
378.377329	2518.696573
378.763191	2518.016017
379.148991	2521.073477
379.534727	2520.813857
379.920402	2523.382325
380.306013	2523.301667
380.691563	2522.011131
381.077049	2523.188241
381.462474	2524.413241
381.847835	2523.778056
382.233134	2526.094466
382.618371	2524.503982
383.003545	2524.788807
383.388657	2527.223684
383.773706	2524.778725
384.158693	2528.501617
384.543618	2525.597912
384.928480	2527.233767
385.313280	2525.912984
385.698017	2527.831143
386.082692	2530.485311
386.467305	2531.619571
386.851856	2529.560259
387.236344	2531.468336
387.620770	2529.083870
388.005133	2530.845753
388.389435	2531.448171
388.773674	2532.342976
389.157851	2534.140148
389.541965	2540.164326
389.926018	2539.277083
390.310008	2539.085519
390.693936	2548.280584
391.077802	2549.326623
391.461606	2557.798282
391.845348	2563.351113
392.229027	2573.420818
392.612645	2584.763414
392.996200	2598.419900
393.379694	2611.801643
393.763125	2627.784621
394.146494	2641.720891
394.529801	2661.245280
394.913047	2682.478620
395.296230	2699.411856
395.679351	2721.295505
396.062410	2748.411871
396.445408	2764.034407
396.828343	2792.123716
397.211217	2816.777479
397.594028	2829.077894
397.976778	2867.156250
398.359466	2898.887793
398.742092	2935.705860
399.124656	2947.557613
399.507158	2992.920436
399.889598	3032.178421
400.271977	3082.340423
400.654294	3108.998044
401.036549	3147.504898
401.418742	3169.885100
401.800874	3242.734814
402.182944	3286.580250
402.564952	3355.056763
402.946898	3385.608676
403.328783	3423.666867
403.710606	3420.039757
404.092367	3557.527146
404.474067	3575.100608
404.855705	3617.053090
405.237282	3614.169550
405.618797	3712.252760
406.000250	3774.868932
406.381642	3862.033003
406.762972	3875.921382
407.144240	3922.156324
407.525447	3956.539514
407.906593	4034.011966
408.287677	4100.862707
408.668700	4087.289401
409.049661	4154.203156
409.430560	4220.640523
409.811399	4193.065411
410.192176	4352.491902
410.572891	4334.121937
410.953545	4451.177529
411.334138	4384.041963
411.714669	4463.258654
412.095139	4399.946803
412.475547	4545.583217
412.855894	4549.538003
413.236180	4581.980348
413.616405	4563.454108
413.996568	4659.919107
414.376670	4627.433912
414.756711	4599.805868
415.136691	4642.945542
415.516609	4731.823605
415.896466	4782.260349
416.276262	4817.886183
416.655997	4815.862160
417.035670	5003.801417
417.415283	5099.212815
417.794834	5056.297472
418.174324	5019.575187
418.553753	4936.449081
418.933121	5126.067042
419.312428	5197.318710
419.691674	5144.384074
420.070859	5274.743271
420.449983	5189.497360
420.829045	5307.692253
421.208047	5221.818718
421.586988	5299.011386
421.965867	5310.860618
422.344686	5444.521771
422.723444	5299.006345
423.102141	5117.562615
423.480777	5419.941105
423.859352	5191.544068
424.237866	5446.124858
424.616319	5442.845587
424.994712	5553.614861
425.373044	5429.773876
425.751314	5573.318211
426.129524	5377.270258
426.507673	5574.548252
426.885762	5654.238812
427.263789	5588.305561
427.641756	5473.783149
428.019662	5592.416622
428.397508	5603.270226
428.775292	5547.530188
429.153016	5647.080374
429.530679	5573.965999
429.908282	5657.228217
430.285824	5527.174009
430.663305	5804.939065
431.040726	5539.315628
431.418086	5539.129105
431.795385	5647.095497
432.172624	5660.474720
432.549802	5649.530375
432.926920	5660.255429
433.303977	5672.669271
433.680974	5713.242998
434.057910	5728.653805
434.434786	5732.361573
434.811601	5702.560793
435.188355	5938.403613
435.565050	5811.268234
435.941683	5795.509587
436.318257	6008.362226
436.694770	5991.217262
437.071222	6023.155492
437.447614	5954.936077
437.823946	5870.010279
438.200218	6023.243712
438.576429	5892.042642
438.952580	5989.533516
439.328670	6035.682759
439.704700	5943.099448
440.080670	5926.456079
440.456580	6197.135793
440.832429	6078.275468
441.208218	5929.563950
441.583947	6082.338638
441.959616	6090.754844
442.335224	6017.690881
442.710773	6149.955635
443.086261	6178.241549
443.461689	5969.590712
443.837057	6122.761130
444.212365	6276.659995
444.587612	6168.292832
444.962800	6319.615667
445.337927	6306.117978
445.712995	5913.979223
446.088002	6490.805690
446.462949	6324.356872
446.837837	6253.001860
447.212664	6426.762872
447.587431	6568.580612
447.962139	7109.393076
448.336786	8032.501442
448.711374	7774.417050
449.085901	6847.668971
449.460369	6772.681808
449.834776	6705.324430
450.209124	7096.802794
450.583412	7248.425578
450.957640	7390.971765
451.331808	7157.664644
451.705917	6709.793413
452.079965	6631.247195
452.453954	6846.401121
452.827883	6717.720628
453.201752	6811.705379
453.575562	6615.251614
453.949311	6822.069992
454.323001	6709.682508
454.696632	6782.282685
455.070202	6919.886020
455.443713	7075.718168
455.817164	7171.490009
456.190556	7256.498986
456.563888	7333.613517
456.937160	7374.565330
457.310373	7031.575304
457.683526	7058.074130
458.056619	6949.356606
458.429653	6933.134173
458.802628	6871.974894
459.175542	6982.986143
459.548398	7333.845410
459.921194	7494.607806
460.293930	7498.799525
460.666607	8034.548150
461.039224	8335.005961
461.411782	8461.117986
461.784280	8480.599525
462.156719	8372.466775
462.529099	8245.457424
462.901419	7830.981317
463.273680	7728.449289
463.645882	7739.131494
464.018024	7605.422450
464.390106	7773.529807
464.762130	8160.095566
465.134094	8628.512020
465.505999	9649.643102
465.877845	10872.437982
466.249631	11520.148113
466.621358	11135.155194
466.993026	10510.755358
467.364634	10250.334391
467.736184	9885.057425
468.107674	9553.314213
468.479105	9589.340819
468.850477	9356.646199
469.221790	9124.420406
469.593043	8796.589130
469.964238	8659.240373
470.335373	8665.229264
470.706449	8725.264365
471.077467	8712.071665
471.448425	10019.993990
471.819324	11089.442011
472.190164	11106.405493
472.560945	9858.553558
472.931667	9069.804545
473.302330	8943.115308
473.672934	8585.581554
474.043479	8944.312582
474.413965	8891.234273
474.784393	8773.089792
475.154761	8927.792721
475.525070	9012.305144
475.895321	8837.482970
476.265513	9019.219087
476.635645	9182.378552
477.005719	9186.829891
477.375734	9299.807189
477.745691	9533.033652
478.115588	9669.676647
478.485427	9914.490201
478.855207	10457.513211
479.224928	11264.392734
479.594591	11894.249619
479.964194	11705.425640
480.333739	11641.271916
480.703226	11557.412322
481.072653	11647.102011
481.442022	11886.934905
481.811333	12071.501630
482.180584	11880.076415
482.549777	11593.234761
482.918912	11411.475959
483.287988	11440.944024
483.657005	11446.370826
484.025964	11129.383072
484.394864	11262.603125
484.763706	11225.883360
485.132489	10994.680921
485.501213	10958.588780
485.869879	11026.301559
486.238487	10871.308763
486.607036	10990.093471
486.975527	10764.428740
487.343959	10955.201125
487.712333	11001.579740
488.080648	10932.039543
488.448905	10975.844650
488.817104	10917.659652
489.185244	11184.266114
489.553326	11339.689929
489.921350	11877.838143
490.289315	12941.924897
490.657222	13273.547120
491.025070	13183.134026
491.392861	13052.769788
491.760593	12673.682580
492.128267	12324.955722
492.495883	12002.241217
492.863440	11667.803509
493.230939	11326.053607
493.598380	11262.963567
493.965763	11129.488937
494.333088	11031.839266
494.700354	10951.909251
495.067563	11005.085863
495.434713	10838.463125
495.801805	10965.036416
496.168839	10890.336598
496.535815	10825.479633
496.902733	10829.467186
497.269593	10762.331620
497.636395	10859.643533
498.003139	10855.217400
498.369825	10714.039887
498.736453	10878.830165
499.103023	10803.132198
499.469535	10831.024903
499.835989	10817.859929
500.202385	10783.383478
500.568723	10632.305139
500.935003	10857.216218
501.301226	10664.775211
501.667390	10929.057701
502.033497	11016.902327
502.399546	10876.821265
502.765537	10787.066041
503.131470	10856.581032
503.497345	11030.521004
503.863163	10644.446758
504.228923	10955.201125
504.594625	11020.398368
504.960269	10760.340364
505.325856	10988.187915
505.691385	10778.329722
506.056856	10934.842425
506.422270	10961.124481
506.787625	10847.025525
507.152924	10960.305293
507.518164	10941.466501
507.883347	10865.846673
508.248472	10788.399426
508.613540	11021.083964
508.978550	10905.427292
509.343503	10879.223375
509.708398	10992.488019
510.073236	11111.970927
510.438016	11117.372523
510.802738	11067.729761
511.167403	11122.224634
511.532010	11011.316729
511.896561	11241.238715
512.261053	11313.967441
512.625488	11188.160406
512.989866	11172.152222
513.354186	11161.863227
513.718449	11060.435211
514.082655	11250.960580
514.446803	11147.596761
514.810894	11267.755184
515.174927	11135.465225
515.538904	11159.599749
515.902822	11309.649693
516.266684	11189.231651
516.630488	11137.040585
516.994235	11195.301200
517.357925	11255.910993
517.721558	11348.728718
518.085133	11358.261539
518.448651	11373.896678
518.812112	11252.649366
519.175516	11268.581933
519.538863	11387.729604
519.902152	11303.882613
520.265385	11471.158180
520.628560	11375.590506
520.991678	11359.839421
521.354739	11420.040880
521.717743	11350.936743
522.080690	11337.575165
522.443580	11466.790020
522.806413	11422.092629
523.169189	11449.566918
523.531908	11513.395487
523.894569	11328.826242
524.257174	11336.634989
524.619722	11455.165119
524.982213	11398.658826
525.344647	11445.803697
525.707025	11409.225084
526.069345	11490.095274
526.431608	11421.578432
526.793815	11527.591377
527.155964	11307.940742
527.518057	11369.909125
527.880093	11312.137502
528.242072	11384.208358
528.603995	11291.821652
528.965860	11211.087573
529.327669	11261.509194
529.689421	11212.370547
530.051117	11183.015908
530.412755	11283.334870
530.774337	11166.987560
531.135862	11151.498614
531.497331	11177.377378
531.858743	11033.361695
532.220098	11197.269771
532.581396	11070.232694
532.942638	11046.612367
533.303824	11013.668427
533.664953	11027.403051
534.026025	10940.236460
534.387040	11039.620287
534.747999	11043.151615
535.108902	11099.357960
535.469748	10858.239572
535.830537	10962.861158
536.191270	10943.422469
536.551947	10966.989863
536.912567	10963.304780
537.273131	10884.912317
537.633638	10868.185768
537.994089	10851.877636
538.354483	10813.544702
538.714821	10946.358941
539.075103	10958.646753
539.435328	10924.001424
539.795497	10753.098747
540.155609	10907.501727
540.515665	10995.346353
540.875665	10733.823895
541.235609	10801.309821
541.595496	10798.000304
541.955328	10952.347832
542.315102	10829.875520
542.674821	10787.121494
543.034483	10787.991093
543.394090	10791.724067
543.753640	10716.691533
544.113134	10941.549680
544.472571	10790.985538
544.831953	10937.620101
545.191278	10739.908567
545.550548	10767.080387
545.909761	10906.211192
546.268918	10883.432738
546.628019	10968.623197
546.987064	10828.164048
547.346053	10744.291851
547.704986	10848.338746
548.063863	10837.777528
548.422684	10829.444501
548.781449	10744.380071
549.140158	10854.657832
549.498811	10730.655530
549.857408	10581.588610
550.215949	10805.156222
550.574434	10667.000880
550.932864	10768.912846
551.291237	10819.178191
551.649555	10775.794021
552.007817	10777.810483
552.366022	10747.334187
552.724173	10744.075081
553.082267	10724.959026
553.440305	10861.599501
553.798288	10663.464511
554.156215	10813.524537
554.514086	10790.380600
554.871902	10639.511468
555.229661	10668.951807
555.587365	10651.849692
555.945014	10548.246419
556.302606	10676.213589
556.660143	10566.439943
557.017625	10725.919366
557.375050	10618.880546
557.732421	10750.817624
558.089735	10668.863586
558.446994	10658.723305
558.804197	10705.570748
559.161345	10707.554442
559.518437	10549.098374
559.875474	10640.403752
560.232455	10668.455253
560.589381	10624.267019
560.946251	10611.407035
561.303065	10723.943233
561.659825	10663.454428
562.016528	10592.031361
562.373177	10469.117947
562.729770	10591.587739
563.086307	10499.475776
563.442789	10591.282749
563.799216	10476.016767
564.155587	10522.675166
564.511904	10478.847374
564.868164	10460.064035
565.224370	10484.092695
565.580520	10406.970603
565.936615	10414.398743
566.292654	10280.745152
566.648638	10407.232743
567.004567	10371.886693
567.360441	10352.624444
567.716260	10263.950548
568.072023	10354.403971
568.427732	10306.916302
568.783385	10218.721315
569.138982	10288.742942
569.494525	10300.798862
569.850013	10179.362507
570.205445	10260.094065
570.560823	10160.763170
570.916145	10075.880221
571.271412	10138.075457
571.626625	10089.856820
571.981782	10068.540301
572.336884	10040.564418
572.691931	10046.679338
573.046923	9988.655657
573.401860	9945.768040
573.756743	9881.077434
574.111570	9925.691645
574.466342	9909.537268
574.821059	9939.522051
575.175722	9830.948200
575.530330	9839.603861
575.884882	9828.939300
576.239380	9762.073435
576.593823	9739.741124
576.948211	9755.822405
577.302544	9634.580134
577.656823	9650.762238
578.011047	9657.151900
578.365216	9623.534966
578.719330	9542.175784
579.073389	9558.499040
579.427394	9506.378551
579.781344	9487.335592
580.135239	9433.238970
580.489080	9440.619219
580.842866	9342.193211
581.196597	9347.758645
581.550273	9392.990398
581.903895	9358.881951
582.257463	9420.318493
582.610975	9302.630236
582.964434	9324.476076
583.317837	9248.089992
583.671186	9235.136747
584.024481	9227.854801
584.377721	9148.870002
584.730906	9116.931772
585.084037	9153.734716
585.437113	9091.597453
585.790135	9107.514897
586.143103	9008.189042
586.496016	8986.870003
586.848874	9039.844968
587.201679	9032.835243
587.554428	8918.171679
587.907124	8967.610274
588.259765	8931.772712
588.612352	8930.502341
588.964884	8808.456006
589.317362	8827.514088
589.669786	8827.098193
590.022155	8876.713229
590.374470	8886.316627
590.726731	8824.469232
591.078937	8680.380452
591.431090	8793.100652
591.783188	8668.206065
592.135232	8653.962285
592.487222	8653.690063
592.839157	8712.807674
593.191038	8646.093044
593.542866	8587.545083
593.894639	8487.284095
594.246358	8541.758803
594.598022	8551.891523
594.949633	8450.818908
595.301190	8431.165970
595.652692	8456.127243
596.004141	8570.634533
596.355535	8343.739760
596.706876	8325.319383
597.058162	8261.687419
597.409395	8334.222061
597.760573	8400.583810
598.111698	8306.316754
598.462768	8294.565824
598.813785	8259.910412
599.164748	8227.616781
599.515657	8221.872386
599.866511	8127.864949
600.217312	8257.609126
600.568060	8117.333979
600.918753	8222.893220
601.269392	8185.689504
601.619978	8101.993747
601.970510	8160.995412
602.320988	8154.935945
602.671412	8215.444915
603.021783	8152.765728
603.372100	8116.003114
603.722363	8126.982747
604.072572	8096.564425
604.422728	8110.384748
604.772830	8040.358080
605.122878	8050.838639
605.472872	8046.367135
605.822813	8072.692041
606.172701	8017.791355
606.522534	8091.737520
606.872314	8092.506296
607.222041	8061.667037
607.571714	8113.477496
607.921333	8074.484171
608.270899	8079.694203
608.620411	8174.888832
608.969870	8079.288391
609.319276	8070.347904
609.668627	8091.447654
610.017926	8120.212477
610.367171	8165.096391
610.716362	8143.487485
611.065500	8136.477760
611.414585	8164.768716
611.763616	8149.415882
612.112594	8130.738407
612.461518	8145.382959
612.810389	8211.341416
613.159207	8146.489492
613.507971	8096.219106
613.856682	8214.713947
614.205340	8172.693410
614.553945	8245.601097
614.902496	8147.248186
615.250994	8202.645425
615.599439	8185.714710
615.947830	8198.554529
616.296169	8168.514293
616.644454	8179.640120
616.992686	8179.186416
617.340864	8236.146413
617.688990	8144.397413
618.037063	8234.205569
618.385082	8178.596601
618.733048	8269.733101
619.080961	8199.361113
619.428821	8223.115030
619.776628	8226.248108
620.124382	8175.629882
620.472083	8160.075402
620.819731	8189.387191
621.167326	8076.934172
621.514868	8090.149557
621.862357	7976.950447
622.209793	7997.384764
622.557176	7935.088705
622.904506	7898.961276
623.251783	7833.315371
623.599007	7780.872248
623.946179	7792.451778
624.293297	7746.438646
624.640363	7666.511152
624.987376	7653.540263
625.334336	7594.715039
625.681243	7545.604118
626.028097	7532.234978
626.374899	7511.215887
626.721647	7503.182808
627.068343	7435.550688
627.414987	7404.562716
627.761577	7368.974690
628.108115	7396.658187
628.454600	7294.166488
628.801032	7347.854776
629.147412	7304.299207
629.493739	7293.891745
629.840014	7229.649801
630.186236	7290.864532
630.532405	7169.828949
630.878521	7220.908440
631.224585	7177.612490
631.570597	7101.538958
631.916556	7141.356512
632.262462	7129.298072
632.608316	7095.174501
632.954117	7072.486788
633.299866	7058.583286
633.645562	7050.320835
633.991206	6972.109854
634.336797	6912.430154
634.682336	6869.787033
635.027823	6838.055491
635.373257	6824.827503
635.718639	6758.412822
636.063968	6774.322703
636.409245	6670.023751
636.754470	6662.580487
637.099642	6623.902234
637.444762	6570.846610
637.789829	6576.114616
638.134845	6521.715525
638.479808	6503.592577
638.824719	6510.919894
639.169577	6431.728408
639.514383	6452.649197
639.859137	6382.282251
640.203839	6393.617285
640.548489	6380.041458
