Dividing Wavelength (nm)	Counts (n)	Blue Motor Position (mm): 46.700000	Red Motor Position (mm): 0.000000	
326.493990	2132.093005
326.888308	2132.093005
327.282561	2132.093005
327.676750	2097.326687
328.070874	2095.363158
328.464933	2101.105032
328.858929	2105.866402
329.252859	2114.771600
329.646726	2127.155195
330.040528	2139.082565
330.434265	2158.249032
330.827938	2172.245795
331.221547	2191.482838
331.615091	2209.419264
332.008571	2230.077912
332.401986	2248.289080
332.795338	2268.544437
333.188625	2288.315842
333.581847	2305.952319
333.975006	2325.469146
334.368100	2343.350118
334.761129	2360.706811
335.154095	2377.655170
335.546996	2400.872204
335.939833	2426.453540
336.332606	2441.221600
336.725315	2452.793568
337.117960	2458.578292
337.510540	2469.862915
337.903056	2480.409009
338.295508	2488.890751
338.687896	2498.083295
339.080220	2505.763492
339.472480	2511.964112
339.864676	2516.949813
340.256807	2520.292098
340.648875	2524.030113
341.040879	2527.158149
341.432818	2529.300640
341.824694	2532.068233
342.216506	2531.407842
342.608253	2534.112421
342.999937	2530.507996
343.391557	2530.132430
343.783113	2527.347193
344.174605	2530.797863
344.566033	2526.631349
344.957397	2525.509692
345.348697	2522.802593
345.739934	2522.605988
346.131106	2520.372756
346.522215	2519.956861
346.913260	2520.067767
347.304241	2513.746160
347.695159	2512.584174
348.086012	2512.420336
348.476802	2510.991169
348.867528	2508.392454
349.258191	2508.354646
349.648789	2505.181239
350.039324	2503.250477
350.429796	2504.306599
350.820203	2502.796773
351.210548	2499.724190
351.600828	2500.404746
351.991045	2500.613954
352.381198	2498.950373
352.771288	2499.719149
353.161314	2498.589931
353.551276	2496.936432
353.941175	2496.696977
354.331010	2499.966166
354.720782	2499.086484
355.110490	2499.053717
355.500135	2501.231495
355.889717	2498.257214
356.279235	2499.315857
356.668689	2501.723008
357.058080	2499.003305
357.447408	2497.702687
357.836672	2496.588593
358.225873	2499.169663
358.615010	2494.771257
359.004084	2501.728049
359.393095	2501.107987
359.782043	2505.829027
360.170927	2502.292658
360.559748	2505.428256
360.948505	2505.067813
361.337199	2507.338853
361.725830	2506.938081
362.114398	2509.630058
362.502903	2508.989831
362.891344	2509.299862
363.279722	2508.904131
363.668037	2509.640140
364.056289	2507.797598
364.444478	2511.974194
364.832603	2511.190295
365.220665	2513.668022
365.608665	2510.615603
365.996601	2512.838752
366.384474	2512.095182
366.772284	2516.337313
367.160031	2515.331603
367.547715	2513.612569
367.935336	2513.320182
368.322893	2514.822446
368.710388	2515.102230
369.097820	2520.193795
369.485189	2516.417971
369.872495	2517.179185
370.259738	2517.927797
370.646918	2520.965092
371.034035	2519.248579
371.421090	2523.639424
371.808081	2525.602953
372.195010	2525.295443
372.581875	2530.205527
372.968678	2535.463450
373.355418	2539.534182
373.742096	2547.751263
374.128710	2556.144784
374.515262	2562.705846
374.901751	2571.764799
375.288177	2578.872826
375.674540	2589.885227
376.060841	2604.224789
376.447079	2619.481841
376.833254	2632.162863
377.219367	2640.246354
377.605417	2665.532781
377.991404	2677.994514
378.377329	2694.532019
378.763191	2711.190512
379.148991	2741.318968
379.534727	2764.969541
379.920402	2787.586678
380.306013	2805.250881
380.691563	2842.023577
381.077049	2864.008049
381.462474	2890.632903
381.847835	2927.637493
382.233134	2955.459621
382.618371	2966.338431
383.003545	3026.343286
383.388657	3043.352139
383.773706	3077.984866
384.158693	3105.081068
384.543618	3136.676499
384.928480	3176.594876
385.313280	3227.364336
385.698017	3238.757344
386.082692	3295.503092
386.467305	3313.583191
386.851856	3348.936803
387.236344	3380.254971
387.620770	3417.199067
388.005133	3450.561423
388.389435	3483.333964
388.773674	3506.248529
389.157851	3553.766445
389.541965	3577.885846
389.926018	3548.609345
390.310008	3625.829739
390.693936	3646.483347
391.077802	3696.126109
391.461606	3686.807536
391.845348	3756.909822
392.229027	3762.964247
392.612645	3774.175773
392.996200	3856.212991
393.379694	3893.439391
393.763125	3963.708035
394.146494	3932.873817
394.529801	3995.056450
394.913047	4047.416394
395.296230	4014.225437
395.679351	4069.698294
396.062410	4093.427005
396.445408	4076.539140
396.828343	4108.774798
397.211217	4134.414107
397.594028	4052.908731
397.976778	4119.802322
398.359466	4147.654697
398.742092	4176.424562
399.124656	4100.411524
399.507158	4181.301879
399.889598	4206.353893
400.271977	4264.291874
400.654294	4240.303543
401.036549	4246.834358
401.418742	4217.351170
401.800874	4319.573167
402.182944	4339.848688
402.564952	4402.958893
402.946898	4394.991349
403.328783	4388.147983
403.710606	4302.803769
404.092367	4498.592102
404.474067	4457.993169
404.855705	4468.509016
405.237282	4395.525711
405.618797	4506.960417
406.000250	4539.208678
406.381642	4617.497798
406.762972	4579.900872
407.144240	4590.366307
407.525447	4592.513839
407.906593	4649.584742
408.287677	4693.707441
408.668700	4626.516422
409.049661	4671.748175
409.430560	4715.949012
409.811399	4641.160974
410.192176	4802.619049
410.572891	4742.465481
410.953545	4847.192931
411.334138	4724.133325
411.714669	4792.488850
412.095139	4688.744425
412.475547	4831.280529
412.855894	4808.217250
413.236180	4821.896421
413.616405	4773.831540
413.996568	4862.245817
414.376670	4806.727589
414.756711	4761.576495
415.136691	4794.485147
415.516609	4867.082804
415.896466	4905.375408
416.276262	4938.924287
416.655997	4919.669600
417.035670	5106.613229
417.415283	5191.423081
417.794834	5137.258403
418.174324	5091.514973
418.553753	4997.555427
418.933121	5180.531668
419.312428	5250.901134
419.691674	5188.899983
420.070859	5313.280372
420.449983	5228.160489
420.829045	5343.484445
421.208047	5252.126135
421.586988	5323.176157
421.965867	5334.493547
422.344686	5467.073373
422.723444	5325.878215
423.102141	5139.300070
423.480777	5436.176141
423.859352	5208.371440
424.237866	5467.484227
424.616319	5457.220438
424.994712	5565.975770
425.373044	5444.990598
425.751314	5583.161064
426.129524	5388.214603
426.507673	5587.236837
426.885762	5663.998486
427.263789	5592.182208
427.641756	5478.151308
428.019662	5598.516418
428.397508	5610.123675
428.775292	5557.604934
429.153016	5655.133617
429.530679	5577.124282
429.908282	5667.572664
430.285824	5536.530391
430.663305	5808.419982
431.040726	5547.961207
431.418086	5548.792997
431.795385	5654.465664
432.172624	5665.548641
432.549802	5655.468854
432.926920	5669.626934
433.303977	5676.596330
433.680974	5719.703236
434.057910	5736.064301
434.434786	5739.610753
434.811601	5707.377615
435.188355	5945.342762
435.565050	5817.665458
435.941683	5799.393796
436.318257	6014.961096
436.694770	5996.044167
437.071222	6034.291401
437.447614	5963.619465
437.823946	5877.168718
438.200218	6031.226379
438.576429	5893.915431
438.952580	5993.208518
439.328670	6040.512185
439.704700	5944.959634
440.080670	5934.816833
440.456580	6203.016299
440.832429	6085.141520
441.208218	5932.669301
441.583947	6088.592189
441.959616	6091.841213
442.335224	6016.501169
442.710773	6157.920658
443.086261	6184.427045
443.461689	5979.151260
443.837057	6123.582838
444.212365	6281.801972
444.587612	6169.061608
444.962800	6328.475495
445.337927	6307.995808
445.712995	5916.562814
446.088002	6498.259036
446.462949	6327.817625
446.837837	6255.850112
447.212664	6433.402071
447.587431	6569.883750
447.962139	7117.012780
448.336786	8039.238944
448.711374	7785.731920
449.085901	6857.368151
449.460369	6776.182889
449.834776	6712.941614
450.209124	7103.116839
450.583412	7249.862307
450.957640	7401.354021
451.331808	7164.432393
451.705917	6715.008487
452.079965	6638.012424
452.453954	6852.692481
452.827883	6729.602627
453.201752	6817.716955
453.575562	6616.096007
453.949311	6825.437483
454.323001	6722.088788
454.696632	6786.718900
455.070202	6927.909017
455.443713	7085.308963
455.817164	7182.515012
456.190556	7268.469206
456.563888	7340.361101
456.937160	7382.369036
457.310373	7038.877416
457.683526	7063.503452
458.056619	6958.952442
458.429653	6947.277130
458.802628	6875.027313
459.175542	6989.617781
459.548398	7344.109199
459.921194	7506.779672
460.293930	7503.979311
460.666607	8036.310033
461.039224	8340.669697
461.411782	8468.868760
461.784280	8488.935073
462.156719	8380.174699
462.529099	8251.675688
462.901419	7843.173347
463.273680	7741.952019
463.645882	7748.747495
464.018024	7611.517205
464.390106	7785.109337
464.762130	8172.905138
465.134094	8638.322105
465.505999	9663.768415
465.877845	10888.294931
466.249631	11533.882737
466.621358	11153.162195
466.993026	10518.188539
467.364634	10267.605384
467.736184	9902.436802
468.107674	9576.090147
468.479105	9605.104507
468.850477	9371.288230
469.221790	9140.965473
469.593043	8809.464237
469.964238	8677.050770
470.335373	8686.455042
470.706449	8746.170030
471.077467	8725.773522
471.448425	10037.232215
471.819324	11108.094280
472.190164	11132.596808
472.560945	9882.022650
472.931667	9095.839584
473.302330	8959.771280
473.672934	8606.567877
474.043479	8957.744736
474.413965	8893.883399
474.784393	8781.478272
475.154761	8942.628837
475.525070	9025.127319
475.895321	8855.537863
476.265513	9031.542188
476.635645	9199.861273
477.005719	9202.608702
477.375734	9314.406371
477.745691	9552.921003
478.115588	9685.175675
478.485427	9928.013097
478.855207	10465.463111
479.224928	11283.609613
479.594591	11911.359295
479.964194	11719.984493
480.333739	11665.839980
480.703226	11576.528378
481.072653	11668.620176
481.442022	11902.030640
481.811333	12097.400557
482.180584	11898.179199
482.549777	11607.972575
482.918912	11435.502099
483.287988	11459.714761
483.657005	11472.433592
484.025964	11144.408232
484.394864	11275.576534
484.763706	11242.365412
485.132489	11005.436223
485.501213	10972.767025
485.869879	11042.221522
486.238487	10883.415094
486.607036	11001.841880
486.975527	10787.209714
487.343959	10967.861983
487.712333	11018.964159
488.080648	10953.519900
488.448905	10989.881743
488.817104	10927.116857
489.185244	11192.475633
489.553326	11356.517300
489.921350	11897.712892
490.289315	12956.450982
490.657222	13298.127786
491.025070	13205.282335
491.392861	13078.099065
491.760593	12699.606714
492.128267	12340.172444
492.495883	12015.575069
492.863440	11686.377640
493.230939	11337.113899
493.598380	11274.210381
493.965763	11142.563169
494.333088	11040.525174
494.700354	10968.892899
495.067563	11025.714264
495.434713	10857.911897
495.801805	10982.962759
496.168839	10909.089691
496.535815	10843.748775
496.902733	10843.882366
497.269593	10773.490214
497.636395	10878.953673
498.003139	10861.808709
498.369825	10733.856662
498.736453	10891.740560
499.103023	10815.735083
499.469535	10842.533857
499.835989	10835.249390
500.202385	10799.691611
500.568723	10651.857254
500.935003	10872.511078
501.301226	10672.989771
501.667390	10936.972312
502.033497	11036.724144
502.399546	10889.782071
502.765537	10802.759153
503.131470	10869.846828
503.497345	11046.652697
503.863163	10659.887812
504.228923	10966.266457
504.594625	11033.858248
504.960269	10778.995154
505.325856	11003.233239
505.691385	10797.745726
506.056856	10943.886255
506.422270	10973.508075
506.787625	10859.933399
507.152924	10975.244752
507.518164	10960.481733
507.883347	10871.782632
508.248472	10801.208998
508.613540	11039.204392
508.978550	10918.047821
509.343503	10897.232897
509.708398	11008.309681
510.073236	11126.615479
510.438016	11125.178750
510.802738	11076.471122
511.167403	11128.584050
511.532010	11029.807681
511.896561	11262.527507
512.261053	11331.649288
512.625488	11204.776049
512.989866	11183.966166
513.354186	11176.318735
513.718449	11076.987840
514.082655	11274.459918
514.446803	11158.979687
514.810894	11272.952613
515.174927	11150.868470
515.538904	11173.485607
515.902822	11326.824904
516.266684	11207.891482
516.630488	11157.358956
516.994235	11210.681761
517.357925	11272.927408
517.721558	11363.539627
518.085133	11381.750796
518.448651	11381.392874
518.812112	11271.999835
519.175516	11279.952256
519.538863	11397.935420
519.902152	11328.352374
520.265385	11477.550363
520.628560	11387.119625
520.991678	11372.414579
521.354739	11433.460431
521.717743	11359.504184
522.080690	11346.563542
522.443580	11482.747793
522.806413	11438.917480
523.169189	11471.178344
523.531908	11517.945129
523.894569	11347.211330
524.257174	11352.045797
524.619722	11469.683642
524.982213	11418.813359
525.344647	11477.789818
525.707025	11420.434090
526.069345	11509.370126
526.431608	11425.432394
526.793815	11545.116948
527.155964	11324.823566
527.518057	11376.999508
527.880093	11324.213586
528.242072	11397.519525
528.603995	11301.306583
528.965860	11220.617875
529.327669	11273.381112
529.689421	11216.879859
530.051117	11193.221724
530.412755	11298.344905
530.774337	11193.211642
531.135862	11168.325986
531.497331	11196.881602
531.858743	11046.279651
532.220098	11213.381298
532.581396	11079.021946
532.942638	11063.817826
533.303824	11030.647033
533.664953	11039.030472
534.026025	10958.311517
534.387040	11052.896166
534.747999	11058.592670
535.108902	11114.816658
535.469748	10869.607374
535.830537	10975.968158
536.191270	10959.647423
536.551947	10975.272479
536.912567	10975.252314
537.273131	10905.911243
537.633638	10882.381657
537.994089	10873.650379
538.354483	10820.055352
538.714821	10969.323917
539.075103	10981.878911
539.435328	10939.540780
539.795497	10765.568041
540.155609	10923.638461
540.515665	11007.886224
540.875665	10742.814793
541.235609	10815.425052
541.595496	10807.931377
541.955328	10967.907353
542.315102	10849.987203
542.674821	10795.648606
543.034483	10800.573813
543.394090	10803.900974
543.753640	10727.822401
544.113134	10961.179933
544.472571	10805.327621
544.831953	10948.554363
545.191278	10755.238716
545.550548	10790.073089
545.909761	10923.467061
546.268918	10896.625438
546.628019	10976.716769
546.987064	10841.480256
547.346053	10766.210788
547.704986	10867.122085
548.063863	10855.887873
548.422684	10839.869607
548.781449	10758.147462
549.140158	10862.622855
549.498811	10736.939328
549.857408	10593.006824
550.215949	10824.889818
550.574434	10679.853302
550.932864	10778.528847
551.291237	10831.589512
551.649555	10779.521954
552.007817	10800.742692
552.366022	10755.452965
552.724173	10749.327963
553.082267	10732.399769
553.440305	10878.073992
553.798288	10681.219454
554.156215	10828.925262
554.514086	10807.059257
554.871902	10653.104939
555.229661	10687.402430
555.587365	10663.038533
555.945014	10560.496423
556.302606	10684.239106
556.660143	10582.264125
557.017625	10735.953782
557.375050	10623.107553
557.732421	10764.953020
558.089735	10679.608806
558.446994	10680.601913
558.804197	10721.266381
559.161345	10715.269928
559.518437	10567.755684
559.875474	10656.295990
560.232455	10688.783706
560.589381	10635.617177
560.946251	10632.100972
561.303065	10742.179607
561.659825	10673.677888
562.016528	10602.365726
562.373177	10478.169339
562.729770	10599.046126
563.086307	10513.959011
563.442789	10611.260842
563.799216	10488.546554
564.155587	10530.993070
564.511904	10484.395164
564.868164	10481.733435
565.224370	10497.459314
565.580520	10417.567108
565.936615	10427.344426
566.292654	10296.581937
566.648638	10425.504405
567.004567	10378.924143
567.360441	10370.137412
567.716260	10280.556108
568.072023	10372.289985
568.427732	10318.694958
568.783385	10230.792358
569.138982	10298.477410
569.494525	10319.660339
569.850013	10194.823726
570.205445	10274.789028
570.560823	10173.993678
570.916145	10092.470658
571.271412	10158.701338
571.626625	10107.687381
571.981782	10073.369727
572.336884	10051.934740
572.691931	10058.062263
573.046923	10006.443368
573.401860	9963.369229
573.756743	9893.491275
574.111570	9940.608419
574.466342	9925.379094
574.821059	9956.480492
575.175722	9849.366055
575.530330	9855.107930
575.884882	9846.366569
576.239380	9775.278738
576.593823	9753.148073
576.948211	9767.805227
577.302544	9650.600921
577.656823	9668.297892
578.011047	9664.239763
578.365216	9636.838571
578.719330	9565.536491
579.073389	9573.251977
579.427394	9519.009162
579.781344	9501.909568
580.135239	9451.417371
580.489080	9455.783010
580.842866	9366.317653
581.196597	9368.029124
581.550273	9405.338704
581.903895	9373.050114
582.257463	9440.871277
582.610975	9307.668869
582.964434	9342.536009
583.317837	9262.356458
583.671186	9245.798788
584.024481	9246.159230
584.377721	9157.918873
584.730906	9134.268300
585.084037	9164.716869
585.437113	9103.413918
585.790135	9126.585582
586.143103	9022.122792
586.496016	8995.921394
586.848874	9049.082882
587.201679	9044.805463
587.554428	8927.734748
587.907124	8973.823497
588.259765	8949.681411
588.612352	8944.927603
588.964884	8824.622987
589.317362	8842.327519
589.669786	8840.195111
590.022155	8886.261175
590.374470	8905.760358
590.726731	8840.474895
591.078937	8695.498872
591.431090	8804.143299
591.783188	8672.801077
592.135232	8670.295623
592.487222	8667.820417
592.839157	8721.975012
593.191038	8654.168972
593.542866	8598.217206
593.894639	8503.312443
594.246358	8558.790342
594.598022	8570.027073
594.949633	8464.513203
595.301190	8438.941950
595.652692	8467.651321
596.004141	8583.287829
596.355535	8362.172739
596.706876	8340.324378
597.058162	8272.737628
597.409395	8346.943413
597.760573	8410.061180
598.111698	8318.176068
598.462768	8310.495871
598.813785	8267.396526
599.164748	8237.585663
599.515657	8238.389727
599.866511	8140.886249
600.217312	8270.582535
600.568060	8124.058878
600.918753	8229.623160
601.269392	8200.747431
601.619978	8106.480374
601.970510	8173.852875
602.320988	8171.841455
602.671412	8227.130309
603.021783	8167.707708
603.372100	8139.376424
603.722363	8143.626117
604.072572	8114.344574
604.422728	8123.988302
604.772830	8055.894916
605.122878	8063.451606
605.472872	8052.908032
605.822813	8088.690142
606.172701	8029.368365
606.522534	8108.574974
606.872314	8104.156402
607.222041	8074.332936
607.571714	8131.499621
607.921333	8087.157632
608.270899	8096.151050
608.620411	8182.450563
608.969870	8087.230728
609.319276	8085.350378
609.668627	8101.774457
610.017926	8138.705950
610.367171	8179.584667
610.716362	8152.750605
611.065500	8147.396900
611.414585	8174.893873
611.763616	8165.597986
612.112594	8151.326479
612.461518	8162.727048
612.810389	8229.333294
613.159207	8164.098242
613.507971	8106.429963
613.856682	8223.533446
614.205340	8183.347888
614.553945	8259.038293
614.902496	8159.815782
615.250994	8217.350471
615.599439	8198.201648
615.947830	8211.379224
616.296169	8183.940224
616.644454	8194.458591
616.992686	8190.854166
617.340864	8256.237932
617.688990	8150.527456
618.037063	8248.658557
618.385082	8197.329528
618.733048	8285.605173
619.080961	8217.698311
619.428821	8239.839058
619.776628	8242.495746
620.124382	8192.265689
620.472083	8177.900922
620.819731	8201.460754
621.167326	8091.109896
621.514868	8106.147658
621.862357	7994.758323
622.209793	8012.296497
622.557176	7940.787730
622.904506	7910.371928
623.251783	7847.896908
623.599007	7805.019374
623.946179	7806.012482
624.293297	7762.043538
624.640363	7677.926845
624.987376	7664.895462
625.334336	7610.304807
625.681243	7558.522075
626.028097	7548.812813
626.374899	7528.837240
626.721647	7515.127823
627.068343	7449.602905
627.414987	7418.549397
627.761577	7375.006431
628.108115	7415.474293
628.454600	7307.570916
628.801032	7355.708894
629.147412	7317.262534
629.493739	7311.245917
629.840014	7249.007832
630.186236	7300.230996
630.532405	7181.887389
630.878521	7235.797488
631.224585	7191.185797
631.570597	7115.076977
631.916556	7147.501678
632.262462	7147.584857
632.608316	7103.585667
632.954117	7082.226298
633.299866	7068.085861
633.645562	7061.149233
633.991206	6983.956565
634.336797	6924.609582
634.682336	6882.329424
635.027823	6850.900351
635.373257	6838.352919
635.718639	6771.539986
636.063968	6785.370392
636.409245	6675.349730
636.754470	6676.332755
637.099642	6640.475027
637.444762	6579.749288
637.789829	6586.340597
638.134845	6528.982348
638.479808	6519.837695
638.824719	6520.646800
639.169577	6449.838753
639.514383	6469.337937
639.859137	6395.379168
640.203839	6409.638072
640.548489	6392.099898
