Dividing Wavelength (nm)	Counts (n)	Blue Motor Position (mm): 19.900000	Red Motor Position (mm): 0.000000	
326.493990	2133.648201
326.888308	2133.648201
327.282561	2133.648201
327.676750	2099.549836
328.070874	2098.939857
328.464933	2101.689806
328.858929	2108.656681
329.252859	2120.412651
329.646726	2131.798097
330.040528	2143.090282
330.434265	2161.863539
330.827938	2179.878102
331.221547	2194.726821
331.615091	2213.817670
332.008571	2234.158726
332.401986	2254.903074
332.795338	2272.796650
333.188625	2294.420679
333.581847	2310.179326
333.975006	2331.881493
334.368100	2348.358505
334.761129	2363.013139
335.154095	2380.700027
335.546996	2402.712226
335.939833	2421.359454
336.332606	2438.869902
336.725315	2449.395831
337.117960	2460.430917
337.510540	2468.826958
337.903056	2479.408340
338.295508	2488.058960
338.687896	2497.112873
339.080220	2501.060096
339.472480	2510.003103
339.864676	2514.134328
340.256807	2518.762108
340.648875	2522.061543
341.040879	2524.478776
341.432818	2527.425331
341.824694	2527.448016
342.216506	2527.609333
342.608253	2530.465146
342.999937	2526.890968
343.391557	2528.882224
343.783113	2528.289888
344.174605	2527.231246
344.566033	2521.817047
344.957397	2521.973323
345.348697	2519.929135
345.739934	2517.932838
346.131106	2514.701458
346.522215	2518.784793
346.913260	2514.333454
347.304241	2508.856240
347.695159	2509.793895
348.086012	2509.103257
348.476802	2507.850530
348.867528	2501.856598
349.258191	2503.532782
349.648789	2504.173008
350.039324	2502.038080
350.429796	2501.085302
350.820203	2500.810559
351.210548	2495.517347
351.600828	2496.427276
351.991045	2495.298057
352.381198	2493.332007
352.771288	2496.094559
353.161314	2494.546925
353.551276	2495.230002
353.941175	2492.031389
354.331010	2492.177583
354.720782	2495.953407
355.110490	2493.263952
355.500135	2494.841833
355.889717	2495.358551
356.279235	2492.666575
356.668689	2494.264621
357.058080	2497.032214
357.447408	2493.528612
357.836672	2491.040803
358.225873	2493.180772
358.615010	2492.210350
359.004084	2497.954745
359.393095	2495.779487
359.782043	2497.899293
360.170927	2497.569097
360.559748	2498.771412
360.948505	2498.030362
361.337199	2501.365086
361.725830	2499.998933
362.114398	2501.024808
362.502903	2502.564880
362.891344	2501.591938
363.279722	2502.683348
363.668037	2503.706702
364.056289	2500.384581
364.444478	2505.105622
364.832603	2504.296517
365.220665	2503.212669
365.608665	2505.861795
365.996601	2505.892042
366.384474	2504.493122
366.772284	2506.396157
367.160031	2507.114522
367.547715	2505.894563
367.935336	2506.600324
368.322893	2507.341374
368.710388	2508.712567
369.097820	2508.944461
369.485189	2505.423215
369.872495	2508.987310
370.259738	2508.762979
370.646918	2510.650891
371.034035	2509.677948
371.421090	2509.294821
371.808081	2508.876405
372.195010	2510.512259
372.581875	2510.169461
372.968678	2510.860099
373.355418	2511.442352
373.742096	2509.708195
374.128710	2511.492764
374.515262	2513.350429
374.901751	2513.105933
375.288177	2512.748011
375.674540	2512.478309
376.060841	2513.383197
376.447079	2510.930675
376.833254	2511.588546
377.219367	2510.862620
377.605417	2511.996879
377.991404	2508.273987
378.377329	2510.794564
378.763191	2509.909842
379.148991	2513.741118
379.534727	2512.662312
379.920402	2517.453928
380.306013	2514.346057
380.691563	2517.171624
381.077049	2514.323372
381.462474	2513.158865
381.847835	2515.765142
382.233134	2515.392096
382.618371	2515.876047
383.003545	2517.514422
383.388657	2517.295132
383.773706	2515.989473
384.158693	2515.631551
384.543618	2515.697086
384.928480	2516.107940
385.313280	2515.760101
385.698017	2517.138856
386.082692	2519.440143
386.467305	2518.270595
386.851856	2517.085924
387.236344	2518.434433
387.620770	2519.041892
388.005133	2519.833353
388.389435	2519.944258
388.773674	2515.369411
389.157851	2518.346213
389.541965	2519.619104
389.926018	2518.986439
390.310008	2518.706655
390.693936	2519.946779
391.077802	2519.261182
391.461606	2520.007273
391.845348	2518.678929
392.229027	2519.561131
392.612645	2523.094979
392.996200	2517.557272
393.379694	2522.338806
393.763125	2522.434588
394.146494	2520.718075
394.529801	2521.413755
394.913047	2522.200175
395.296230	2523.856194
395.679351	2523.110103
396.062410	2521.096162
396.445408	2521.630524
396.828343	2525.292923
397.211217	2517.645492
397.594028	2521.045750
397.976778	2521.310411
398.359466	2523.084897
398.742092	2517.514422
399.124656	2524.514064
399.507158	2524.657737
399.889598	2524.771163
400.271977	2523.331914
400.654294	2528.105886
401.036549	2527.042203
401.418742	2527.385001
401.800874	2524.135978
402.182944	2528.506658
402.564952	2523.026924
402.946898	2525.943231
403.328783	2526.583458
403.710606	2527.768129
404.092367	2527.274096
404.474067	2525.900382
404.855705	2528.095804
405.237282	2526.545649
405.618797	2526.442306
406.000250	2526.898530
406.381642	2528.178983
406.762972	2529.272913
407.144240	2526.603623
407.525447	2529.199817
407.906593	2527.019518
408.287677	2526.835516
408.668700	2530.429858
409.049661	2527.836185
409.430560	2528.509179
409.811399	2528.541946
410.192176	2528.872142
410.572891	2530.228212
410.953545	2530.576052
411.334138	2530.444982
411.714669	2528.514220
412.095139	2529.114117
412.475547	2529.167049
412.855894	2528.851977
413.236180	2531.924560
413.616405	2532.617719
413.996568	2531.851464
414.376670	2532.340456
414.756711	2530.618902
415.136691	2533.358769
415.516609	2533.328522
415.896466	2532.405991
416.276262	2534.707277
416.655997	2531.002029
417.035670	2529.398942
417.415283	2531.712832
417.794834	2527.442975
418.174324	2533.333563
418.553753	2530.238294
418.933121	2532.232071
419.312428	2531.332225
419.691674	2532.211906
420.070859	2534.137627
420.449983	2533.769623
420.829045	2531.675023
421.208047	2535.070240
421.586988	2533.711649
421.965867	2536.968235
422.344686	2533.638553
422.723444	2531.473377
423.102141	2532.269879
423.480777	2536.391023
423.859352	2535.140817
424.237866	2536.645601
424.616319	2533.913296
424.994712	2537.759696
425.373044	2534.634181
425.751314	2537.026208
426.129524	2534.924047
426.507673	2534.639222
426.885762	2534.377082
427.263789	2535.473533
427.641756	2534.566125
428.019662	2534.064530
428.397508	2536.275076
428.775292	2536.887576
429.153016	2536.317926
429.530679	2537.656352
429.908282	2536.882535
430.285824	2537.908410
430.663305	2534.374561
431.040726	2536.007895
431.418086	2537.278266
431.795385	2537.711805
432.172624	2534.266176
432.549802	2535.594520
432.926920	2538.505787
433.303977	2538.934285
433.680974	2536.910262
434.057910	2539.176260
434.434786	2539.302289
434.811601	2537.459747
435.188355	2539.307330
435.565050	2538.881353
435.941683	2540.285314
436.318257	2541.109543
436.694770	2535.922195
437.071222	2537.588297
437.447614	2533.235260
437.823946	2534.545960
438.200218	2538.135262
438.576429	2538.445293
438.952580	2537.671476
439.328670	2538.117618
439.704700	2539.425797
440.080670	2539.768596
440.456580	2539.055272
440.832429	2541.724563
441.208218	2539.569470
441.583947	2541.215407
441.959616	2539.476209
442.335224	2540.776827
442.710773	2540.585263
443.086261	2540.247505
443.461689	2540.156765
443.837057	2541.389327
444.212365	2540.885211
444.587612	2539.640046
444.962800	2541.265818
445.337927	2540.670962
445.712995	2540.262629
446.088002	2543.085675
446.462949	2544.479554
446.837837	2543.315048
447.212664	2540.676003
447.587431	2542.725232
447.962139	2543.209183
448.336786	2545.535676
448.711374	2542.107691
449.085901	2542.455531
449.460369	2541.858154
449.834776	2544.338402
450.209124	2543.458720
450.583412	2545.981818
450.957640	2543.080634
451.331808	2541.381765
451.705917	2540.968390
452.079965	2544.252702
452.453954	2545.639019
452.827883	2545.069369
453.201752	2545.830583
453.575562	2546.425439
453.949311	2541.409491
454.323001	2546.422919
454.696632	2545.422250
455.070202	2543.521735
455.443713	2545.218083
455.817164	2544.129194
456.190556	2541.800181
456.563888	2543.141128
456.937160	2541.691796
457.310373	2544.338402
457.683526	2545.482744
458.056619	2546.420398
458.429653	2545.197918
458.802628	2542.349667
459.175542	2547.327806
459.548398	2545.364277
459.921194	2547.453835
460.293930	2545.694472
460.666607	2548.618341
461.039224	2548.431819
461.411782	2548.731767
461.784280	2547.592467
462.156719	2549.130018
462.529099	2548.295707
462.901419	2546.236396
463.273680	2546.518701
463.645882	2547.284956
464.018024	2548.124308
464.390106	2549.455173
464.762130	2549.210677
465.134094	2548.880481
465.505999	2549.868547
465.877845	2548.593136
466.249631	2553.309135
466.621358	2549.530790
466.993026	2555.176882
467.364634	2553.530946
467.736184	2549.654298
468.107674	2552.237890
468.479105	2547.602549
468.850477	2551.683363
469.221790	2552.109340
469.593043	2550.347457
469.964238	2551.300235
470.335373	2550.392827
470.706449	2549.157745
471.077467	2550.370142
471.448425	2552.416851
471.819324	2550.317210
472.190164	2555.524722
472.560945	2553.740154
472.931667	2552.431974
473.302330	2553.273847
473.672934	2553.576316
474.043479	2549.868548
474.413965	2553.941800
474.784393	2545.933927
475.154761	2551.600184
475.525070	2551.217056
475.895321	2551.164124
476.265513	2550.566747
476.635645	2553.299053
477.005719	2553.775442
477.375734	2556.507747
477.745691	2555.081101
478.115588	2555.985988
478.485427	2556.709393
478.855207	2556.439692
479.224928	2557.692418
479.594591	2562.612584
479.964194	2559.393808
480.333739	2558.796431
480.703226	2560.732234
481.072653	2559.618139
481.442022	2562.058058
481.811333	2563.131823
482.180584	2562.562173
482.549777	2562.380691
482.918912	2561.616957
483.287988	2563.484704
483.657005	2562.935218
484.025964	2564.503017
484.394864	2566.118707
484.763706	2569.077864
485.132489	2564.732390
485.501213	2568.283882
485.869879	2570.582649
486.238487	2567.537792
486.607036	2574.471899
486.975527	2573.682958
487.343959	2575.906107
487.712333	2578.575398
488.080648	2578.847620
488.448905	2578.782085
488.817104	2584.014803
489.185244	2589.003025
489.553326	2592.378077
489.921350	2598.750096
490.289315	2609.492795
490.657222	2613.984463
491.025070	2620.197685
491.392861	2624.444857
491.760593	2623.572737
492.128267	2624.830505
492.495883	2626.811679
492.863440	2631.585651
493.230939	2634.020529
493.598380	2639.384316
493.965763	2640.009419
494.333088	2647.298928
494.700354	2652.612304
495.067563	2660.347955
495.434713	2662.263593
495.801805	2676.131807
496.168839	2683.766635
496.535815	2692.155115
496.902733	2699.437062
497.269593	2707.631457
497.636395	2716.440873
498.003139	2730.626680
498.369825	2734.490725
498.736453	2749.324320
499.103023	2758.219436
499.469535	2771.596138
499.835989	2782.550565
500.202385	2795.763429
500.568723	2805.192907
500.935003	2823.285609
501.301226	2834.792042
501.667390	2856.474045
502.033497	2879.370966
502.399546	2883.469424
502.765537	2898.300498
503.131470	2918.623910
503.497345	2942.403033
503.863163	2946.098199
504.228923	2978.573312
504.594625	2999.131137
504.960269	3006.055162
505.325856	3037.688402
505.691385	3051.397820
506.056856	3078.849423
506.422270	3108.899742
506.787625	3121.910960
507.152924	3157.922442
507.518164	3172.662776
507.883347	3195.637835
508.248472	3215.825135
508.613540	3261.210643
508.978550	3285.897174
509.343503	3307.112870
509.708398	3348.004189
510.073236	3388.671177
510.438016	3420.811053
510.802738	3448.597893
511.167403	3488.848986
511.532010	3520.830066
511.896561	3568.423600
512.261053	3620.531487
512.625488	3640.938077
512.989866	3674.005526
513.354186	3709.333932
513.718449	3736.573807
514.082655	3806.177018
514.446803	3837.038962
514.810894	3893.144484
515.174927	3920.013834
515.538904	3961.240390
515.902822	4035.206720
516.266684	4056.001479
516.630488	4102.354889
516.994235	4148.181498
517.357925	4216.766396
517.721558	4278.654121
518.085133	4332.095393
518.448651	4380.692116
518.812112	4405.875200
519.175516	4468.992967
519.538863	4543.327301
519.902152	4568.719593
520.265385	4675.375285
520.628560	4696.533007
520.991678	4762.367956
521.354739	4827.179551
521.717743	4859.213563
522.080690	4909.854474
522.443580	5012.139485
522.806413	5058.790323
523.169189	5120.499087
523.531908	5195.032547
523.894569	5209.157860
524.257174	5270.347385
524.619722	5373.086101
524.982213	5396.214914
525.344647	5493.156303
525.707025	5525.638978
526.069345	5620.989882
526.431608	5663.728784
526.793815	5759.157827
527.155964	5751.709522
527.518057	5820.649821
527.880093	5874.890116
528.242072	5953.403567
528.603995	5990.403115
528.965860	6016.876735
529.327669	6105.321258
529.689421	6138.403831
530.051117	6191.497263
530.412755	6304.134284
530.774337	6299.050280
531.135862	6372.860334
531.497331	6430.566422
531.858743	6434.982473
532.220098	6568.356280
532.581396	6577.193423
532.942638	6619.957531
533.303824	6665.211969
533.664953	6744.854638
534.026025	6757.071875
534.387040	6865.723863
534.747999	6927.707371
535.108902	7020.056268
535.469748	6957.220806
535.830537	7068.617703
536.191270	7114.819878
536.551947	7188.713111
536.912567	7247.210660
537.273131	7259.143071
537.633638	7301.972714
537.994089	7359.545212
538.354483	7384.408183
538.714821	7527.057713
539.075103	7589.333607
539.435328	7630.154350
539.795497	7569.471461
540.155609	7737.354487
540.515665	7835.656987
540.875665	7730.175884
541.235609	7830.278076
541.595496	7874.400775
541.955328	8043.534007
542.315102	8010.922783
542.674821	8029.827110
543.034483	8085.473886
543.394090	8137.485991
543.753640	8141.145869
544.113134	8344.914348
544.472571	8297.998850
544.831953	8447.864792
545.191278	8360.612502
545.550548	8429.232688
545.909761	8570.387516
546.268918	8602.484543
546.628019	8705.213176
546.987064	8665.060385
547.346053	8639.413515
547.704986	8765.061754
548.063863	8807.009195
548.422684	8830.488369
548.781449	8819.521339
549.140158	8939.427704
549.498811	8890.082369
549.857408	8809.617992
550.215949	9039.872694
550.574434	8959.196589
550.932864	9082.654446
551.291237	9155.284870
551.649555	9175.520062
552.007817	9211.516421
552.366022	9216.996155
552.724173	9246.902800
553.082267	9269.043548
553.440305	9419.448894
553.798288	9283.216752
554.156215	9453.527094
554.514086	9468.060740
554.871902	9370.748827
555.229661	9431.708980
555.587365	9440.034445
555.945014	9381.980518
556.302606	9526.066777
556.660143	9460.642682
557.017625	9625.027147
557.375050	9560.334020
557.732421	9707.439931
558.089735	9663.680195
558.446994	9686.355305
558.804197	9752.608669
559.161345	9777.504407
559.518437	9669.545577
559.875474	9771.344117
560.232455	9826.436367
560.589381	9804.136823
560.946251	9830.202109
561.303065	9939.103635
561.659825	9904.160877
562.016528	9867.572183
562.373177	9770.592985
562.729770	9900.435464
563.086307	9842.288275
563.442789	9943.008009
563.799216	9853.177168
564.155587	9914.505325
564.511904	9894.675946
564.868164	9901.927646
565.224370	9936.278068
565.580520	9883.739163
565.936615	9896.523529
566.292654	9792.161562
566.648638	9936.008367
567.004567	9908.403008
567.360441	9903.828161
567.716260	9831.669085
568.072023	9935.960476
568.427732	9906.852853
568.783385	9826.799330
569.138982	9906.585672
569.494525	9930.914281
569.850013	9827.295884
570.205445	9918.177805
570.560823	9830.930556
570.916145	9755.976160
571.271412	9834.098921
571.626625	9793.164752
571.981782	9780.551785
572.336884	9755.431715
572.691931	9768.316904
573.046923	9733.908509
573.401860	9693.526346
573.756743	9643.016505
574.111570	9685.972177
574.466342	9678.589407
574.821059	9711.850940
575.175722	9621.394996
575.530330	9634.191965
575.884882	9629.614598
576.239380	9566.643024
576.593823	9547.900014
576.948211	9570.071009
577.302544	9456.846693
577.656823	9481.480292
578.011047	9486.077824
578.365216	9464.133681
578.719330	9392.634996
579.073389	9412.260208
579.427394	9363.834884
579.781344	9344.479374
580.135239	9298.599833
580.489080	9310.381010
580.842866	9213.638747
581.196597	9222.231393
581.550273	9261.781766
581.903895	9236.412159
582.257463	9304.250967
582.610975	9184.379890
582.964434	9210.419970
583.317837	9133.280234
583.671186	9121.388152
584.024481	9118.953275
584.377721	9039.718939
584.730906	9019.362760
585.084037	9056.337103
585.437113	8993.481476
585.790135	9013.968725
586.143103	8918.554806
586.496016	8894.455570
586.848874	8952.630486
587.201679	8941.761758
587.554428	8826.291609
587.907124	8875.962097
588.259765	8850.423612
588.612352	8854.935445
588.964884	8727.220333
589.317362	8745.028209
589.669786	8744.453517
590.022155	8799.863360
590.374470	8805.050707
590.726731	8749.250175
591.078937	8606.479657
591.431090	8721.107934
591.783188	8591.068850
592.135232	8586.146163
592.487222	8585.611801
592.839157	8639.806725
593.191038	8574.559071
593.542866	8514.942385
593.894639	8421.048374
594.246358	8474.701375
594.598022	8489.441709
594.949633	8389.682315
595.301190	8367.501238
595.652692	8397.969972
596.004141	8504.348401
596.355535	8286.512581
596.706876	8266.194211
597.058162	8196.754837
597.409395	8274.751569
597.760573	8337.634922
598.111698	8250.349864
598.462768	8234.959221
598.813785	8197.011936
599.164748	8170.729880
599.515657	8161.567583
599.866511	8071.741783
600.217312	8194.390536
600.568060	8056.630925
600.918753	8158.434506
601.269392	8131.988613
601.619978	8040.053090
601.970510	8107.372659
602.320988	8099.044672
602.671412	8164.935074
603.021783	8101.663552
603.372100	8072.460148
603.722363	8071.986279
604.072572	8050.508443
604.422728	8060.406749
604.772830	7986.369843
605.122878	8003.713933
605.472872	7994.536512
605.822813	8024.294443
606.172701	7971.649674
606.522534	8048.207157
606.872314	8040.232051
607.222041	8014.338164
607.571714	8067.345897
607.921333	8024.107921
608.270899	8032.927419
608.620411	8122.110472
608.969870	8022.595574
609.319276	8019.228084
609.668627	8034.676700
610.017926	8071.426711
610.367171	8122.168445
610.716362	8092.032427
611.065500	8091.876152
611.414585	8116.847507
611.763616	8105.961136
612.112594	8084.059843
612.461518	8095.309177
612.810389	8157.733786
613.159207	8105.527596
613.507971	8050.707569
613.856682	8166.429776
614.205340	8124.477294
614.553945	8205.876805
614.902496	8096.284641
615.250994	8156.024834
615.599439	8139.394068
615.947830	8146.436560
616.296169	8123.050647
616.644454	8136.966752
616.992686	8132.069271
617.340864	8191.612860
617.688990	8091.624094
618.037063	8182.044750
618.385082	8134.725959
618.733048	8221.201913
619.080961	8160.128334
619.428821	8174.286414
619.776628	8179.163731
620.124382	8133.374930
620.472083	8116.887837
620.819731	8143.265674
621.167326	8041.817494
621.514868	8049.991725
621.862357	7935.350845
622.209793	7953.183927
622.557176	7892.080101
622.904506	7851.531580
623.251783	7795.751213
623.599007	7747.252792
623.946179	7748.530725
624.293297	7707.911628
624.640363	7626.640666
624.987376	7607.900177
625.334336	7562.328146
625.681243	7506.583067
626.028097	7494.378433
626.374899	7473.893705
626.721647	7462.472971
627.068343	7400.451655
627.414987	7370.938220
627.761577	7323.994995
628.108115	7361.657455
628.454600	7255.132833
628.801032	7308.604352
629.147412	7263.622137
629.493739	7249.948007
629.840014	7190.878287
630.186236	7250.361381
630.532405	7131.261601
630.878521	7183.349323
631.224585	7145.845659
631.570597	7067.163330
631.916556	7098.809173
632.262462	7092.870694
632.608316	7055.435086
632.954117	7037.591922
633.299866	7024.951228
633.645562	7013.031420
633.991206	6939.503671
634.336797	6878.866152
634.682336	6836.132290
635.027823	6803.566437
635.373257	6793.506814
635.718639	6723.283541
636.063968	6739.100161
636.409245	6635.675849
636.754470	6637.677187
637.099642	6594.703871
637.444762	6535.205653
637.789829	6541.842332
638.134845	6487.780998
638.479808	6474.648792
638.824719	6477.607949
639.169577	6406.419295
639.514383	6427.057779
639.859137	6354.603796
640.203839	6362.467996
640.548489	6350.994329
640.893086	6328.321740
641.237632	6302.261495
641.582125	6320.838147
641.926566	6293.817562
642.270955	6301.245703
642.615292	6299.887112
642.959576	6312.409338
643.303809	6300.623120
643.647990	6312.517723
643.992118	6295.057686
644.336195	6244.429378
