Dividing Wavelength (nm)	Counts (n)	Blue Motor Position (mm): 8.000000	Red Motor Position (mm): 0.000000	
326.493990	2137.814714
326.888308	2137.814714
327.282561	2137.814714
327.676750	2107.411516
328.070874	2106.816659
328.464933	2111.477206
328.858929	2114.184306
329.252859	2125.340379
329.646726	2138.512914
330.040528	2148.784265
330.434265	2167.103818
330.827938	2183.749708
331.221547	2202.265866
331.615091	2222.218753
332.008571	2240.896228
332.401986	2263.140320
332.795338	2280.108843
333.188625	2298.609878
333.581847	2317.564617
333.975006	2337.572956
334.368100	2355.164063
334.761129	2373.551671
335.154095	2390.303425
335.546996	2405.250447
335.939833	2421.011614
336.332606	2438.698502
336.725315	2448.180913
337.117960	2458.457305
337.510540	2467.173460
337.903056	2477.437249
338.295508	2482.238948
338.687896	2494.320073
339.080220	2500.636639
339.472480	2510.754235
339.864676	2513.252127
340.256807	2517.673218
340.648875	2520.859228
341.040879	2521.239835
341.432818	2526.039013
341.824694	2523.780576
342.216506	2524.277130
342.608253	2525.522295
342.999937	2525.363499
343.391557	2525.345855
343.783113	2523.767973
344.174605	2523.755371
344.566033	2521.743950
344.957397	2522.966430
345.348697	2520.360153
345.739934	2519.044412
346.131106	2517.146418
346.522215	2514.066273
346.913260	2512.916890
347.304241	2509.345232
347.695159	2508.896570
348.086012	2507.825324
348.476802	2503.454644
348.867528	2502.668224
349.258191	2499.865342
349.648789	2500.545898
350.039324	2500.288799
350.429796	2499.910713
350.820203	2496.134889
351.210548	2496.215547
351.600828	2493.606750
351.991045	2496.883500
352.381198	2492.921153
352.771288	2494.322594
353.161314	2491.572644
353.551276	2493.430310
353.941175	2493.170690
354.331010	2491.360916
354.720782	2493.054744
355.110490	2494.325114
355.500135	2490.645072
355.889717	2493.584065
356.279235	2494.950218
356.668689	2492.255721
357.058080	2492.031389
357.447408	2491.330669
357.836672	2492.966523
358.225873	2490.733292
358.615010	2488.696666
359.004084	2493.253869
359.393095	2494.877121
359.782043	2497.836278
360.170927	2495.504744
360.559748	2498.332832
360.948505	2500.374499
361.337199	2500.145127
361.725830	2499.320898
362.114398	2502.020436
362.502903	2504.256187
362.891344	2502.191835
363.279722	2500.813079
363.668037	2503.119407
364.056289	2499.328460
364.444478	2503.134531
364.832603	2504.641836
365.220665	2505.889521
365.608665	2499.862822
365.996601	2502.373317
366.384474	2501.445744
366.772284	2504.629233
367.160031	2503.358862
367.547715	2507.217865
367.935336	2505.488750
368.322893	2503.416835
368.710388	2504.740138
369.097820	2509.347753
369.485189	2505.173677
369.872495	2505.990344
370.259738	2504.435148
370.646918	2506.519666
371.034035	2507.144769
371.421090	2508.823473
371.808081	2506.817094
372.195010	2506.292814
372.581875	2507.807680
372.968678	2508.354646
373.355418	2510.797085
373.742096	2511.631396
374.128710	2508.543689
374.515262	2511.205418
374.901751	2507.719460
375.288177	2509.514111
375.674540	2508.016888
376.060841	2511.628875
376.447079	2511.076869
376.833254	2509.952691
377.219367	2505.672752
377.605417	2510.053514
377.991404	2506.191991
378.377329	2508.770541
378.763191	2505.924809
379.148991	2512.415295
379.534727	2510.595438
379.920402	2512.765655
380.306013	2513.675583
380.691563	2514.018382
381.077049	2509.347753
381.462474	2515.470234
381.847835	2510.925634
382.233134	2515.649195
382.618371	2513.325223
383.003545	2517.355626
383.388657	2513.579802
383.773706	2517.398476
384.158693	2515.709689
384.543618	2515.881088
384.928480	2517.093486
385.313280	2515.399658
385.698017	2517.116171
386.082692	2514.507374
386.467305	2515.379493
386.851856	2517.141377
387.236344	2517.683301
387.620770	2517.171624
388.005133	2518.142046
388.389435	2517.471572
388.773674	2519.049453
389.157851	2515.092148
389.541965	2517.083403
389.926018	2519.079700
390.310008	2516.813702
390.693936	2520.103055
391.077802	2518.416789
391.461606	2520.886954
391.845348	2518.179854
392.229027	2517.476613
392.612645	2519.561131
392.996200	2520.140863
393.379694	2521.663292
393.763125	2520.791172
394.146494	2520.975174
394.529801	2520.566841
394.913047	2520.385359
395.296230	2520.949968
395.679351	2521.781759
396.062410	2523.105062
396.445408	2521.844773
396.828343	2520.803775
397.211217	2517.343023
397.594028	2519.215812
397.976778	2518.288239
398.359466	2522.739578
398.742092	2515.623989
399.124656	2523.258817
399.507158	2522.510206
399.889598	2523.399969
400.271977	2521.587674
400.654294	2523.150432
401.036549	2525.834847
401.418742	2524.372912
401.800874	2522.918539
402.182944	2522.835360
402.564952	2521.683456
402.946898	2525.968437
403.328783	2525.650844
403.710606	2525.769312
404.092367	2525.386184
404.474067	2526.885927
404.855705	2521.869979
405.237282	2523.394928
405.618797	2523.556245
406.000250	2526.906092
406.381642	2526.167563
406.762972	2525.101359
407.144240	2525.781914
407.525447	2524.756040
407.906593	2528.000022
408.287677	2524.773684
408.668700	2527.304343
409.049661	2523.520957
409.430560	2526.424662
409.811399	2529.335928
410.192176	2524.836698
410.572891	2527.226205
410.953545	2527.984899
411.334138	2527.629497
411.714669	2528.766278
412.095139	2526.119672
412.475547	2527.168232
412.855894	2527.080012
413.236180	2530.122348
413.616405	2526.268386
413.996568	2529.446833
414.376670	2529.111597
414.756711	2527.337110
415.136691	2529.512368
415.516609	2526.974147
415.896466	2529.731658
416.276262	2529.000691
416.655997	2523.742768
417.035670	2525.655886
417.415283	2528.720907
417.794834	2527.011956
418.174324	2528.582275
418.553753	2530.311391
418.933121	2530.129910
419.312428	2530.810465
419.691674	2530.054292
420.070859	2530.187883
420.449983	2532.625281
420.829045	2530.495393
421.208047	2530.732328
421.586988	2531.702750
421.965867	2533.076464
422.344686	2532.259797
422.723444	2530.470188
423.102141	2530.770136
423.480777	2530.951618
423.859352	2532.831968
424.237866	2530.452543
424.616319	2532.068233
424.994712	2533.512524
425.373044	2531.796011
425.751314	2534.109901
426.129524	2531.080167
426.507673	2535.889428
426.885762	2534.286341
427.263789	2534.321629
427.641756	2535.115611
428.019662	2535.972607
428.397508	2530.132430
428.775292	2535.584438
429.153016	2531.801052
429.530679	2534.031763
429.908282	2532.620240
430.285824	2537.585776
430.663305	2534.863553
431.040726	2533.056299
431.418086	2533.232740
431.795385	2537.553009
432.172624	2533.202493
432.549802	2537.182484
432.926920	2536.343132
433.303977	2534.687113
433.680974	2535.365148
434.057910	2533.396577
434.434786	2533.515044
434.811601	2535.977648
435.188355	2536.229706
435.565050	2536.098636
435.941683	2536.670807
436.318257	2533.590662
436.694770	2531.717873
437.071222	2532.670651
437.447614	2530.787780
437.823946	2534.160312
438.200218	2536.829603
438.576429	2536.156609
438.952580	2535.700385
439.328670	2534.684592
439.704700	2534.442617
440.080670	2535.087884
440.456580	2537.646270
440.832429	2536.953111
441.208218	2535.765920
441.583947	2537.769778
441.959616	2537.048893
442.335224	2539.176260
442.710773	2535.309695
443.086261	2536.625436
443.461689	2539.390509
443.837057	2539.357742
444.212365	2536.302802
444.587612	2538.324305
444.962800	2538.155427
445.337927	2539.937474
445.712995	2537.792463
446.088002	2537.880684
446.462949	2538.019315
446.837837	2538.170550
447.212664	2538.631816
447.587431	2540.028215
447.962139	2539.476209
448.336786	2540.476878
448.711374	2538.077289
449.085901	2539.304810
449.460369	2539.161137
449.834776	2538.818338
450.209124	2539.909748
450.583412	2540.834800
450.957640	2538.941847
451.331808	2540.534851
451.705917	2541.001158
452.079965	2539.965201
452.453954	2540.524769
452.827883	2541.364121
453.201752	2537.411856
453.575562	2540.378575
453.949311	2538.031918
454.323001	2539.377906
454.696632	2539.882022
455.070202	2542.631971
455.443713	2539.839172
455.817164	2537.381609
456.190556	2538.901517
456.563888	2537.116949
456.937160	2535.080323
457.310373	2540.892773
457.683526	2539.738349
458.056619	2540.948226
458.429653	2539.466127
458.802628	2541.759852
459.175542	2539.569470
459.548398	2540.696168
459.921194	2541.462423
460.293930	2538.619213
460.666607	2541.593493
461.039224	2540.096271
461.411782	2541.757331
461.784280	2540.418905
462.156719	2540.307999
462.529099	2541.200283
462.901419	2543.486447
463.273680	2543.183978
463.645882	2540.290355
464.018024	2540.892773
464.390106	2543.282280
464.762130	2542.455531
465.134094	2539.856816
465.505999	2540.867567
465.877845	2541.785057
466.249631	2542.702547
466.621358	2541.049049
466.993026	2546.135573
467.364634	2548.194884
467.736184	2541.341436
468.107674	2538.906558
468.479105	2543.310006
468.850477	2542.551313
469.221790	2544.920655
469.593043	2541.772454
469.964238	2543.413350
470.335373	2543.604914
470.706449	2544.595501
471.077467	2544.615665
471.448425	2543.909904
471.819324	2541.792619
472.190164	2543.461241
472.560945	2543.869574
472.931667	2545.880995
473.302330	2544.046015
473.672934	2542.208514
474.043479	2545.636499
474.413965	2542.947043
474.784393	2536.113759
475.154761	2543.035263
475.525070	2539.433359
475.895321	2541.190201
476.265513	2538.099974
476.635645	2544.855120
477.005719	2543.579708
477.375734	2544.729091
477.745691	2546.075079
478.115588	2542.959646
478.485427	2545.535676
478.855207	2547.229503
479.224928	2545.548279
479.594591	2545.709596
479.964194	2544.356046
480.333739	2545.278577
480.703226	2543.473844
481.072653	2544.502239
481.442022	2544.512322
481.811333	2544.908052
482.180584	2544.131714
482.549777	2543.559543
482.918912	2543.993083
483.287988	2544.219935
483.657005	2543.413350
484.025964	2545.187836
484.394864	2543.922507
484.763706	2545.039122
485.132489	2546.251520
485.501213	2544.779503
485.869879	2545.097095
486.238487	2540.776827
486.607036	2545.762528
486.975527	2545.384441
487.343959	2546.001982
487.712333	2544.837476
488.080648	2544.048535
488.448905	2545.069369
488.817104	2543.728422
489.185244	2546.841335
489.553326	2546.362425
489.921350	2545.311344
490.289315	2548.078938
490.657222	2548.020965
491.025070	2543.269677
491.392861	2546.314534
491.760593	2544.416540
492.128267	2547.229503
492.495883	2547.526932
492.863440	2546.753114
493.230939	2549.457693
493.598380	2547.063145
493.965763	2541.469985
494.333088	2546.327137
494.700354	2544.955943
495.067563	2546.937117
495.434713	2542.150541
495.801805	2547.539534
496.168839	2546.790923
496.535815	2547.627755
496.902733	2545.369318
497.269593	2548.590615
497.636395	2548.008362
498.003139	2547.693290
498.369825	2547.126160
498.736453	2551.166645
499.103023	2545.223124
499.469535	2547.784030
499.835989	2549.261088
500.202385	2549.490461
500.568723	2549.732436
500.935003	2547.166489
501.301226	2546.680018
501.667390	2545.908721
502.033497	2547.683207
502.399546	2547.910059
502.765537	2547.658002
503.131470	2547.408464
503.497345	2548.588094
503.863163	2548.366284
504.228923	2548.318393
504.594625	2548.053732
504.960269	2546.818649
505.325856	2549.679504
505.691385	2549.364432
506.056856	2547.839483
506.422270	2547.312683
506.787625	2545.956612
507.152924	2548.827549
507.518164	2548.971222
507.883347	2546.296890
508.248472	2550.750749
508.613540	2547.070707
508.978550	2548.754452
509.343503	2548.910728
509.708398	2549.218239
510.073236	2548.204967
510.438016	2548.746891
510.802738	2548.343598
511.167403	2548.865358
511.532010	2548.023485
511.896561	2547.393341
512.261053	2551.456511
512.625488	2548.111705
512.989866	2546.871582
513.354186	2546.296890
513.718449	2542.788247
514.082655	2546.969884
514.446803	2548.966181
514.810894	2548.015923
515.174927	2549.901315
515.538904	2548.807385
515.902822	2549.848383
516.266684	2547.857127
516.630488	2549.245965
516.994235	2547.393341
517.357925	2550.269319
517.721558	2547.814277
518.085133	2548.953578
518.448651	2550.312169
518.812112	2548.124308
519.175516	2549.029195
519.538863	2548.507436
519.902152	2551.365770
520.265385	2547.491643
520.628560	2549.011551
520.991678	2549.193033
521.354739	2549.409803
521.717743	2549.613969
522.080690	2550.150852
522.443580	2549.152704
522.806413	2549.780327
523.169189	2548.078938
523.531908	2549.263609
523.894569	2550.302087
524.257174	2551.033054
524.619722	2548.802343
524.982213	2550.607077
525.344647	2547.146324
525.707025	2551.474155
526.069345	2548.003321
526.431608	2548.572971
526.793815	2551.844680
527.155964	2548.514998
527.518057	2549.150183
527.880093	2546.443083
528.242072	2545.631458
528.603995	2551.494320
528.965860	2549.074566
529.327669	2549.162786
529.689421	2548.189843
530.051117	2550.153373
530.412755	2548.121788
530.774337	2551.932900
531.135862	2549.170348
531.497331	2545.762528
531.858743	2545.689431
532.220098	2550.390307
532.581396	2545.407126
532.942638	2548.416695
533.303824	2550.576830
533.664953	2550.410472
534.026025	2551.496840
534.387040	2552.628579
534.747999	2548.557848
535.108902	2548.482230
535.469748	2547.715975
535.830537	2552.439536
536.191270	2552.048847
536.551947	2551.222097
536.912567	2551.453990
537.273131	2550.342416
537.633638	2549.611449
537.994089	2551.670760
538.354483	2551.769063
538.714821	2550.654968
539.075103	2553.455328
539.435328	2549.336706
539.795497	2551.022972
540.155609	2553.793086
540.515665	2551.315359
540.875665	2552.053888
541.235609	2552.361398
541.595496	2556.064126
541.955328	2552.179917
542.315102	2553.490617
542.674821	2553.079763
543.034483	2554.433312
543.394090	2552.782334
543.753640	2553.783003
544.113134	2553.306614
544.472571	2554.793755
544.831953	2554.748384
545.191278	2556.316183
545.550548	2554.340051
545.909761	2551.695966
546.268918	2554.549259
546.628019	2551.801830
546.987064	2553.077242
547.346053	2552.500030
547.704986	2554.614794
548.063863	2553.556152
548.422684	2551.532128
548.781449	2554.294681
549.140158	2555.965823
549.498811	2554.826522
549.857408	2557.417675
550.215949	2551.862324
550.574434	2552.805020
550.932864	2551.655637
551.291237	2550.932231
551.649555	2556.079249
552.007817	2554.274516
552.366022	2554.987839
552.724173	2555.131512
553.082267	2555.612942
553.440305	2554.050185
553.798288	2553.684701
554.156215	2555.872562
554.514086	2557.974723
554.871902	2553.964485
555.229661	2558.226781
555.587365	2553.662016
555.945014	2554.947510
556.302606	2556.580844
556.660143	2556.049002
557.017625	2555.623025
557.375050	2556.558159
557.732421	2554.808878
558.089735	2556.842984
558.446994	2555.607901
558.804197	2555.073539
559.161345	2557.268961
559.518437	2554.894578
559.875474	2555.822150
560.232455	2554.728220
560.589381	2555.809547
560.946251	2557.863818
561.303065	2557.473128
561.659825	2558.683005
562.016528	2556.205278
562.373177	2555.126471
562.729770	2553.926676
563.086307	2555.446584
563.442789	2553.467931
563.799216	2554.261913
564.155587	2553.956923
564.511904	2554.985319
564.868164	2554.327448
565.224370	2557.445402
565.580520	2555.507078
565.936615	2555.965823
566.292654	2554.980278
566.648638	2555.978426
567.004567	2556.911039
567.360441	2554.708055
567.716260	2554.224104
568.072023	2555.572613
568.427732	2551.401058
568.783385	2552.502550
569.138982	2549.616490
569.494525	2555.179403
569.850013	2548.893084
570.205445	2552.580688
570.560823	2554.869372
570.916145	2554.859290
571.271412	2557.160577
571.626625	2551.214536
571.981782	2555.877603
572.336884	2556.858107
572.691931	2557.004301
573.046923	2553.914073
573.401860	2554.279557
573.756743	2554.730740
574.111570	2557.387428
574.466342	2553.039433
574.821059	2554.108158
575.175722	2553.591440
575.530330	2557.962120
575.884882	2555.504557
576.239380	2552.447098
576.593823	2552.923487
576.948211	2550.765873
577.302544	2555.691080
577.656823	2555.376008
578.011047	2556.081770
578.365216	2552.051367
578.719330	2554.849207
579.073389	2553.735112
579.427394	2552.593291
579.781344	2556.374157
580.135239	2553.420040
580.489080	2557.193344
580.842866	2552.479865
581.196597	2555.817109
581.550273	2551.277550
581.903895	2555.184444
582.257463	2554.453477
582.610975	2551.209494
582.964434	2554.786193
583.317837	2555.237376
583.671186	2551.222097
584.024481	2552.462221
584.377721	2554.093034
584.730906	2553.636810
585.084037	2553.790565
585.437113	2553.200750
585.790135	2553.276368
586.143103	2551.443908
586.496016	2554.208981
586.848874	2549.903836
587.201679	2554.380380
587.554428	2547.473999
587.907124	2551.753939
588.259765	2547.998279
588.612352	2554.158569
588.964884	2554.748384
589.317362	2550.458362
589.669786	2554.813919
590.022155	2554.471121
590.374470	2552.394166
590.726731	2554.085473
591.078937	2553.200750
591.431090	2554.415668
591.783188	2553.304094
592.135232	2554.120761
592.487222	2554.403065
592.839157	2553.881306
593.191038	2551.257385
593.542866	2552.515153
593.894639	2554.612273
594.246358	2554.019938
594.598022	2553.803168
594.949633	2553.488096
595.301190	2552.855431
595.652692	2553.021789
596.004141	2549.634134
596.355535	2553.571275
596.706876	2551.413661
597.058162	2553.203271
597.409395	2552.235369
597.760573	2554.755946
598.111698	2555.496996
598.462768	2553.200750
598.813785	2551.877447
599.164748	2553.818292
599.515657	2552.754608
599.866511	2553.820812
600.217312	2551.673281
600.568060	2550.851572
600.918753	2556.117058
601.269392	2553.392314
601.619978	2552.552962
601.970510	2553.394835
602.320988	2551.209494
602.671412	2552.512633
603.021783	2552.764690
603.372100	2554.166131
603.722363	2552.610935
604.072572	2552.759649
604.422728	2553.541028
604.772830	2549.619010
605.122878	2549.608928
605.472872	2551.635472
605.822813	2548.671273
606.172701	2552.374001
606.522534	2551.111192
606.872314	2553.520863
607.222041	2552.671429
607.571714	2552.923487
607.921333	2553.946841
608.270899	2553.704866
608.620411	2554.904660
608.969870	2556.328786
609.319276	2555.933056
609.668627	2554.624876
610.017926	2558.562017
610.367171	2563.547718
610.716362	2558.572100
611.065500	2559.406411
611.414585	2556.805175
611.763616	2555.144115
612.112594	2557.730227
612.461518	2557.248797
612.810389	2552.225287
613.159207	2555.890206
613.507971	2554.821481
613.856682	2556.326266
614.205340	2552.835267
614.553945	2555.991029
614.902496	2553.425082
615.250994	2556.472459
615.599439	2553.523384
615.947830	2556.343910
616.296169	2554.836605
616.644454	2557.163097
616.992686	2553.530946
617.340864	2554.435833
617.688990	2551.897612
618.037063	2553.079763
618.385082	2552.805020
618.733048	2555.736451
619.080961	2554.350133
619.428821	2555.849877
619.776628	2554.430792
620.124382	2555.214691
620.472083	2551.398538
620.819731	2554.211502
621.167326	2555.418858
621.514868	2554.390463
621.862357	2553.440205
622.209793	2554.040102
622.557176	2554.168652
622.904506	2550.523897
623.251783	2548.673794
623.599007	2552.321069
623.946179	2546.022147
624.293297	2552.694114
624.640363	2555.093703
624.987376	2554.138405
625.334336	2554.813919
625.681243	2554.950031
626.028097	2553.472972
626.374899	2552.439536
626.721647	2553.803168
627.068343	2557.210988
627.414987	2555.224773
627.761577	2555.489434
628.108115	2552.734443
628.454600	2555.842315
628.801032	2554.677808
629.147412	2553.009186
629.493739	2554.675288
629.840014	2554.501368
630.186236	2553.556152
630.532405	2556.054043
630.878521	2555.469269
631.224585	2556.260731
631.570597	2555.723848
631.916556	2555.192006
632.262462	2554.962633
632.608316	2553.772921
632.954117	2554.808878
633.299866	2554.788714
633.645562	2557.316852
633.991206	2554.418189
634.336797	2554.576985
634.682336	2554.214022
635.027823	2554.481203
635.373257	2554.849207
635.718639	2552.376522
636.063968	2553.281409
636.409245	2554.680329
636.754470	2553.452808
637.099642	2553.805689
637.444762	2554.977757
637.789829	2556.825340
638.134845	2553.634289
638.479808	2553.793086
638.824719	2556.850546
639.169577	2554.400545
639.514383	2553.999773
639.859137	2555.353323
640.203839	2554.977757
640.548489	2551.428785
640.893086	2553.765359
641.237632	2548.514998
641.582125	2554.067829
641.926566	2552.568085
642.270955	2556.064126
642.615292	2553.951882
642.959576	2557.412634
643.303809	2555.035730
643.647990	2554.932387
643.992118	2555.887685
644.336195	2554.612273
