Dividing Wavelength (nm)	Counts (n)	Blue Motor Position (mm): 14.400000	Red Motor Position (mm): 0.000000	
326.493990	2137.078706
326.888308	2137.078706
327.282561	2137.078706
327.676750	2103.542430
328.070874	2101.238623
328.464933	2103.769282
328.858929	2114.338061
329.252859	2120.495830
329.646726	2133.053345
330.040528	2146.341826
330.434265	2162.082829
330.827938	2181.488751
331.221547	2196.823941
331.615091	2215.405634
332.008571	2232.974055
332.401986	2257.630338
332.795338	2276.721188
333.188625	2295.290278
333.581847	2311.623617
333.975006	2330.895948
334.368100	2347.811540
334.761129	2366.184025
335.154095	2383.850748
335.546996	2403.360014
335.939833	2420.671336
336.332606	2437.617175
336.725315	2449.577312
337.117960	2461.479477
337.510540	2467.052472
337.903056	2477.091930
338.295508	2486.292036
338.687896	2493.962151
339.080220	2502.658142
339.472480	2508.100067
339.864676	2513.857065
340.256807	2514.711541
340.648875	2519.835873
341.040879	2524.604805
341.432818	2524.030113
341.824694	2527.652182
342.216506	2529.230064
342.608253	2527.334590
342.999937	2527.016997
343.391557	2524.453570
343.783113	2525.126564
344.174605	2523.707480
344.566033	2522.570699
344.957397	2521.249917
345.348697	2517.617766
345.739934	2518.323527
346.131106	2515.046777
346.522215	2515.853362
346.913260	2513.025275
347.304241	2512.964781
347.695159	2508.636950
348.086012	2509.178874
348.476802	2506.449089
348.867528	2503.326095
349.258191	2503.724346
349.648789	2500.669407
350.039324	2500.011536
350.429796	2500.576145
350.820203	2499.648573
351.210548	2496.613798
351.600828	2496.596154
351.991045	2497.551453
352.381198	2493.253869
352.771288	2495.035917
353.161314	2489.505771
353.551276	2495.789570
353.941175	2490.839157
354.331010	2494.108345
354.720782	2492.328817
355.110490	2493.072388
355.500135	2493.299240
355.889717	2493.082470
356.279235	2493.130361
356.668689	2495.013232
357.058080	2493.634476
357.447408	2491.436533
357.836672	2492.280927
358.225873	2492.192706
358.615010	2490.201451
359.004084	2495.051041
359.393095	2495.524909
359.782043	2496.737307
360.170927	2498.736124
360.559748	2495.224960
360.948505	2497.702687
361.337199	2501.236536
361.725830	2501.344921
362.114398	2500.422390
362.502903	2500.248470
362.891344	2503.033708
363.279722	2500.319046
363.668037	2504.188132
364.056289	2499.623367
364.444478	2502.643018
364.832603	2501.896928
365.220665	2505.271980
365.608665	2504.704850
365.996601	2504.263749
366.384474	2505.024963
366.772284	2504.178050
367.160031	2502.131341
367.547715	2505.017402
367.935336	2504.677124
368.322893	2505.476147
368.710388	2505.050169
369.097820	2509.216683
369.485189	2510.199708
369.872495	2509.325068
370.259738	2507.227948
370.646918	2505.602176
371.034035	2506.320540
371.421090	2511.059225
371.808081	2509.055366
372.195010	2509.352794
372.581875	2508.379851
372.968678	2507.777433
373.355418	2507.608555
373.742096	2509.277177
374.128710	2507.364059
374.515262	2511.011334
374.901751	2509.380520
375.288177	2511.616272
375.674540	2510.943278
376.060841	2509.367917
376.447079	2510.338340
376.833254	2511.177692
377.219367	2507.679131
377.605417	2512.654750
377.991404	2507.727022
378.377329	2510.676097
378.763191	2511.404544
379.148991	2513.519308
379.534727	2510.555109
379.920402	2515.424864
380.306013	2516.780934
380.691563	2513.531911
381.077049	2510.829852
381.462474	2514.046108
381.847835	2514.814884
382.233134	2514.754390
382.618371	2513.665501
383.003545	2515.687004
383.388657	2516.682632
383.773706	2516.707838
384.158693	2514.081396
384.543618	2517.262364
384.928480	2513.143742
385.313280	2515.961747
385.698017	2517.940400
386.082692	2514.519977
386.467305	2515.286232
386.851856	2517.529546
387.236344	2519.488034
387.620770	2517.123733
388.005133	2515.934020
388.389435	2518.391583
388.773674	2516.780934
389.157851	2516.334792
389.541965	2518.411748
389.926018	2521.375946
390.310008	2520.145904
390.693936	2520.619773
391.077802	2519.838394
391.461606	2519.724968
391.845348	2518.265554
392.229027	2518.951151
392.612645	2521.421316
392.996200	2520.385359
393.379694	2518.489885
393.763125	2521.302849
394.146494	2518.860410
394.529801	2523.505833
394.913047	2519.886285
395.296230	2523.856194
395.679351	2522.217819
396.062410	2521.829650
396.445408	2523.856194
396.828343	2520.836543
397.211217	2517.542148
397.594028	2520.584485
397.976778	2519.558610
398.359466	2521.174300
398.742092	2516.463342
399.124656	2524.297295
399.507158	2523.873838
399.889598	2524.677902
400.271977	2525.124044
400.654294	2523.606657
401.036549	2522.142201
401.418742	2524.536749
401.800874	2525.000536
402.182944	2523.886441
402.564952	2525.736544
402.946898	2524.640093
403.328783	2521.827129
403.710606	2526.691843
404.092367	2526.255783
404.474067	2525.620597
404.855705	2526.893489
405.237282	2525.013138
405.618797	2525.817203
406.000250	2528.572193
406.381642	2523.110103
406.762972	2527.924405
407.144240	2527.218643
407.525447	2524.720752
407.906593	2526.144878
408.287677	2527.919364
408.668700	2526.545649
409.049661	2528.052954
409.430560	2527.755526
409.811399	2527.833664
410.192176	2529.708973
410.572891	2529.348531
410.953545	2529.146885
411.334138	2526.608664
411.714669	2527.994981
412.095139	2527.062368
412.475547	2528.357944
412.855894	2527.889117
413.236180	2526.127233
413.616405	2530.273583
413.996568	2528.214271
414.376670	2529.313243
414.756711	2532.506814
415.136691	2528.713345
415.516609	2529.835002
415.896466	2528.357944
416.276262	2531.148223
416.655997	2527.241328
417.035670	2526.384332
417.415283	2527.924405
417.794834	2527.243849
418.174324	2532.118645
418.553753	2529.169570
418.933121	2530.205527
419.312428	2532.894982
419.691674	2531.526309
420.070859	2530.505476
420.449983	2531.816176
420.829045	2529.444313
421.208047	2533.593182
421.586988	2528.857018
421.965867	2531.637215
422.344686	2533.141999
422.723444	2532.408511
423.102141	2532.937832
423.480777	2534.954294
423.859352	2532.048069
424.237866	2530.356762
424.616319	2533.028573
424.994712	2532.572349
425.373044	2532.451361
425.751314	2531.609488
426.129524	2534.210724
426.507673	2532.032945
426.885762	2531.606968
427.263789	2533.328522
427.641756	2532.700898
428.019662	2535.813811
428.397508	2534.417411
428.775292	2533.517565
429.153016	2532.257277
429.530679	2536.973276
429.908282	2531.672503
430.285824	2534.112421
430.663305	2533.787267
431.040726	2535.486136
431.418086	2535.352545
431.795385	2535.803728
432.172624	2537.190046
432.549802	2536.300282
432.926920	2532.907585
433.303977	2534.888759
433.680974	2534.417411
434.057910	2535.208872
434.434786	2534.414890
434.811601	2537.898328
435.188355	2537.502597
435.565050	2535.992772
435.941683	2537.457227
436.318257	2535.022349
436.694770	2531.808614
437.071222	2533.895652
437.447614	2532.496731
437.823946	2532.534540
438.200218	2537.605941
438.576429	2536.925385
438.952580	2534.989582
439.328670	2536.348173
439.704700	2537.545447
440.080670	2539.965201
440.456580	2535.287010
440.832429	2538.508307
441.208218	2538.127700
441.583947	2537.553009
441.959616	2536.343132
442.335224	2537.865560
442.710773	2536.930426
443.086261	2539.372865
443.461689	2537.046373
443.837057	2538.200797
444.212365	2538.954449
444.587612	2536.275076
444.962800	2539.022505
445.337927	2538.999820
445.712995	2538.437731
446.088002	2537.202648
446.462949	2535.972607
446.837837	2540.003009
447.212664	2538.397402
447.587431	2539.065355
447.962139	2539.012423
448.336786	2542.400078
448.711374	2540.275232
449.085901	2539.728267
449.460369	2538.349511
449.834776	2541.278421
450.209124	2539.055272
450.583412	2539.733308
450.957640	2539.287166
451.331808	2540.237423
451.705917	2537.290869
452.079965	2540.449152
452.453954	2539.748431
452.827883	2542.657177
453.201752	2542.173226
453.575562	2542.395037
453.949311	2540.615510
454.323001	2543.756148
454.696632	2540.244985
455.070202	2541.081816
455.443713	2541.049049
455.817164	2540.849923
456.190556	2536.529654
456.563888	2538.962011
456.937160	2534.036804
457.310373	2542.072403
457.683526	2541.454862
458.056619	2539.077958
458.429653	2542.720191
458.802628	2541.137269
459.175542	2541.714481
459.548398	2543.849410
459.921194	2544.434184
460.293930	2543.491488
460.666607	2541.089378
461.039224	2544.968546
461.411782	2543.438556
461.784280	2543.408309
462.156719	2540.454193
462.529099	2545.354194
462.901419	2543.299924
463.273680	2544.101468
463.645882	2543.403268
464.018024	2544.774462
464.390106	2541.376724
464.762130	2543.302445
465.134094	2544.116591
465.505999	2541.464944
465.877845	2545.013916
466.249631	2544.608103
466.621358	2542.463093
466.993026	2546.433001
467.364634	2547.652960
467.736184	2543.771272
468.107674	2542.032074
468.479105	2542.977290
468.850477	2544.293031
469.221790	2544.204811
469.593043	2541.112063
469.964238	2544.744215
470.335373	2544.066179
470.706449	2544.809750
471.077467	2544.373690
471.448425	2545.926365
471.819324	2544.643392
472.190164	2544.398896
472.560945	2546.017106
472.931667	2543.262115
473.302330	2547.277394
473.672934	2546.632127
474.043479	2545.563402
474.413965	2546.369987
474.784393	2541.754810
475.154761	2542.004348
475.525070	2541.013761
475.895321	2542.760521
476.265513	2542.571477
476.635645	2546.128011
477.005719	2547.262271
477.375734	2545.686910
477.745691	2547.476520
478.115588	2548.865358
478.485427	2546.727909
478.855207	2545.563402
479.224928	2547.292518
479.594591	2547.214380
479.964194	2547.471479
480.333739	2547.295038
480.703226	2548.479710
481.072653	2545.223124
481.442022	2547.022816
481.811333	2549.790410
482.180584	2548.850234
482.549777	2546.130532
482.918912	2551.113713
483.287988	2546.856458
483.657005	2550.322251
484.025964	2549.692107
484.394864	2547.136242
484.763706	2547.892415
485.132489	2547.592467
485.501213	2548.656150
485.869879	2549.737477
486.238487	2545.449976
486.607036	2548.068856
486.975527	2551.154042
487.343959	2549.140101
487.712333	2550.700338
488.080648	2547.514329
488.448905	2550.649926
488.817104	2549.114895
489.185244	2551.242262
489.553326	2548.005841
489.921350	2549.392158
490.289315	2551.043136
490.657222	2551.252344
491.025070	2551.607746
491.392861	2551.416182
491.760593	2549.228321
492.128267	2553.672098
492.495883	2551.678322
492.863440	2552.149670
493.230939	2550.110523
493.598380	2551.814433
493.965763	2544.683721
494.333088	2547.284956
494.700354	2545.039122
495.067563	2548.479710
495.434713	2544.613145
495.801805	2551.640513
496.168839	2549.326623
496.535815	2550.387786
496.902733	2549.500543
497.269593	2550.765873
497.636395	2553.241079
498.003139	2556.137222
498.369825	2548.068856
498.736453	2550.642365
499.103023	2551.542211
499.469535	2551.655637
499.835989	2552.484906
500.202385	2551.340564
500.568723	2551.196892
500.935003	2553.573796
501.301226	2549.621531
501.667390	2553.954403
502.033497	2550.365101
502.399546	2550.347457
502.765537	2555.381049
503.131470	2551.665719
503.497345	2551.554813
503.863163	2553.145297
504.228923	2549.840821
504.594625	2552.686552
504.960269	2555.565051
505.325856	2553.175544
505.691385	2553.198230
506.056856	2553.533466
506.422270	2556.233004
506.787625	2554.340051
507.152924	2552.797458
507.518164	2552.384083
507.883347	2550.261757
508.248472	2555.164280
508.613540	2554.640000
508.978550	2553.853580
509.343503	2553.767880
509.708398	2553.233518
510.073236	2557.798282
510.438016	2555.461708
510.802738	2554.463559
511.167403	2555.481872
511.532010	2554.128322
511.896561	2556.280895
512.261053	2557.770556
512.625488	2552.374001
512.989866	2554.645041
513.354186	2554.188816
513.718449	2551.895091
514.082655	2555.633107
514.446803	2560.071843
514.810894	2557.168138
515.174927	2558.879610
515.538904	2557.279044
515.902822	2559.761812
516.266684	2558.630073
516.630488	2560.661658
516.994235	2560.364230
517.357925	2560.432285
517.721558	2563.250290
518.085133	2560.364230
518.448651	2562.478994
518.812112	2559.590413
519.175516	2559.159394
519.538863	2562.415979
519.902152	2566.090981
520.265385	2562.610064
520.628560	2562.292471
520.991678	2563.620815
521.354739	2563.726679
521.717743	2562.660475
522.080690	2564.480332
522.443580	2565.186093
522.806413	2566.113666
523.169189	2564.056875
523.531908	2566.027966
523.894569	2567.436969
524.257174	2566.085939
524.619722	2565.685168
524.982213	2567.951166
525.344647	2567.184911
525.707025	2568.288924
526.069345	2565.594427
526.431608	2571.709347
526.793815	2570.454099
527.155964	2569.002247
527.518057	2567.890672
527.880093	2570.789336
528.242072	2569.075344
528.603995	2570.466702
528.965860	2568.467885
529.327669	2571.883266
529.689421	2569.692885
530.051117	2573.279666
530.412755	2570.229768
530.774337	2573.161199
531.135862	2572.183215
531.497331	2569.128276
531.858743	2570.164233
532.220098	2573.839234
532.581396	2567.994016
532.942638	2572.601631
533.303824	2575.031467
533.664953	2577.524317
534.026025	2573.975345
534.387040	2575.190263
534.747999	2573.536765
535.108902	2574.638257
535.469748	2576.228741
535.830537	2579.132446
536.191270	2580.241499
536.551947	2578.812332
536.912567	2574.403843
537.273131	2578.182188
537.633638	2577.776375
537.994089	2579.989442
538.354483	2580.208732
538.714821	2580.808629
539.075103	2578.436766
539.435328	2581.799216
539.795497	2583.634196
540.155609	2583.921542
540.515665	2583.838363
540.875665	2583.185533
541.235609	2585.590164
541.595496	2587.672160
541.955328	2587.616707
542.315102	2589.214753
542.674821	2587.810792
543.034483	2590.676688
543.394090	2588.032603
543.753640	2589.923035
544.113134	2589.234918
544.472571	2591.886565
544.831953	2593.663572
545.191278	2591.815989
545.550548	2594.875969
545.909761	2595.801021
546.268918	2595.206165
546.628019	2601.565580
546.987064	2600.297730
547.346053	2598.051896
547.704986	2603.783688
548.063863	2607.128493
548.422684	2604.892742
548.781449	2605.207814
549.140158	2610.374997
549.498811	2610.140583
549.857408	2610.914400
550.215949	2613.808022
550.574434	2610.226282
550.932864	2612.411623
551.291237	2615.307766
551.649555	2620.719444
552.007817	2622.171297
552.366022	2622.561986
552.724173	2625.957203
553.082267	2625.695063
553.440305	2632.319139
553.798288	2633.644963
554.156215	2638.668472
554.514086	2639.648977
554.871902	2639.689306
555.229661	2644.581746
555.587365	2645.148876
555.945014	2648.954947
556.302606	2655.926863
556.660143	2653.842346
557.017625	2664.027997
557.375050	2663.523882
557.732421	2668.887669
558.089735	2672.139213
558.446994	2675.143741
558.804197	2678.622137
559.161345	2682.219001
559.518437	2684.669001
559.875474	2689.818540
560.232455	2694.320290
560.589381	2699.643749
560.946251	2709.342929
561.303065	2709.219421
561.659825	2715.533466
562.016528	2718.545555
562.373177	2719.818447
562.729770	2730.540981
563.086307	2732.512072
563.442789	2740.905593
563.799216	2745.608990
564.155587	2752.880854
564.511904	2756.152563
564.868164	2762.738830
565.224370	2771.097063
565.580520	2777.683331
565.936615	2779.057045
566.292654	2786.598612
566.648638	2795.707977
567.004567	2803.292392
567.360441	2810.390337
567.716260	2812.510142
568.072023	2824.808037
568.427732	2831.139726
568.783385	2831.711897
569.138982	2850.190247
569.494525	2853.661081
569.850013	2857.177286
570.205445	2880.497664
570.560823	2882.405740
570.916145	2893.332441
571.271412	2906.315933
571.626625	2916.826739
571.981782	2919.501071
572.336884	2934.276693
572.691931	2939.637960
573.046923	2952.944086
573.401860	2962.413893
573.756743	2973.408650
574.111570	2986.273674
574.466342	2994.226094
574.821059	3010.135976
575.175722	3014.209228
575.530330	3032.057433
575.884882	3041.852395
576.239380	3054.369580
576.593823	3061.099521
576.948211	3076.147365
577.302544	3077.425297
577.656823	3099.707198
578.011047	3107.115173
578.365216	3127.763739
578.719330	3133.530819
579.073389	3153.662667
579.427394	3155.207781
579.781344	3173.275276
580.135239	3187.045188
580.489080	3201.152857
580.842866	3210.584856
581.196597	3229.093452
581.550273	3247.980135
581.903895	3266.463526
582.257463	3283.608490
582.610975	3298.580717
582.964434	3311.173519
583.317837	3326.831343
583.671186	3336.086901
584.024481	3358.767053
584.377721	3371.296840
584.730906	3381.222872
585.084037	3407.963673
585.437113	3412.495670
585.790135	3438.107252
586.143103	3444.890125
586.496016	3460.719348
586.848874	3485.612566
587.201679	3506.989578
587.554428	3509.439579
587.907124	3535.346069
588.259765	3552.450704
588.612352	3582.117894
588.964884	3575.887028
589.317362	3602.801748
589.669786	3621.189357
590.022155	3640.262563
590.374470	3670.184331
590.726731	3676.493335
591.078937	3673.539219
591.431090	3716.918348
591.783188	3712.744273
592.135232	3736.470463
592.487222	3750.666352
592.839157	3787.882671
593.191038	3789.084986
593.542866	3801.483704
593.894639	3804.800783
594.246358	3830.823219
594.598022	3860.865976
594.949633	3862.292622
595.301190	3878.409191
595.652692	3903.620001
596.004141	3955.949699
596.355535	3920.389400
596.706876	3940.730455
597.058162	3950.585911
597.409395	3985.921879
597.760573	4029.056512
598.111698	4020.952857
598.462768	4042.433214
598.813785	4049.609296
599.164748	4074.852874
599.515657	4080.400664
599.866511	4095.703086
600.217312	4135.200527
600.568060	4123.381542
600.918753	4177.004295
601.269392	4184.422353
601.619978	4186.728681
601.970510	4230.261565
602.320988	4243.832351
602.671412	4287.498826
603.021783	4286.606541
603.372100	4300.462153
603.722363	4334.527750
604.072572	4341.736600
604.422728	4369.372205
604.772830	4367.912791
605.122878	4395.676946
605.472872	4409.824944
605.822813	4447.036221
606.172701	4452.044608
606.522534	4504.144933
606.872314	4522.530021
607.222041	4540.968041
607.571714	4580.047066
607.921333	4590.283128
608.270899	4617.737252
608.620411	4670.142567
608.969870	4663.984798
609.319276	4678.967107
609.668627	4715.341552
610.017926	4751.363117
610.367171	4801.933452
610.716362	4813.581038
611.065500	4837.705480
611.414585	4876.035893
611.763616	4885.624168
612.112594	4907.480090
612.461518	4933.860448
612.810389	4979.258559
613.159207	4981.897603
613.507971	4980.929702
613.856682	5058.528183
614.205340	5060.068255
614.553945	5117.257625
614.902496	5099.245583
615.250994	5147.686030
615.599439	5161.007279
615.947830	5195.516497
616.296169	5206.055030
616.644454	5234.759360
616.992686	5256.658132
617.340864	5309.928005
617.688990	5290.438904
618.037063	5352.256053
618.385082	5348.933933
618.733048	5417.423049
619.080961	5408.787552
619.428821	5434.943579
619.776628	5470.246779
620.124382	5461.739832
620.472083	5480.056865
620.819731	5514.195558
621.167326	5483.807483
621.514868	5509.066184
621.862357	5471.504547
622.209793	5501.557386
622.557176	5491.792671
622.904506	5497.849617
623.251783	5480.104756
623.599007	5480.833202
623.946179	5506.752295
624.293297	5503.820864
624.640363	5479.096525
624.987376	5491.555737
625.334336	5478.892358
625.681243	5470.415658
626.028097	5486.179346
626.374899	5490.912989
626.721647	5512.668089
627.068343	5488.901569
627.414987	5490.565150
627.761577	5482.083408
628.108115	5520.063462
628.454600	5477.601823
628.801032	5534.725657
629.147412	5514.233367
629.493739	5535.718765
629.840014	5508.020145
630.186236	5559.371859
630.532405	5505.050905
630.878521	5555.429676
631.224585	5539.673550
631.570597	5506.124671
631.916556	5550.050765
632.262462	5557.410850
632.608316	5547.499941
632.954117	5551.495056
633.299866	5562.031067
633.645562	5567.387293
633.991206	5529.593763
634.336797	5507.417727
634.682336	5493.945243
635.027823	5490.708823
635.373257	5496.707796
635.718639	5469.483044
636.063968	5491.522969
636.409245	5427.132311
636.754470	5452.151558
637.099642	5429.647847
637.444762	5407.123971
637.789829	5428.027116
638.134845	5395.463783
638.479808	5404.144649
638.824719	5419.066465
639.169577	5379.798397
639.514383	5411.139250
639.859137	5371.689701
640.203839	5384.035487
640.548489	5396.708947
640.893086	5376.715731
641.237632	5372.665164
641.582125	5400.540224
641.926566	5387.115632
642.270955	5412.931381
642.615292	5420.165436
642.959576	5442.472542
643.303809	5441.630669
643.647990	5461.558351
643.992118	5463.353001
644.336195	5430.240182
