Dividing Wavelength (nm)	Counts (n)	Blue Motor Position (mm): 29.100000	Red Motor Position (mm): 0.000000	
326.493990	2131.838427
326.888308	2131.838427
327.282561	2131.838427
327.676750	2099.912799
328.070874	2098.019846
328.464933	2102.478747
328.858929	2106.342791
329.252859	2115.555500
329.646726	2128.637294
330.040528	2139.248923
330.434265	2156.658548
330.827938	2173.153203
331.221547	2194.452078
331.615091	2211.707948
332.008571	2229.409959
332.401986	2251.044071
332.795338	2270.593666
333.188625	2288.336007
333.581847	2306.358132
333.975006	2327.858653
334.368100	2344.494460
334.761129	2363.451719
335.154095	2379.336395
335.546996	2399.727863
335.939833	2426.083015
336.332606	2436.702205
336.725315	2451.573609
337.117960	2461.955866
337.510540	2468.237143
337.903056	2479.166365
338.295508	2486.256748
338.687896	2493.316884
339.080220	2504.598986
339.472480	2511.041581
339.864676	2514.318331
340.256807	2520.466018
340.648875	2522.278312
341.040879	2527.397604
341.432818	2527.649662
341.824694	2525.305525
342.216506	2531.075126
342.608253	2528.846936
342.999937	2530.387008
343.391557	2528.297450
343.783113	2529.063706
344.174605	2525.292923
344.566033	2525.436595
344.957397	2521.738909
345.348697	2524.304856
345.739934	2518.187416
346.131106	2520.907119
346.522215	2515.921418
346.913260	2515.669360
347.304241	2514.416633
347.695159	2510.923113
348.086012	2509.902280
348.476802	2507.777433
348.867528	2507.169974
349.258191	2504.656959
349.648789	2502.668224
350.039324	2499.116731
350.429796	2502.214520
350.820203	2500.036742
351.210548	2502.401043
351.600828	2498.940291
351.991045	2496.086998
352.381198	2495.164467
352.771288	2496.886021
353.161314	2494.234374
353.551276	2498.370640
353.941175	2495.386277
354.331010	2495.436689
354.720782	2495.235043
355.110490	2495.744199
355.500135	2495.313181
355.889717	2493.846205
356.279235	2497.969869
356.668689	2496.051710
357.058080	2496.681854
357.447408	2493.407624
357.836672	2495.081287
358.225873	2496.830568
358.615010	2493.024497
359.004084	2498.257214
359.393095	2496.248315
359.782043	2499.169663
360.170927	2502.411125
360.559748	2499.290651
360.948505	2502.169150
361.337199	2503.147134
361.725830	2501.221413
362.114398	2500.986999
362.502903	2503.449603
362.891344	2503.711743
363.279722	2502.746362
363.668037	2503.986486
364.056289	2500.515651
364.444478	2503.928513
364.832603	2506.650736
365.220665	2505.985303
365.608665	2508.601662
365.996601	2505.518997
366.384474	2507.774913
366.772284	2508.364728
367.160031	2506.859943
367.547715	2507.530417
367.935336	2507.714419
368.322893	2506.426404
368.710388	2507.701816
369.097820	2511.298679
369.485189	2509.703154
369.872495	2507.480005
370.259738	2511.316323
370.646918	2509.504029
371.034035	2508.614265
371.421090	2512.405213
371.808081	2510.020747
372.195010	2512.750532
372.581875	2512.344719
372.968678	2510.708864
373.355418	2510.406395
373.742096	2511.704492
374.128710	2512.097702
374.515262	2515.296314
374.901751	2511.840603
375.288177	2516.785975
375.674540	2513.478978
376.060841	2513.723474
376.447079	2511.785151
376.833254	2516.891840
377.219367	2508.866323
377.605417	2513.776407
377.991404	2509.133504
378.377329	2512.904287
378.763191	2510.245078
379.148991	2516.097858
379.534727	2516.004597
379.920402	2513.867147
380.306013	2513.294976
380.691563	2516.188599
381.077049	2516.735564
381.462474	2516.959895
381.847835	2517.506860
382.233134	2518.242869
382.618371	2517.050636
383.003545	2517.043074
383.388657	2518.268075
383.773706	2519.034330
384.158693	2518.084073
384.543618	2520.125740
384.928480	2517.753877
385.313280	2518.454597
385.698017	2516.239010
386.082692	2519.160359
386.467305	2519.730009
386.851856	2521.877541
387.236344	2518.870492
387.620770	2520.972654
388.005133	2520.571882
388.389435	2523.457943
388.773674	2518.822602
389.157851	2521.285205
389.541965	2520.622293
389.926018	2521.993487
390.310008	2521.698580
390.693936	2522.421985
391.077802	2522.961389
391.461606	2524.297295
391.845348	2523.899043
392.229027	2524.970289
392.612645	2520.962571
392.996200	2522.842922
393.379694	2524.569517
393.763125	2523.946934
394.146494	2526.197810
394.529801	2523.999867
394.913047	2525.270237
395.296230	2525.912984
395.679351	2526.336441
396.062410	2523.926770
396.445408	2528.098325
396.828343	2525.875176
397.211217	2524.410721
397.594028	2524.703107
397.976778	2524.188910
398.359466	2526.570855
398.742092	2523.636903
399.124656	2529.736700
399.507158	2528.274765
399.889598	2531.337266
400.271977	2527.916843
400.654294	2531.906916
401.036549	2529.598068
401.418742	2530.480270
401.800874	2526.512882
402.182944	2527.473222
402.564952	2530.959179
402.946898	2531.601927
403.328783	2532.295085
403.710606	2530.782739
404.092367	2530.848274
404.474067	2529.260311
404.855705	2530.076977
405.237282	2531.095291
405.618797	2534.082174
406.000250	2530.323994
406.381642	2530.868439
406.762972	2533.540250
407.144240	2532.138809
407.525447	2533.731814
407.906593	2529.051103
408.287677	2533.872966
408.668700	2533.421783
409.049661	2536.227185
409.430560	2532.327853
409.811399	2536.494366
410.192176	2534.182997
410.572891	2535.294572
410.953545	2534.561084
411.334138	2536.726259
411.714669	2535.692823
412.095139	2535.755837
412.475547	2537.653832
412.855894	2534.450178
413.236180	2535.372710
413.616405	2536.360776
413.996568	2534.654345
414.376670	2536.759027
414.756711	2538.130221
415.136691	2537.547967
415.516609	2537.580735
415.896466	2538.599048
416.276262	2538.188194
416.655997	2534.298944
417.035670	2534.089736
417.415283	2538.525951
417.794834	2535.476053
418.174324	2538.919161
418.553753	2540.577701
418.933121	2539.897145
419.312428	2540.532331
419.691674	2540.900335
420.070859	2537.656352
420.449983	2540.585263
420.829045	2537.857998
421.208047	2543.551982
421.586988	2542.243802
421.965867	2543.829245
422.344686	2545.926365
422.723444	2546.760676
423.102141	2543.841848
423.480777	2545.828063
423.859352	2546.054915
424.237866	2547.501726
424.616319	2545.520552
424.994712	2550.027344
425.373044	2548.603218
425.751314	2551.121274
426.129524	2549.762683
426.507673	2552.139587
426.885762	2552.366439
427.263789	2554.776111
427.641756	2555.300391
428.019662	2558.370453
428.397508	2559.895402
428.775292	2565.284396
429.153016	2566.060734
429.530679	2572.957032
429.908282	2576.140521
430.285824	2581.416088
430.663305	2588.763570
431.040726	2591.510999
431.418086	2597.215064
431.795385	2606.626899
432.172624	2613.535800
432.549802	2620.094341
432.926920	2627.434261
433.303977	2638.388688
433.680974	2650.227838
434.057910	2661.174704
434.434786	2671.899759
434.811601	2685.631862
435.188355	2705.052907
435.565050	2714.089175
435.941683	2727.486042
436.318257	2750.821543
436.694770	2766.537340
437.071222	2788.269754
437.447614	2799.083029
437.823946	2809.727425
438.200218	2844.075327
438.576429	2854.099662
438.952580	2882.972870
439.328670	2909.910276
439.704700	2929.031372
440.080670	2950.408385
440.456580	3006.992817
440.832429	3021.191226
441.208218	3026.096269
441.583947	3075.199628
441.959616	3106.124586
442.335224	3125.863224
442.710773	3177.517407
443.086261	3220.762945
443.461689	3213.715412
443.837057	3279.280659
444.212365	3348.301617
444.587612	3361.133874
444.962800	3431.921757
445.337927	3471.194866
445.712995	3416.412647
446.088002	3604.281327
446.462949	3606.043210
446.837837	3632.965492
447.212664	3716.734346
447.587431	3821.091272
447.962139	4050.723391
448.336786	4408.882248
448.711374	4377.470819
449.085901	4114.612454
449.460369	4145.411384
449.834776	4174.811393
450.209124	4385.304772
450.583412	4521.801574
450.957640	4617.507880
451.331808	4591.087193
451.705917	4451.495122
452.079965	4471.632011
452.453954	4631.885251
452.827883	4627.537255
453.201752	4726.550558
453.575562	4680.424000
453.949311	4850.333570
454.323001	4839.384184
454.696632	4929.807361
455.070202	5070.195933
455.443713	5212.200196
455.817164	5327.821580
456.190556	5438.162356
456.563888	5542.413417
456.937160	5621.549450
457.310373	5466.201253
457.683526	5543.277975
458.056619	5525.734760
458.429653	5572.841822
458.802628	5575.846349
459.175542	5697.166758
459.548398	5998.627758
459.921194	6163.357542
460.293930	6209.925201
460.666607	6643.414020
461.039224	6919.220588
461.411782	7066.903711
461.784280	7144.749208
462.156719	7124.498893
462.529099	7098.975531
462.901419	6829.914027
463.273680	6786.771833
463.645882	6844.019176
464.018024	6787.016328
464.390106	6959.693492
464.762130	7327.591858
465.134094	7759.984227
465.505999	8638.390161
465.877845	9717.219769
466.249631	10336.550725
466.621358	10096.281771
466.993026	9627.583012
467.364634	9451.051887
467.736184	9177.723046
468.107674	8916.445083
468.479105	8986.171803
468.850477	8806.641191
469.221790	8632.504614
469.593043	8356.768622
469.964238	8258.738344
470.335373	8295.589179
470.706449	8377.263433
471.077467	8384.003455
471.448425	9643.001382
471.819324	10673.700573
472.190164	10710.705163
472.560945	9553.697341
472.931667	8822.583840
473.302330	8714.531748
473.672934	8390.952686
474.043479	8740.055110
474.413965	8698.221095
474.784393	8595.963810
475.154761	8758.969520
475.525070	8857.428295
475.895321	8696.887710
476.265513	8881.925782
476.635645	9053.771155
477.005719	9067.702384
477.375734	9184.702524
477.745691	9424.356457
478.115588	9561.768228
478.485427	9807.151433
478.855207	10342.579945
479.224928	11148.962914
479.594591	11776.873914
479.964194	11597.713827
480.333739	11545.580734
480.703226	11465.383538
481.072653	11563.383569
481.442022	11799.589353
481.811333	11985.411325
482.180584	11801.830146
482.549777	11512.414983
482.918912	11343.082625
483.287988	11364.928465
483.657005	11380.034283
484.025964	11071.135060
484.394864	11201.128774
484.763706	11170.032417
485.132489	10926.027968
485.501213	10897.653833
485.869879	10965.921138
486.238487	10820.299848
486.607036	10929.173647
486.975527	10711.526871
487.343959	10907.854608
487.712333	10957.978801
488.080648	10883.833510
488.448905	10930.532238
488.817104	10867.550583
489.185244	11137.809361
489.553326	11290.455500
489.921350	11828.606234
490.289315	12877.990463
490.657222	13223.047362
491.025070	13126.237043
491.392861	12993.599244
491.760593	12617.261986
492.128267	12279.381170
492.495883	11955.769340
492.863440	11623.975717
493.230939	11282.805549
493.598380	11218.334232
493.965763	11092.484347
494.333088	10984.134827
494.700354	10916.051524
495.067563	10970.833743
495.434713	10803.086828
495.801805	10929.665160
496.168839	10859.446928
496.535815	10790.536876
496.902733	10795.535180
497.269593	10726.680580
497.636395	10825.898049
498.003139	10814.822634
498.369825	10688.254385
498.736453	10842.009577
499.103023	10765.341189
499.469535	10795.257916
499.835989	10794.743718
500.202385	10746.966183
500.568723	10597.702659
500.935003	10825.577936
501.301226	10635.816302
501.667390	10894.593853
502.033497	10986.199180
502.399546	10845.898827
502.765537	10751.934240
503.131470	10825.930817
503.497345	10996.450366
503.863163	10615.371903
504.228923	10919.908007
504.594625	10984.394447
504.960269	10740.027035
505.325856	10960.232196
505.691385	10745.569783
506.056856	10900.970912
506.422270	10930.398648
506.787625	10815.225927
507.152924	10925.160889
507.518164	10918.070506
507.883347	10833.767290
508.248472	10761.391445
508.613540	10992.505663
508.978550	10869.582168
509.343503	10855.048521
509.708398	10970.405245
510.073236	11079.528582
510.438016	11090.994686
510.802738	11036.688856
511.167403	11089.988976
511.532010	10988.558440
511.896561	11219.367669
512.261053	11284.703543
512.625488	11158.677217
512.989866	11140.957562
513.354186	11133.292487
513.718449	11025.230313
514.082655	11221.381610
514.446803	11118.531989
514.810894	11242.360371
515.174927	11101.797879
515.538904	11130.965995
515.902822	11281.094077
516.266684	11162.755511
516.630488	11108.275761
516.994235	11168.603249
517.357925	11225.679193
517.721558	11322.129069
518.085133	11330.928403
518.448651	11337.474342
518.812112	11220.970756
519.175516	11241.042110
519.538863	11359.715912
519.902152	11271.079825
520.265385	11434.551841
520.628560	11342.964158
520.991678	11323.253247
521.354739	11388.037115
521.717743	11319.011116
522.080690	11300.091665
522.443580	11432.676532
522.806413	11388.886549
523.169189	11419.037690
523.531908	11479.113121
523.894569	11303.383539
524.257174	11306.919908
524.619722	11417.250601
524.982213	11368.106913
525.344647	11424.812332
525.707025	11369.866276
526.069345	11470.853190
526.431608	11383.618543
526.793815	11489.165181
527.155964	11280.481577
527.518057	11336.496358
527.880093	11288.781837
528.242072	11348.907678
528.603995	11253.035015
528.965860	11176.386791
529.327669	11227.194060
529.689421	11176.628766
530.051117	11147.153140
530.412755	11255.873184
530.774337	11148.859570
531.135862	11126.713782
531.497331	11146.608695
531.858743	10997.609832
532.220098	11161.127218
532.581396	11027.229131
532.942638	11023.375169
533.303824	10976.220216
533.664953	10994.048256
534.026025	10910.516337
534.387040	11001.846921
534.747999	11005.433702
535.108902	11067.250851
535.469748	10825.053656
535.830537	10933.050295
536.191270	10909.981975
536.551947	10935.220512
536.912567	10925.901939
537.273131	10858.635302
537.633638	10837.560759
537.994089	10829.351240
538.354483	10772.789493
538.714821	10924.056876
539.075103	10930.680952
539.435328	10891.526311
539.795497	10723.653367
540.155609	10881.181863
540.515665	10960.154058
540.875665	10705.454802
541.235609	10771.995512
541.595496	10771.075501
541.955328	10918.289796
542.315102	10802.872579
542.674821	10756.322564
543.034483	10760.937741
543.394090	10759.470765
543.753640	10684.360093
544.113134	10905.850749
544.472571	10764.867320
544.831953	10902.049719
545.191278	10718.655063
545.550548	10746.890566
545.909761	10874.608198
546.268918	10848.457213
546.628019	10932.740264
546.987064	10797.604573
547.346053	10726.115971
547.704986	10814.205093
548.063863	10812.846502
548.422684	10798.098606
548.781449	10714.216327
549.140158	10820.539303
549.498811	10690.996772
549.857408	10549.806656
550.215949	10775.879721
550.574434	10626.719540
550.932864	10729.488502
551.291237	10785.006730
551.649555	10737.188865
552.007817	10757.529921
552.366022	10715.660618
552.724173	10699.307114
553.082267	10693.408964
553.440305	10829.406692
553.798288	10622.989086
554.156215	10777.535740
554.514086	10762.503019
554.871902	10606.340676
555.229661	10640.406273
555.587365	10617.191759
555.945014	10518.339774
556.302606	10645.202931
556.660143	10534.315190
557.017625	10683.954280
557.375050	10586.430639
557.732421	10718.639939
558.089735	10632.484100
558.446994	10633.051229
558.804197	10674.481952
559.161345	10670.537249
559.518437	10524.600887
559.875474	10602.950500
560.232455	10636.738833
560.589381	10588.058931
560.946251	10586.002141
561.303065	10692.118429
561.659825	10634.752619
562.016528	10559.659591
562.373177	10435.317011
562.729770	10550.119207
563.086307	10470.042999
563.442789	10560.002390
563.799216	10442.772877
564.155587	10484.962294
564.511904	10440.360685
564.868164	10435.155694
565.224370	10444.128948
565.580520	10372.128668
565.936615	10378.586386
566.292654	10246.341797
566.648638	10382.591583
567.004567	10336.006280
567.360441	10322.760648
567.716260	10230.278161
568.072023	10321.008848
568.427732	10271.391291
568.783385	10186.568836
569.138982	10256.285473
569.494525	10271.756774
569.850013	10144.230706
570.205445	10226.479651
570.560823	10125.492737
570.916145	10041.741527
571.271412	10112.990675
571.626625	10056.446573
571.981782	10034.812461
572.336884	10007.683492
572.691931	10007.512093
573.046923	9958.275143
573.401860	9917.199822
573.756743	9851.188432
574.111570	9900.591740
574.466342	9869.316422
574.821059	9903.389581
575.175722	9797.497623
575.530330	9800.648345
575.884882	9800.174476
576.239380	9728.262417
576.593823	9704.667296
576.948211	9720.972908
577.302544	9602.498231
577.656823	9622.814081
578.011047	9619.718812
578.365216	9588.834183
578.719330	9515.442545
579.073389	9529.935862
579.427394	9473.328746
579.781344	9454.978946
580.135239	9396.743537
580.489080	9412.439169
580.842866	9312.263881
581.196597	9315.205394
581.550273	9354.665026
581.903895	9331.576541
582.257463	9387.654336
582.610975	9270.308878
582.964434	9293.667064
583.317837	9222.909429
583.671186	9207.261687
584.024481	9191.601343
584.377721	9111.353735
584.730906	9092.547711
585.084037	9123.044171
585.437113	9055.807782
585.790135	9079.039939
586.143103	8975.439186
586.496016	8951.652502
586.848874	9010.407150
587.201679	8999.677054
587.554428	8881.333447
587.907124	8931.185417
588.259765	8897.573524
588.612352	8902.975120
588.964884	8778.103219
589.317362	8800.102814
589.669786	8789.730640
590.022155	8850.262295
590.374470	8856.326803
590.726731	8798.436713
591.078937	8647.958271
591.431090	8759.501361
591.783188	8634.637022
592.135232	8634.105180
592.487222	8626.959344
592.839157	8677.280142
593.191038	8616.544321
593.542866	8558.984426
593.894639	8459.615722
594.246358	8505.344028
594.598022	8528.873614
594.949633	8421.373529
595.301190	8402.454078
595.652692	8427.301926
596.004141	8539.210500
596.355535	8321.306625
596.706876	8294.313767
597.058162	8237.099191
597.409395	8303.647463
597.760573	8367.982668
598.111698	8278.008155
598.462768	8261.967203
598.813785	8228.849343
599.164748	8195.923047
599.515657	8183.761263
599.866511	8098.260773
600.217312	8223.765339
600.568060	8084.906757
600.918753	8186.891819
601.269392	8151.999473
601.619978	8075.225221
601.970510	8137.554047
602.320988	8126.592058
602.671412	8185.533228
603.021783	8119.489072
603.372100	8095.384795
603.722363	8095.649455
604.072572	8072.908810
604.422728	8081.269564
604.772830	8009.501177
605.122878	8024.836367
605.472872	8015.180037
605.822813	8043.534007
606.172701	7987.778845
606.522534	8064.895896
606.872314	8062.206441
607.222041	8034.618726
607.571714	8091.140143
607.921333	8049.936272
608.270899	8053.608753
608.620411	8142.166702
608.969870	8048.242445
609.319276	8036.615023
609.668627	8056.767036
610.017926	8094.802542
610.367171	8140.956826
610.716362	8115.110830
611.065500	8102.276052
611.414585	8137.123028
611.763616	8120.956048
612.112594	8102.389478
612.461518	8117.260882
612.810389	8178.294132
613.159207	8121.999567
613.507971	8067.151813
613.856682	8189.177983
614.205340	8139.996486
614.553945	8218.023465
614.902496	8116.547559
615.250994	8173.147113
615.599439	8149.862024
615.947830	8162.187645
616.296169	8137.304510
616.644454	8151.848238
616.992686	8153.552148
617.340864	8208.150365
617.688990	8112.507074
618.037063	8200.147533
618.385082	8148.231211
618.733048	8243.670335
619.080961	8176.537289
619.428821	8192.069084
619.776628	8196.706946
620.124382	8143.827763
620.472083	8127.620453
620.819731	8159.641862
621.167326	8049.946355
621.514868	8057.079587
621.862357	7950.418854
622.209793	7962.719270
622.557176	7897.257366
622.904506	7870.995475
623.251783	7803.998541
623.599007	7760.253928
623.946179	7764.576718
624.293297	7722.392342
624.640363	7642.217832
624.987376	7626.396170
625.334336	7570.406595
625.681243	7521.179728
626.028097	7507.407295
626.374899	7482.279664
626.721647	7478.786144
627.068343	7407.330309
627.414987	7381.459108
627.761577	7341.641554
628.108115	7375.039198
628.454600	7267.607169
628.801032	7321.297978
629.147412	7282.103007
629.493739	7271.919876
629.840014	7208.023251
630.186236	7263.276817
630.532405	7142.553786
630.878521	7201.076541
631.224585	7156.548029
631.570597	7074.225987
631.916556	7113.158818
632.262462	7103.507529
632.608316	7069.247847
632.954117	7045.693056
633.299866	7036.094699
633.645562	7022.591968
633.991206	6944.091121
634.336797	6888.693881
634.682336	6845.786100
635.027823	6814.432644
635.373257	6801.439070
635.718639	6737.550006
636.063968	6750.687253
636.409245	6650.958107
636.754470	6645.029710
637.099642	6603.888853
637.444762	6549.638476
637.789829	6555.851698
638.134845	6500.114181
638.479808	6480.882179
638.824719	6488.668241
639.169577	6414.424648
639.514383	6440.048833
639.859137	6364.887749
640.203839	6374.274378
640.548489	6358.614033
