Dividing Wavelength (nm)	Counts (n)	Blue Motor Position (mm): 6.800000	Red Motor Position (mm): 0.000000	
326.493990	2141.595580
326.888308	2141.595580
327.282561	2141.595580
327.676750	2108.878491
328.070874	2107.134252
328.464933	2109.972422
328.858929	2116.709924
329.252859	2126.691408
329.646726	2138.313789
330.040528	2149.994142
330.434265	2167.585248
330.827938	2186.217353
331.221547	2201.759230
331.615091	2223.063147
332.008571	2243.598287
332.401986	2261.638056
332.795338	2279.390479
333.188625	2300.621298
333.581847	2320.523774
333.975006	2339.087823
334.368100	2354.526357
334.761129	2375.452186
335.154095	2390.943652
335.546996	2407.067782
335.939833	2421.850966
336.332606	2436.707247
336.725315	2447.518001
337.117960	2461.050978
337.510540	2466.311422
337.903056	2479.115953
338.295508	2484.779690
338.687896	2495.565238
339.080220	2502.953049
339.472480	2509.125942
339.864676	2512.059894
340.256807	2518.192457
340.648875	2517.272447
341.040879	2525.018180
341.432818	2523.140350
341.824694	2525.555062
342.216506	2527.357275
342.608253	2526.817872
342.999937	2526.878365
343.391557	2527.634538
343.783113	2522.202695
344.174605	2524.829136
344.566033	2523.586492
344.957397	2521.292767
345.348697	2518.308404
345.739934	2518.802437
346.131106	2515.376973
346.522215	2515.409740
346.913260	2512.531242
347.304241	2509.123422
347.695159	2509.952691
348.086012	2506.786847
348.476802	2504.898935
348.867528	2504.359531
349.258191	2503.396671
349.648789	2500.601351
350.039324	2497.364930
350.429796	2500.009015
350.820203	2497.473315
351.210548	2495.005670
351.600828	2493.357213
351.991045	2493.843684
352.381198	2495.005670
352.771288	2494.052892
353.161314	2495.577841
353.551276	2493.609271
353.941175	2493.231184
354.331010	2493.510968
354.720782	2494.607419
355.110490	2494.151195
355.500135	2494.166318
355.889717	2491.739003
356.279235	2496.265959
356.668689	2495.474497
357.058080	2495.925681
357.447408	2494.793942
357.836672	2489.722541
358.225873	2495.403921
358.615010	2489.536018
359.004084	2496.858294
359.393095	2492.505258
359.782043	2499.630929
360.170927	2499.164622
360.559748	2495.477018
360.948505	2498.416011
361.337199	2500.649242
361.725830	2498.592451
362.114398	2500.724859
362.502903	2500.180415
362.891344	2499.565394
363.279722	2501.430621
363.668037	2499.351145
364.056289	2500.689571
364.444478	2504.641836
364.832603	2504.876249
365.220665	2503.061434
365.608665	2504.246105
365.996601	2503.230313
366.384474	2505.140910
366.772284	2505.057731
367.160031	2505.382885
367.547715	2504.316681
367.935336	2505.150992
368.322893	2507.548061
368.710388	2504.770385
369.097820	2509.614934
369.485189	2505.876918
369.872495	2508.652074
370.259738	2509.516632
370.646918	2509.309944
371.034035	2508.261384
371.421090	2507.001096
371.808081	2508.226096
372.195010	2509.922444
372.581875	2508.009327
372.968678	2510.847496
373.355418	2510.313134
373.742096	2511.525531
374.128710	2508.647033
374.515262	2509.055366
374.901751	2509.433452
375.288177	2509.496467
375.674540	2509.753566
376.060841	2511.177692
376.447079	2512.367404
376.833254	2510.517301
377.219367	2507.863133
377.605417	2510.618124
377.991404	2507.991683
378.377329	2508.397495
378.763191	2507.356497
379.148991	2513.967970
379.534727	2513.123577
379.920402	2514.426715
380.306013	2510.202228
380.691563	2513.037877
381.077049	2513.075686
381.462474	2517.143897
381.847835	2512.604338
382.233134	2515.931500
382.618371	2512.745491
383.003545	2515.034174
383.388657	2514.915707
383.773706	2515.054339
384.158693	2514.837569
384.543618	2514.749349
384.928480	2515.608866
385.313280	2517.857221
385.698017	2514.136849
386.082692	2516.493588
386.467305	2514.880419
386.851856	2516.856552
387.236344	2514.940913
387.620770	2515.548372
388.005133	2518.124402
388.389435	2517.015348
388.773674	2516.241531
389.157851	2516.791017
389.541965	2518.424350
389.926018	2518.424350
390.310008	2518.444515
390.693936	2516.143228
391.077802	2520.478621
391.461606	2516.428053
391.845348	2518.467200
392.229027	2520.632376
392.612645	2519.422499
392.996200	2519.256141
393.379694	2521.106244
393.763125	2521.670853
394.146494	2521.552386
394.529801	2521.169259
394.913047	2521.123888
395.296230	2523.150432
395.679351	2519.881244
396.062410	2521.330576
396.445408	2522.328724
396.828343	2522.485000
397.211217	2517.761439
397.594028	2517.862262
397.976778	2518.210101
398.359466	2518.797396
398.742092	2519.447705
399.124656	2520.660102
399.507158	2521.748991
399.889598	2524.650175
400.271977	2525.824764
400.654294	2526.724610
401.036549	2525.103879
401.418742	2524.516585
401.800874	2523.914167
402.182944	2525.895340
402.564952	2525.277799
402.946898	2524.284692
403.328783	2522.631193
403.710606	2522.532891
404.092367	2524.209074
404.474067	2523.783097
404.855705	2523.394928
405.237282	2525.882737
405.618797	2526.439785
406.000250	2525.784435
406.381642	2527.967255
406.762972	2525.282840
407.144240	2526.860721
407.525447	2527.271575
407.906593	2523.659589
408.287677	2524.972809
408.668700	2528.176462
409.049661	2529.015815
409.430560	2528.753675
409.811399	2528.594878
410.192176	2526.548170
410.572891	2527.760567
410.953545	2527.473222
411.334138	2528.428520
411.714669	2527.808458
412.095139	2531.065044
412.475547	2529.111597
412.855894	2529.935825
413.236180	2528.809127
413.616405	2530.578572
413.996568	2530.366844
414.376670	2528.950280
414.756711	2531.160826
415.136691	2529.255269
415.516609	2531.201155
415.896466	2526.485155
416.276262	2529.535053
416.655997	2526.946421
417.035670	2525.292923
417.415283	2528.045393
417.794834	2523.778056
418.174324	2530.966741
418.553753	2528.579755
418.933121	2532.378264
419.312428	2529.391381
419.691674	2531.985054
420.070859	2528.499096
420.449983	2529.497245
420.829045	2529.083870
421.208047	2533.482277
421.586988	2532.441279
421.965867	2531.798532
422.344686	2530.782739
422.723444	2532.121165
423.102141	2532.728624
423.480777	2532.234591
423.859352	2533.257946
424.237866	2533.479756
424.616319	2532.295085
424.994712	2533.527647
425.373044	2534.049407
425.751314	2530.213089
426.129524	2533.343645
426.507673	2532.542102
426.885762	2531.924560
427.263789	2535.503780
427.641756	2528.947759
428.019662	2534.699716
428.397508	2532.380785
428.775292	2535.589479
429.153016	2535.455889
429.530679	2532.950435
429.908282	2532.927750
430.285824	2534.830786
430.663305	2534.861033
431.040726	2534.644263
431.418086	2535.788605
431.795385	2537.263142
432.172624	2534.180477
432.549802	2534.636701
432.926920	2534.470343
433.303977	2538.379758
433.680974	2533.013450
434.057910	2536.859850
434.434786	2537.447144
434.811601	2537.616023
435.188355	2537.386651
435.565050	2535.617206
435.941683	2534.989582
436.318257	2535.244160
436.694770	2535.778522
437.071222	2532.970600
437.447614	2533.245343
437.823946	2534.016639
438.200218	2534.752648
438.576429	2536.446475
438.952580	2538.518390
439.328670	2537.971424
439.704700	2535.700385
440.080670	2538.213400
440.456580	2536.053265
440.832429	2538.954449
441.208218	2537.298430
441.583947	2537.358924
441.959616	2537.963863
442.335224	2536.890097
442.710773	2538.735159
443.086261	2537.248019
443.461689	2537.996630
443.837057	2537.641229
444.212365	2536.784233
444.587612	2538.064686
444.962800	2538.271373
445.337927	2538.626774
445.712995	2536.186856
446.088002	2538.596528
446.462949	2539.408153
446.837837	2538.730118
447.212664	2537.479912
447.587431	2536.912782
447.962139	2538.634336
448.336786	2541.167516
448.711374	2539.982845
449.085901	2539.700540
449.460369	2535.244160
449.834776	2539.985365
450.209124	2539.811446
450.583412	2542.178267
450.957640	2539.420756
451.331808	2540.983514
451.705917	2539.241795
452.079965	2540.802032
452.453954	2541.457382
452.827883	2539.720705
453.201752	2539.148534
453.575562	2540.996117
453.949311	2540.955787
454.323001	2538.979655
454.696632	2540.912938
455.070202	2542.226158
455.443713	2539.992927
455.817164	2541.321271
456.190556	2534.732483
456.563888	2540.360931
456.937160	2533.663758
457.310373	2541.132228
457.683526	2539.889583
458.056619	2541.348997
458.429653	2540.660880
458.802628	2540.723894
459.175542	2543.070552
459.548398	2540.728936
459.921194	2541.646426
460.293930	2541.991745
460.666607	2542.389996
461.039224	2540.837320
461.411782	2542.117773
461.784280	2542.473175
462.156719	2539.410674
462.529099	2541.817825
462.901419	2542.437887
463.273680	2542.621889
463.645882	2540.111394
464.018024	2542.571477
464.390106	2540.663401
464.762130	2543.367980
465.134094	2540.968390
465.505999	2546.198588
465.877845	2542.770603
466.249631	2542.437887
466.621358	2543.688093
466.993026	2543.002496
467.364634	2548.542724
467.736184	2546.415357
468.107674	2542.878988
468.479105	2541.719522
468.850477	2543.214224
469.221790	2542.332022
469.593043	2543.685572
469.964238	2543.264636
470.335373	2541.835469
470.706449	2542.498381
471.077467	2543.630120
471.448425	2545.374359
471.819324	2543.380582
472.190164	2548.971222
472.560945	2543.632640
472.931667	2544.376210
473.302330	2543.504091
473.672934	2545.767569
474.043479	2541.873277
474.413965	2542.337064
474.784393	2539.849254
475.154761	2539.738349
475.525070	2537.721887
475.895321	2541.659028
476.265513	2540.376055
476.635645	2545.240768
477.005719	2544.603062
477.375734	2542.750438
477.745691	2546.196067
478.115588	2544.557692
478.485427	2545.492826
478.855207	2547.332847
479.224928	2544.015768
479.594591	2546.896787
479.964194	2543.463762
480.333739	2546.586756
480.703226	2546.218752
481.072653	2551.607746
481.442022	2544.988711
481.811333	2546.314534
482.180584	2546.334699
482.549777	2548.673794
482.918912	2541.946374
483.287988	2545.956612
483.657005	2543.451159
484.025964	2547.098433
484.394864	2548.275543
484.763706	2545.195398
485.132489	2544.880326
485.501213	2545.651622
485.869879	2546.178423
486.238487	2541.291024
486.607036	2546.427960
486.975527	2545.936447
487.343959	2545.356715
487.712333	2549.324103
488.080648	2544.862682
488.448905	2547.088351
488.817104	2545.916283
489.185244	2545.608772
489.553326	2545.606252
489.921350	2545.369318
490.289315	2549.079607
490.657222	2545.611293
491.025070	2545.543238
491.392861	2549.714792
491.760593	2549.553475
492.128267	2548.192364
492.495883	2545.903680
492.863440	2546.952240
493.230939	2545.097095
493.598380	2548.048691
493.965763	2540.746580
494.333088	2545.087013
494.700354	2545.218083
495.067563	2545.787733
495.434713	2541.752290
495.801805	2547.584905
496.168839	2545.117260
496.535815	2548.154555
496.902733	2548.676315
497.269593	2547.053063
497.636395	2547.325285
498.003139	2544.363607
498.369825	2549.626572
498.736453	2546.705223
499.103023	2549.061963
499.469535	2546.155738
499.835989	2546.548948
500.202385	2547.398382
500.568723	2547.789072
500.935003	2547.058104
501.301226	2546.498536
501.667390	2544.494678
502.033497	2546.533824
502.399546	2548.111705
502.765537	2547.988197
503.131470	2547.602549
503.497345	2547.186654
503.863163	2549.258568
504.228923	2546.140614
504.594625	2547.320244
504.960269	2548.104144
505.325856	2547.431150
505.691385	2551.234700
506.056856	2550.206305
506.422270	2548.315872
506.787625	2548.358722
507.152924	2547.824360
507.518164	2548.608259
507.883347	2548.520039
508.248472	2546.649771
508.613540	2549.049360
508.978550	2548.641027
509.343503	2545.271015
509.708398	2550.634803
510.073236	2548.056253
510.438016	2549.190512
510.802738	2547.078269
511.167403	2549.472817
511.532010	2549.772766
511.896561	2549.795451
512.261053	2551.156562
512.625488	2544.686241
512.989866	2545.399565
513.354186	2545.843186
513.718449	2542.679862
514.082655	2547.496685
514.446803	2546.838814
514.810894	2549.253527
515.174927	2549.369473
515.538904	2547.456355
515.902822	2549.412323
516.266684	2548.076417
516.630488	2550.896943
516.994235	2546.488454
517.357925	2547.574823
517.721558	2549.722354
518.085133	2550.138249
518.448651	2548.018444
518.812112	2551.627910
519.175516	2548.903167
519.538863	2545.583567
519.902152	2548.575492
520.265385	2549.014072
520.628560	2544.910573
520.991678	2547.305121
521.354739	2548.691438
521.717743	2547.189174
522.080690	2548.867878
522.443580	2548.416695
522.806413	2550.682694
523.169189	2550.191181
523.531908	2550.579350
523.894569	2549.369473
524.257174	2549.379556
524.619722	2549.646737
524.982213	2548.661191
525.344647	2548.078938
525.707025	2550.012220
526.069345	2549.492982
526.431608	2548.217570
526.793815	2547.794113
527.155964	2551.413661
527.518057	2550.294525
527.880093	2548.265461
528.242072	2551.378373
528.603995	2550.917107
528.965860	2550.647406
529.327669	2551.781665
529.689421	2547.017775
530.051117	2551.171686
530.412755	2550.034906
530.774337	2550.390307
531.135862	2550.791079
531.497331	2548.691438
531.858743	2544.797147
532.220098	2547.012734
532.581396	2546.508618
532.942638	2547.514329
533.303824	2551.443908
533.664953	2552.615976
534.026025	2550.007179
534.387040	2550.488609
534.747999	2549.311500
535.108902	2552.069011
535.469748	2550.450801
535.830537	2550.050029
536.191270	2550.561706
536.551947	2547.872251
536.912567	2551.295194
537.273131	2549.104813
537.633638	2551.325441
537.994089	2551.166645
538.354483	2550.539021
538.714821	2553.112530
539.075103	2549.445091
539.435328	2548.618341
539.795497	2549.379556
540.155609	2548.320913
540.515665	2549.266130
540.875665	2550.370142
541.235609	2549.573640
541.595496	2550.241593
541.955328	2551.421223
542.315102	2550.125646
542.674821	2552.368960
543.034483	2548.454504
543.394090	2550.044988
543.753640	2550.629762
544.113134	2548.111705
544.472571	2550.816284
544.831953	2548.983825
545.191278	2550.743188
545.550548	2549.371994
545.909761	2548.462066
546.268918	2551.905174
546.628019	2550.796120
546.987064	2552.399207
547.346053	2551.701007
547.704986	2554.521533
548.063863	2551.312838
548.422684	2551.844680
548.781449	2553.402396
549.140158	2553.639331
549.498811	2551.673281
549.857408	2550.332334
550.215949	2548.557847
550.574434	2546.649771
550.932864	2551.587581
551.291237	2547.174051
551.649555	2551.726213
552.007817	2552.431974
552.366022	2550.702858
552.724173	2552.671429
553.082267	2553.656975
553.440305	2551.476676
553.798288	2551.401058
554.156215	2550.922149
554.514086	2551.748898
554.871902	2551.060780
555.229661	2552.258054
555.587365	2551.015410
555.945014	2550.090358
556.302606	2553.840977
556.660143	2551.953065
557.017625	2552.535318
557.375050	2553.873744
557.732421	2554.090514
558.089735	2552.356357
558.446994	2550.816284
558.804197	2555.239897
559.161345	2551.950544
559.518437	2552.941131
559.875474	2555.040771
560.232455	2551.564896
560.589381	2552.978939
560.946251	2555.224773
561.303065	2552.777293
561.659825	2555.033210
562.016528	2553.639331
562.373177	2551.262427
562.729770	2554.380380
563.086307	2551.469114
563.442789	2550.433157
563.799216	2553.755277
564.155587	2550.959957
564.511904	2552.356357
564.868164	2555.653272
565.224370	2554.576985
565.580520	2553.001625
565.936615	2554.239228
566.292654	2551.910215
566.648638	2554.952551
567.004567	2550.337375
567.360441	2550.483568
567.716260	2552.913404
568.072023	2550.483568
568.427732	2551.280071
568.783385	2549.787889
569.138982	2549.162786
569.494525	2548.870399
569.850013	2546.596839
570.205445	2553.034392
570.560823	2551.688404
570.916145	2554.445915
571.271412	2554.526574
571.626625	2554.856769
571.981782	2549.795451
572.336884	2554.208981
572.691931	2553.452808
573.046923	2553.760318
573.401860	2553.606563
573.756743	2554.259392
574.111570	2551.403579
574.466342	2555.381049
574.821059	2550.768393
575.175722	2552.900802
575.530330	2553.815771
575.884882	2553.319217
576.239380	2550.980122
576.593823	2557.936914
576.948211	2550.995245
577.302544	2552.391645
577.656823	2552.018600
578.011047	2552.764690
578.365216	2551.837118
578.719330	2553.228477
579.073389	2552.462221
579.427394	2551.113713
579.781344	2549.707231
580.135239	2551.519525
580.489080	2550.629762
580.842866	2551.164124
581.196597	2553.553631
581.550273	2553.651933
581.903895	2553.987170
582.257463	2551.922818
582.610975	2549.888712
582.964434	2552.447098
583.317837	2553.341903
583.671186	2555.633107
584.024481	2550.617159
584.377721	2554.400545
584.730906	2550.788558
585.084037	2552.235369
585.437113	2555.184444
585.790135	2552.134546
586.143103	2551.791748
586.496016	2554.085473
586.848874	2548.625903
587.201679	2548.850234
587.554428	2549.808054
587.907124	2552.063970
588.259765	2544.643392
588.612352	2551.973229
588.964884	2552.379042
589.317362	2553.891388
589.669786	2553.107489
590.022155	2553.079763
590.374470	2550.145811
590.726731	2551.950544
591.078937	2552.449618
591.431090	2555.055895
591.783188	2552.915925
592.135232	2553.057077
592.487222	2552.845349
592.839157	2553.006666
593.191038	2553.725030
593.542866	2553.006666
593.894639	2550.768393
594.246358	2552.235369
594.598022	2553.687222
594.949633	2552.868034
595.301190	2552.217725
595.652692	2549.956768
596.004141	2552.978939
596.355535	2550.821326
596.706876	2551.607746
597.058162	2554.153528
597.409395	2550.556665
597.760573	2553.082283
598.111698	2552.437015
598.462768	2550.629762
598.813785	2550.052550
599.164748	2551.665719
599.515657	2552.469783
599.866511	2553.886347
600.217312	2553.967006
600.568060	2553.888868
600.918753	2553.311656
601.269392	2553.989691
601.619978	2552.678991
601.970510	2552.308466
602.320988	2548.005841
602.671412	2549.843342
603.021783	2554.188816
603.372100	2550.208825
603.722363	2552.936090
604.072572	2552.739485
604.422728	2552.303425
604.772830	2547.607590
605.122878	2547.680687
605.472872	2547.675646
605.822813	2546.178423
606.172701	2550.292004
606.522534	2552.149670
606.872314	2551.670760
607.222041	2551.645554
607.571714	2550.972560
607.921333	2551.985832
608.270899	2551.854762
608.620411	2552.079093
608.969870	2553.941800
609.319276	2553.591440
609.668627	2557.664692
610.017926	2557.170659
610.367171	2557.324414
610.716362	2558.229301
611.065500	2557.155535
611.414585	2554.561862
611.763616	2556.109496
612.112594	2555.736451
612.461518	2554.478683
612.810389	2554.340051
613.159207	2552.124464
613.507971	2552.681511
613.856682	2555.744012
614.205340	2552.736964
614.553945	2555.524722
614.902496	2549.863506
615.250994	2551.930379
615.599439	2552.101779
615.947830	2552.903322
616.296169	2552.968857
616.644454	2552.537838
616.992686	2552.832746
617.340864	2551.338044
617.688990	2552.081614
618.037063	2549.843342
618.385082	2551.519525
618.733048	2553.505740
619.080961	2552.114382
619.428821	2553.543549
619.776628	2554.234187
620.124382	2551.239741
620.472083	2552.179917
620.819731	2553.689742
621.167326	2554.133364
621.514868	2553.407438
621.862357	2550.433157
622.209793	2553.495658
622.557176	2553.835936
622.904506	2550.057591
623.251783	2548.368804
623.599007	2546.891746
623.946179	2546.100285
624.293297	2550.614638
624.640363	2552.341233
624.987376	2553.977088
625.334336	2551.648075
625.681243	2552.189999
626.028097	2552.406768
626.374899	2552.399207
626.721647	2551.975750
627.068343	2552.384083
627.414987	2552.444577
627.761577	2555.000442
628.108115	2552.338713
628.454600	2550.864175
628.801032	2553.561193
629.147412	2552.515153
629.493739	2552.336192
629.840014	2553.588919
630.186236	2553.228477
630.532405	2554.148487
630.878521	2550.380225
631.224585	2552.535318
631.570597	2551.574978
631.916556	2552.091696
632.262462	2554.438353
632.608316	2551.058260
632.954117	2551.494320
633.299866	2553.793086
633.645562	2554.188816
633.991206	2553.541028
634.336797	2547.952909
634.682336	2552.802499
635.027823	2551.479196
635.373257	2550.349978
635.718639	2550.607077
636.063968	2550.201264
636.409245	2551.244782
636.754470	2553.379711
637.099642	2550.672612
637.444762	2552.399207
637.789829	2552.878116
638.134845	2552.343754
638.479808	2548.966181
638.824719	2550.644885
639.169577	2552.005997
639.514383	2552.076573
639.859137	2551.411141
640.203839	2553.004145
640.548489	2549.621531
640.893086	2549.578681
641.237632	2547.839483
641.582125	2546.690100
641.926566	2545.966694
642.270955	2550.763352
642.615292	2551.358208
642.959576	2550.604556
643.303809	2550.468445
643.647990	2553.291491
643.992118	2550.322251
644.336195	2555.260062
