Dividing Wavelength (nm)	Counts (n)	Blue Motor Position (mm): 27.900000	Red Motor Position (mm): 0.000000	
326.493990	2133.759106
326.888308	2133.759106
327.282561	2133.759106
327.676750	2101.452872
328.070874	2097.132603
328.464933	2101.412543
328.858929	2107.908069
329.252859	2118.771756
329.646726	2129.504372
330.040528	2141.850158
330.434265	2159.668116
330.827938	2174.811743
331.221547	2196.929805
331.615091	2213.618545
332.008571	2232.679148
332.401986	2251.838053
332.795338	2272.549633
333.188625	2290.284413
333.581847	2310.559933
333.975006	2327.621718
334.368100	2348.393793
334.761129	2363.159333
335.154095	2381.662888
335.546996	2401.951011
335.939833	2424.502613
336.332606	2437.183636
336.725315	2454.726851
337.117960	2460.370423
337.510540	2471.513893
337.903056	2481.636530
338.295508	2487.716162
338.687896	2497.160763
339.080220	2507.648884
339.472480	2513.451252
339.864676	2516.196160
340.256807	2519.735050
340.648875	2525.048427
341.040879	2526.898530
341.432818	2526.333921
341.824694	2529.262831
342.216506	2529.502286
342.608253	2527.460619
342.999937	2528.920033
343.391557	2529.777029
343.783113	2527.614374
344.174605	2526.701925
344.566033	2525.645803
344.957397	2522.651358
345.348697	2522.820237
345.739934	2521.363343
346.131106	2517.960564
346.522215	2517.627848
346.913260	2517.650533
347.304241	2514.943434
347.695159	2510.242558
348.086012	2511.664163
348.476802	2507.641322
348.867528	2507.038904
349.258191	2505.032525
349.648789	2505.982783
350.039324	2499.020949
350.429796	2503.608399
350.820203	2501.438182
351.210548	2497.869046
351.600828	2497.342245
351.991045	2499.265445
352.381198	2496.850732
352.771288	2498.456340
353.161314	2495.313181
353.551276	2497.148161
353.941175	2495.103973
354.331010	2495.887872
354.720782	2497.647235
355.110490	2497.579179
355.500135	2496.306288
355.889717	2497.017091
356.279235	2497.604385
356.668689	2499.194869
357.058080	2497.279231
357.447408	2494.592296
357.836672	2492.716986
358.225873	2494.519199
358.615010	2492.742192
359.004084	2499.401556
359.393095	2501.624705
359.782043	2500.082112
360.170927	2500.271155
360.559748	2501.102946
360.948505	2501.692761
361.337199	2500.351814
361.725830	2501.985148
362.114398	2503.915910
362.502903	2504.722494
362.891344	2505.544202
363.279722	2505.418173
363.668037	2504.742659
364.056289	2505.297186
364.444478	2506.310458
364.832603	2506.396157
365.220665	2508.568895
365.608665	2507.369100
365.996601	2509.055366
366.384474	2508.089985
366.772284	2509.635099
367.160031	2510.050994
367.547715	2509.284738
367.935336	2509.463699
368.322893	2509.471261
368.710388	2510.527383
369.097820	2511.732219
369.485189	2509.070489
369.872495	2510.993690
370.259738	2509.556961
370.646918	2511.643998
371.034035	2512.425377
371.421090	2510.439163
371.808081	2510.509739
372.195010	2512.889163
372.581875	2511.568381
372.968678	2513.831859
373.355418	2513.589884
373.742096	2513.352950
374.128710	2514.537621
374.515262	2514.247754
374.901751	2512.848834
375.288177	2513.657939
375.674540	2513.017713
376.060841	2513.922600
376.447079	2514.779596
376.833254	2514.341016
377.219367	2512.528721
377.605417	2512.516118
377.991404	2511.384379
378.377329	2512.281704
378.763191	2511.681807
379.148991	2514.711541
379.534727	2517.431243
379.920402	2515.379493
380.306013	2519.830832
380.691563	2517.738753
381.077049	2517.290091
381.462474	2519.467869
381.847835	2517.627848
382.233134	2516.886798
382.618371	2521.086080
383.003545	2519.984587
383.388657	2518.051305
383.773706	2518.941069
384.158693	2517.980729
384.543618	2519.482993
384.928480	2520.544156
385.313280	2518.885616
385.698017	2522.111954
386.082692	2519.044412
386.467305	2520.891995
386.851856	2521.691018
387.236344	2519.561131
387.620770	2524.302336
388.005133	2521.940555
388.389435	2523.936852
388.773674	2518.416789
389.157851	2521.428878
389.541965	2521.691018
389.926018	2524.786287
390.310008	2522.245545
390.693936	2522.174969
391.077802	2524.045237
391.461606	2523.921729
391.845348	2523.021883
392.229027	2524.572038
392.612645	2523.266379
392.996200	2524.992974
393.379694	2524.403159
393.763125	2523.049609
394.146494	2527.742923
394.529801	2527.027079
394.913047	2523.541122
395.296230	2526.966586
395.679351	2522.590864
396.062410	2528.015146
396.445408	2526.185207
396.828343	2528.299971
397.211217	2524.577079
397.594028	2520.992818
397.976778	2522.122037
398.359466	2526.432223
398.742092	2522.265710
399.124656	2526.449867
399.507158	2525.456760
399.889598	2527.954652
400.271977	2527.105217
400.654294	2530.686957
401.036549	2531.238963
401.418742	2531.954807
401.800874	2529.819879
402.182944	2529.025897
402.564952	2532.164015
402.946898	2530.404652
403.328783	2529.013294
403.710606	2530.165198
404.092367	2531.566638
404.474067	2532.612678
404.855705	2532.131248
405.237282	2530.465146
405.618797	2532.559746
406.000250	2533.799870
406.381642	2530.303829
406.762972	2533.850281
407.144240	2532.219468
407.525447	2536.121321
407.906593	2531.397760
408.287677	2535.864222
408.668700	2534.011598
409.049661	2533.026052
409.430560	2533.736855
409.811399	2533.905734
410.192176	2534.046886
410.572891	2535.387833
410.953545	2531.851464
411.334138	2537.328677
411.714669	2532.960518
412.095139	2536.968235
412.475547	2534.624098
412.855894	2538.634336
413.236180	2533.512524
413.616405	2537.048893
413.996568	2535.465971
414.376670	2536.784233
414.756711	2536.123842
415.136691	2535.574356
415.516609	2540.199614
415.896466	2537.469830
416.276262	2536.529654
416.655997	2535.458409
417.035670	2536.328008
417.415283	2536.093595
417.794834	2532.837009
418.174324	2539.335057
418.553753	2538.697351
418.933121	2539.120808
419.312428	2538.914120
419.691674	2540.282793
420.070859	2538.319264
420.449983	2539.859337
420.829045	2540.824718
421.208047	2542.140459
421.586988	2541.893442
421.965867	2542.183308
422.344686	2543.078113
422.723444	2541.306148
423.102141	2542.221117
423.480777	2543.088196
423.859352	2542.800850
424.237866	2541.966539
424.616319	2543.017619
424.994712	2539.458565
425.373044	2544.388813
425.751314	2543.839327
426.129524	2544.789585
426.507673	2546.173382
426.885762	2547.766386
427.263789	2546.284287
427.641756	2542.256405
428.019662	2548.572971
428.397508	2548.988866
428.775292	2547.443753
429.153016	2547.247148
429.530679	2549.230842
429.908282	2548.063814
430.285824	2550.498692
430.663305	2549.074566
431.040726	2552.126984
431.418086	2549.676984
431.795385	2553.409958
432.172624	2552.126984
432.549802	2553.704866
432.926920	2557.624363
433.303977	2557.185782
433.680974	2558.337686
434.057910	2563.673747
434.434786	2563.625856
434.811601	2567.822617
435.188355	2569.012329
435.565050	2572.775551
435.941683	2575.132290
436.318257	2581.514391
436.694770	2583.997159
437.071222	2592.413365
437.447614	2592.811617
437.823946	2597.651124
438.200218	2610.521190
438.576429	2615.910183
438.952580	2626.683129
439.328670	2635.253091
439.704700	2643.177785
440.080670	2649.060811
440.456580	2671.766168
440.832429	2678.163392
441.208218	2682.196315
441.583947	2701.304809
441.959616	2711.475337
442.335224	2722.086966
442.710773	2743.544637
443.086261	2758.158942
443.461689	2761.317225
443.837057	2788.751184
444.212365	2814.234217
444.587612	2825.430620
444.962800	2854.901205
445.337927	2875.766541
445.712995	2861.918491
446.088002	2936.928340
446.462949	2943.217179
446.837837	2959.358954
447.212664	2999.133658
447.587431	3048.446225
447.962139	3151.250475
448.336786	3308.973055
448.711374	3307.511121
449.085901	3206.909855
449.460369	3227.054305
449.834776	3254.183275
450.209124	3359.445088
450.583412	3436.579783
450.957640	3491.387207
451.331808	3489.469048
451.705917	3443.203859
452.079965	3467.908033
452.453954	3556.687794
452.827883	3570.906368
453.201752	3637.394146
453.575562	3629.993732
453.949311	3733.962489
454.323001	3744.732914
454.696632	3809.635250
455.070202	3906.364910
455.443713	4001.297398
455.817164	4087.291921
456.190556	4166.533818
456.563888	4254.441459
456.937160	4320.556192
457.310373	4251.820059
457.683526	4315.257939
458.056619	4329.562213
458.429653	4383.792426
458.802628	4408.574738
459.175542	4503.290457
459.548398	4719.127459
459.921194	4848.914485
460.293930	4911.870935
460.666607	5231.185182
461.039224	5443.473211
461.411782	5576.410959
461.784280	5658.062527
462.156719	5674.161452
462.529099	5684.221075
462.901419	5537.309249
463.273680	5537.647006
463.645882	5603.318117
464.018024	5602.637562
464.390106	5757.360655
464.762130	6053.898969
465.134094	6397.536782
465.505999	7088.991526
465.877845	7936.278418
466.249631	8448.376469
466.621358	8315.675656
466.993026	8008.573605
467.364634	7932.734487
467.736184	7763.520596
468.107674	7598.238805
468.479105	7705.827111
468.850477	7586.540808
469.221790	7492.238463
469.593043	7314.260527
469.964238	7277.986904
470.335373	7341.674322
470.706449	7440.259126
471.077467	7479.411248
471.448425	8579.615348
471.819324	9491.860028
472.190164	9578.333460
472.560945	8627.012277
472.931667	8034.134776
473.302330	7968.163716
473.672934	7704.677728
474.043479	8050.775624
474.413965	8049.469966
474.784393	7984.300449
475.154761	8166.659148
475.525070	8282.235162
475.895321	8162.800145
476.265513	8363.117955
476.635645	8549.116367
477.005719	8581.132735
477.375734	8723.136998
477.745691	8961.124830
478.115588	9119.104509
478.485427	9375.916010
478.855207	9903.906299
479.224928	10684.624754
479.594591	11294.543875
479.964194	11156.711168
480.333739	11139.420010
480.703226	11098.816036
481.072653	11206.721934
481.442022	11463.331788
481.811333	11658.036273
482.180584	11506.000115
482.549777	11251.560477
482.918912	11104.305853
483.287988	11143.659620
483.657005	11165.510502
484.025964	10880.435772
484.394864	11026.178050
484.763706	11007.417396
485.132489	10788.127204
485.501213	10766.120047
485.869879	10854.340239
486.238487	10704.733917
486.607036	10827.138173
486.975527	10615.712181
487.343959	10819.762965
487.712333	10871.641479
488.080648	10809.385750
488.448905	10861.954902
488.817104	10810.764505
489.185244	11073.885010
489.553326	11233.855945
489.921350	11778.933225
490.289315	12820.899396
490.657222	13164.179288
491.025070	13079.848345
491.392861	12945.867079
491.760593	12578.230853
492.128267	12237.075807
492.495883	11920.577045
492.863440	11585.667989
493.230939	11255.328740
493.598380	11191.981600
493.965763	11067.039123
494.333088	10969.477672
494.700354	10885.363500
495.067563	10953.040990
495.434713	10785.256267
495.801805	10913.735114
496.168839	10840.545122
496.535815	10772.766808
496.902733	10776.751840
497.269593	10709.825482
497.636395	10815.583848
498.003139	10806.373660
498.369825	10674.791983
498.736453	10827.254120
499.103023	10757.600497
499.469535	10791.650971
499.835989	10773.056675
500.202385	10744.163301
500.568723	10590.939951
500.935003	10816.960083
501.301226	10625.308017
501.667390	10881.685978
502.033497	10975.363220
502.399546	10836.587816
502.765537	10745.567263
503.131470	10823.632051
503.497345	10986.471402
503.863163	10606.628022
504.228923	10915.154199
504.594625	10982.463685
504.960269	10731.663760
505.325856	10946.434558
505.691385	10745.922664
506.056856	10897.452187
506.422270	10920.054200
506.787625	10811.692078
507.152924	10928.208267
507.518164	10906.818651
507.883347	10828.584984
508.248472	10751.936761
508.613540	10988.991979
508.978550	10865.133350
509.343503	10846.193735
509.708398	10970.254010
510.073236	11078.938767
510.438016	11083.556463
510.802738	11031.236848
511.167403	11083.301885
511.532010	10983.121555
511.896561	11208.405680
512.261053	11278.543253
512.625488	11147.992492
512.989866	11139.886317
513.354186	11119.721701
513.718449	11026.223421
514.082655	11213.860208
514.446803	11113.687440
514.810894	11231.370656
515.174927	11101.926428
515.538904	11125.067845
515.902822	11279.193562
516.266684	11161.651498
516.630488	11103.763929
516.994235	11164.623258
517.357925	11225.124666
517.721558	11313.579272
518.085133	11326.519914
518.448651	11335.367139
518.812112	11220.983358
519.175516	11236.321069
519.538863	11358.097702
519.902152	11273.882706
520.265385	11434.866913
520.628560	11347.294509
520.991678	11325.315078
521.354739	11390.441745
521.717743	11314.895013
522.080690	11300.799947
522.443580	11437.092583
522.806413	11390.454348
523.169189	11422.004409
523.531908	11479.082874
523.894569	11303.222222
524.257174	11312.568521
524.619722	11421.076837
524.982213	11374.854497
525.344647	11420.739080
525.707025	11369.034485
526.069345	11462.258023
526.431608	11386.159285
526.793815	11485.487660
527.155964	11272.047726
527.518057	11340.967861
527.880093	11287.297217
528.242072	11343.891730
528.603995	11251.119376
528.965860	11181.201093
529.327669	11231.461397
529.689421	11179.414004
530.051117	11145.708849
530.412755	11252.268759
530.774337	11142.923612
531.135862	11119.298244
531.497331	11151.019705
531.858743	11000.427837
532.220098	11163.985553
532.581396	11038.884279
532.942638	11021.527586
533.303824	10979.867491
533.664953	10995.253092
534.026025	10917.541185
534.387040	11010.910916
534.747999	11019.611947
535.108902	11068.319576
535.469748	10830.387197
535.830537	10930.680953
536.191270	10916.066648
536.551947	10929.705489
536.912567	10933.224215
537.273131	10863.810047
537.633638	10838.127888
537.994089	10827.009624
538.354483	10775.917529
538.714821	10922.660477
539.075103	10935.432240
539.435328	10896.441436
539.795497	10720.863088
540.155609	10876.014680
540.515665	10965.376694
540.875665	10711.229443
541.235609	10766.825808
541.595496	10766.140212
541.955328	10918.143603
542.315102	10801.967692
542.674821	10755.987328
543.034483	10758.949006
543.394090	10763.291960
543.753640	10682.900679
544.113134	10908.583055
544.472571	10764.595098
544.831953	10910.062633
545.191278	10709.764988
545.550548	10743.702036
545.909761	10878.439475
546.268918	10850.055258
546.628019	10935.938876
546.987064	10800.599019
547.346053	10723.577750
547.704986	10822.555764
548.063863	10816.947481
548.422684	10799.696652
548.781449	10717.362007
549.140158	10822.643984
549.498811	10697.721672
549.857408	10554.215145
550.215949	10777.255956
550.574434	10634.213215
550.932864	10730.499254
551.291237	10792.858327
551.649555	10741.337735
552.007817	10749.159085
552.366022	10711.652900
552.724173	10708.855060
553.082267	10694.949037
553.440305	10825.930817
553.798288	10634.435026
554.156215	10778.228898
554.514086	10756.801474
554.871902	10610.439134
555.229661	10650.869188
555.587365	10617.126224
555.945014	10523.348160
556.302606	10647.065637
556.660143	10539.056395
557.017625	10689.590290
557.375050	10590.040105
557.732421	10728.881043
558.089735	10639.755964
558.446994	10631.904367
558.804197	10675.379278
559.161345	10673.110758
559.518437	10525.077276
559.875474	10617.418611
560.232455	10637.386622
560.589381	10592.485064
560.946251	10588.366442
561.303065	10694.192864
561.659825	10627.813471
562.016528	10558.782430
562.373177	10443.622312
562.729770	10553.600124
563.086307	10470.642897
563.442789	10559.311752
563.799216	10439.049985
564.155587	10491.011679
564.511904	10440.151477
564.868164	10430.913563
565.224370	10448.139186
565.580520	10372.829388
565.936615	10381.175019
566.292654	10255.040308
566.648638	10384.615606
567.004567	10333.838584
567.360441	10317.613630
567.716260	10226.189785
568.072023	10330.168624
568.427732	10280.866139
568.783385	10184.244864
569.138982	10251.229196
569.494525	10276.513103
569.850013	10146.625254
570.205445	10232.932328
570.560823	10125.694383
570.916145	10044.957783
571.271412	10112.443710
571.626625	10061.275998
571.981782	10038.749603
572.336884	10013.075006
572.691931	10016.112301
573.046923	9969.055651
573.401860	9914.434749
573.756743	9858.518270
574.111570	9900.995032
574.466342	9883.020798
574.821059	9909.890148
575.175722	9799.960227
575.530330	9810.299634
575.884882	9807.055651
576.239380	9730.150329
576.593823	9716.508966
576.948211	9729.386594
577.302544	9605.240619
577.656823	9623.716447
578.011047	9618.650088
578.365216	9592.652857
578.719330	9518.068986
579.073389	9529.953507
579.427394	9474.699940
579.781344	9454.147156
580.135239	9400.353003
580.489080	9408.224765
580.842866	9309.836565
581.196597	9316.944592
581.550273	9357.926652
581.903895	9330.202827
582.257463	9389.680880
582.610975	9276.985886
582.964434	9299.829875
583.317837	9217.036484
583.671186	9204.002581
584.024481	9200.478815
584.377721	9116.604097
584.730906	9097.034338
585.084037	9125.496692
585.437113	9061.584944
585.790135	9074.906193
586.143103	8981.183581
586.496016	8951.390362
586.848874	9015.783541
587.201679	9001.242332
587.554428	8886.551041
587.907124	8934.056354
588.259765	8903.859843
588.612352	8909.384947
588.964884	8783.552706
589.317362	8797.985530
589.669786	8803.185480
590.022155	8847.635854
590.374470	8860.836115
590.726731	8798.981158
591.078937	8657.793562
591.431090	8762.571424
591.783188	8638.566601
592.135232	8631.566959
592.487222	8627.506310
592.839157	8683.115278
593.191038	8618.341492
593.542866	8564.146568
593.894639	8466.532185
594.246358	8516.505143
594.598022	8527.671299
594.949633	8424.569620
595.301190	8407.011282
595.652692	8436.219727
596.004141	8540.276704
596.355535	8320.210174
596.706876	8302.850961
597.058162	8237.608348
597.409395	8310.238772
597.760573	8371.289665
598.111698	8280.430429
598.462768	8267.567925
598.813785	8234.152637
599.164748	8200.598717
599.515657	8188.159670
599.866511	8102.477698
600.217312	8231.813541
600.568060	8091.717355
600.918753	8191.252418
601.269392	8159.145309
601.619978	8073.836383
601.970510	8137.460785
602.320988	8132.654045
602.671412	8190.992798
603.021783	8122.170966
603.372100	8097.363448
603.722363	8105.290662
604.072572	8073.450734
604.422728	8094.283303
604.772830	8015.386724
605.122878	8026.510030
605.472872	8023.036675
605.822813	8048.749081
606.172701	7991.859659
606.522534	8068.454951
606.872314	8069.143068
607.222041	8041.441928
607.571714	8093.542253
607.921333	8049.457363
608.270899	8061.268786
608.620411	8146.368504
608.969870	8054.397693
609.319276	8050.284112
609.668627	8062.007315
610.017926	8099.611802
610.367171	8140.490519
610.716362	8122.821275
611.065500	8113.694266
611.414585	8138.148903
611.763616	8120.898074
612.112594	8112.496992
612.461518	8126.960062
612.810389	8181.467538
613.159207	8123.950493
613.507971	8069.067451
613.856682	8191.605298
614.205340	8144.853637
614.553945	8228.995536
614.902496	8127.224722
615.250994	8176.945623
615.599439	8156.954927
615.947830	8174.004110
616.296169	8148.884040
616.644454	8155.024165
616.992686	8159.147829
617.340864	8215.207981
617.688990	8115.889688
618.037063	8204.286321
618.385082	8158.792428
618.733048	8242.551199
619.080961	8178.674739
619.428821	8197.523613
619.776628	8201.929581
620.124382	8152.052405
620.472083	8136.129921
620.819731	8165.882811
621.167326	8058.344917
621.514868	8071.406547
621.862357	7954.081252
622.209793	7974.644119
622.557176	7905.250116
622.904506	7878.723564
623.251783	7810.589849
623.599007	7770.023684
623.946179	7766.782223
624.293297	7727.932570
624.640363	7648.141187
624.987376	7628.896582
625.334336	7577.776762
625.681243	7526.225923
626.028097	7514.535487
626.374899	7491.918350
626.721647	7485.178327
627.068343	7417.221053
627.414987	7385.481948
627.761577	7343.433684
628.108115	7381.476752
628.454600	7279.065711
628.801032	7329.870460
629.147412	7284.432020
629.493739	7275.738550
629.840014	7210.853859
630.186236	7269.152282
630.532405	7155.617936
630.878521	7201.121911
631.224585	7158.869480
631.570597	7089.694767
631.916556	7119.886237
632.262462	7116.307018
632.608316	7075.264464
632.954117	7051.641617
633.299866	7043.600977
633.645562	7027.764192
633.991206	6949.414579
634.336797	6897.117649
634.682336	6855.908737
635.027823	6818.974723
635.373257	6813.409289
635.718639	6743.483444
636.063968	6755.632625
636.409245	6655.666544
636.754470	6643.330841
637.099642	6606.890860
637.444762	6553.086625
637.789829	6558.551236
638.134845	6505.422516
638.479808	6488.809393
638.824719	6493.885835
639.169577	6418.936480
639.514383	6443.292815
639.859137	6371.146342
640.203839	6380.248145
640.548489	6367.282297
