Dividing Wavelength (nm)	Counts (n)	Blue Motor Position (mm): 35.900000	Red Motor Position (mm): 0.000000	
326.493990	2130.258025
326.888308	2130.258025
327.282561	2130.258025
327.676750	2099.658221
328.070874	2098.513879
328.464933	2098.133272
328.858929	2107.421598
329.252859	2115.575664
329.646726	2128.470936
330.040528	2139.929478
330.434265	2157.591161
330.827938	2174.262257
331.221547	2191.424865
331.615091	2212.305324
332.008571	2228.752089
332.401986	2253.451222
332.795338	2270.427308
333.188625	2289.359361
333.581847	2308.427525
333.975006	2325.950576
334.368100	2345.573267
334.761129	2363.320649
335.154095	2376.115098
335.546996	2400.816752
335.939833	2426.176276
336.332606	2441.990376
336.725315	2452.493620
337.117960	2462.412090
337.510540	2469.106742
337.903056	2481.097127
338.295508	2490.561893
338.687896	2497.778305
339.080220	2506.393637
339.472480	2513.582322
339.864676	2514.633403
340.256807	2519.183044
340.648875	2522.270751
341.040879	2528.370547
341.432818	2529.613191
341.824694	2530.197965
342.216506	2528.801566
342.608253	2531.385157
342.999937	2529.651000
343.391557	2531.919519
343.783113	2528.859539
344.174605	2526.714528
344.566033	2527.959693
344.957397	2525.534898
345.348697	2521.413755
345.739934	2522.815195
346.131106	2519.266223
346.522215	2517.224556
346.913260	2516.644823
347.304241	2514.504853
347.695159	2511.865809
348.086012	2512.196005
348.476802	2510.804646
348.867528	2510.877743
349.258191	2508.006806
349.648789	2504.445231
350.039324	2500.286279
350.429796	2500.510610
350.820203	2500.238388
351.210548	2499.870384
351.600828	2497.395177
351.991045	2495.691267
352.381198	2499.036073
352.771288	2497.067502
353.161314	2498.993223
353.551276	2498.015239
353.941175	2495.731596
354.331010	2497.480877
354.720782	2497.027173
355.110490	2496.555825
355.500135	2498.668068
355.889717	2496.578510
356.279235	2499.197390
356.668689	2496.765033
357.058080	2496.626401
357.447408	2494.897285
357.836672	2494.090701
358.225873	2494.914929
358.615010	2497.271669
359.004084	2497.987513
359.393095	2499.789725
359.782043	2499.562873
360.170927	2499.807369
360.559748	2500.719818
360.948505	2501.115549
361.337199	2501.904489
361.725830	2502.746362
362.114398	2504.548574
362.502903	2501.319715
362.891344	2506.224758
363.279722	2503.472288
363.668037	2505.516476
364.056289	2503.983965
364.444478	2507.449758
364.832603	2505.675272
365.220665	2504.916579
365.608665	2508.889008
365.996601	2507.177536
366.384474	2509.075531
366.772284	2509.625016
367.160031	2509.395644
367.547715	2509.325068
367.935336	2507.454800
368.322893	2511.424708
368.710388	2509.168792
369.097820	2513.688186
369.485189	2511.099554
369.872495	2512.415295
370.259738	2511.396982
370.646918	2509.884636
371.034035	2517.290091
371.421090	2514.986283
371.808081	2511.838083
372.195010	2513.642816
372.581875	2511.943947
372.968678	2515.939062
373.355418	2512.458145
373.742096	2516.377642
374.128710	2516.838908
374.515262	2516.392765
374.901751	2516.513753
375.288177	2516.680111
375.674540	2516.755728
376.060841	2515.916376
376.447079	2514.903104
376.833254	2515.180368
377.219367	2514.376304
377.605417	2515.896212
377.991404	2514.262878
378.377329	2513.962929
378.763191	2512.327075
379.148991	2518.802437
379.534727	2516.755728
379.920402	2518.671367
380.306013	2517.615245
380.691563	2518.996521
381.077049	2517.670698
381.462474	2520.670184
381.847835	2518.706655
382.233134	2519.535925
382.618371	2520.796213
383.003545	2522.096831
383.388657	2521.307890
383.773706	2521.164218
384.158693	2520.849145
384.543618	2522.217819
384.928480	2522.550535
385.313280	2523.483148
385.698017	2523.513395
386.082692	2524.992974
386.467305	2523.168076
386.851856	2526.112110
387.236344	2525.290402
387.620770	2525.166894
388.005133	2525.113962
388.389435	2526.986750
388.773674	2527.122861
389.157851	2526.991791
389.541965	2525.489528
389.926018	2526.606143
390.310008	2528.549508
390.693936	2529.489683
391.077802	2525.597912
391.461606	2529.018335
391.845348	2528.776360
392.229027	2531.864067
392.612645	2527.062368
392.996200	2533.293234
393.379694	2530.588655
393.763125	2531.054961
394.146494	2534.177956
394.529801	2533.338604
394.913047	2535.022349
395.296230	2532.441279
395.679351	2531.879190
396.062410	2534.346835
396.445408	2536.360776
396.828343	2538.036959
397.211217	2534.898841
397.594028	2535.970086
397.976778	2534.152750
398.359466	2535.965045
398.742092	2536.058307
399.124656	2539.347659
399.507158	2540.877650
399.889598	2543.947712
400.271977	2547.635316
400.654294	2550.949875
401.036549	2551.726213
401.418742	2556.298539
401.800874	2565.206258
402.182944	2568.906465
402.564952	2575.835531
402.946898	2587.939341
403.328783	2598.407297
403.710606	2604.106322
404.092367	2623.287912
404.474067	2630.529530
404.855705	2646.779689
405.237282	2654.457366
405.618797	2677.510563
406.000250	2695.900692
406.381642	2722.049157
406.762972	2738.589183
407.144240	2757.125506
407.525447	2776.780964
407.906593	2808.368834
408.287677	2833.935046
408.668700	2849.209742
409.049661	2882.405740
409.430560	2918.691966
409.811399	2935.728545
410.192176	2991.476145
410.572891	3007.345697
410.953545	3064.993812
411.334138	3069.399781
411.714669	3119.158490
412.095139	3125.510343
412.475547	3201.430120
412.855894	3228.838874
413.236180	3272.449896
413.616405	3292.846404
413.996568	3360.773432
414.376670	3381.696741
414.756711	3400.898496
415.136691	3452.661063
415.516609	3529.059750
415.896466	3580.590425
416.276262	3641.371617
416.655997	3675.321267
417.035670	3802.998571
417.415283	3896.068353
417.794834	3912.968821
418.174324	3933.251904
418.553753	3922.350408
418.933121	4073.947987
419.312428	4160.403775
419.691674	4175.655786
420.070859	4294.306904
420.449983	4286.324237
420.829045	4406.424686
421.208047	4388.425246
421.586988	4479.050069
421.965867	4531.997308
422.344686	4673.827651
422.723444	4606.056899
423.102141	4506.892362
423.480777	4771.121920
423.859352	4631.988594
424.237866	4869.870562
424.616319	4899.668822
424.994712	5022.584756
425.373044	4956.948933
425.751314	5107.558445
426.129524	4975.928877
426.507673	5173.912633
426.885762	5267.983084
427.263789	5243.742696
427.641756	5159.139531
428.019662	5290.461589
428.397508	5320.373275
428.775292	5297.710768
429.153016	5408.452315
429.530679	5360.329461
429.908282	5458.281601
430.285824	5355.497515
430.663305	5630.094206
431.040726	5394.427825
431.418086	5412.132358
431.795385	5525.250809
432.172624	5546.917688
432.549802	5551.379109
432.926920	5575.649744
433.303977	5592.225058
433.680974	5634.066635
434.057910	5665.644423
434.434786	5677.337379
434.811601	5649.976517
435.188355	5882.623246
435.565050	5765.141676
435.941683	5754.479636
436.318257	5969.331092
436.694770	5955.457837
437.071222	5997.349825
437.447614	5931.116626
437.823946	5846.135375
438.200218	5998.731102
438.576429	5869.029775
438.952580	5969.535259
439.328670	6014.966138
439.704700	5924.714360
440.080670	5913.613739
440.456580	6184.331263
440.832429	6065.864147
441.208218	5916.956024
441.583947	6070.151649
441.959616	6069.743315
442.335224	6004.488099
442.710773	6138.983563
443.086261	6164.388458
443.461689	5961.998734
443.837057	6110.843842
444.212365	6263.507625
444.587612	6158.702037
444.962800	6311.638041
445.337927	6290.419825
445.712995	5903.415485
446.088002	6478.507795
446.462949	6313.203320
446.837837	6243.726137
447.212664	6415.379946
447.587431	6560.413942
447.962139	7104.477951
448.336786	8019.588526
448.711374	7760.667303
449.085901	6834.556930
449.460369	6763.015395
449.834776	6695.945364
450.209124	7088.207627
450.583412	7241.161276
450.957640	7379.871144
451.331808	7151.181721
451.705917	6702.226641
452.079965	6628.078830
452.453954	6835.355953
452.827883	6707.580347
453.201752	6805.078783
453.575562	6607.896571
453.949311	6813.429454
454.323001	6699.968204
454.696632	6774.350429
455.070202	6915.139774
455.443713	7068.642909
455.817164	7167.157137
456.190556	7254.653924
456.563888	7322.671692
456.937160	7364.102415
457.310373	7021.619026
457.683526	7047.028962
458.056619	6938.538290
458.429653	6929.312978
458.802628	6863.104984
459.175542	6971.731767
459.548398	7326.918864
459.921194	7487.923236
460.293930	7482.206567
460.666607	8015.023761
461.039224	8327.532450
461.411782	8452.563148
461.784280	8468.616702
462.156719	8356.851801
462.529099	8234.611382
462.901419	7827.520565
463.273680	7719.413020
463.645882	7728.290492
464.018024	7600.693847
464.390106	7764.463292
464.762130	8151.424782
465.134094	8625.809961
465.505999	9642.056165
465.877845	10866.436488
466.249631	11510.839622
466.621358	11124.306631
466.993026	10487.765176
467.364634	10233.343182
467.736184	9876.164829
468.107674	9542.523624
468.479105	9572.765506
468.850477	9336.935287
469.221790	9107.923230
469.593043	8785.354919
469.964238	8649.929362
470.335373	8650.277202
470.706449	8715.406389
471.077467	8695.483749
471.448425	10011.187094
471.819324	11073.779146
472.190164	11092.711199
472.560945	9841.035549
472.931667	9063.248525
473.302330	8931.092156
473.672934	8574.690141
474.043479	8932.871683
474.413965	8875.226089
474.784393	8752.108509
475.154761	8912.800329
475.525070	9000.745779
475.895321	8827.405704
476.265513	9004.181325
476.635645	9171.295575
477.005719	9168.389350
477.375734	9285.601218
477.745691	9514.484726
478.115588	9659.014607
478.485427	9896.253827
478.855207	10430.921125
479.224928	11252.220868
479.594591	11869.800023
479.964194	11680.126610
480.333739	11625.604010
480.703226	11539.370033
481.072653	11621.697116
481.442022	11862.598735
481.811333	12055.100236
482.180584	11855.999864
482.549777	11569.317007
482.918912	11398.673949
483.287988	11412.882441
483.657005	11425.850810
484.025964	11112.454878
484.394864	11240.734599
484.763706	11207.057171
485.132489	10966.929369
485.501213	10935.066756
485.869879	11011.102480
486.238487	10847.564928
486.607036	10961.371497
486.975527	10746.429300
487.343959	10929.176168
487.712333	10984.336473
488.080648	10911.005329
488.448905	10955.969901
488.817104	10896.663246
489.185244	11163.577219
489.553326	11323.611168
489.921350	11858.754855
490.289315	12916.993870
490.657222	13250.882092
491.025070	13162.944205
491.392861	13034.498125
491.760593	12657.006443
492.128267	12304.486116
492.495883	11977.118627
492.863440	11644.059674
493.230939	11305.853704
493.598380	11239.567572
493.965763	11105.939187
494.333088	11013.580207
494.700354	10932.422671
495.067563	10989.314613
495.434713	10819.077368
495.801805	10951.168202
496.168839	10880.944929
496.535815	10803.127157
496.902733	10808.508589
497.269593	10740.001829
497.636395	10838.238794
498.003139	10834.863741
498.369825	10699.584378
498.736453	10852.734632
499.103023	10781.694692
499.469535	10812.876749
499.835989	10800.210850
500.202385	10765.948648
500.568723	10613.007602
500.935003	10837.409524
501.301226	10643.025152
501.667390	10900.073587
502.033497	11001.000008
502.399546	10856.651608
502.765537	10771.264544
503.131470	10833.648823
503.497345	11014.306133
503.863163	10624.249375
504.228923	10935.714545
504.594625	10995.679070
504.960269	10749.459033
505.325856	10961.260592
505.691385	10760.967988
506.056856	10911.285113
506.422270	10933.690521
506.787625	10824.388224
507.152924	10947.399939
507.518164	10927.570561
507.883347	10839.695687
508.248472	10764.816909
508.613540	11001.514205
508.978550	10877.393436
509.343503	10855.172030
509.708398	10973.092180
510.073236	11094.944430
510.438016	11093.056518
510.802738	11047.418952
511.167403	11099.652868
511.532010	10990.206897
511.896561	11223.488812
512.261053	11288.471806
512.625488	11164.315748
512.989866	11144.869497
513.354186	11135.487910
513.718449	11044.618591
514.082655	11228.439225
514.446803	11121.269335
514.810894	11247.920764
515.174927	11115.870260
515.538904	11137.627880
515.902822	11288.416353
516.266684	11175.877634
516.630488	11117.090219
516.994235	11176.545587
517.357925	11234.027344
517.721558	11326.903042
518.085133	11336.289670
518.448651	11346.636639
518.812112	11233.193033
519.175516	11246.350445
519.538863	11365.644309
519.902152	11285.951229
520.265385	11444.999632
520.628560	11359.975532
520.991678	11330.757004
521.354739	11404.420865
521.717743	11332.569299
522.080690	11313.778398
522.443580	11442.494179
522.806413	11398.207642
523.169189	11433.281470
523.531908	11487.972948
523.894569	11310.872173
524.257174	11314.257307
524.619722	11432.873137
524.982213	11376.797862
525.344647	11426.375090
525.707025	11377.183510
526.069345	11478.556073
526.431608	11394.162117
526.793815	11502.975422
527.155964	11289.684203
527.518057	11341.741678
527.880093	11288.587752
528.242072	11364.321006
528.603995	11265.302662
528.965860	11191.840448
529.327669	11239.335679
529.689421	11192.019409
530.051117	11156.799388
530.412755	11266.205029
530.774337	11157.200159
531.135862	11141.370936
531.497331	11156.504480
531.858743	11008.808755
532.220098	11169.792962
532.581396	11046.322501
532.942638	11029.648885
533.303824	10994.360808
533.664953	11011.044507
534.026025	10927.323544
534.387040	11022.755107
534.747999	11030.619307
535.108902	11086.974366
535.469748	10840.782056
535.830537	10946.757192
536.191270	10927.459655
536.551947	10947.374733
536.912567	10947.856164
537.273131	10870.729030
537.633638	10848.552995
537.994089	10836.882723
538.354483	10788.215424
538.714821	10935.281005
539.075103	10944.438261
539.435328	10902.609287
539.795497	10736.220963
540.155609	10887.400126
540.515665	10977.316667
540.875665	10713.455113
541.235609	10785.639395
541.595496	10777.886100
541.955328	10931.656416
542.315102	10812.354989
542.674821	10768.761612
543.034483	10772.867631
543.394090	10769.101889
543.753640	10695.702689
544.113134	10923.275498
544.472571	10773.316294
544.831953	10920.777606
545.191278	10721.841072
545.550548	10748.047510
545.909761	10894.702238
546.268918	10859.991373
546.628019	10944.002202
546.987064	10811.558487
547.346053	10739.674154
547.704986	10833.137146
548.063863	10822.684314
548.422684	10815.470423
548.781449	10734.144008
549.140158	10828.766466
549.498811	10703.697959
549.857408	10563.485827
550.215949	10791.782041
550.574434	10650.652418
550.932864	10745.615154
551.291237	10804.009359
551.649555	10754.628737
552.007817	10759.732905
552.366022	10727.051105
552.724173	10721.215969
553.082267	10705.016221
553.440305	10845.273724
553.798288	10640.204627
554.156215	10795.532659
554.514086	10767.521488
554.871902	10623.036977
555.229661	10658.960240
555.587365	10634.576178
555.945014	10530.667915
556.302606	10658.866978
556.660143	10548.281707
557.017625	10705.548063
557.375050	10606.406211
557.732421	10732.475386
558.089735	10648.855247
558.446994	10646.753086
558.804197	10688.191370
559.161345	10690.646412
559.518437	10535.388956
559.875474	10621.350711
560.232455	10654.534107
560.589381	10603.653741
560.946251	10603.946128
561.303065	10709.046624
561.659825	10648.313323
562.016528	10576.670965
562.373177	10454.780906
562.729770	10568.272402
563.086307	10490.023612
563.442789	10577.550646
563.799216	10459.118819
564.155587	10502.439974
564.511904	10460.616042
564.868164	10452.774527
565.224370	10464.843049
565.580520	10390.307069
565.936615	10394.183716
566.292654	10267.804510
566.648638	10397.221011
567.004567	10353.728457
567.360441	10341.150778
567.716260	10249.270708
568.072023	10344.354431
568.427732	10292.470876
568.783385	10202.304798
569.138982	10274.176528
569.494525	10285.279670
569.850013	10169.038224
570.205445	10245.555377
570.560823	10145.632146
570.916145	10060.555113
571.271412	10129.596236
571.626625	10070.035003
571.981782	10043.158092
572.336884	10027.414568
572.691931	10030.048571
573.046923	9969.597575
573.401860	9927.418240
573.756743	9866.851298
574.111570	9914.013812
574.466342	9895.550586
574.821059	9926.833467
575.175722	9821.475872
575.530330	9821.294390
575.884882	9821.465789
576.239380	9749.412577
576.593823	9727.730575
576.948211	9737.820444
577.302544	9626.801634
577.656823	9633.362695
578.011047	9634.988467
578.365216	9608.471998
578.719330	9538.253766
579.073389	9545.039159
579.427394	9493.631993
579.781344	9471.713056
580.135239	9423.759080
580.489080	9429.236294
580.842866	9327.173093
581.196597	9334.326490
581.550273	9379.792657
581.903895	9351.017751
582.257463	9410.485722
582.610975	9287.108523
582.964434	9315.243202
583.317837	9237.349814
583.671186	9218.493378
584.024481	9220.512360
584.377721	9134.520358
584.730906	9106.882232
585.084037	9140.100915
585.437113	9080.542203
585.790135	9100.535419
586.143103	8994.855190
586.496016	8969.662024
586.848874	9025.833081
587.201679	9018.777986
587.554428	8903.859843
587.907124	8948.234600
588.259765	8921.844159
588.612352	8924.989839
588.964884	8799.301271
589.317362	8814.200401
589.669786	8811.614289
590.022155	8869.272486
590.374470	8878.911172
590.726731	8821.462183
591.078937	8667.918719
591.431090	8784.402141
591.783188	8657.508737
592.135232	8644.716809
592.487222	8642.644895
592.839157	8700.809728
593.191038	8624.292574
593.542866	8578.385307
593.894639	8480.259247
594.246358	8524.681895
594.598022	8543.271149
594.949633	8445.437477
595.301190	8415.238445
595.652692	8450.496275
596.004141	8558.792862
596.355535	8337.773554
596.706876	8316.318403
597.058162	8248.915656
597.409395	8320.913415
597.760573	8380.262919
598.111698	8293.718911
598.462768	8280.465717
598.813785	8250.503619
599.164748	8217.789051
599.515657	8204.240950
599.866511	8113.442208
600.217312	8241.530365
600.568060	8104.801670
600.918753	8205.327319
601.269392	8175.224069
601.619978	8082.436591
601.970510	8150.086355
602.320988	8152.803537
602.671412	8207.736991
603.021783	8139.946074
603.372100	8108.199408
603.722363	8111.151003
604.072572	8093.731296
604.422728	8097.436544
604.772830	8029.380968
605.122878	8034.321298
605.472872	8031.437758
605.822813	8060.011018
606.172701	8007.547730
606.522534	8082.799554
606.872314	8082.285357
607.222041	8053.069349
607.571714	8109.323585
607.921333	8063.040752
608.270899	8072.301351
608.620411	8159.147829
608.969870	8064.338849
609.319276	8065.808345
609.668627	8073.170950
610.017926	8111.496322
610.367171	8154.885534
610.716362	8132.084395
611.065500	8125.533415
611.414585	8152.581726
611.763616	8138.743759
612.112594	8128.124568
612.461518	8137.942216
612.810389	8196.729631
613.159207	8135.489694
613.507971	8085.259637
613.856682	8207.437042
614.205340	8158.459712
614.553945	8244.184533
614.902496	8137.813666
615.250994	8191.479269
615.599439	8173.618461
615.947830	8189.016666
616.296169	8159.286461
616.644454	8168.506731
616.992686	8169.719129
617.340864	8233.827482
617.688990	8131.429045
618.037063	8223.160401
618.385082	8167.785846
618.733048	8258.430834
619.080961	8197.556380
619.428821	8219.445070
619.776628	8220.775935
620.124382	8168.433635
620.472083	8148.432857
620.819731	8178.218514
621.167326	8077.493740
621.514868	8079.986590
621.862357	7969.653377
622.209793	7984.958320
622.557176	7920.020697
622.904506	7893.922643
623.251783	7820.588978
623.599007	7779.271681
623.946179	7782.235880
624.293297	7742.541834
624.640363	7657.300964
624.987376	7642.790003
625.334336	7588.595078
625.681243	7532.572735
626.028097	7520.864656
626.374899	7500.546285
626.721647	7494.617888
627.068343	7427.799914
627.414987	7398.737663
627.761577	7358.965479
628.108115	7389.098976
628.454600	7284.497555
628.801032	7340.048549
629.147412	7292.565921
629.493739	7284.903367
629.840014	7229.261632
630.186236	7280.671319
630.532405	7162.393247
630.878521	7214.967440
631.224585	7169.997827
631.570597	7097.485870
631.916556	7127.621888
632.262462	7126.553163
632.608316	7082.707728
632.954117	7067.949750
633.299866	7055.538429
633.645562	7040.389762
633.991206	6962.887063
634.336797	6906.567292
634.682336	6860.415528
635.027823	6830.584501
635.373257	6818.074877
635.718639	6752.328149
636.063968	6765.951867
636.409245	6663.898749
636.754470	6656.919271
637.099642	6617.510051
637.444762	6560.277831
637.789829	6571.141518
638.134845	6512.056674
638.479808	6499.390775
638.824719	6500.220045
639.169577	6433.079437
639.514383	6450.496624
639.859137	6377.926694
640.203839	6387.078909
640.548489	6372.290684
