Dividing Wavelength (nm)	Counts (n)	Blue Motor Position (mm): 43.000000	Red Motor Position (mm): 0.000000	
326.493990	2130.210134
326.888308	2130.210134
327.282561	2130.210134
327.676750	2096.631008
328.070874	2095.138827
328.464933	2098.498756
328.858929	2105.198449
329.252859	2116.467948
329.646726	2126.512448
330.040528	2139.881588
330.434265	2155.854483
330.827938	2173.450631
331.221547	2191.840760
331.615091	2209.063862
332.008571	2229.906513
332.401986	2247.986611
332.795338	2266.112080
333.188625	2289.177879
333.581847	2305.599438
333.975006	2327.089877
334.368100	2343.498833
334.761129	2359.680936
335.154095	2379.505274
335.546996	2397.519837
335.939833	2424.033786
336.332606	2437.811259
336.725315	2450.656119
337.117960	2461.096349
337.510540	2471.070272
337.903056	2481.371870
338.295508	2485.787920
338.687896	2496.449961
339.080220	2506.033194
339.472480	2512.374966
339.864676	2517.889988
340.256807	2520.012314
340.648875	2524.398118
341.040879	2522.177489
341.432818	2527.490866
341.824694	2527.964734
342.216506	2530.313912
342.608253	2529.061185
342.999937	2529.260311
343.391557	2526.117151
343.783113	2527.027079
344.174605	2524.987933
344.566033	2527.531195
344.957397	2522.865607
345.348697	2520.559279
345.739934	2521.015503
346.131106	2518.714217
346.522215	2519.261182
346.913260	2515.071983
347.304241	2514.237672
347.695159	2512.737929
348.086012	2508.604183
348.476802	2509.022598
348.867528	2507.984121
349.258191	2500.866012
349.648789	2506.358349
350.039324	2503.237874
350.429796	2503.353821
350.820203	2500.200579
351.210548	2500.661845
351.600828	2497.932060
351.991045	2499.527585
352.381198	2497.536329
352.771288	2498.327791
353.161314	2497.238901
353.551276	2495.146823
353.941175	2498.252173
354.331010	2494.466267
354.720782	2495.303098
355.110490	2496.059271
355.500135	2498.446258
355.889717	2495.824858
356.279235	2497.669920
356.668689	2495.174549
357.058080	2499.159581
357.447408	2497.276710
357.836672	2496.933912
358.225873	2496.865856
358.615010	2496.039107
359.004084	2499.058758
359.393095	2499.668737
359.782043	2500.069509
360.170927	2500.434993
360.559748	2501.009684
360.948505	2502.620333
361.337199	2506.958246
361.725830	2504.631753
362.114398	2506.693585
362.502903	2503.653770
362.891344	2503.789881
363.279722	2508.004285
363.668037	2506.406240
364.056289	2507.376662
364.444478	2507.981600
364.832603	2508.273987
365.220665	2508.533607
365.608665	2507.129645
365.996601	2510.509739
366.384474	2513.030316
366.772284	2513.700789
367.160031	2513.274812
367.547715	2511.747342
367.935336	2512.868999
368.322893	2510.189626
368.710388	2510.126611
369.097820	2516.518794
369.485189	2512.198525
369.872495	2513.877230
370.259738	2515.775224
370.646918	2514.255316
371.034035	2514.882940
371.421090	2515.727333
371.808081	2516.251613
372.195010	2518.994001
372.581875	2516.541479
372.968678	2519.319155
373.355418	2518.134484
373.742096	2516.032323
374.128710	2518.575585
374.515262	2520.040040
374.901751	2520.405524
375.288177	2519.566172
375.674540	2521.633045
376.060841	2520.806296
376.447079	2519.598939
376.833254	2522.830319
377.219367	2518.678929
377.605417	2520.380318
377.991404	2520.624814
378.377329	2521.756553
378.763191	2522.883251
379.148991	2529.610671
379.534727	2529.971113
379.920402	2536.736342
380.306013	2537.978986
380.691563	2547.413506
381.077049	2550.972560
381.462474	2559.355999
381.847835	2568.707339
382.233134	2578.081365
382.618371	2588.594691
383.003545	2607.259563
383.388657	2618.282046
383.773706	2631.247894
384.158693	2644.468320
384.543618	2664.181752
384.928480	2682.460976
385.313280	2705.095757
385.698017	2719.107644
386.082692	2747.958167
386.467305	2768.967176
386.851856	2794.092287
387.236344	2818.254537
387.620770	2848.924917
388.005133	2878.798795
388.389435	2913.287849
388.773674	2938.901952
389.157851	2981.000627
389.541965	3011.232427
389.926018	3019.477234
390.310008	3077.120308
390.693936	3107.873867
391.077802	3161.589882
391.461606	3179.528827
391.845348	3240.088209
392.229027	3270.872015
392.612645	3303.921819
392.996200	3374.719784
393.379694	3429.401180
393.763125	3498.522961
394.146494	3508.111235
394.529801	3581.545723
394.913047	3643.952687
395.296230	3644.408912
395.679351	3709.984241
396.062410	3757.202208
396.445408	3772.744086
396.828343	3820.264522
397.211217	3866.123899
397.594028	3821.812157
397.976778	3899.584558
398.359466	3940.632153
398.742092	3987.955985
399.124656	3934.285340
399.507158	4025.424361
399.889598	4058.645564
400.271977	4135.097183
400.654294	4120.891212
401.036549	4143.125221
401.418742	4126.675936
401.800874	4236.908326
402.182944	4266.078963
402.564952	4334.058923
402.946898	4329.421061
403.328783	4335.530939
403.710606	4257.108230
404.092367	4455.074341
404.474067	4421.858178
404.855705	4432.447122
405.237282	4367.358264
405.618797	4479.778516
406.000250	4519.200339
406.381642	4600.206640
406.762972	4565.324376
407.144240	4578.610337
407.525447	4579.684102
407.906593	4638.063185
408.287677	4680.955842
408.668700	4614.357159
409.049661	4666.719624
409.430560	4701.818657
409.811399	4632.404489
410.192176	4797.076300
410.572891	4737.212598
410.953545	4839.991643
411.334138	4719.414805
411.714669	4785.784116
412.095139	4682.100184
412.475547	4824.936237
412.855894	4803.551662
413.236180	4810.453002
413.616405	4768.810551
413.996568	4858.429663
414.376670	4800.322803
414.756711	4752.121811
415.136691	4785.605155
415.516609	4859.445456
415.896466	4901.362650
416.276262	4935.551755
416.655997	4917.075927
417.035670	5101.592240
417.415283	5185.550136
417.794834	5133.686746
418.174324	5087.678655
418.553753	4997.106764
418.933121	5180.214075
419.312428	5246.830403
419.691674	5185.701371
420.070859	5309.701153
420.449983	5222.350559
420.829045	5345.836143
421.208047	5246.054065
421.586988	5318.588707
421.965867	5331.511705
422.344686	5461.157579
422.723444	5311.760464
423.102141	5134.548783
423.480777	5431.520635
423.859352	5202.349782
424.237866	5458.558864
424.616319	5454.505776
424.994712	5560.085182
425.373044	5433.189257
425.751314	5581.104273
426.129524	5385.184870
426.507673	5582.840950
426.885762	5661.987066
427.263789	5594.740594
427.641756	5480.266072
428.019662	5595.015337
428.397508	5606.015135
428.775292	5548.924067
429.153016	5650.662114
429.530679	5575.911884
429.908282	5661.656870
430.285824	5529.568557
430.663305	5806.060722
431.040726	5543.310742
431.418086	5542.859559
431.795385	5649.525333
432.172624	5659.463968
432.549802	5652.136651
432.926920	5665.689793
433.303977	5677.584396
433.680974	5713.520261
434.057910	5732.391820
434.434786	5738.105968
434.811601	5708.123706
435.188355	5941.284633
435.565050	5809.944931
435.941683	5797.329444
436.318257	6003.953737
436.694770	5994.836810
437.071222	6027.916862
437.447614	5958.837931
437.823946	5873.944900
438.200218	6026.328898
438.576429	5889.953084
438.952580	5991.991079
439.328670	6034.417430
439.704700	5943.089366
440.080670	5930.360453
440.456580	6199.429518
440.832429	6081.179173
441.208218	5932.563437
441.583947	6081.479121
441.959616	6088.914823
442.335224	6013.141240
442.710773	6153.189535
443.086261	6180.643659
443.461689	5970.835877
443.837057	6124.238188
444.212365	6279.228463
444.587612	6172.300549
444.962800	6321.427962
445.337927	6300.459283
445.712995	5914.102731
446.088002	6495.163768
446.462949	6327.681513
446.837837	6251.799545
447.212664	6424.690957
447.587431	6571.534728
447.962139	7117.219467
448.336786	8036.393212
448.711374	7775.016947
449.085901	6852.397573
449.460369	6774.544514
449.834776	6708.981788
450.209124	7102.141376
450.583412	7247.782831
450.957640	7395.886890
451.331808	7158.377968
451.705917	6714.958075
452.079965	6632.867926
452.453954	6847.424475
452.827883	6719.424538
453.201752	6811.702859
453.575562	6617.192458
453.949311	6819.385577
454.323001	6705.291663
454.696632	6778.648013
455.070202	6918.545073
455.443713	7072.892601
455.817164	7178.681215
456.190556	7257.330777
456.563888	7334.636871
456.937160	7381.577575
457.310373	7037.617127
457.683526	7056.463481
458.056619	6948.774352
458.429653	6938.835718
458.802628	6872.594956
459.175542	6983.396997
459.548398	7335.350194
459.921194	7490.524471
460.293930	7497.824062
460.666607	8025.869804
461.039224	8338.043256
461.411782	8455.224877
461.784280	8473.405798
462.156719	8371.703040
462.529099	8249.810461
462.901419	7834.857964
463.273680	7728.245122
463.645882	7747.537618
464.018024	7616.823019
464.390106	7775.858820
464.762130	8165.885331
465.134094	8629.900858
465.505999	9653.754163
465.877845	10874.411593
466.249631	11529.915348
466.621358	11139.896399
466.993026	10509.411890
467.364634	10251.816490
467.736184	9892.500688
468.107674	9557.372342
468.479105	9597.436912
468.850477	9361.667188
469.221790	9130.200089
469.593043	8800.856467
469.964238	8662.786825
470.335373	8674.555398
470.706449	8738.333556
471.077467	8717.405206
471.448425	10020.770327
471.819324	11091.892011
472.190164	11117.317071
472.560945	9875.635508
472.931667	9083.934899
473.302330	8950.072100
473.672934	8599.376671
474.043479	8951.944889
474.413965	8893.890961
474.784393	8779.769320
475.154761	8931.059388
475.525070	9023.352833
475.895321	8841.793157
476.265513	9020.925518
476.635645	9191.205612
477.005719	9188.319552
477.375734	9305.914547
477.745691	9543.995641
478.115588	9678.970014
478.485427	9921.222662
478.855207	10458.425660
479.224928	11271.846080
479.594591	11904.936865
479.964194	11713.131044
480.333739	11643.169911
480.703226	11570.325238
481.072653	11657.764051
481.442022	11898.345557
481.811333	12080.177455
482.180584	11884.719318
482.549777	11594.570667
482.918912	11417.129613
483.287988	11440.969230
483.657005	11452.442896
484.025964	11146.396967
484.394864	11264.309555
484.763706	11238.791234
485.132489	10999.880871
485.501213	10957.303286
485.869879	11033.593588
486.238487	10878.250432
486.607036	10989.281845
486.975527	10772.784452
487.343959	10964.360901
487.712333	11008.821358
488.080648	10933.534246
488.448905	10983.013171
488.817104	10919.008161
489.185244	11182.232009
489.553326	11341.560197
489.921350	11877.593647
490.289315	12943.311214
490.657222	13281.625569
491.025070	13195.633567
491.392861	13058.516703
491.760593	12687.623891
492.128267	12333.820591
492.495883	12012.633556
492.863440	11667.470793
493.230939	11329.806747
493.598380	11265.224525
493.965763	11137.650565
494.333088	11032.305573
494.700354	10956.612648
495.067563	11018.031546
495.434713	10847.577531
495.801805	10972.348610
496.168839	10898.624255
496.535815	10833.192599
496.902733	10833.767290
497.269593	10770.967116
497.636395	10871.379339
498.003139	10851.265135
498.369825	10718.347553
498.736453	10876.730524
499.103023	10805.017590
499.469535	10839.085708
499.835989	10825.729171
500.202385	10785.304158
500.568723	10637.389142
500.935003	10869.347754
501.301226	10665.450725
501.667390	10925.372618
502.033497	11028.859944
502.399546	10884.090609
502.765537	10792.734819
503.131470	10861.712927
503.497345	11034.380008
503.863163	10649.520679
504.228923	10964.809564
504.594625	11022.072031
504.960269	10776.651017
505.325856	10990.925262
505.691385	10781.006574
506.056856	10937.110944
506.422270	10963.113216
506.787625	10848.948725
507.152924	10965.941303
507.518164	10951.319436
507.883347	10873.274813
508.248472	10790.431011
508.613540	11027.942454
508.978550	10905.691953
509.343503	10885.333253
509.708398	11003.132416
510.073236	11120.815632
510.438016	11123.421908
510.802738	11070.071377
511.167403	11124.846034
511.532010	11026.523369
511.896561	11254.612896
512.261053	11323.147382
512.625488	11193.355315
512.989866	11177.137923
513.354186	11165.260964
513.718449	11061.146014
514.082655	11260.500963
514.446803	11151.823769
514.810894	11279.639704
515.174927	11137.133847
515.538904	11160.355922
515.902822	11318.401136
516.266684	11198.351098
516.630488	11147.904272
516.994235	11205.267561
517.357925	11263.134966
517.721558	11364.507529
518.085133	11362.218845
518.448651	11376.719724
518.812112	11257.972825
519.175516	11275.193406
519.538863	11399.402396
519.902152	11315.021042
520.265385	11471.974847
520.628560	11379.512523
520.991678	11360.151972
521.354739	11427.768969
521.717743	11358.984945
522.080690	11338.308653
522.443580	11476.038017
522.806413	11424.565315
523.169189	11458.547733
523.531908	11514.436486
523.894569	11332.231542
524.257174	11344.322749
524.619722	11461.471603
524.982213	11402.772407
525.344647	11456.995058
525.707025	11409.038562
526.069345	11503.787048
526.431608	11423.705799
526.793815	11534.694362
527.155964	11319.447175
527.518057	11371.681091
527.880093	11318.159161
528.242072	11385.350180
528.603995	11288.552464
528.965860	11215.102852
529.327669	11272.347675
529.689421	11219.869263
530.051117	11184.303923
530.412755	11291.488936
530.774337	11175.512151
531.135862	11158.571353
531.497331	11185.201248
531.858743	11031.970336
532.220098	11198.426716
532.581396	11068.309494
532.942638	11053.546475
533.303824	11017.534992
533.664953	11030.977229
534.026025	10944.702922
534.387040	11044.616071
534.747999	11051.842565
535.108902	11106.453384
535.469748	10864.508247
535.830537	10966.175717
536.191270	10945.111255
536.551947	10970.982457
536.912567	10968.224946
537.273131	10899.579554
537.633638	10873.811696
537.994089	10864.097393
538.354483	10811.470267
538.714821	10951.538727
539.075103	10961.694131
539.435328	10928.833370
539.795497	10757.464386
540.155609	10916.719477
540.515665	10999.366674
540.875665	10735.212733
541.235609	10808.243928
541.595496	10795.971239
541.955328	10953.414036
542.315102	10838.838691
542.674821	10785.220979
543.034483	10788.976638
543.394090	10796.873606
543.753640	10716.633560
544.113134	10941.758888
544.472571	10796.417382
544.831953	10942.326018
545.191278	10748.425597
545.550548	10778.367530
545.909761	10914.166133
546.268918	10891.261650
546.628019	10971.559669
546.987064	10835.975316
547.346053	10752.085475
547.704986	10856.795281
548.063863	10846.619712
548.422684	10829.631024
548.781449	10752.861812
549.140158	10852.641370
549.498811	10731.245345
549.857408	10587.542213
550.215949	10813.027983
550.574434	10677.085708
550.932864	10764.658112
551.291237	10828.547176
551.649555	10773.477611
552.007817	10782.967583
552.366022	10753.010526
552.724173	10742.955945
553.082267	10729.158307
553.440305	10862.307783
553.798288	10662.549541
554.156215	10825.217493
554.514086	10795.005858
554.871902	10643.975410
555.229661	10677.491521
555.587365	10657.052163
555.945014	10550.819928
556.302606	10677.146202
556.660143	10567.261651
557.017625	10728.475231
557.375050	10625.630651
557.732421	10759.737946
558.089735	10667.973823
558.446994	10672.094966
558.804197	10708.161901
559.161345	10704.202075
559.518437	10550.635926
559.875474	10645.308795
560.232455	10679.855822
560.589381	10627.112750
560.946251	10620.022367
561.303065	10727.010775
561.659825	10666.310242
562.016528	10593.001783
562.373177	10470.771446
562.729770	10589.581360
563.086307	10509.560604
563.442789	10599.013359
563.799216	10474.494338
564.155587	10524.127018
564.511904	10480.389967
564.868164	10473.143309
565.224370	10486.482202
565.580520	10407.910778
565.936615	10414.139124
566.292654	10288.309403
566.648638	10418.189691
567.004567	10374.803000
567.360441	10355.545792
567.716260	10265.478017
568.072023	10365.557524
568.427732	10319.118415
568.783385	10225.612573
569.138982	10291.359301
569.494525	10306.248349
569.850013	10188.736532
570.205445	10265.828377
570.560823	10171.452936
570.916145	10076.364172
571.271412	10153.236727
571.626625	10092.342109
571.981782	10070.357637
572.336884	10045.114059
572.691931	10049.701509
573.046923	9991.478703
573.401860	9945.493298
573.756743	9884.681859
574.111570	9932.988715
574.466342	9915.218648
574.821059	9940.580693
575.175722	9840.052524
575.530330	9851.483340
575.884882	9836.778294
576.239380	9762.431357
576.593823	9745.306558
576.948211	9757.654864
577.302544	9634.678437
577.656823	9651.762907
578.011047	9658.495368
578.365216	9623.905491
578.719330	9552.336230
579.073389	9566.010359
579.427394	9511.124797
579.781344	9485.150252
580.135239	9434.514382
580.489080	9445.657852
580.842866	9340.648097
581.196597	9356.298359
581.550273	9396.027693
581.903895	9362.700625
582.257463	9426.461139
582.610975	9314.003079
582.964434	9332.196603
583.317837	9250.829859
583.671186	9240.051872
584.024481	9232.371674
584.377721	9148.368407
584.730906	9129.849729
585.084037	9155.688163
585.437113	9094.745654
585.790135	9111.497408
586.143103	9013.799847
586.496016	8984.712389
586.848874	9047.434425
587.201679	9031.867342
587.554428	8912.742356
587.907124	8961.616342
588.259765	8935.427548
588.612352	8936.783619
588.964884	8809.580184
589.317362	8828.124068
589.669786	8828.741609
590.022155	8870.469760
590.374470	8889.348882
590.726731	8824.524684
591.078937	8684.917490
591.431090	8793.493862
591.783188	8665.259511
592.135232	8663.575765
592.487222	8661.471084
592.839157	8712.588384
593.191038	8642.014750
593.542866	8590.980629
593.894639	8486.595977
594.246358	8543.258547
594.598022	8562.177997
594.949633	8459.434240
595.301190	8435.022453
595.652692	8461.090259
596.004141	8572.716529
596.355535	8347.117333
596.706876	8327.456833
597.058162	8263.315712
597.409395	8344.964760
597.760573	8401.080364
598.111698	8309.782547
598.462768	8292.776215
598.813785	8260.749764
599.164748	8229.736586
599.515657	8218.199905
599.866511	8127.814537
600.217312	8253.850945
600.568060	8116.078731
600.918753	8217.080769
601.269392	8192.797531
601.619978	8103.647246
601.970510	8162.928695
602.320988	8159.669589
602.671412	8223.709887
603.021783	8149.748598
603.372100	8127.275134
603.722363	8127.471739
604.072572	8103.102801
604.422728	8107.554140
604.772830	8044.995942
605.122878	8052.421561
605.472872	8045.573154
605.822813	8078.799399
606.172701	8014.691045
606.522534	8089.489165
606.872314	8091.372036
607.222041	8067.789519
607.571714	8121.525698
607.921333	8078.431394
608.270899	8082.973474
608.620411	8170.462699
608.969870	8071.890497
609.319276	8070.514262
609.668627	8087.523115
610.017926	8120.146942
610.367171	8168.390785
610.716362	8146.925552
611.065500	8136.684448
611.414585	8159.422572
611.763616	8148.999987
612.112594	8130.186400
612.461518	8144.536045
612.810389	8210.862506
613.159207	8148.979822
613.507971	8100.390661
613.856682	8217.471459
614.205340	8168.773913
614.553945	8257.939321
614.902496	8151.550810
615.250994	8206.469140
615.599439	8183.778907
615.947830	8196.946401
616.296169	8169.943460
616.644454	8185.051798
616.992686	8182.264040
617.340864	8238.755210
617.688990	8144.949419
618.037063	8241.053976
618.385082	8182.803444
618.733048	8262.262111
619.080961	8208.520890
619.428821	8223.767860
619.776628	8229.537460
620.124382	8180.229935
620.472083	8161.549939
620.819731	8197.571504
621.167326	8087.306346
621.514868	8097.187007
621.862357	7984.736509
622.209793	7998.881987
622.557176	7928.593179
622.904506	7903.044611
623.251783	7832.501225
623.599007	7789.353989
623.946179	7792.522354
624.293297	7757.163701
624.640363	7668.061307
624.987376	7647.632031
625.334336	7599.035308
625.681243	7552.228194
626.028097	7535.254629
626.374899	7506.323447
626.721647	7509.350660
627.068343	7437.521780
627.414987	7408.527583
627.761577	7359.056220
628.108115	7403.433497
628.454600	7298.219575
628.801032	7343.645413
629.147412	7301.151006
629.493739	7293.987527
629.840014	7237.128352
630.186236	7286.803882
630.532405	7171.127046
630.878521	7219.534726
631.224585	7179.200454
631.570597	7103.232786
631.916556	7133.729246
632.262462	7129.005685
632.608316	7092.154850
632.954117	7068.577374
633.299866	7060.138482
633.645562	7056.818882
633.991206	6967.262784
634.336797	6912.513333
634.682336	6870.316355
635.027823	6830.791188
635.373257	6831.038204
635.718639	6763.156547
636.063968	6777.365039
636.409245	6670.434605
636.754470	6667.931672
637.099642	6625.490198
637.444762	6572.971457
637.789829	6583.479742
638.134845	6519.696543
638.479808	6503.990828
638.824719	6508.648854
639.169577	6433.797802
639.514383	6462.033305
639.859137	6385.574124
640.203839	6395.699282
640.548489	6382.004987
