Dividing Wavelength (nm)	Counts (n)	Blue Motor Position (mm): 16.400000	Red Motor Position (mm): 0.000000	
326.493990	2135.732718
326.888308	2135.732718
327.282561	2135.732718
327.676750	2103.494539
328.070874	2099.592686
328.464933	2105.962184
328.858929	2112.210694
329.252859	2119.689246
329.646726	2131.505710
330.040528	2147.518936
330.434265	2161.417397
330.827938	2181.035047
331.221547	2197.474250
331.615091	2215.478731
332.008571	2236.775085
332.401986	2258.237798
332.795338	2273.557864
333.188625	2294.125772
333.581847	2310.012968
333.975006	2329.391163
334.368100	2347.753566
334.761129	2369.017153
335.154095	2384.518701
335.546996	2403.932185
335.939833	2422.493713
336.332606	2438.864860
336.725315	2447.109667
337.117960	2459.899075
337.510540	2468.527010
337.903056	2480.335913
338.295508	2484.880513
338.687896	2495.305619
339.080220	2500.586227
339.472480	2511.785151
339.864676	2513.431088
340.256807	2518.963754
340.648875	2521.610360
341.040879	2521.194464
341.432818	2521.771677
341.824694	2524.682943
342.216506	2526.381812
342.608253	2528.262162
342.999937	2525.885258
343.391557	2528.413397
343.783113	2524.435926
344.174605	2523.954496
344.566033	2521.822088
344.957397	2517.786644
345.348697	2521.222191
345.739934	2516.710358
346.131106	2519.568692
346.522215	2517.027951
346.913260	2513.602487
347.304241	2510.373628
347.695159	2509.849348
348.086012	2508.664677
348.476802	2503.464726
348.867528	2505.551764
349.258191	2503.537823
349.648789	2501.481032
350.039324	2503.764675
350.429796	2499.154540
350.820203	2498.930208
351.210548	2497.052379
351.600828	2495.766884
351.991045	2498.219406
352.381198	2493.884013
352.771288	2494.675475
353.161314	2491.396204
353.551276	2492.472490
353.941175	2495.114055
354.331010	2495.633294
354.720782	2492.616163
355.110490	2493.173211
355.500135	2492.883344
355.889717	2494.262100
356.279235	2495.335866
356.668689	2494.395691
357.058080	2495.555156
357.447408	2495.419045
357.836672	2491.292860
358.225873	2494.244456
358.615010	2492.772439
359.004084	2497.904334
359.393095	2495.955928
359.782043	2498.746206
360.170927	2497.135558
360.559748	2497.816113
360.948505	2498.947853
361.337199	2500.268635
361.725830	2499.744355
362.114398	2502.645539
362.502903	2502.025477
362.891344	2498.201762
363.279722	2501.423059
363.668037	2502.116218
364.056289	2502.975734
364.444478	2504.145282
364.832603	2502.469098
365.220665	2503.976403
365.608665	2506.161744
365.996601	2502.799294
366.384474	2503.288286
366.772284	2506.628050
367.160031	2504.500683
367.547715	2504.477998
367.935336	2509.635099
368.322893	2506.381034
368.710388	2507.669049
369.097820	2511.875892
369.485189	2505.060252
369.872495	2507.840448
370.259738	2509.912362
370.646918	2506.691065
371.034035	2506.504542
371.421090	2509.193998
371.808081	2508.515962
372.195010	2508.508401
372.581875	2506.239882
372.968678	2511.689369
373.355418	2511.114677
373.742096	2510.502177
374.128710	2509.098216
374.515262	2511.676766
374.901751	2510.784482
375.288177	2510.976046
375.674540	2510.492095
376.060841	2511.538134
376.447079	2511.091992
376.833254	2510.802126
377.219367	2509.451097
377.605417	2509.458658
377.991404	2509.930006
378.377329	2510.862620
378.763191	2507.815242
379.148991	2512.725326
379.534727	2514.603156
379.920402	2515.200532
380.306013	2514.648526
380.691563	2512.816067
381.077049	2512.934534
381.462474	2514.328413
381.847835	2514.991325
382.233134	2516.581809
382.618371	2511.754904
383.003545	2515.351767
383.388657	2514.547703
383.773706	2516.758249
384.158693	2516.851510
384.543618	2514.857734
384.928480	2515.520646
385.313280	2516.163393
385.698017	2518.893178
386.082692	2515.011489
386.467305	2518.247910
386.851856	2516.377642
387.236344	2517.466531
387.620770	2518.089114
388.005133	2516.034843
388.389435	2519.296470
388.773674	2517.388393
389.157851	2516.536438
389.541965	2519.873682
389.926018	2518.578106
390.310008	2516.148269
390.693936	2518.149608
391.077802	2520.155987
391.461606	2521.139012
391.845348	2518.709176
392.229027	2518.084073
392.612645	2521.325534
392.996200	2520.523991
393.379694	2522.369053
393.763125	2520.397962
394.146494	2521.622963
394.529801	2522.351409
394.913047	2520.932324
395.296230	2521.938035
395.679351	2521.806965
396.062410	2525.544980
396.445408	2525.431554
396.828343	2520.460977
397.211217	2519.619104
397.594028	2518.653723
397.976778	2520.110616
398.359466	2520.602129
398.742092	2518.706655
399.124656	2524.020031
399.507158	2525.013138
399.889598	2521.983405
400.271977	2526.127233
400.654294	2523.662109
401.036549	2524.841739
401.418742	2524.317459
401.800874	2523.662109
402.182944	2524.645134
402.564952	2525.834847
402.946898	2523.271420
403.328783	2523.848632
403.710606	2527.183355
404.092367	2525.492048
404.474067	2525.487007
404.855705	2526.117151
405.237282	2527.674868
405.618797	2525.676050
406.000250	2526.462470
406.381642	2525.403828
406.762972	2527.412728
407.144240	2528.115969
407.525447	2527.354754
407.906593	2531.359951
408.287677	2529.479601
408.668700	2529.444313
409.049661	2527.710156
409.430560	2530.089580
409.811399	2529.298119
410.192176	2530.755013
410.572891	2528.456247
410.953545	2528.415917
411.334138	2529.093953
411.714669	2528.315094
412.095139	2530.545805
412.475547	2529.840043
412.855894	2527.473222
413.236180	2530.525640
413.616405	2530.064375
413.996568	2528.362985
414.376670	2532.421114
414.756711	2529.522451
415.136691	2531.997657
415.516609	2528.925074
415.896466	2534.349355
416.276262	2531.536392
416.655997	2529.139323
417.035670	2528.433561
417.415283	2528.168901
417.794834	2526.631349
418.174324	2529.792152
418.553753	2530.442461
418.933121	2534.787936
419.312428	2532.907585
419.691674	2532.088398
420.070859	2532.837009
420.449983	2533.772143
420.829045	2530.800383
421.208047	2535.937319
421.586988	2533.205013
421.965867	2531.957328
422.344686	2532.844571
422.723444	2534.934129
423.102141	2530.243336
423.480777	2533.714170
423.859352	2534.614016
424.237866	2533.222658
424.616319	2533.762061
424.994712	2533.303316
425.373044	2532.632842
425.751314	2534.092257
426.129524	2533.872966
426.507673	2534.160312
426.885762	2533.436907
427.263789	2533.986392
427.641756	2536.350693
428.019662	2534.563604
428.397508	2538.528472
428.775292	2531.528830
429.153016	2535.370189
429.530679	2535.866743
429.908282	2534.634181
430.285824	2534.513193
430.663305	2533.141999
431.040726	2533.971269
431.418086	2533.915816
431.795385	2537.260622
432.172624	2535.778522
432.549802	2537.338760
432.926920	2534.412370
433.303977	2535.639891
433.680974	2534.127545
434.057910	2537.759696
434.434786	2537.237937
434.811601	2537.651311
435.188355	2538.296579
435.565050	2538.944367
435.941683	2535.894469
436.318257	2535.072761
436.694770	2533.305837
437.071222	2533.273069
437.447614	2532.857174
437.823946	2533.608306
438.200218	2535.065199
438.576429	2537.837834
438.952580	2535.103008
439.328670	2537.462268
439.704700	2538.304141
440.080670	2539.798843
440.456580	2536.842206
440.832429	2537.868081
441.208218	2537.348842
441.583947	2539.347659
441.959616	2536.612833
442.335224	2539.224151
442.710773	2536.572504
443.086261	2540.292876
443.461689	2538.092412
443.837057	2538.672145
444.212365	2537.013605
444.587612	2538.717515
444.962800	2539.488812
445.337927	2537.767258
445.712995	2539.599717
446.088002	2540.302958
446.462949	2538.873791
446.837837	2541.139790
447.212664	2537.321116
447.587431	2539.115766
447.962139	2539.755993
448.336786	2543.345294
448.711374	2541.527958
449.085901	2542.558874
449.460369	2536.169212
449.834776	2541.936292
450.209124	2540.323123
450.583412	2539.491332
450.957640	2541.313709
451.331808	2543.357897
451.705917	2542.866385
452.079965	2543.783875
452.453954	2542.725232
452.827883	2539.698020
453.201752	2539.370345
453.575562	2543.738504
453.949311	2540.338246
454.323001	2540.406302
454.696632	2542.105171
455.070202	2544.015768
455.443713	2538.702392
455.817164	2541.714481
456.190556	2539.322454
456.563888	2540.237423
456.937160	2539.161137
457.310373	2540.852444
457.683526	2544.817311
458.056619	2542.405119
458.429653	2541.268339
458.802628	2544.598021
459.175542	2545.230686
459.548398	2545.903680
459.921194	2542.881508
460.293930	2546.301931
460.666607	2543.415871
461.039224	2543.133566
461.411782	2544.701365
461.784280	2546.770758
462.156719	2542.939482
462.529099	2543.955274
462.901419	2542.077444
463.273680	2542.977290
463.645882	2546.054915
464.018024	2545.739843
464.390106	2545.520552
464.762130	2543.284801
465.134094	2545.946530
465.505999	2546.546427
465.877845	2545.633978
466.249631	2546.707744
466.621358	2547.786551
466.993026	2546.879143
467.364634	2551.239741
467.736184	2544.933258
468.107674	2544.348484
468.479105	2547.297559
468.850477	2547.075748
469.221790	2545.152548
469.593043	2546.440563
469.964238	2546.047353
470.335373	2546.480892
470.706449	2548.232693
471.077467	2546.433001
471.448425	2545.689431
471.819324	2548.512477
472.190164	2547.085831
472.560945	2548.940975
472.931667	2548.472148
473.302330	2545.858310
473.672934	2546.617003
474.043479	2547.284956
474.413965	2547.748742
474.784393	2540.635674
475.154761	2545.641540
475.525070	2546.090203
475.895321	2544.587939
476.265513	2543.095757
476.635645	2550.980122
477.005719	2547.849565
477.375734	2547.383259
477.745691	2549.155224
478.115588	2549.220759
478.485427	2549.208156
478.855207	2549.868548
479.224928	2551.643034
479.594591	2548.741850
479.964194	2549.374514
480.333739	2549.651778
480.703226	2548.333516
481.072653	2548.504915
481.442022	2550.654968
481.811333	2550.833928
482.180584	2548.855276
482.549777	2551.413661
482.918912	2552.429454
483.287988	2553.021789
483.657005	2552.588250
484.025964	2550.813764
484.394864	2552.653785
484.763706	2552.200081
485.132489	2552.593291
485.501213	2551.038095
485.869879	2551.781665
486.238487	2550.571788
486.607036	2550.808723
486.975527	2550.886861
487.343959	2553.044474
487.712333	2554.294681
488.080648	2553.389793
488.448905	2552.880637
488.817104	2552.673950
489.185244	2549.581202
489.553326	2556.041440
489.921350	2551.459032
490.289315	2551.259906
490.657222	2556.094373
491.025070	2553.447767
491.392861	2553.488096
491.760593	2551.650595
492.128267	2554.864331
492.495883	2553.198230
492.863440	2553.001625
493.230939	2553.420040
493.598380	2555.640669
493.965763	2549.805533
494.333088	2550.697817
494.700354	2553.291491
495.067563	2553.099927
495.434713	2548.351160
495.801805	2554.314845
496.168839	2556.069167
496.535815	2555.005483
496.902733	2554.546738
497.269593	2554.365257
497.636395	2554.312325
498.003139	2554.211502
498.369825	2554.876934
498.736453	2554.425751
499.103023	2556.109496
499.469535	2557.422717
499.835989	2554.556821
500.202385	2557.589075
500.568723	2557.883982
500.935003	2559.237532
501.301226	2556.669064
501.667390	2556.356513
502.033497	2557.331976
502.399546	2555.895247
502.765537	2558.486400
503.131470	2556.164949
503.497345	2559.159394
503.863163	2557.367264
504.228923	2558.718293
504.594625	2560.099569
504.960269	2557.639486
505.325856	2558.032696
505.691385	2556.658982
506.056856	2561.080074
506.422270	2559.517316
506.787625	2560.485217
507.152924	2559.678633
507.518164	2561.410269
507.883347	2561.218705
508.248472	2558.383056
508.613540	2560.051678
508.978550	2560.344065
509.343503	2560.212995
509.708398	2560.835578
510.073236	2563.487225
510.438016	2562.315156
510.802738	2563.247770
511.167403	2563.252811
511.532010	2563.514951
511.896561	2564.656772
512.261053	2566.857236
512.625488	2560.550752
512.989866	2561.339693
513.354186	2563.189797
513.718449	2561.775753
514.082655	2567.331104
514.446803	2566.443861
514.810894	2568.271280
515.174927	2571.180025
515.538904	2568.672051
515.902822	2568.440158
516.266684	2572.894018
516.630488	2567.416804
516.994235	2571.908472
517.357925	2571.336301
517.721558	2571.893349
518.085133	2571.908472
518.448651	2576.377455
518.812112	2575.119687
519.175516	2575.593556
519.538863	2577.027764
519.902152	2579.036664
520.265385	2579.593711
520.628560	2580.763259
520.991678	2583.213260
521.354739	2582.772159
521.717743	2585.703590
522.080690	2589.723910
522.443580	2587.934300
522.806413	2590.752305
523.169189	2594.492841
523.531908	2595.604416
523.894569	2597.547781
524.257174	2599.208841
524.619722	2601.477360
524.982213	2605.510283
525.344647	2605.903493
525.707025	2607.935078
526.069345	2614.412961
526.431608	2615.733743
526.793815	2617.341871
527.155964	2621.798251
527.518057	2621.541152
527.880093	2623.209774
528.242072	2631.076495
528.603995	2632.913995
528.965860	2635.341311
529.327669	2639.585962
529.689421	2642.366159
530.051117	2645.771458
530.412755	2651.924187
530.774337	2654.326296
531.135862	2659.072543
531.497331	2661.676299
531.858743	2666.649397
532.220098	2671.108297
532.581396	2673.908658
532.942638	2681.306552
533.303824	2685.871317
533.664953	2694.229550
534.026025	2700.530992
534.387040	2707.205480
534.747999	2712.332333
535.108902	2722.394476
535.469748	2722.419682
535.830537	2732.315467
536.191270	2739.809142
536.551947	2749.989752
536.912567	2758.688263
537.273131	2764.397370
537.633638	2771.757455
537.994089	2781.260030
538.354483	2788.718417
538.714821	2799.486321
539.075103	2806.654842
539.435328	2821.188489
539.795497	2824.233346
540.155609	2841.574915
540.515665	2852.378107
540.875665	2856.658047
541.235609	2870.979965
541.595496	2881.871378
541.955328	2903.994482
542.315102	2906.935995
542.674821	2918.243303
543.034483	2929.737134
543.394090	2944.129628
543.753640	2955.371401
544.113134	2986.729899
544.472571	2988.708552
544.831953	3008.361490
545.191278	3017.944723
545.550548	3032.133051
545.909761	3051.523849
546.268918	3070.604616
546.628019	3094.348451
546.987064	3105.076026
547.346053	3112.695730
547.704986	3144.107160
548.063863	3156.548728
548.422684	3173.860050
548.781449	3189.946372
549.140158	3215.308417
549.498811	3226.330900
549.857408	3234.026221
550.215949	3277.014661
550.574434	3283.137142
550.932864	3317.076710
551.291237	3338.065554
551.649555	3368.166284
552.007817	3387.184037
552.366022	3403.353538
552.724173	3431.117693
553.082267	3444.922892
553.440305	3496.524143
553.798288	3488.806137
554.156215	3539.066440
554.514086	3562.152404
554.871902	3568.693302
555.229661	3603.928446
555.587365	3628.962816
555.945014	3634.064464
556.302606	3689.388607
556.660143	3693.744164
557.017625	3753.955705
557.375050	3765.184876
557.732421	3814.928461
558.089735	3839.617512
558.446994	3867.389229
558.804197	3902.475659
559.161345	3936.332049
559.518437	3932.256276
559.875474	3988.737363
560.232455	4027.423178
560.589381	4044.288358
560.946251	4093.898353
561.303065	4125.166110
561.659825	4156.539731
562.016528	4172.860467
562.373177	4171.532123
562.729770	4245.241353
563.086307	4253.834000
563.442789	4307.726455
563.799216	4329.915094
564.155587	4369.170559
564.511904	4398.595774
564.868164	4425.833128
565.224370	4464.377791
565.580520	4497.399869
565.936615	4509.788504
566.292654	4528.760887
566.648638	4588.329681
567.004567	4620.398982
567.360441	4648.899145
567.716260	4668.025283
568.072023	4729.340837
568.427732	4758.564406
568.783385	4755.837141
569.138982	4823.557482
569.494525	4861.814798
569.850013	4860.289849
570.205445	4938.634421
570.560823	4930.180406
570.916145	4949.246050
571.271412	5011.756358
571.626625	5031.038771
571.981782	5056.141197
572.336884	5093.004634
572.691931	5113.867449
573.046923	5153.380013
573.401860	5171.313918
573.756743	5189.318399
574.111570	5247.153036
574.466342	5265.759935
574.821059	5320.305220
575.175722	5310.328776
575.530330	5358.433987
575.884882	5388.537237
576.239380	5404.298405
576.593823	5422.144089
576.948211	5472.769877
577.302544	5448.723573
577.656823	5503.215925
578.011047	5536.404362
578.365216	5573.028344
578.719330	5566.300925
579.073389	5615.169870
579.427394	5623.074399
579.781344	5642.077029
580.135239	5662.788609
580.489080	5697.494433
580.842866	5697.638106
581.196597	5731.383590
581.550273	5786.674965
581.903895	5810.960724
582.257463	5871.774683
582.610975	5859.421336
582.964434	5894.984155
583.317837	5903.748201
583.671186	5910.929325
584.024481	5954.391633
584.377721	5941.902174
584.730906	5967.395289
585.084037	6011.462536
585.437113	6009.670405
585.790135	6060.913734
586.143103	6034.770310
586.496016	6052.268155
586.848874	6118.864318
587.201679	6138.267719
587.554428	6116.928515
587.907124	6174.672412
588.259765	6186.637591
588.612352	6227.617130
588.964884	6180.706673
589.317362	6223.821141
589.669786	6256.865905
590.022155	6301.296114
590.374470	6350.273444
590.726731	6334.434139
591.078937	6278.129492
591.431090	6386.892386
591.783188	6332.619324
592.135232	6361.495053
592.487222	6375.920315
592.839157	6443.209636
593.191038	6435.814263
593.542866	6426.992244
593.894639	6391.580659
594.246358	6449.067457
594.598022	6487.821327
594.949633	6454.111131
595.301190	6463.341484
595.652692	6508.399317
596.004141	6612.662982
596.355535	6486.886193
596.706876	6503.244737
597.058162	6486.689588
597.409395	6563.950312
597.760573	6630.584283
598.111698	6584.790442
598.462768	6604.708041
598.813785	6603.299038
599.164748	6611.483352
599.515657	6619.317305
599.866511	6590.668427
600.217312	6689.406987
600.568060	6613.492251
600.918753	6713.014711
601.269392	6707.108999
601.619978	6671.727661
601.970510	6738.112095
602.320988	6753.994250
602.671412	6825.934036
603.021783	6790.850126
603.372100	6801.050901
603.722363	6824.025959
604.072572	6822.090156
604.422728	6851.999322
604.772830	6816.416338
605.122878	6846.320462
605.472872	6857.985692
605.822813	6900.875829
606.172701	6879.289608
606.522534	6960.212731
606.872314	6977.062787
607.222041	6969.102805
607.571714	7035.346087
607.921333	7023.645569
608.270899	7047.661626
608.620411	7133.759493
608.969870	7074.546100
609.319276	7087.171670
609.668627	7119.210723
610.017926	7161.122876
610.367171	7220.215281
610.716362	7212.104065
611.065500	7222.670323
611.414585	7259.354800
611.763616	7260.773885
612.112594	7263.947291
612.461518	7291.935777
612.810389	7356.265941
613.159207	7323.352248
613.507971	7289.241280
613.856682	7407.925165
614.205340	7377.806792
614.553945	7463.458516
614.902496	7385.744088
615.250994	7448.708100
615.599439	7444.541586
615.947830	7469.172664
616.296169	7454.782690
616.644454	7479.927966
616.992686	7489.342321
617.340864	7551.638379
617.688990	7478.087945
618.037063	7568.337201
618.385082	7530.077364
618.733048	7622.597661
619.080961	7571.434990
619.428821	7601.901204
619.776628	7617.652289
620.124382	7585.091476
620.472083	7587.785973
620.819731	7616.165148
621.167326	7534.606841
621.514868	7553.012094
621.862357	7460.670758
622.209793	7491.668813
622.557176	7442.194929
622.904506	7425.062568
623.251783	7375.719754
623.599007	7348.905857
623.946179	7362.388423
624.293297	7333.242992
624.640363	7265.331088
624.987376	7263.546519
625.334336	7214.057512
625.681243	7186.063985
626.028097	7181.612646
626.374899	7165.107908
626.721647	7164.591190
627.068343	7105.549196
627.414987	7087.348110
627.761577	7049.408386
628.108115	7095.963442
628.454600	6997.822259
628.801032	7052.496093
629.147412	7018.334714
629.493739	7012.512181
629.840014	6959.053265
630.186236	7017.933942
630.532405	6910.567448
630.878521	6964.608617
631.224585	6929.391116
631.570597	6859.571135
631.916556	6896.122021
632.262462	6894.435755
632.608316	6864.181270
632.954117	6847.699218
633.299866	6834.524162
633.645562	6831.801939
633.991206	6772.361694
634.336797	6712.092179
634.682336	6681.376429
635.027823	6650.879969
635.373257	6648.361912
635.718639	6586.275062
636.063968	6602.021106
636.409245	6506.473596
636.754470	6506.224059
637.099642	6468.390200
637.444762	6423.644918
637.789829	6428.043325
638.134845	6376.951231
638.479808	6371.912597
638.824719	6370.566609
639.169577	6308.762063
639.514383	6331.409447
639.859137	6259.383961
640.203839	6271.923831
640.548489	6262.466627
640.893086	6243.637917
641.237632	6223.228806
641.582125	6241.339151
641.926566	6214.489966
642.270955	6226.588735
642.615292	6224.519341
642.959576	6239.678091
643.303809	6232.968315
643.647990	6239.874696
643.992118	6230.835907
644.336195	6182.236663
