Dividing Wavelength (nm)	Counts (n)	Blue Motor Position (mm): 33.100000	Red Motor Position (mm): 0.000000	
326.493990	2130.263066
326.888308	2130.263066
327.282561	2130.263066
327.676750	2096.063878
328.070874	2096.915833
328.464933	2098.622264
328.858929	2104.202821
329.252859	2116.924173
329.646726	2126.704011
330.040528	2137.197173
330.434265	2157.240801
330.827938	2174.915086
331.221547	2191.445030
331.615091	2209.394058
332.008571	2229.236039
332.401986	2250.149266
332.795338	2267.644591
333.188625	2289.797941
333.581847	2305.009623
333.975006	2324.859166
334.368100	2341.676455
334.761129	2361.289064
335.154095	2375.089223
335.546996	2397.035886
335.939833	2427.242480
336.332606	2441.849223
336.725315	2451.883640
337.117960	2458.724486
337.510540	2469.124386
337.903056	2482.203660
338.295508	2485.180461
338.687896	2495.542553
339.080220	2504.382216
339.472480	2509.035201
339.864676	2513.282373
340.256807	2520.145904
340.648875	2520.604649
341.040879	2524.503982
341.432818	2525.386184
341.824694	2528.352903
342.216506	2528.524302
342.608253	2528.151257
342.999937	2528.350382
343.391557	2527.836185
343.783113	2526.616225
344.174605	2525.797038
344.566033	2521.630524
344.957397	2522.845442
345.348697	2518.686490
345.739934	2519.024248
346.131106	2515.881088
346.522215	2517.766480
346.913260	2512.616941
347.304241	2510.648371
347.695159	2512.357322
348.086012	2510.585356
348.476802	2506.411281
348.867528	2506.411281
349.258191	2504.183091
349.648789	2503.452123
350.039324	2501.085302
350.429796	2501.854078
350.820203	2501.418018
351.210548	2496.901144
351.600828	2495.272851
351.991045	2499.018429
352.381198	2493.977275
352.771288	2496.074395
353.161314	2493.581544
353.551276	2494.967862
353.941175	2495.207316
354.331010	2494.826709
354.720782	2496.623881
355.110490	2495.217399
355.500135	2494.367964
355.889717	2495.910557
356.279235	2495.013232
356.668689	2498.163953
357.058080	2497.208654
357.447408	2494.834271
357.836672	2493.042141
358.225873	2496.954076
358.615010	2491.567603
359.004084	2500.306443
359.393095	2496.245794
359.782043	2499.338542
360.170927	2500.092194
360.559748	2499.530106
360.948505	2499.278048
361.337199	2503.195025
361.725830	2500.984479
362.114398	2503.817607
362.502903	2501.959942
362.891344	2504.944305
363.279722	2502.446413
363.668037	2503.522700
364.056289	2503.053872
364.444478	2505.314830
364.832603	2506.701147
365.220665	2503.361383
365.608665	2504.316681
365.996601	2507.931189
366.384474	2508.720129
366.772284	2506.373472
367.160031	2506.910355
367.547715	2509.531755
367.935336	2505.753410
368.322893	2510.108967
368.710388	2509.065448
369.097820	2508.384893
369.485189	2508.841117
369.872495	2511.626354
370.259738	2511.132321
370.646918	2509.715757
371.034035	2512.042250
371.421090	2510.713906
371.808081	2509.688031
372.195010	2512.516118
372.581875	2511.759945
372.968678	2511.200377
373.355418	2513.894874
373.742096	2510.711385
374.128710	2511.926303
374.515262	2514.265398
374.901751	2511.800274
375.288177	2513.594925
375.674540	2512.942096
376.060841	2512.909328
376.447079	2514.194822
376.833254	2511.843124
377.219367	2507.341374
377.605417	2514.023423
377.991404	2507.366579
378.377329	2510.973525
378.763191	2506.789367
379.148991	2515.664319
379.534727	2517.453928
379.920402	2516.886798
380.306013	2517.655574
380.691563	2515.303876
381.077049	2515.482837
381.462474	2517.038033
381.847835	2516.889319
382.233134	2517.668177
382.618371	2517.300173
383.003545	2518.290760
383.388657	2518.963754
383.773706	2520.183713
384.158693	2515.316479
384.543618	2518.807478
384.928480	2521.156656
385.313280	2520.082890
385.698017	2518.058867
386.082692	2517.955523
386.467305	2521.691018
386.851856	2519.702283
387.236344	2519.664474
387.620770	2521.045750
388.005133	2520.070287
388.389435	2520.884433
388.773674	2522.573220
389.157851	2523.402490
389.541965	2520.917201
389.926018	2521.542304
390.310008	2522.202695
390.693936	2525.791997
391.077802	2523.157994
391.461606	2526.031452
391.845348	2522.981553
392.229027	2529.020856
392.612645	2527.710156
392.996200	2526.621267
393.379694	2529.091432
393.763125	2526.109589
394.146494	2527.228726
394.529801	2527.145547
394.913047	2529.101514
395.296230	2528.446164
395.679351	2526.011287
396.062410	2530.568490
396.445408	2528.002543
396.828343	2527.135464
397.211217	2525.310567
397.594028	2527.231246
397.976778	2526.981709
398.359466	2528.690660
398.742092	2526.323838
399.124656	2529.116638
399.507158	2533.116793
399.889598	2529.961031
400.271977	2530.939015
400.654294	2531.995137
401.036549	2534.792977
401.418742	2532.005219
401.800874	2531.823737
402.182944	2535.002185
402.564952	2532.451361
402.946898	2534.263656
403.328783	2534.477905
403.710606	2533.968748
404.092367	2535.917154
404.474067	2536.668286
404.855705	2536.451517
405.237282	2538.064686
405.618797	2534.813142
406.000250	2537.318595
406.381642	2539.140972
406.762972	2540.960829
407.144240	2539.370345
407.525447	2541.611137
407.906593	2541.477547
408.287677	2542.659697
408.668700	2543.410829
409.049661	2544.499719
409.430560	2544.686241
409.811399	2548.250337
410.192176	2550.586912
410.572891	2553.856100
410.953545	2555.575134
411.334138	2559.736606
411.714669	2565.463357
412.095139	2569.012329
412.475547	2578.096488
412.855894	2582.091603
413.236180	2588.831626
413.616405	2597.998964
413.996568	2610.894235
414.376670	2616.222735
414.756711	2623.943262
415.136691	2637.841723
415.516609	2652.907212
415.896466	2667.944973
416.276262	2681.911490
416.655997	2693.480938
417.035670	2718.921121
417.415283	2746.861716
417.794834	2754.007552
418.174324	2772.992537
418.553753	2781.282715
418.933121	2821.785865
419.312428	2852.945237
419.691674	2869.475181
420.070859	2905.874832
420.449983	2922.611463
420.829045	2963.467494
421.208047	2978.931234
421.586988	3022.360774
421.965867	3053.825136
422.344686	3113.610700
422.723444	3113.676235
423.102141	3110.586007
423.480777	3207.718960
423.859352	3194.700180
424.237866	3295.359419
424.616319	3331.007939
424.994712	3401.198444
425.373044	3410.012902
425.751314	3495.077332
426.129524	3477.395485
426.507673	3587.355653
426.885762	3651.746311
427.263789	3686.172351
427.641756	3677.597348
428.019662	3773.875825
428.397508	3824.423474
428.775292	3863.189948
429.153016	3950.101960
429.530679	3965.810196
429.908282	4053.304462
430.285824	4036.714025
430.663305	4226.352150
431.040726	4142.240498
431.418086	4183.519986
431.795385	4297.618942
432.172624	4349.343701
432.549802	4392.896750
432.926920	4450.565029
433.303977	4502.226774
433.680974	4571.134306
434.057910	4633.102689
434.434786	4688.081513
434.811601	4712.737797
435.188355	4918.502573
435.565050	4873.472466
435.941683	4904.820882
436.318257	5103.883444
436.694770	5139.050533
437.071222	5210.493766
437.447614	5198.697466
437.823946	5167.578423
438.200218	5332.635882
438.576429	5262.561323
438.952580	5380.589858
439.328670	5450.540909
439.704700	5406.206481
440.080670	5429.877219
440.456580	5696.410585
440.832429	5624.644719
441.208218	5520.670921
441.583947	5683.099418
441.959616	5715.279624
442.335224	5677.758316
442.710773	5823.755172
443.086261	5879.374223
443.461689	5704.978026
443.837057	5863.877716
444.212365	6032.884919
444.587612	5949.758813
444.962800	6118.075378
445.337927	6111.050530
445.712995	5757.148927
446.088002	6319.434186
446.462949	6172.292987
446.837837	6125.861440
447.212664	6297.114477
447.587431	6451.318332
447.962139	6987.762636
448.336786	7892.188486
448.711374	7653.179821
449.085901	6758.422904
449.460369	6695.456372
449.834776	6634.634851
450.209124	7030.861981
450.583412	7180.967378
450.957640	7330.041859
451.331808	7106.005420
451.705917	6669.484347
452.079965	6589.791267
452.453954	6810.878630
452.827883	6689.285999
453.201752	6786.202182
453.575562	6586.733807
453.949311	6787.270907
454.323001	6677.683784
454.696632	6760.159581
455.070202	6890.589355
455.443713	7052.975003
455.817164	7153.682133
456.190556	7234.811942
456.563888	7313.300187
456.937160	7357.911878
457.310373	7014.884044
457.683526	7042.670884
458.056619	6934.137362
458.429653	6925.048162
458.802628	6857.302616
459.175542	6965.261446
459.548398	7326.364337
459.921194	7483.766804
460.293930	7487.033472
460.666607	8010.118719
461.039224	8323.565062
461.411782	8443.920089
461.784280	8460.573541
462.156719	8353.600257
462.529099	8235.337308
462.901419	7827.192890
463.273680	7721.747075
463.645882	7732.154537
464.018024	7598.415246
464.390106	7763.177798
464.762130	8147.931262
465.134094	8618.333930
465.505999	9636.092480
465.877845	10855.015754
466.249631	11500.394352
466.621358	11118.090888
466.993026	10494.517801
467.364634	10241.930788
467.736184	9877.379747
468.107674	9547.839520
468.479105	9571.883304
468.850477	9340.217079
469.221790	9113.546637
469.593043	8789.770970
469.964238	8652.346595
470.335373	8660.672061
470.706449	8719.814878
471.077467	8703.143782
471.448425	10008.595941
471.819324	11081.681154
472.190164	11100.908115
472.560945	9847.836065
472.931667	9068.609792
473.302330	8935.336807
473.672934	8580.553003
474.043479	8936.418135
474.413965	8876.582159
474.784393	8759.483717
475.154761	8918.244775
475.525070	9001.842230
475.895321	8833.802928
476.265513	9005.144185
476.635645	9171.343466
477.005719	9170.879680
477.375734	9285.339078
477.745691	9521.955716
478.115588	9649.353235
478.485427	9899.618798
478.855207	10430.122102
479.224928	11248.767678
479.594591	11869.119467
479.964194	11677.006135
480.333739	11632.018878
480.703226	11542.818182
481.072653	11633.316976
481.442022	11865.179806
481.811333	12048.733258
482.180584	11853.338135
482.549777	11567.471945
482.918912	11395.548434
483.287988	11423.531879
483.657005	11434.458580
484.025964	11110.473704
484.394864	11242.867007
484.763706	11215.909437
485.132489	10971.315173
485.501213	10935.369226
485.869879	11009.320432
486.238487	10854.362924
486.607036	10957.492329
486.975527	10750.792419
487.343959	10942.935998
487.712333	10983.991154
488.080648	10916.411967
488.448905	10951.344642
488.817104	10895.166024
489.185244	11161.389358
489.553326	11313.672534
489.921350	11856.798887
490.289315	12906.513312
490.657222	13258.569852
491.025070	13159.833813
491.392861	13037.908466
491.760593	12658.082729
492.128267	12305.736323
492.495883	11983.563742
492.863440	11647.308698
493.230939	11318.068420
493.598380	11240.379198
493.965763	11110.876997
494.333088	11014.817810
494.700354	10935.157497
495.067563	10997.088072
495.434713	10825.162041
495.801805	10954.984355
496.168839	10880.319826
496.535815	10816.375310
496.902733	10814.202572
497.269593	10748.135731
497.636395	10844.671306
498.003139	10835.141005
498.369825	10711.385719
498.736453	10860.555982
499.103023	10786.070413
499.469535	10818.590897
499.835989	10809.715945
500.202385	10768.373443
500.568723	10619.898859
500.935003	10838.004380
501.301226	10649.377006
501.667390	10910.571790
502.033497	11003.485296
502.399546	10867.149811
502.765537	10774.659762
503.131470	10842.821203
503.497345	11019.556495
503.863163	10630.528132
504.228923	10940.523805
504.594625	11001.955306
504.960269	10753.106308
505.325856	10970.337189
505.691385	10765.378997
506.056856	10917.241236
506.422270	10937.998187
506.787625	10828.519449
507.152924	10948.140989
507.518164	10933.793865
507.883347	10856.870898
508.248472	10773.023907
508.613540	11007.127530
508.978550	10891.410364
509.343503	10865.002280
509.708398	10980.651390
510.073236	11093.391755
510.438016	11101.049267
510.802738	11046.723273
511.167403	11107.055802
511.532010	10999.437250
511.896561	11227.950233
512.261053	11301.566203
512.625488	11172.036275
512.989866	11148.892338
513.354186	11142.527881
513.718449	11041.639269
514.082655	11231.731098
514.446803	11132.309462
514.810894	11252.046948
515.174927	11117.158274
515.538904	11140.995370
515.902822	11297.810543
516.266684	11178.257059
516.630488	11122.776640
516.994235	11178.196565
517.357925	11240.550597
517.721558	11330.875471
518.085133	11344.131185
518.448651	11359.841941
518.812112	11238.040102
519.175516	11250.713563
519.538863	11372.003725
519.902152	11285.215220
520.265385	11446.537184
520.628560	11362.140707
520.991678	11337.542397
521.354739	11403.347099
521.717743	11334.603404
522.080690	11314.196814
522.443580	11447.245467
522.806413	11406.770042
523.169189	11431.736357
523.531908	11490.009575
523.894569	11317.319808
524.257174	11319.059007
524.619722	11431.582602
524.982213	11379.252904
525.344647	11433.609145
525.707025	11389.070551
526.069345	11474.941566
526.431608	11394.618341
526.793815	11512.082267
527.155964	11292.930706
527.518057	11343.480876
527.880093	11290.909203
528.242072	11366.602128
528.603995	11273.176945
528.965860	11191.306086
529.327669	11244.785166
529.689421	11197.589884
530.051117	11165.944041
530.412755	11271.425144
530.774337	11162.286684
531.135862	11135.903805
531.497331	11157.772330
531.858743	11015.742862
532.220098	11176.653972
532.581396	11045.823427
532.942638	11035.098372
533.303824	10995.104378
533.664953	11002.373722
534.026025	10924.429922
534.387040	11029.205263
534.747999	11029.361539
535.108902	11088.053173
535.469748	10840.391367
535.830537	10944.241656
536.191270	10926.569892
536.551947	10953.449324
536.912567	10952.990579
537.273131	10870.504699
537.633638	10850.559374
537.994089	10849.525937
538.354483	10782.294589
538.714821	10933.446025
539.075103	10947.883890
539.435328	10902.861345
539.795497	10737.604760
540.155609	10887.165712
540.515665	10974.158384
540.875665	10717.994672
541.235609	10783.050762
541.595496	10778.314598
541.955328	10931.313617
542.315102	10810.953549
542.674821	10768.194482
543.034483	10766.349419
543.394090	10772.010635
543.753640	10701.452125
544.113134	10932.498288
544.472571	10776.232602
544.831953	10920.361711
545.191278	10724.280991
545.550548	10755.720147
545.909761	10892.370704
546.268918	10868.833557
546.628019	10945.731317
546.987064	10814.736935
547.346053	10734.660726
547.704986	10838.594195
548.063863	10821.812194
548.422684	10815.104939
548.781449	10728.402134
549.140158	10838.274082
549.498811	10706.952024
549.857408	10568.484131
550.215949	10794.380755
550.574434	10654.566874
550.932864	10745.030380
551.291237	10812.614609
551.649555	10757.345919
552.007817	10768.159194
552.366022	10726.080683
552.724173	10724.830476
553.082267	10708.986130
553.440305	10846.914620
553.798288	10640.577672
554.156215	10799.333689
554.514086	10774.064905
554.871902	10618.973807
555.229661	10664.084573
555.587365	10631.821188
555.945014	10538.075891
556.302606	10660.258337
556.660143	10558.704292
557.017625	10701.227794
557.375050	10608.392425
557.732421	10739.338917
558.089735	10652.431945
558.446994	10646.748044
558.804197	10693.109016
559.161345	10685.108705
559.518437	10536.051868
559.875474	10626.797678
560.232455	10649.611420
560.589381	10607.227919
560.946251	10605.115675
561.303065	10712.283044
561.659825	10643.478856
562.016528	10573.043855
562.373177	10451.829310
562.729770	10574.977137
563.086307	10483.210493
563.442789	10573.757178
563.799216	10460.366504
564.155587	10510.306695
564.511904	10461.674684
564.868164	10449.409557
565.224370	10458.954981
565.580520	10393.886288
565.936615	10396.928624
566.292654	10268.757288
566.648638	10401.122864
567.004567	10351.495225
567.360441	10343.769657
567.716260	10249.820193
568.072023	10345.236633
568.427732	10295.755187
568.783385	10198.571823
569.138982	10276.936560
569.494525	10288.032140
569.850013	10169.010497
570.205445	10242.568494
570.560823	10143.353545
570.916145	10063.912522
571.271412	10134.546649
571.626625	10072.795035
571.981782	10053.094206
572.336884	10021.503815
572.691931	10034.751967
573.046923	9979.153082
573.401860	9931.637686
573.756743	9869.245846
574.111570	9908.594572
574.466342	9894.426409
574.821059	9924.396069
575.175722	9816.316251
575.530330	9827.948713
575.884882	9814.342639
576.239380	9748.444676
576.593823	9729.729392
576.948211	9742.571732
577.302544	9618.118246
577.656823	9635.832861
578.011047	9640.947111
578.365216	9613.608934
578.719330	9535.881903
579.073389	9546.206187
579.427394	9492.495213
579.781344	9475.171288
580.135239	9423.806971
580.489080	9435.827603
580.842866	9327.125202
581.196597	9342.062141
581.550273	9375.129590
581.903895	9346.548768
582.257463	9415.965456
582.610975	9295.136560
582.964434	9316.853851
583.317837	9239.532633
583.671186	9221.419768
584.024481	9210.785454
584.377721	9134.381726
584.730906	9109.566646
585.084037	9149.787492
585.437113	9072.418383
585.790135	9097.286395
586.143103	8999.873659
586.496016	8965.505593
586.848874	9026.304429
587.201679	9012.998303
587.554428	8903.696005
587.907124	8954.883882
588.259765	8923.497658
588.612352	8929.872197
588.964884	8797.476373
589.317362	8814.828025
589.669786	8812.219228
590.022155	8865.867187
590.374470	8879.700113
590.726731	8819.203746
591.078937	8667.812855
591.431090	8784.613869
591.783188	8654.998242
592.135232	8650.602356
592.487222	8646.057756
592.839157	8696.161784
593.191038	8633.260787
593.542866	8576.630985
593.894639	8478.661201
594.246358	8527.570476
594.598022	8543.256026
594.949633	8442.952188
595.301190	8421.141636
595.652692	8444.192312
596.004141	8558.886123
596.355535	8337.350097
596.706876	8315.647930
597.058162	8247.410871
597.409395	8327.721493
597.760573	8394.592399
598.111698	8295.468191
598.462768	8283.303887
598.813785	8249.054288
599.164748	8218.089000
599.515657	8210.255047
599.866511	8118.253989
600.217312	8241.812670
600.568060	8101.857636
600.918753	8204.407308
601.269392	8174.664501
601.619978	8091.162828
601.970510	8155.303949
602.320988	8149.073083
602.671412	8203.900673
603.021783	8139.326012
603.372100	8110.364583
603.722363	8117.167621
604.072572	8092.410514
604.422728	8105.948533
604.772830	8034.628809
605.122878	8040.227010
605.472872	8037.595528
605.822813	8067.338335
606.172701	8008.135025
606.522534	8078.948113
606.872314	8086.310718
607.222041	8047.418216
607.571714	8107.513811
607.921333	8067.237512
608.270899	8070.143737
608.620411	8165.570259
608.969870	8063.975886
609.319276	8060.363899
609.668627	8078.678411
610.017926	8111.541693
610.367171	8154.724217
610.716362	8134.942729
611.065500	8124.467211
611.414585	8156.859145
611.763616	8143.200139
612.112594	8129.233622
612.461518	8135.731670
612.810389	8203.441928
613.159207	8134.037842
613.507971	8085.695697
613.856682	8208.077268
614.205340	8157.721183
614.553945	8237.252946
614.902496	8140.487998
615.250994	8194.992954
615.599439	8177.762290
615.947830	8194.808952
616.296169	8160.476173
616.644454	8175.682814
616.992686	8171.206269
617.340864	8227.281544
617.688990	8136.646639
618.037063	8225.504537
618.385082	8175.340015
618.733048	8258.478725
619.080961	8194.750978
619.428821	8216.057415
619.776628	8214.643371
620.124382	8168.715939
620.472083	8154.555338
620.819731	8178.520983
621.167326	8072.528203
621.514868	8086.189730
621.862357	7970.840568
622.209793	7992.119279
622.557176	7926.813651
622.904506	7894.494814
623.251783	7826.900503
623.599007	7782.989532
623.946179	7783.647403
624.293297	7743.708861
624.640363	7663.622571
624.987376	7641.441494
625.334336	7590.911488
625.681243	7545.251237
626.028097	7530.987293
626.374899	7506.023499
626.721647	7498.678538
627.068343	7428.881242
627.414987	7403.768734
627.761577	7359.729214
628.108115	7395.624750
628.454600	7288.553163
628.801032	7341.812953
629.147412	7302.270142
629.493739	7293.707743
629.840014	7220.931125
630.186236	7285.546115
630.532405	7163.673700
630.878521	7214.899385
631.224585	7173.491347
631.570597	7097.150634
631.916556	7129.484594
632.262462	7129.051055
632.608316	7085.014056
632.954117	7060.932464
633.299866	7051.243366
633.645562	7044.843621
633.991206	6965.513504
634.336797	6910.617859
634.682336	6867.168154
635.027823	6830.400498
635.373257	6822.874056
635.718639	6756.850064
636.063968	6769.190808
636.409245	6662.651063
636.754470	6660.571587
637.099642	6620.141533
637.444762	6560.169447
637.789829	6568.328554
638.134845	6513.425347
638.479808	6497.822976
638.824719	6502.715416
639.169577	6432.088851
639.514383	6450.884793
639.859137	6387.401542
640.203839	6388.697119
640.548489	6377.162959
