Dividing Wavelength (nm)	Counts (n)	Blue Motor Position (mm): 7.800000	Red Motor Position (mm): 0.000000	
326.493990	2142.437453
326.888308	2142.437453
327.282561	2142.437453
327.676750	2108.928903
328.070874	2108.873450
328.464933	2110.557196
328.858929	2119.454832
329.252859	2128.370113
329.646726	2139.616927
330.040528	2150.278967
330.434265	2169.667245
330.827938	2185.803978
331.221547	2204.131093
331.615091	2222.591799
332.008571	2240.419839
332.401986	2265.068561
332.795338	2281.570778
333.188625	2301.032153
333.581847	2320.140646
333.975006	2337.648573
334.368100	2354.808661
334.761129	2373.680221
335.154095	2390.157232
335.546996	2405.920920
335.939833	2423.880031
336.332606	2438.905190
336.725315	2449.955399
337.117960	2458.623663
337.510540	2468.320322
337.903056	2481.782724
338.295508	2485.366984
338.687896	2496.714621
339.080220	2505.140910
339.472480	2511.800274
339.864676	2513.859586
340.256807	2519.949299
340.648875	2519.402334
341.040879	2524.231760
341.432818	2526.129754
341.824694	2529.819879
342.216506	2529.058664
342.608253	2529.504807
342.999937	2526.185207
343.391557	2526.704446
343.783113	2525.003056
344.174605	2523.571368
344.566033	2524.574558
344.957397	2524.141019
345.348697	2521.222191
345.739934	2516.952333
346.131106	2516.009638
346.522215	2515.871006
346.913260	2513.468896
347.304241	2512.407733
347.695159	2509.080572
348.086012	2508.712568
348.476802	2506.295334
348.867528	2508.430263
349.258191	2505.191322
349.648789	2502.496825
350.039324	2499.399036
350.429796	2500.152688
350.820203	2499.593120
351.210548	2495.908037
351.600828	2493.813437
351.991045	2496.036586
352.381198	2495.255207
352.771288	2494.577172
353.161314	2494.819147
353.551276	2494.614981
353.941175	2494.342758
354.331010	2494.252018
354.720782	2494.614981
355.110490	2493.649600
355.500135	2489.800679
355.889717	2492.394353
356.279235	2492.296050
356.668689	2496.381905
357.058080	2493.936946
357.447408	2493.541215
357.836672	2490.025010
358.225873	2496.931391
358.615010	2493.084991
359.004084	2496.225629
359.393095	2497.543891
359.782043	2497.415342
360.170927	2498.564725
360.559748	2497.697646
360.948505	2500.581186
361.337199	2501.730569
361.725830	2502.592607
362.114398	2500.543378
362.502903	2499.436844
362.891344	2500.314005
363.279722	2500.326608
363.668037	2502.587566
364.056289	2501.985148
364.444478	2505.370283
364.832603	2504.588904
365.220665	2504.664521
365.608665	2501.163440
365.996601	2504.586383
366.384474	2506.154182
366.772284	2505.559326
367.160031	2505.708040
367.547715	2505.851713
367.935336	2507.341374
368.322893	2508.301713
368.710388	2506.048318
369.097820	2508.742814
369.485189	2508.468072
369.872495	2508.044615
370.259738	2507.474964
370.646918	2507.336333
371.034035	2507.469923
371.421090	2508.710047
371.808081	2509.314985
372.195010	2510.197187
372.581875	2510.396313
372.968678	2510.305572
373.355418	2512.621982
373.742096	2511.520490
374.128710	2513.415964
374.515262	2510.734070
374.901751	2511.621313
375.288177	2510.403875
375.674540	2511.530573
376.060841	2511.255830
376.447079	2512.755573
376.833254	2512.175840
377.219367	2505.957577
377.605417	2511.981756
377.991404	2510.479492
378.377329	2510.600480
378.763191	2510.139214
379.148991	2511.656601
379.534727	2513.781448
379.920402	2515.046777
380.306013	2514.121726
380.691563	2515.581140
381.077049	2514.303207
381.462474	2513.668022
381.847835	2515.661798
382.233134	2513.574760
382.618371	2515.470234
383.003545	2516.213804
383.388657	2513.675583
383.773706	2517.176665
384.158693	2513.579802
384.543618	2517.020389
384.928480	2517.287570
385.313280	2518.943589
385.698017	2516.448218
386.082692	2515.205574
386.467305	2516.980060
386.851856	2518.005935
387.236344	2519.404855
387.620770	2520.967613
388.005133	2521.660771
388.389435	2517.958044
388.773674	2515.601304
389.157851	2515.021572
389.541965	2520.105575
389.926018	2518.540297
390.310008	2518.268075
390.693936	2517.418640
391.077802	2517.600122
391.461606	2518.835204
391.845348	2517.587519
392.229027	2519.954341
392.612645	2521.144053
392.996200	2521.088600
393.379694	2521.776718
393.763125	2521.328055
394.146494	2519.903929
394.529801	2521.847294
394.913047	2521.446522
395.296230	2522.956348
395.679351	2523.031965
396.062410	2522.603467
396.445408	2523.299146
396.828343	2523.949455
397.211217	2514.409071
397.594028	2522.628673
397.976778	2517.310255
398.359466	2522.704290
398.742092	2519.160359
399.124656	2522.956348
399.507158	2523.266379
399.889598	2526.114631
400.271977	2523.291584
400.654294	2525.708818
401.036549	2521.771677
401.418742	2522.853004
401.800874	2525.786956
402.182944	2525.257634
402.564952	2524.236801
402.946898	2527.478263
403.328783	2528.473891
403.710606	2526.008766
404.092367	2526.041534
404.474067	2524.395597
404.855705	2526.480114
405.237282	2527.049765
405.618797	2527.385001
406.000250	2526.999353
406.381642	2525.396266
406.762972	2530.434899
407.144240	2528.552028
407.525447	2528.673016
407.906593	2528.241997
408.287677	2528.660413
408.668700	2524.940042
409.049661	2526.477594
409.430560	2526.119672
409.811399	2531.042358
410.192176	2529.129241
410.572891	2529.835002
410.953545	2527.889117
411.334138	2529.431710
411.714669	2530.523120
412.095139	2530.989426
412.475547	2525.008097
412.855894	2528.920033
413.236180	2531.029756
413.616405	2531.188552
413.996568	2528.088242
414.376670	2530.059333
414.756711	2529.444313
415.136691	2530.815507
415.516609	2530.024045
415.896466	2531.193593
416.276262	2531.082688
416.655997	2528.473891
417.035670	2527.057326
417.415283	2531.359951
417.794834	2526.701925
418.174324	2530.913809
418.553753	2532.877338
418.933121	2533.628470
419.312428	2532.264838
419.691674	2531.990095
420.070859	2531.382636
420.449983	2535.155940
420.829045	2532.224509
421.208047	2532.474046
421.586988	2533.562935
421.965867	2532.453882
422.344686	2533.885569
422.723444	2533.867925
423.102141	2531.526309
423.480777	2537.242978
423.859352	2534.223327
424.237866	2534.732483
424.616319	2530.316432
424.994712	2533.530168
425.373044	2531.962369
425.751314	2533.260466
426.129524	2533.595703
426.507673	2531.828778
426.885762	2534.409849
427.263789	2534.127545
427.641756	2534.460261
428.019662	2535.539068
428.397508	2535.516383
428.775292	2535.899510
429.153016	2533.116793
429.530679	2532.264838
429.908282	2534.500590
430.285824	2536.312885
430.663305	2535.115611
431.040726	2537.401774
431.418086	2536.154088
431.795385	2535.624767
432.172624	2536.897659
432.549802	2535.942360
432.926920	2537.550488
433.303977	2536.943029
433.680974	2537.139634
434.057910	2538.064686
434.434786	2537.827752
434.811601	2537.043852
435.188355	2536.436393
435.565050	2537.699202
435.941683	2538.316743
436.318257	2535.418080
436.694770	2531.448171
437.071222	2535.516383
437.447614	2532.239632
437.823946	2532.342976
438.200218	2534.477905
438.576429	2539.042670
438.952580	2535.960004
439.328670	2537.608461
439.704700	2540.880170
440.080670	2538.810777
440.456580	2535.463450
440.832429	2538.987217
441.208218	2538.770447
441.583947	2537.495035
441.959616	2537.941178
442.335224	2540.015612
442.710773	2535.763399
443.086261	2539.642567
443.461689	2536.154088
443.837057	2539.493853
444.212365	2537.956301
444.587612	2538.019315
444.962800	2540.474357
445.337927	2541.137269
445.712995	2539.907227
446.088002	2542.014430
446.462949	2541.038967
446.837837	2540.250026
447.212664	2539.428318
447.587431	2539.209028
447.962139	2541.192722
448.336786	2542.488298
448.711374	2538.924202
449.085901	2540.018133
449.460369	2541.044008
449.834776	2540.812115
450.209124	2540.819676
450.583412	2540.807073
450.957640	2541.253216
451.331808	2537.885725
451.705917	2542.042156
452.079965	2538.982176
452.453954	2541.490150
452.827883	2542.652136
453.201752	2542.538710
453.575562	2542.662218
453.949311	2540.643236
454.323001	2540.159285
454.696632	2538.772968
455.070202	2542.909235
455.443713	2541.996786
455.817164	2537.011085
456.190556	2538.372196
456.563888	2540.091230
456.937160	2537.689120
457.310373	2541.003678
457.683526	2540.350849
458.056619	2542.251364
458.429653	2541.432177
458.802628	2542.294214
459.175542	2541.596014
459.548398	2543.015099
459.921194	2541.361600
460.293930	2542.573998
460.666607	2541.260777
461.039224	2546.483413
461.411782	2542.241282
461.784280	2544.484595
462.156719	2540.996117
462.529099	2540.519728
462.901419	2543.541899
463.273680	2542.427804
463.645882	2544.096426
464.018024	2542.437887
464.390106	2540.469316
464.762130	2543.080634
465.134094	2540.421425
465.505999	2544.471992
465.877845	2542.977290
466.249631	2545.056766
466.621358	2543.710778
466.993026	2545.144986
467.364634	2546.982487
467.736184	2542.158103
468.107674	2542.445448
468.479105	2540.726415
468.850477	2541.452341
469.221790	2546.488454
469.593043	2543.186498
469.964238	2546.112888
470.335373	2547.211859
470.706449	2546.001983
471.077467	2543.423432
471.448425	2546.044832
471.819324	2545.492826
472.190164	2543.070552
472.560945	2545.442414
472.931667	2544.696324
473.302330	2545.838145
473.672934	2546.125491
474.043479	2543.869574
474.413965	2547.221942
474.784393	2540.383617
475.154761	2543.458720
475.525070	2543.655325
475.895321	2544.890408
476.265513	2539.272042
476.635645	2546.090203
477.005719	2543.947712
477.375734	2547.703372
477.745691	2545.339071
478.115588	2543.224307
478.485427	2546.324616
478.855207	2547.045501
479.224928	2544.046015
479.594591	2546.153217
479.964194	2545.944009
480.333739	2544.693803
480.703226	2543.788916
481.072653	2544.799667
481.442022	2547.148845
481.811333	2547.151366
482.180584	2547.209339
482.549777	2545.880995
482.918912	2545.031560
483.287988	2544.535007
483.657005	2548.169679
484.025964	2545.606252
484.394864	2544.454348
484.763706	2545.132383
485.132489	2546.947199
485.501213	2548.204967
485.869879	2548.530121
486.238487	2546.969884
486.607036	2545.810419
486.975527	2544.771941
487.343959	2546.518701
487.712333	2547.753783
488.080648	2546.128011
488.448905	2545.603731
488.817104	2545.838145
489.185244	2546.342260
489.553326	2546.680018
489.921350	2547.103475
490.289315	2546.574153
490.657222	2548.245296
491.025070	2545.235727
491.392861	2548.109185
491.760593	2548.787220
492.128267	2548.449463
492.495883	2547.103475
492.863440	2550.397869
493.230939	2549.341747
493.598380	2547.733619
493.965763	2542.329502
494.333088	2546.067517
494.700354	2544.058618
495.067563	2545.260933
495.434713	2544.771941
495.801805	2547.312682
496.168839	2547.486602
496.535815	2549.530790
496.902733	2549.104813
497.269593	2549.803013
497.636395	2549.586243
498.003139	2548.857796
498.369825	2546.846376
498.736453	2548.446942
499.103023	2547.731098
499.469535	2548.361243
499.835989	2546.042312
500.202385	2548.719164
500.568723	2548.467107
500.935003	2549.571119
501.301226	2547.577343
501.667390	2551.438867
502.033497	2552.212684
502.399546	2546.622044
502.765537	2546.130532
503.131470	2546.919473
503.497345	2548.983825
503.863163	2548.467107
504.228923	2545.593649
504.594625	2548.852755
504.960269	2548.946016
505.325856	2550.997766
505.691385	2549.235883
506.056856	2550.828887
506.422270	2548.976263
506.787625	2549.684545
507.152924	2549.369473
507.518164	2548.194884
507.883347	2547.768907
508.248472	2550.158414
508.613540	2549.059442
508.978550	2549.417364
509.343503	2547.524411
509.708398	2552.247972
510.073236	2549.684545
510.438016	2550.312169
510.802738	2549.669422
511.167403	2549.533311
511.532010	2549.797971
511.896561	2551.562375
512.261053	2548.242775
512.625488	2545.515511
512.989866	2545.132383
513.354186	2545.182795
513.718449	2546.004503
514.082655	2548.598177
514.446803	2549.593805
514.810894	2550.637323
515.174927	2550.392827
515.538904	2549.745039
515.902822	2549.800492
516.266684	2553.725030
516.630488	2550.609597
516.994235	2550.344937
517.357925	2551.184289
517.721558	2552.631100
518.085133	2548.635985
518.448651	2550.118085
518.812112	2551.668239
519.175516	2553.142777
519.538863	2549.472817
519.902152	2549.243444
520.265385	2549.664381
520.628560	2549.152704
520.991678	2548.139432
521.354739	2551.842159
521.717743	2550.249155
522.080690	2551.970709
522.443580	2547.698331
522.806413	2549.442570
523.169189	2546.710265
523.531908	2553.021789
523.894569	2549.881150
524.257174	2552.936090
524.619722	2549.530790
524.982213	2550.158414
525.344647	2550.581871
525.707025	2548.212528
526.069345	2548.439380
526.431608	2550.418033
526.793815	2549.276212
527.155964	2552.477345
527.518057	2550.798640
527.880093	2551.206974
528.242072	2550.738147
528.603995	2552.106820
528.965860	2550.833928
529.327669	2552.885678
529.689421	2552.666388
530.051117	2552.472303
530.412755	2551.232180
530.774337	2550.591953
531.135862	2550.957437
531.497331	2549.432488
531.858743	2545.722198
532.220098	2548.449463
532.581396	2546.092723
532.942638	2548.525080
533.303824	2549.866027
533.664953	2551.093548
534.026025	2552.280740
534.387040	2550.544062
534.747999	2549.477858
535.108902	2550.728064
535.469748	2551.562375
535.830537	2552.089176
536.191270	2551.206974
536.551947	2553.256203
536.912567	2551.499361
537.273131	2553.475493
537.633638	2552.789896
537.994089	2552.532797
538.354483	2551.897612
538.714821	2551.950544
539.075103	2553.140256
539.435328	2554.897098
539.795497	2553.052036
540.155609	2551.547252
540.515665	2552.106820
540.875665	2552.941131
541.235609	2553.848538
541.595496	2554.836605
541.955328	2553.450287
542.315102	2554.158569
542.674821	2551.149001
543.034483	2554.221584
543.394090	2553.041954
543.753640	2554.574465
544.113134	2553.087324
544.472571	2554.171172
544.831953	2553.354505
545.191278	2553.697304
545.550548	2554.198899
545.909761	2556.293498
546.268918	2552.895760
546.628019	2553.533466
546.987064	2555.585216
547.346053	2556.848025
547.704986	2552.505071
548.063863	2556.706873
548.422684	2554.818961
548.781449	2555.002963
549.140158	2552.152190
549.498811	2556.452294
549.857408	2555.134033
550.215949	2552.106820
550.574434	2550.765873
550.932864	2554.569423
551.291237	2549.238403
551.649555	2555.086142
552.007817	2555.698642
552.366022	2558.309960
552.724173	2555.673436
553.082267	2557.725186
553.440305	2555.333158
553.798288	2554.166131
554.156215	2555.431461
554.514086	2557.856256
554.871902	2553.004145
555.229661	2553.853580
555.587365	2555.315514
555.945014	2555.751574
556.302606	2556.648899
556.660143	2556.845504
557.017625	2556.114537
557.375050	2554.191337
557.732421	2553.868703
558.089735	2554.140925
558.446994	2556.555638
558.804197	2556.817778
559.161345	2555.335679
559.518437	2556.681667
559.875474	2558.995557
560.232455	2555.338199
560.589381	2556.956410
560.946251	2558.168807
561.303065	2557.016904
561.659825	2556.883313
562.016528	2554.710576
562.373177	2556.487582
562.729770	2556.926163
563.086307	2557.301729
563.442789	2555.708724
563.799216	2558.476318
564.155587	2555.680998
564.511904	2555.050854
564.868164	2554.014897
565.224370	2557.248797
565.580520	2555.993549
565.936615	2557.218550
566.292654	2556.394321
566.648638	2555.300391
567.004567	2555.975905
567.360441	2556.101934
567.716260	2557.004301
568.072023	2555.096224
568.427732	2554.133364
568.783385	2552.129505
569.138982	2554.151008
569.494525	2553.634289
569.850013	2550.022303
570.205445	2558.355330
570.560823	2555.071018
570.916145	2554.629917
571.271412	2557.642007
571.626625	2553.840977
571.981782	2554.193857
572.336884	2555.413817
572.691931	2555.063457
573.046923	2555.481872
573.401860	2555.355843
573.756743	2555.615463
574.111570	2557.243756
574.466342	2554.939948
574.821059	2554.133364
575.175722	2555.446584
575.530330	2557.962120
575.884882	2556.038920
576.239380	2555.348282
576.593823	2555.678477
576.948211	2552.505071
577.302544	2553.843497
577.656823	2554.161090
578.011047	2558.083108
578.365216	2555.360885
578.719330	2554.947510
579.073389	2554.395504
579.427394	2556.207798
579.781344	2554.506409
580.135239	2555.083621
580.489080	2554.980277
580.842866	2555.519681
581.196597	2560.762481
581.550273	2555.988508
581.903895	2555.731409
582.257463	2556.568241
582.610975	2555.668395
582.964434	2554.970195
583.317837	2555.877603
583.671186	2558.622511
584.024481	2553.578837
584.377721	2553.798127
584.730906	2554.256872
585.084037	2555.338199
585.437113	2553.021789
585.790135	2553.049516
586.143103	2554.902140
586.496016	2559.534960
586.848874	2550.443239
587.201679	2553.031872
587.554428	2550.937272
587.907124	2555.771739
588.259765	2549.490461
588.612352	2552.638662
588.964884	2555.897768
589.317362	2552.850390
589.669786	2552.492468
590.022155	2553.409958
590.374470	2556.800134
590.726731	2554.725699
591.078937	2553.803168
591.431090	2553.883827
591.783188	2551.186809
592.135232	2555.756615
592.487222	2554.403065
592.839157	2553.379711
593.191038	2554.599670
593.542866	2554.929866
593.894639	2552.041285
594.246358	2555.658313
594.598022	2552.437015
594.949633	2553.283929
595.301190	2555.035730
595.652692	2553.430123
596.004141	2554.309804
596.355535	2554.607232
596.706876	2553.919115
597.058162	2553.997253
597.409395	2551.338044
597.760573	2554.632438
598.111698	2552.515153
598.462768	2551.005328
598.813785	2556.243087
599.164748	2552.666388
599.515657	2551.010369
599.866511	2550.433157
600.217312	2552.280740
600.568060	2552.684032
600.918753	2555.101265
601.269392	2552.711758
601.619978	2552.878116
601.970510	2554.791234
602.320988	2553.921635
602.671412	2553.089845
603.021783	2549.999618
603.372100	2555.532284
603.722363	2554.455997
604.072572	2556.459856
604.422728	2556.021276
604.772830	2548.192364
605.122878	2550.206305
605.472872	2551.441388
605.822813	2547.128680
606.172701	2550.415513
606.522534	2552.938610
606.872314	2551.670760
607.222041	2553.374670
607.571714	2551.885009
607.921333	2553.941800
608.270899	2553.117571
608.620411	2553.157900
608.969870	2556.033879
609.319276	2555.978426
609.668627	2558.544373
610.017926	2560.462532
610.367171	2564.077040
610.716362	2563.519992
611.065500	2559.204764
611.414585	2557.785680
611.763616	2557.631924
612.112594	2555.532284
612.461518	2558.226781
612.810389	2552.948692
613.159207	2558.821637
613.507971	2553.858621
613.856682	2555.963302
614.205340	2556.243087
614.553945	2556.293498
614.902496	2553.909032
615.250994	2557.145453
615.599439	2552.842828
615.947830	2556.464897
616.296169	2555.428940
616.644454	2553.752757
616.992686	2555.161759
617.340864	2555.993549
617.688990	2554.476162
618.037063	2556.583364
618.385082	2555.658313
618.733048	2554.440874
619.080961	2556.898437
619.428821	2553.803168
619.776628	2557.672254
620.124382	2555.257541
620.472083	2555.769218
620.819731	2553.185627
621.167326	2556.558159
621.514868	2557.316852
621.862357	2556.230484
622.209793	2555.905329
622.557176	2557.057233
622.904506	2553.490617
623.251783	2547.690769
623.599007	2556.157387
623.946179	2551.663198
624.293297	2550.367622
624.640363	2555.761656
624.987376	2554.997922
625.334336	2554.526574
625.681243	2555.013045
626.028097	2554.138405
626.374899	2553.974567
626.721647	2553.997253
627.068343	2554.650082
627.414987	2555.038251
627.761577	2553.205791
628.108115	2554.730740
628.454600	2555.008004
628.801032	2556.631255
629.147412	2556.827860
629.493739	2553.384752
629.840014	2554.390463
630.186236	2555.580175
630.532405	2557.037068
630.878521	2554.657644
631.224585	2558.851884
631.570597	2554.854249
631.916556	2555.658313
632.262462	2552.832746
632.608316	2556.664023
632.954117	2557.513457
633.299866	2554.768549
633.645562	2554.047664
633.991206	2555.348282
634.336797	2555.005483
634.682336	2555.010524
635.027823	2556.303580
635.373257	2557.150494
635.718639	2556.197716
636.063968	2556.106975
636.409245	2554.970195
636.754470	2556.429609
637.099642	2552.875596
637.444762	2557.314332
637.789829	2553.150339
638.134845	2555.560010
638.479808	2555.098745
638.824719	2557.447922
639.169577	2555.008004
639.514383	2554.929866
639.859137	2555.880123
640.203839	2556.061605
640.548489	2554.161090
640.893086	2554.201419
641.237632	2552.109340
641.582125	2554.834084
641.926566	2550.239072
642.270955	2554.705535
642.615292	2555.696121
642.959576	2554.708055
643.303809	2553.528425
643.647990	2556.217881
643.992118	2553.180586
644.336195	2553.863662
