Dividing Wavelength (nm)	Counts (n)	Blue Motor Position (mm): 27.600000	Red Motor Position (mm): 0.000000	
326.493990	2133.680968
326.888308	2133.680968
327.282561	2133.680968
327.676750	2099.232243
328.070874	2097.346852
328.464933	2102.135948
328.858929	2107.351022
329.252859	2117.874430
329.646726	2128.700308
330.040528	2142.828142
330.434265	2160.336069
330.827938	2176.525735
331.221547	2194.704136
331.615091	2212.489326
332.008571	2232.132182
332.401986	2254.363671
332.795338	2270.649118
333.188625	2291.895061
333.581847	2309.511373
333.975006	2329.247491
334.368100	2344.711230
334.761129	2365.881556
335.154095	2382.242620
335.546996	2401.303223
335.939833	2427.310536
336.332606	2438.897628
336.725315	2453.053188
337.117960	2462.192800
337.510540	2471.574387
337.903056	2483.297590
338.295508	2491.567603
338.687896	2495.086329
339.080220	2505.735766
339.472480	2509.163751
339.864676	2517.161541
340.256807	2522.323683
340.648875	2522.842922
341.040879	2528.151257
341.432818	2527.563962
341.824694	2530.366844
342.216506	2530.419776
342.608253	2531.980013
342.999937	2532.287523
343.391557	2529.741741
343.783113	2527.551359
344.174605	2527.649662
344.566033	2527.027079
344.957397	2525.091276
345.348697	2524.274609
345.739934	2520.493744
346.131106	2519.533404
346.522215	2519.440143
346.913260	2513.907477
347.304241	2516.967457
347.695159	2511.986797
348.086012	2511.142404
348.476802	2509.763648
348.867528	2508.127794
349.258191	2502.995899
349.648789	2506.345746
350.039324	2501.201248
350.429796	2504.604027
350.820203	2500.805518
351.210548	2501.667555
351.600828	2501.284427
351.991045	2499.159581
352.381198	2496.810403
352.771288	2494.806545
353.161314	2498.484066
353.551276	2495.214878
353.941175	2497.369971
354.331010	2495.194713
354.720782	2496.220588
355.110490	2497.735455
355.500135	2495.419045
355.889717	2495.966010
356.279235	2496.865856
356.668689	2498.605054
357.058080	2498.804180
357.447408	2493.427789
357.836672	2494.927532
358.225873	2496.258397
358.615010	2495.315701
359.004084	2497.710249
359.393095	2500.951711
359.782043	2501.055055
360.170927	2500.016577
360.559748	2502.375837
360.948505	2501.483553
361.337199	2502.388440
361.725830	2501.758296
362.114398	2504.462875
362.502903	2505.637464
362.891344	2506.943122
363.279722	2502.390961
363.668037	2505.420694
364.056289	2504.730056
364.444478	2505.612258
364.832603	2508.147958
365.220665	2507.127125
365.608665	2507.641322
365.996601	2507.515293
366.384474	2508.490757
366.772284	2511.583505
367.160031	2509.100736
367.547715	2510.887825
367.935336	2507.878257
368.322893	2511.767507
368.710388	2510.396313
369.097820	2512.684997
369.485189	2507.419512
369.872495	2512.564009
370.259738	2511.409585
370.646918	2512.148114
371.034035	2511.031498
371.421090	2513.562157
371.808081	2512.692558
372.195010	2512.536283
372.581875	2512.753052
372.968678	2512.541324
373.355418	2511.296159
373.742096	2513.557116
374.128710	2514.454442
374.515262	2515.734895
374.901751	2513.723474
375.288177	2516.634741
375.674540	2514.036026
376.060841	2515.271109
376.447079	2517.043074
376.833254	2515.601304
377.219367	2510.930675
377.605417	2512.730367
377.991404	2511.515449
378.377329	2512.410254
378.763191	2511.548217
379.148991	2518.918383
379.534727	2516.932169
379.920402	2518.010976
380.306013	2517.794206
380.691563	2518.250431
381.077049	2516.107940
381.462474	2517.819412
381.847835	2517.753877
382.233134	2517.630369
382.618371	2519.258661
383.003545	2519.162879
383.388657	2516.856552
383.773706	2520.216481
384.158693	2519.225894
384.543618	2524.191430
384.928480	2521.827129
385.313280	2520.266892
385.698017	2520.768487
386.082692	2519.924094
386.467305	2522.933663
386.851856	2521.295288
387.236344	2522.293436
387.620770	2522.832839
388.005133	2522.855525
388.389435	2524.035155
388.773674	2517.814371
389.157851	2520.024917
389.541965	2522.898374
389.926018	2523.904085
390.310008	2522.495082
390.693936	2525.481966
391.077802	2522.651358
391.461606	2525.469363
391.845348	2520.997859
392.229027	2522.295957
392.612645	2525.464322
392.996200	2526.898530
393.379694	2526.840557
393.763125	2524.602284
394.146494	2525.315608
394.529801	2528.171421
394.913047	2526.470032
395.296230	2526.840557
395.679351	2527.634538
396.062410	2525.910464
396.445408	2528.115969
396.828343	2527.132944
397.211217	2522.515247
397.594028	2527.253931
397.976778	2523.084897
398.359466	2528.829292
398.742092	2524.201513
399.124656	2529.401463
399.507158	2528.126051
399.889598	2531.017153
400.271977	2529.633356
400.654294	2530.933974
401.036549	2527.664785
401.418742	2526.694363
401.800874	2528.640249
402.182944	2528.163860
402.564952	2530.553367
402.946898	2530.316432
403.328783	2529.875331
403.710606	2531.301978
404.092367	2532.305168
404.474067	2530.588655
404.855705	2533.099149
405.237282	2530.712163
405.618797	2529.966072
406.000250	2534.258615
406.381642	2534.384643
406.762972	2531.685106
407.144240	2531.785929
407.525447	2536.048224
407.906593	2530.076978
408.287677	2533.951104
408.668700	2533.099149
409.049661	2532.282482
409.430560	2531.440610
409.811399	2534.026722
410.192176	2533.799870
410.572891	2534.656866
410.953545	2533.162164
411.334138	2536.489325
411.714669	2536.383461
412.095139	2534.780374
412.475547	2533.772143
412.855894	2535.042514
413.236180	2539.821528
413.616405	2535.730632
413.996568	2533.555374
414.376670	2537.096784
414.756711	2534.598892
415.136691	2538.412525
415.516609	2537.285827
415.896466	2539.541744
416.276262	2539.516538
416.655997	2533.157122
417.035670	2535.322298
417.415283	2540.794471
417.794834	2535.155940
418.174324	2536.663245
418.553753	2540.459234
418.933121	2541.744728
419.312428	2540.582742
419.691674	2540.189532
420.070859	2539.115766
420.449983	2537.812628
420.829045	2539.052752
421.208047	2539.370345
421.586988	2540.696168
421.965867	2541.066693
422.344686	2543.519214
422.723444	2541.696837
423.102141	2543.491488
423.480777	2543.662887
423.859352	2542.221117
424.237866	2543.496529
424.616319	2542.097609
424.994712	2543.010058
425.373044	2544.008206
425.751314	2544.741694
426.129524	2543.960315
426.507673	2544.310675
426.885762	2545.694472
427.263789	2544.955943
427.641756	2544.277908
428.019662	2548.144473
428.397508	2546.617003
428.775292	2547.383259
429.153016	2547.983156
429.530679	2547.584905
429.908282	2546.664894
430.285824	2548.567930
430.663305	2546.977446
431.040726	2549.510626
431.418086	2550.390307
431.795385	2548.245296
432.172624	2548.262940
432.549802	2551.534649
432.926920	2551.491799
433.303977	2554.183775
433.680974	2556.069167
434.057910	2556.911039
434.434786	2557.500854
434.811601	2556.747202
435.188355	2560.008828
435.565050	2563.822461
435.941683	2563.343552
436.318257	2568.906465
436.694770	2564.639128
437.071222	2572.485684
437.447614	2573.120870
437.823946	2579.674370
438.200218	2584.491192
438.576429	2589.524784
438.952580	2593.177100
439.328670	2602.079778
439.704700	2607.579677
440.080670	2612.988835
440.456580	2628.268572
440.832429	2634.159160
441.208218	2638.055972
441.583947	2649.486789
441.959616	2660.950372
442.335224	2667.551763
442.710773	2683.794361
443.086261	2697.004705
443.461689	2699.263142
443.837057	2717.237376
444.212365	2739.884759
444.587612	2744.787282
444.962800	2770.955911
445.337927	2785.779424
445.712995	2775.825666
446.088002	2831.921105
446.462949	2838.943432
446.837837	2854.376925
447.212664	2882.584701
447.587431	2924.010383
447.962139	3005.256139
448.336786	3122.626803
448.711374	3126.296763
449.085901	3048.912531
449.460369	3065.795356
449.834776	3089.173707
450.209124	3173.146727
450.583412	3240.257087
450.957640	3283.860548
451.331808	3284.805764
451.705917	3252.968357
452.079965	3275.318312
452.453954	3345.849096
452.827883	3363.546066
453.201752	3416.314344
453.575562	3414.217224
453.949311	3500.415914
454.323001	3513.807739
454.696632	3571.183632
455.070202	3655.471724
455.443713	3737.072881
455.817164	3809.960404
456.190556	3891.269174
456.563888	3962.767859
456.937160	4018.026467
457.310373	3968.103921
457.683526	4030.399979
458.056619	4048.958987
458.429653	4096.703755
458.802628	4124.346923
459.175542	4210.076785
459.548398	4406.429727
459.921194	4527.487996
460.293930	4587.422274
460.666607	4872.018093
461.039224	5068.996139
461.411782	5191.395354
461.784280	5267.022744
462.156719	5288.687103
462.529099	5304.208816
462.901419	5179.780536
463.273680	5188.637843
463.645882	5252.758799
464.018024	5265.255820
464.390106	5408.364095
464.762130	5683.298544
465.134094	6005.816443
465.505999	6641.395038
465.877845	7414.372801
466.249631	7884.505768
466.621358	7779.533821
466.993026	7514.938779
467.364634	7448.080476
467.736184	7307.991852
468.107674	7175.033940
468.479105	7276.940865
468.850477	7188.491300
469.221790	7114.608149
469.593043	6964.527958
469.964238	6938.613907
470.335373	7004.847107
470.706449	7112.450536
471.077467	7163.207393
471.448425	8200.699540
471.819324	9064.599554
472.190164	9151.012493
472.560945	8278.177033
472.931667	7724.887713
473.302330	7674.516504
473.672934	7439.392048
474.043479	7780.726054
474.413965	7780.640354
474.784393	7740.104436
475.154761	7916.093638
475.525070	8039.669962
475.895321	7934.526617
476.265513	8132.399467
476.635645	8321.420051
477.005719	8369.913430
477.375734	8507.236982
477.745691	8749.469465
478.115588	8913.982480
478.485427	9175.706585
478.855207	9687.237507
479.224928	10447.604823
479.594591	11063.855634
479.964194	10944.347521
480.333739	10929.929821
480.703226	10906.042313
481.072653	11020.461382
481.442022	11270.903384
481.811333	11480.403656
482.180584	11342.699497
482.549777	11104.983888
482.918912	10956.768924
483.287988	11010.079126
483.657005	11043.035669
484.025964	10770.253793
484.394864	10911.557335
484.763706	10917.868860
485.132489	10706.238701
485.501213	10681.889928
485.869879	10784.172419
486.238487	10636.519543
486.607036	10763.596949
486.975527	10569.744419
487.343959	10754.054045
487.712333	10812.528909
488.080648	10755.757955
488.448905	10809.920112
488.817104	10760.473955
489.185244	11036.751871
489.553326	11191.512773
489.921350	11735.012172
490.289315	12778.838529
490.657222	13130.890028
491.025070	13043.839383
491.392861	12923.270107
491.760593	12550.953169
492.128267	12221.080226
492.495883	11898.375804
492.863440	11571.262892
493.230939	11243.570248
493.598380	11181.700167
493.965763	11052.654190
494.333088	10957.320930
494.700354	10883.462985
495.067563	10943.782911
495.434713	10780.089084
495.801805	10905.651624
496.168839	10834.417599
496.535815	10760.584860
496.902733	10766.039388
497.269593	10714.493590
497.636395	10810.298199
498.003139	10789.695003
498.369825	10668.246045
498.736453	10824.814201
499.103023	10752.289641
499.469535	10780.504979
499.835989	10783.580083
500.202385	10741.788918
500.568723	10593.160579
500.935003	10808.513630
501.301226	10628.133584
501.667390	10881.648170
502.033497	10972.525050
502.399546	10837.989257
502.765537	10747.813097
503.131470	10818.686679
503.497345	10988.979376
503.863163	10607.558114
504.228923	10915.996071
504.594625	10980.626184
504.960269	10732.931611
505.325856	10949.854981
505.691385	10745.201779
506.056856	10899.456046
506.422270	10925.299521
506.787625	10812.768364
507.152924	10935.633886
507.518164	10910.400391
507.883347	10834.183186
508.248472	10754.026319
508.613540	10986.625157
508.978550	10870.925635
509.343503	10849.528458
509.708398	10966.377363
510.073236	11075.987171
510.438016	11090.238513
510.802738	11037.840760
511.167403	11087.208779
511.532010	10982.065434
511.896561	11209.519775
512.261053	11286.200766
512.625488	11155.181177
512.989866	11136.014710
513.354186	11132.508588
513.718449	11030.329441
514.082655	11222.394882
514.446803	11116.414704
514.810894	11238.476162
515.174927	11107.060843
515.538904	11133.375666
515.902822	11287.249326
516.266684	11163.851962
516.630488	11108.744589
516.994235	11166.198619
517.357925	11224.721374
517.721558	11317.347535
518.085133	11332.733136
518.448651	11346.780312
518.812112	11225.812784
519.175516	11237.649413
519.538863	11366.551717
519.902152	11276.483942
520.265385	11439.645927
520.628560	11345.643531
520.991678	11325.587301
521.354739	11386.441589
521.717743	11324.919348
522.080690	11303.930504
522.443580	11438.022676
522.806413	11399.795606
523.169189	11427.673187
523.531908	11480.564973
523.894569	11301.661985
524.257174	11305.410082
524.619722	11431.970770
524.982213	11365.833352
525.344647	11428.207549
525.707025	11378.045548
526.069345	11466.996707
526.431608	11385.665252
526.793815	11495.814463
527.155964	11290.639502
527.518057	11338.497696
527.880093	11285.926023
528.242072	11351.955056
528.603995	11263.588670
528.965860	11181.644714
529.327669	11236.444577
529.689421	11178.733448
530.051117	11161.321303
530.412755	11261.332754
530.774337	11146.757409
531.135862	11130.008176
531.497331	11149.827472
531.858743	11002.179638
532.220098	11169.366984
532.581396	11041.147757
532.942638	11027.445901
533.303824	10990.728657
533.664953	11001.920018
534.026025	10917.216031
534.387040	11018.500373
534.747999	11014.817810
535.108902	11073.774104
535.469748	10833.880716
535.830537	10934.489544
536.191270	10918.957749
536.551947	10941.489186
536.912567	10937.236973
537.273131	10854.423418
537.633638	10838.947076
537.994089	10831.647485
538.354483	10784.106884
538.714821	10928.914028
539.075103	10934.436612
539.435328	10892.683255
539.795497	10724.840559
540.155609	10879.109949
540.515665	10972.300719
540.875665	10707.798938
541.235609	10774.785790
541.595496	10772.711356
541.955328	10929.932341
542.315102	10811.687037
542.674821	10761.797258
543.034483	10762.077042
543.394090	10770.291602
543.753640	10692.602380
544.113134	10920.916238
544.472571	10770.999884
544.831953	10906.304453
545.191278	10721.543644
545.550548	10746.610782
545.909761	10886.747297
546.268918	10856.727226
546.628019	10938.827457
546.987064	10803.490120
547.346053	10730.267361
547.704986	10828.985756
548.063863	10814.308437
548.422684	10806.391304
548.781449	10719.537265
549.140158	10822.951495
549.498811	10703.191323
549.857408	10560.456093
550.215949	10791.315734
550.574434	10634.959306
550.932864	10741.080636
551.291237	10796.863524
551.649555	10750.260577
552.007817	10755.213511
552.366022	10717.026770
552.724173	10715.821934
553.082267	10699.082783
553.440305	10835.572023
553.798288	10639.539194
554.156215	10795.126846
554.514086	10770.049626
554.871902	10610.542477
555.229661	10648.078909
555.587365	10628.950251
555.945014	10526.629951
556.302606	10640.950717
556.660143	10538.537157
557.017625	10696.710920
557.375050	10596.069325
557.732421	10725.435415
558.089735	10642.674792
558.446994	10635.407969
558.804197	10682.840185
559.161345	10674.277786
559.518437	10522.314723
559.875474	10610.154309
560.232455	10650.475978
560.589381	10597.148132
560.946251	10590.640002
561.303065	10702.694770
561.659825	10635.463422
562.016528	10563.420292
562.373177	10444.118866
562.729770	10561.439118
563.086307	10475.847888
563.442789	10569.366333
563.799216	10445.737076
564.155587	10499.886630
564.511904	10448.658425
564.868164	10449.971645
565.224370	10448.713877
565.580520	10381.386747
565.936615	10385.724660
566.292654	10249.096788
566.648638	10381.028825
567.004567	10338.725983
567.360441	10324.696452
567.716260	10237.214788
568.072023	10334.801444
568.427732	10283.361511
568.783385	10191.110916
569.138982	10261.281257
569.494525	10285.403178
569.850013	10154.917952
570.205445	10234.026258
570.560823	10136.852977
570.916145	10052.103619
571.271412	10118.624165
571.626625	10063.214322
571.981782	10037.217092
572.336884	10017.042394
572.691931	10018.315285
573.046923	9969.774015
573.401860	9921.683928
573.756743	9855.735553
574.111570	9904.745651
574.466342	9891.832735
574.821059	9912.440972
575.175722	9805.959200
575.530330	9821.811108
575.884882	9810.975148
576.239380	9733.779959
576.593823	9714.946209
576.948211	9728.121264
577.302544	9608.484601
577.656823	9628.808013
578.011047	9624.301221
578.365216	9602.377243
578.719330	9526.767497
579.073389	9537.515237
579.427394	9486.350046
579.781344	9460.960275
580.135239	9407.884487
580.489080	9417.109798
580.842866	9319.457607
581.196597	9324.879368
581.550273	9368.402170
581.903895	9333.219957
582.257463	9401.028517
582.610975	9279.254405
582.964434	9301.856418
583.317837	9226.702897
583.671186	9206.656749
584.024481	9201.411428
584.377721	9124.319583
584.730906	9101.170604
585.084037	9131.750244
585.437113	9069.277745
585.790135	9091.501671
586.143103	8989.342689
586.496016	8966.949883
586.848874	9018.656998
587.201679	9004.635029
587.554428	8895.151250
587.907124	8938.235471
588.259765	8912.144979
588.612352	8909.163137
588.964884	8788.180486
589.317362	8800.735479
589.669786	8803.684554
590.022155	8852.117440
590.374470	8871.210810
590.726731	8799.422259
591.078937	8661.808841
591.431090	8769.712218
591.783188	8642.130697
592.135232	8636.058627
592.487222	8633.913616
592.839157	8687.317079
593.191038	8620.521791
593.542866	8565.979027
593.894639	8464.364489
594.246358	8518.085545
594.598022	8536.568935
594.949633	8431.604551
595.301190	8410.870285
595.652692	8437.399357
596.004141	8547.346922
596.355535	8323.189496
596.706876	8307.589645
597.058162	8240.486847
597.409395	8320.497520
597.760573	8380.273002
598.111698	8287.868652
598.462768	8274.396168
598.813785	8236.721105
599.164748	8210.481899
599.515657	8196.157460
599.866511	8108.373328
600.217312	8233.131803
600.568060	8089.239628
600.918753	8194.808952
601.269392	8165.348448
601.619978	8075.477278
601.970510	8141.821383
602.320988	8138.524469
602.671412	8195.446657
603.021783	8127.685988
603.372100	8101.371165
603.722363	8104.973069
604.072572	8082.628155
604.422728	8091.021676
604.772830	8021.579782
605.122878	8031.939353
605.472872	8026.988940
605.822813	8053.545738
606.172701	7997.301585
606.522534	8073.423008
606.872314	8065.150475
607.222041	8041.028553
607.571714	8093.905216
607.921333	8056.348620
608.270899	8057.316522
608.620411	8151.323958
608.969870	8054.266623
609.319276	8056.131850
609.668627	8069.642143
610.017926	8101.280424
610.367171	8144.563771
610.716362	8122.367571
611.065500	8113.616128
611.414585	8140.808112
611.763616	8133.468192
612.112594	8108.030529
612.461518	8127.426369
612.810389	8185.618928
613.159207	8130.241853
613.507971	8079.744615
613.856682	8199.290537
614.205340	8146.580233
614.553945	8228.821617
614.902496	8124.459650
615.250994	8183.461314
615.599439	8168.781474
615.947830	8176.242382
616.296169	8150.381263
616.644454	8158.623549
616.992686	8159.934249
617.340864	8216.430460
617.688990	8121.132488
618.037063	8211.212866
618.385082	8163.372316
618.733048	8246.475737
619.080961	8188.139505
619.428821	8199.779529
619.776628	8199.255249
620.124382	8153.731109
620.472083	8139.683934
620.819731	8163.962131
621.167326	8065.132831
621.514868	8068.200373
621.862357	7963.621636
622.209793	7974.157648
622.557176	7908.970487
622.904506	7879.968729
623.251783	7817.619738
623.599007	7771.271370
623.946179	7772.173737
624.293297	7730.518682
624.640363	7652.980695
624.987376	7635.901266
625.334336	7577.807009
625.681243	7527.667693
626.028097	7515.921804
626.374899	7492.379616
626.721647	7485.488358
627.068343	7422.610047
627.414987	7394.399750
627.761577	7346.990218
628.108115	7385.965899
628.454600	7279.068232
628.801032	7330.392219
629.147412	7287.849922
629.493739	7278.982532
629.840014	7213.132460
630.186236	7272.484485
630.532405	7149.571072
630.878521	7205.356480
631.224585	7163.096488
631.570597	7089.535971
631.916556	7123.906558
632.262462	7117.872297
632.608316	7077.976605
632.954117	7052.110445
633.299866	7041.670215
633.645562	7033.947167
633.991206	6950.964734
634.336797	6894.473564
634.682336	6853.292378
635.027823	6820.600495
635.373257	6814.906512
635.718639	6744.675677
636.063968	6758.639673
636.409245	6655.313664
636.754470	6650.113713
637.099642	6615.768332
637.444762	6554.077212
637.789829	6563.713378
638.134845	6503.522001
638.479808	6492.005485
638.824719	6494.760475
639.169577	6419.249032
639.514383	6445.135357
639.859137	6371.887392
640.203839	6376.666405
640.548489	6369.170210
