Dividing Wavelength (nm)	Counts (n)	Blue Motor Position (mm): 41.800000	Red Motor Position (mm): 0.000000	
326.493990	2130.263066
326.888308	2130.263066
327.282561	2130.263066
327.676750	2097.440113
328.070874	2095.597572
328.464933	2098.433221
328.858929	2105.579056
329.252859	2114.779162
329.646726	2126.797273
330.040528	2138.074334
330.434265	2156.414052
330.827938	2173.916938
331.221547	2191.366892
331.615091	2207.899356
332.008571	2230.284599
332.401986	2250.209760
332.795338	2272.063162
333.188625	2288.509926
333.581847	2306.882412
333.975006	2325.990905
334.368100	2343.617300
334.761129	2361.422655
335.154095	2377.725747
335.546996	2399.952194
335.939833	2425.203333
336.332606	2439.328647
336.725315	2453.738785
337.117960	2462.296143
337.510540	2471.251753
337.903056	2480.252733
338.295508	2486.975112
338.687896	2496.535660
339.080220	2504.092350
339.472480	2511.003772
339.864676	2514.731705
340.256807	2519.306552
340.648875	2524.168745
341.040879	2526.119672
341.432818	2528.335259
341.824694	2533.804911
342.216506	2531.183511
342.608253	2531.301978
342.999937	2531.785929
343.391557	2530.160157
343.783113	2529.789632
344.174605	2528.925074
344.566033	2525.517254
344.957397	2525.885258
345.348697	2521.869979
345.739934	2522.225380
346.131106	2520.135822
346.522215	2520.211439
346.913260	2514.449401
347.304241	2514.519977
347.695159	2511.447393
348.086012	2511.248268
348.476802	2509.090654
348.867528	2507.454800
349.258191	2505.818945
349.648789	2507.918586
350.039324	2501.314674
350.429796	2503.031187
350.820203	2501.957421
351.210548	2498.771412
351.600828	2500.107318
351.991045	2499.025990
352.381198	2499.262925
352.771288	2497.173366
353.161314	2493.823520
353.551276	2499.265445
353.941175	2496.407111
354.331010	2495.260248
354.720782	2495.882831
355.110490	2496.828047
355.500135	2497.838799
355.889717	2496.369302
356.279235	2499.255363
356.668689	2498.703357
357.058080	2500.029180
357.447408	2494.972903
357.836672	2497.543891
358.225873	2496.250835
358.615010	2493.344610
359.004084	2502.887514
359.393095	2497.889210
359.782043	2501.786022
360.170927	2500.235867
360.559748	2501.251660
360.948505	2504.755262
361.337199	2506.209635
361.725830	2504.777947
362.114398	2506.217196
362.502903	2504.782988
362.891344	2505.473626
363.279722	2506.466733
363.668037	2505.924809
364.056289	2506.202073
364.444478	2506.882629
364.832603	2508.243740
365.220665	2507.537979
365.608665	2509.012516
365.996601	2512.816067
366.384474	2510.025788
366.772284	2512.579133
367.160031	2509.980418
367.547715	2511.623834
367.935336	2510.605521
368.322893	2513.118536
368.710388	2512.264060
369.097820	2515.989473
369.485189	2512.813546
369.872495	2515.813033
370.259738	2515.719771
370.646918	2514.890502
371.034035	2516.831346
371.421090	2517.562313
371.808081	2513.995697
372.195010	2515.336644
372.581875	2517.156500
372.968678	2518.502488
373.355418	2516.932169
373.742096	2519.508198
374.128710	2519.571213
374.515262	2519.714886
374.901751	2517.630369
375.288177	2519.062056
375.674540	2517.292611
376.060841	2521.328055
376.447079	2522.056502
376.833254	2521.960720
377.219367	2518.454597
377.605417	2520.642458
377.991404	2519.515760
378.377329	2521.564989
378.763191	2520.040040
379.148991	2523.520957
379.534727	2523.551204
379.920402	2522.026255
380.306013	2526.709487
380.691563	2526.049096
381.077049	2527.258973
381.462474	2527.619415
381.847835	2530.767616
382.233134	2531.690147
382.618371	2531.934643
383.003545	2535.765920
383.388657	2542.977290
383.773706	2549.896274
384.158693	2557.243756
384.543618	2561.397666
384.928480	2571.366548
385.313280	2580.430543
385.698017	2593.497213
386.082692	2610.160747
386.467305	2620.719444
386.851856	2633.508852
387.236344	2653.902839
387.620770	2672.353462
388.005133	2691.320804
388.389435	2711.314020
388.773674	2729.721793
389.157851	2753.803385
389.541965	2779.016716
389.926018	2790.013993
390.310008	2828.122596
390.693936	2854.613859
391.077802	2891.227760
391.461606	2913.013106
391.845348	2959.096814
392.229027	2983.964826
392.612645	3016.634023
392.996200	3072.497570
393.379694	3120.685959
393.763125	3178.152592
394.146494	3198.775953
394.529801	3258.160745
394.913047	3315.939930
395.296230	3330.317301
395.679351	3391.158987
396.062410	3442.540947
396.445408	3462.007363
396.828343	3517.402082
397.211217	3567.962334
397.594028	3545.723284
397.976778	3619.719861
398.359466	3674.829755
398.742092	3721.568813
399.124656	3695.997560
399.507158	3784.598359
399.889598	3829.167200
400.271977	3905.190321
400.654294	3913.578801
401.036549	3941.587452
401.418742	3942.237760
401.800874	4052.669277
402.182944	4091.022375
402.564952	4170.231505
402.946898	4181.306920
403.328783	4198.582954
403.710606	4136.465856
404.092367	4330.081452
404.474067	4311.000685
404.855705	4337.711238
405.237282	4282.371972
405.618797	4399.049478
406.000250	4441.027166
406.381642	4531.324314
406.762972	4507.396477
407.144240	4523.825597
407.525447	4531.437740
407.906593	4599.465590
408.287677	4644.137775
408.668700	4583.286007
409.049661	4634.133605
409.430560	4684.091440
409.811399	4614.208445
410.192176	4775.918578
410.572891	4719.140062
410.953545	4823.161751
411.334138	4704.800500
411.714669	4776.425214
412.095139	4672.564842
412.475547	4817.377027
412.855894	4798.109737
413.236180	4808.350841
413.616405	4765.392648
413.996568	4851.722408
414.376670	4793.539931
414.756711	4752.184825
415.136691	4781.063075
415.516609	4860.047874
415.896466	4900.568668
416.276262	4933.532773
416.655997	4916.032408
417.035670	5095.719295
417.415283	5185.900497
417.794834	5127.471003
418.174324	5084.159930
418.553753	4993.411599
418.933121	5178.331204
419.312428	5246.573304
419.691674	5187.022153
420.070859	5311.387419
420.449983	5223.671342
420.829045	5340.978992
421.208047	5245.418879
421.586988	5317.472091
421.965867	5327.380479
422.344686	5461.071879
422.723444	5316.622657
423.102141	5132.857476
423.480777	5431.855872
423.859352	5201.618814
424.237866	5465.349298
424.616319	5453.409325
424.994712	5560.632147
425.373044	5440.360299
425.751314	5585.409418
426.129524	5385.638574
426.507673	5578.036731
426.885762	5662.801212
427.263789	5589.036528
427.641756	5477.221216
428.019662	5595.711016
428.397508	5605.324497
428.775292	5554.061003
429.153016	5651.667824
429.530679	5575.445578
429.908282	5662.491181
430.285824	5531.151479
430.663305	5805.838911
431.040726	5543.325866
431.418086	5542.360485
431.795385	5648.343183
432.172624	5659.058155
432.549802	5651.589686
432.926920	5664.928579
433.303977	5670.725906
433.680974	5715.367844
434.057910	5732.757304
434.434786	5742.791721
434.811601	5705.323345
435.188355	5938.000321
435.565050	5814.071116
435.941683	5797.722654
436.318257	6010.096383
436.694770	5994.047870
437.071222	6028.012644
437.447614	5962.263395
437.823946	5869.017172
438.200218	6029.003230
438.576429	5892.773609
438.952580	5989.699874
439.328670	6036.149066
439.704700	5940.498213
440.080670	5930.882212
440.456580	6201.574529
440.832429	6086.595893
441.208218	5931.320792
441.583947	6089.313074
441.959616	6085.794349
442.335224	6015.523185
442.710773	6151.102497
443.086261	6181.772877
443.461689	5977.964068
443.837057	6124.822962
444.212365	6274.804851
444.587612	6174.271640
444.962800	6324.427449
445.337927	6303.438605
445.712995	5914.606847
446.088002	6494.674776
446.462949	6324.467778
446.837837	6254.597386
447.212664	6427.685403
447.587431	6572.931128
447.962139	7115.598736
448.336786	8038.293727
448.711374	7775.188347
449.085901	6850.827254
449.460369	6770.304903
449.834776	6709.100255
450.209124	7102.194308
450.583412	7252.990343
450.957640	7395.140799
451.331808	7162.073133
451.705917	6716.805658
452.079965	6636.195088
452.453954	6846.196954
452.827883	6726.456947
453.201752	6818.135371
453.575562	6617.341172
453.949311	6821.840619
454.323001	6710.544545
454.696632	6784.256297
455.070202	6922.643532
455.443713	7082.944662
455.817164	7182.610794
456.190556	7261.830006
456.563888	7332.761562
456.937160	7380.675208
457.310373	7033.528752
457.683526	7056.402987
458.056619	6944.154135
458.429653	6941.255472
458.802628	6874.621500
459.175542	6984.846329
459.548398	7336.401275
459.921194	7503.281111
460.293930	7502.759352
460.666607	8033.368520
461.039224	8340.198349
461.411782	8462.756361
461.784280	8477.030388
462.156719	8369.071558
462.529099	8247.022702
462.901419	7838.568253
463.273680	7729.717139
463.645882	7747.507371
464.018024	7610.773634
464.390106	7780.988194
464.762130	8168.945312
465.134094	8645.878795
465.505999	9663.355040
465.877845	10876.780936
466.249631	11527.392251
466.621358	11144.902265
466.993026	10508.438947
467.364634	10258.047357
467.736184	9899.807841
468.107674	9565.546573
468.479105	9601.805072
468.850477	9364.480152
469.221790	9133.234863
469.593043	8804.536509
469.964238	8661.524016
470.335373	8677.653187
470.706449	8738.157116
471.077467	8711.320533
471.448425	10026.340802
471.819324	11098.228742
472.190164	11122.363266
472.560945	9871.080826
472.931667	9084.771731
473.302330	8948.411040
473.672934	8590.363088
474.043479	8955.791289
474.413965	8898.075119
474.784393	8770.717929
475.154761	8938.253115
475.525070	9019.997945
475.895321	8848.056790
476.265513	9029.336683
476.635645	9197.993526
477.005719	9194.673926
477.375734	9315.833018
477.745691	9547.118635
478.115588	9677.666876
478.485427	9929.351523
478.855207	10462.176279
479.224928	11276.783890
479.594591	11910.116651
479.964194	11715.782691
480.333739	11657.320430
480.703226	11570.519322
481.072653	11658.157261
481.442022	11894.834393
481.811333	12081.173083
482.180584	11894.695761
482.549777	11599.972263
482.918912	11429.089751
483.287988	11451.626229
483.657005	11458.489760
484.025964	11135.724844
484.394864	11269.479258
484.763706	11241.820968
485.132489	11001.584781
485.501213	10960.942999
485.869879	11044.230422
486.238487	10884.894673
486.607036	10992.150262
486.975527	10774.495924
487.343959	10964.592794
487.712333	11015.546257
488.080648	10938.535070
488.448905	10992.921558
488.817104	10920.081927
489.185244	11192.677280
489.553326	11346.084632
489.921350	11887.423897
490.289315	12950.404117
490.657222	13281.136577
491.025070	13196.863608
491.392861	13067.605903
491.760593	12685.607429
492.128267	12330.354797
492.495883	12013.533402
492.863440	11675.624859
493.230939	11340.120947
493.598380	11270.827767
493.965763	11134.020934
494.333088	11035.431088
494.700354	10962.818308
495.067563	11017.156906
495.434713	10843.978147
495.801805	10975.469084
496.168839	10905.835626
496.535815	10840.424134
496.902733	10840.225008
497.269593	10768.476786
497.636395	10871.142405
498.003139	10863.247958
498.369825	10727.623276
498.736453	10884.904755
499.103023	10817.323047
499.469535	10832.683442
499.835989	10828.295118
500.202385	10791.850096
500.568723	10645.835596
500.935003	10867.338854
501.301226	10665.574233
501.667390	10926.819429
502.033497	11025.837773
502.399546	10884.806453
502.765537	10792.429829
503.131470	10863.530263
503.497345	11043.544825
503.863163	10657.203398
504.228923	10965.626231
504.594625	11027.403051
504.960269	10777.165215
505.325856	10991.200004
505.691385	10788.883377
506.056856	10949.305495
506.422270	10970.775770
506.787625	10859.653615
507.152924	10974.697787
507.518164	10956.990734
507.883347	10871.054185
508.248472	10798.559872
508.613540	11027.319872
508.978550	10915.509600
509.343503	10890.490353
509.708398	11007.021666
510.073236	11122.176743
510.438016	11127.049018
510.802738	11073.592623
511.167403	11133.053032
511.532010	11027.461024
511.896561	11258.416446
512.261053	11333.605256
512.625488	11194.996210
512.989866	11178.791421
513.354186	11164.466983
513.718449	11068.591798
514.082655	11254.043245
514.446803	11156.222176
514.810894	11285.084150
515.174927	11145.028293
515.538904	11166.637199
515.902822	11321.148565
516.266684	11203.535925
516.630488	11145.618108
516.994235	11202.570544
517.357925	11259.588515
517.721558	11350.820796
518.085133	11374.032789
518.448651	11373.546318
518.812112	11263.760069
519.175516	11275.198448
519.538863	11398.169834
519.902152	11314.375775
520.265385	11472.320166
520.628560	11382.580066
520.991678	11361.243382
521.354739	11423.983062
521.717743	11368.711851
522.080690	11342.069353
522.443580	11475.145733
522.806413	11429.813157
523.169189	11465.514608
523.531908	11520.165757
523.894569	11337.348313
524.257174	11343.422903
524.619722	11462.300872
524.982213	11405.025803
525.344647	11462.353805
525.707025	11416.708677
526.069345	11504.455001
526.431608	11424.557754
526.793815	11531.881398
527.155964	11324.354739
527.518057	11376.450022
527.880093	11320.634367
528.242072	11391.427291
528.603995	11293.649071
528.965860	11220.282638
529.327669	11266.699062
529.689421	11212.776360
530.051117	11188.162926
530.412755	11297.301387
530.774337	11184.734942
531.135862	11165.150059
531.497331	11186.428769
531.858743	11036.048630
532.220098	11207.024403
532.581396	11070.855276
532.942638	11054.640405
533.303824	11023.778461
533.664953	11032.867662
534.026025	10949.524786
534.387040	11050.902389
534.747999	11045.851153
535.108902	11118.350507
535.469748	10871.414627
535.830537	10964.255037
536.191270	10947.621750
536.551947	10970.180913
536.912567	10967.133536
537.273131	10896.242310
537.633638	10879.750175
537.994089	10867.021262
538.354483	10815.157871
538.714821	10961.633637
539.075103	10965.744698
539.435328	10930.897722
539.795497	10760.516804
540.155609	10911.922819
540.515665	11004.939669
540.875665	10744.710267
541.235609	10806.161932
541.595496	10798.214553
541.955328	10960.075921
542.315102	10841.946563
542.674821	10795.981322
543.034483	10793.672473
543.394090	10797.231528
543.753640	10730.378266
544.113134	10947.737697
544.472571	10799.522732
544.831953	10944.037490
545.191278	10749.832079
545.550548	10777.813003
545.909761	10920.026474
546.268918	10889.489684
546.628019	10974.067643
546.987064	10835.695532
547.346053	10764.073338
547.704986	10863.444563
548.063863	10840.711480
548.422684	10839.299957
548.781449	10750.293344
549.140158	10857.281753
549.498811	10733.773483
549.857408	10596.432288
550.215949	10813.776595
550.574434	10672.566314
550.932864	10775.491552
551.291237	10829.447022
551.649555	10778.044896
552.007817	10786.357759
552.366022	10753.751576
552.724173	10749.892573
553.082267	10733.539070
553.440305	10865.347599
553.798288	10669.460963
554.156215	10821.842441
554.514086	10800.931735
554.871902	10645.921295
555.229661	10686.411843
555.587365	10664.172793
555.945014	10546.905472
556.302606	10681.355566
556.660143	10573.016128
557.017625	10725.977339
557.375050	10624.952616
557.732421	10757.504715
558.089735	10665.589357
558.446994	10675.452374
558.804197	10710.170801
559.161345	10707.866994
559.518437	10557.388551
559.875474	10645.936419
560.232455	10673.657724
560.589381	10621.809456
560.946251	10618.678900
561.303065	10729.828780
561.659825	10666.335448
562.016528	10597.939593
562.373177	10476.621705
562.729770	10595.298028
563.086307	10508.814513
563.442789	10601.039902
563.799216	10478.232354
564.155587	10533.248986
564.511904	10485.607562
564.868164	10474.590120
565.224370	10497.308080
565.580520	10417.521738
565.936615	10418.759341
566.292654	10289.763776
566.648638	10416.755482
567.004567	10377.691581
567.360441	10356.818684
567.716260	10273.780798
568.072023	10364.667760
568.427732	10309.956118
568.783385	10224.453107
569.138982	10292.803592
569.494525	10304.418410
569.850013	10186.810812
570.205445	10270.801476
570.560823	10161.148818
570.916145	10079.003216
571.271412	10149.019802
571.626625	10091.240617
571.981782	10073.853677
572.336884	10041.040807
572.691931	10053.565554
573.046923	9999.025310
573.401860	9951.247775
573.756743	9883.192198
574.111570	9927.685422
574.466342	9918.041694
574.821059	9943.300396
575.175722	9838.630918
575.530330	9845.396147
575.884882	9843.525879
576.239380	9768.112738
576.593823	9741.485363
576.948211	9757.649823
577.302544	9642.953491
577.656823	9658.548300
578.011047	9656.332713
578.365216	9634.290268
578.719330	9552.091734
579.073389	9567.971368
579.427394	9515.341722
579.781344	9486.707968
580.135239	9441.292213
580.489080	9448.919479
580.842866	9353.732412
581.196597	9355.206950
581.550273	9394.036437
581.903895	9366.405873
582.257463	9433.425493
582.610975	9307.268097
582.964434	9337.751954
583.317837	9251.860775
583.671186	9239.895597
584.024481	9229.881344
584.377721	9154.460642
584.730906	9132.539184
585.084037	9157.157659
585.437113	9089.759953
585.790135	9113.987738
586.143103	9012.698354
586.496016	8987.941248
586.848874	9049.380310
587.201679	9035.761633
587.554428	8922.756608
587.907124	8965.112383
588.259765	8933.988299
588.612352	8941.267725
588.964884	8817.600659
589.317362	8829.278492
589.669786	8826.495775
590.022155	8881.409064
590.374470	8891.052792
590.726731	8826.702463
591.078937	8679.553703
591.431090	8786.048077
591.783188	8672.987600
592.135232	8665.466198
592.487222	8666.005602
592.839157	8715.872695
593.191038	8644.321078
593.542866	8592.339220
593.894639	8492.947831
594.246358	8544.571767
594.598022	8561.744458
594.949633	8458.748643
595.301190	8430.319056
595.652692	8460.911298
596.004141	8577.626613
596.355535	8347.409720
596.706876	8334.143923
597.058162	8265.415352
597.409395	8335.588214
597.760573	8397.969972
598.111698	8316.361253
598.462768	8296.136144
598.813785	8266.390816
599.164748	8234.964263
599.515657	8221.380873
599.866511	8134.927606
600.217312	8260.679188
600.568060	8116.479503
600.918753	8220.743168
601.269392	8188.603291
601.619978	8100.962832
601.970510	8166.951535
602.320988	8160.856780
602.671412	8215.835604
603.021783	8154.711614
603.372100	8125.467880
603.722363	8129.442830
604.072572	8104.484077
604.422728	8115.040254
604.772830	8044.615334
605.122878	8054.564052
605.472872	8043.871764
605.822813	8075.036177
606.172701	8021.695728
606.522534	8095.099970
606.872314	8095.843540
607.222041	8067.575270
607.571714	8116.650902
607.921333	8079.537928
608.270899	8088.506140
608.620411	8173.187443
608.969870	8077.715551
609.319276	8078.292763
609.668627	8089.214422
610.017926	8124.459650
610.367171	8171.871702
610.716362	8146.136611
611.065500	8137.833831
611.414585	8170.936567
611.763616	8154.451994
612.112594	8140.760221
612.461518	8152.922004
612.810389	8211.623720
613.159207	8149.809092
613.507971	8101.782019
613.856682	8218.976243
614.205340	8174.316661
614.553945	8254.110565
614.902496	8152.332189
615.250994	8208.732618
615.599439	8185.263527
615.947830	8199.098973
616.296169	8171.700302
616.644454	8187.234618
616.992686	8185.613887
617.340864	8240.766631
617.688990	8141.839027
618.037063	8240.814522
618.385082	8189.094804
618.733048	8279.359184
619.080961	8208.593987
619.428821	8232.841937
619.776628	8227.034528
620.124382	8185.303856
620.472083	8170.490425
620.819731	8196.855660
621.167326	8088.559072
621.514868	8097.940660
621.862357	7977.169737
622.209793	8001.515990
622.557176	7931.181811
622.904506	7901.328098
623.251783	7837.194539
623.599007	7786.188144
623.946179	7791.945142
624.293297	7753.491220
624.640363	7670.045001
624.987376	7650.608832
625.334336	7602.468333
625.681243	7553.871610
626.028097	7540.512553
626.374899	7519.760643
626.721647	7508.231524
627.068343	7439.094620
627.414987	7413.669560
627.761577	7362.388423
628.108115	7406.470793
628.454600	7303.762324
628.801032	7350.143460
629.147412	7312.160886
629.493739	7293.312012
629.840014	7234.078454
630.186236	7286.955117
630.532405	7173.882036
630.878521	7228.157619
631.224585	7180.115423
631.570597	7107.477437
631.916556	7140.204608
632.262462	7135.763352
632.608316	7095.663493
632.954117	7069.880512
633.299866	7063.437917
633.645562	7054.568007
633.991206	6976.566234
634.336797	6913.506440
634.682336	6869.872733
635.027823	6845.155956
635.373257	6835.459296
635.718639	6763.587566
636.063968	6776.883609
636.409245	6675.168248
636.754470	6669.824625
637.099642	6629.888604
637.444762	6569.795530
637.789829	6580.944042
638.134845	6524.110073
638.479808	6505.888823
638.824719	6511.504668
639.169577	6446.040244
639.514383	6462.965918
639.859137	6389.803652
640.203839	6399.273460
640.548489	6383.512292
