Dividing Wavelength (nm)	Counts (n)	Blue Motor Position (mm): 21.900000	Red Motor Position (mm): 0.000000	
326.493990	2133.764147
326.888308	2133.764147
327.282561	2133.764147
327.676750	2101.132758
328.070874	2099.638056
328.464933	2104.001175
328.858929	2110.781527
329.252859	2119.084307
329.646726	2128.793570
330.040528	2144.350570
330.434265	2159.174083
330.827938	2176.550941
331.221547	2197.300330
331.615091	2213.190047
332.008571	2236.046638
332.401986	2254.598084
332.795338	2273.416712
333.188625	2291.882458
333.581847	2309.927268
333.975006	2328.781184
334.368100	2345.414471
334.761129	2363.839888
335.154095	2385.108516
335.546996	2401.572925
335.939833	2426.975299
336.332606	2438.562391
336.725315	2452.546552
337.117960	2460.483849
337.510540	2471.511373
337.903056	2482.034781
338.295508	2488.091728
338.687896	2497.755620
339.080220	2509.040243
339.472480	2510.340860
339.864676	2516.002076
340.256807	2520.642458
340.648875	2524.161183
341.040879	2527.488345
341.432818	2528.541946
341.824694	2530.397091
342.216506	2526.568334
342.608253	2530.258459
342.999937	2531.213758
343.391557	2528.720907
343.783113	2527.390043
344.174605	2526.903571
344.566033	2524.579599
344.957397	2521.144053
345.348697	2522.243024
345.739934	2520.213960
346.131106	2518.757067
346.522215	2516.818743
346.913260	2514.605676
347.304241	2517.128774
347.695159	2510.832373
348.086012	2511.071828
348.476802	2509.070489
348.867528	2506.499501
349.258191	2503.938595
349.648789	2506.247443
350.039324	2498.995743
350.429796	2503.129490
350.820203	2498.680671
351.210548	2498.065651
351.600828	2498.078253
351.991045	2497.135558
352.381198	2495.154384
352.771288	2497.105311
353.161314	2497.238901
353.551276	2495.885352
353.941175	2496.260917
354.331010	2496.389467
354.720782	2494.637666
355.110490	2496.545743
355.500135	2495.091370
355.889717	2496.021463
356.279235	2496.099601
356.668689	2496.918788
357.058080	2495.086329
357.447408	2491.733961
357.836672	2496.621360
358.225873	2495.219919
358.615010	2494.945176
359.004084	2498.418531
359.393095	2499.933398
359.782043	2497.743017
360.170927	2499.469612
360.559748	2502.254849
360.948505	2501.659993
361.337199	2503.255518
361.725830	2500.545898
362.114398	2504.994717
362.502903	2501.977586
362.891344	2504.725015
363.279722	2503.313492
363.668037	2504.246105
364.056289	2505.496311
364.444478	2503.389109
364.832603	2505.486229
365.220665	2509.650222
365.608665	2506.751559
365.996601	2508.402537
366.384474	2506.355828
366.772284	2506.539830
367.160031	2508.810870
367.547715	2506.373472
367.935336	2507.948833
368.322893	2510.550068
368.710388	2507.084275
369.097820	2510.860099
369.485189	2511.109636
369.872495	2507.636281
370.259738	2507.848010
370.646918	2511.112157
371.034035	2510.229955
371.421090	2512.480830
371.808081	2508.596621
372.195010	2510.550068
372.581875	2512.274143
372.968678	2511.114677
373.355418	2509.073010
373.742096	2515.213135
374.128710	2511.417147
374.515262	2513.426046
374.901751	2511.157527
375.288177	2512.546365
375.674540	2513.453773
376.060841	2515.255985
376.447079	2512.362363
376.833254	2513.206756
377.219367	2507.616117
377.605417	2513.214318
377.991404	2510.418998
378.377329	2511.540655
378.763191	2507.064110
379.148991	2516.465862
379.534727	2514.056191
379.920402	2516.629700
380.306013	2513.998217
380.691563	2516.329751
381.077049	2515.278670
381.462474	2519.283867
381.847835	2516.014679
382.233134	2517.698424
382.618371	2517.516943
383.003545	2517.746315
383.388657	2516.244051
383.773706	2517.950482
384.158693	2514.368742
384.543618	2518.167252
384.928480	2519.334279
385.313280	2518.021058
385.698017	2517.791686
386.082692	2521.817047
386.467305	2518.580626
386.851856	2520.327386
387.236344	2522.013652
387.620770	2521.310411
388.005133	2519.790503
388.389435	2520.438291
388.773674	2518.643641
389.157851	2518.817560
389.541965	2521.101203
389.926018	2521.033147
390.310008	2521.446522
390.693936	2520.299660
391.077802	2520.549197
391.461606	2523.891482
391.845348	2522.137160
392.229027	2524.196472
392.612645	2521.454084
392.996200	2519.072139
393.379694	2523.094979
393.763125	2522.122037
394.146494	2520.876872
394.529801	2521.764115
394.913047	2524.877027
395.296230	2524.060360
395.679351	2521.086080
396.062410	2525.207223
396.445408	2525.519774
396.828343	2526.013807
397.211217	2522.149763
397.594028	2523.838550
397.976778	2522.706811
398.359466	2521.484331
398.742092	2518.915863
399.124656	2526.838036
399.507158	2524.937521
399.889598	2526.520443
400.271977	2526.255783
400.654294	2528.025228
401.036549	2526.467511
401.418742	2528.592358
401.800874	2526.951462
402.182944	2526.805269
402.564952	2527.150588
402.946898	2528.320135
403.328783	2525.227388
403.710606	2529.154446
404.092367	2525.892820
404.474067	2528.675537
404.855705	2528.166380
405.237282	2527.153108
405.618797	2529.119158
406.000250	2525.802079
406.381642	2528.723428
406.762972	2527.594209
407.144240	2531.538912
407.525447	2529.305681
407.906593	2532.589993
408.287677	2531.755682
408.668700	2528.811648
409.049661	2528.922553
409.430560	2530.490352
409.811399	2531.201155
410.192176	2531.208717
410.572891	2533.285672
410.953545	2531.717873
411.334138	2528.277286
411.714669	2530.654190
412.095139	2531.710311
412.475547	2530.878521
412.855894	2532.332894
413.236180	2533.547812
413.616405	2532.685775
413.996568	2531.738038
414.376670	2532.831968
414.756711	2533.343645
415.136691	2534.049407
415.516609	2533.376413
415.896466	2533.686444
416.276262	2532.988244
416.655997	2532.872297
417.035670	2528.057995
417.415283	2531.730476
417.794834	2530.951618
418.174324	2531.425486
418.553753	2535.304654
418.933121	2535.909593
419.312428	2534.377082
419.691674	2534.805580
420.070859	2533.890610
420.449983	2532.995806
420.829045	2535.347504
421.208047	2535.876825
421.586988	2533.787267
421.965867	2534.946732
422.344686	2535.140817
422.723444	2536.880015
423.102141	2534.639222
423.480777	2536.267514
423.859352	2535.649973
424.237866	2537.716846
424.616319	2535.818852
424.994712	2534.243491
425.373044	2538.404964
425.751314	2537.064017
426.129524	2537.837834
426.507673	2538.881353
426.885762	2536.108718
427.263789	2536.630477
427.641756	2537.527803
428.019662	2540.328164
428.397508	2535.052596
428.775292	2541.391847
429.153016	2540.602907
429.530679	2539.355221
429.908282	2538.180632
430.285824	2538.732639
430.663305	2541.769934
431.040726	2538.077289
431.418086	2540.413863
431.795385	2539.514018
432.172624	2542.228679
432.549802	2539.992927
432.926920	2540.348328
433.303977	2540.045859
433.680974	2537.875642
434.057910	2538.846065
434.434786	2539.491332
434.811601	2541.631302
435.188355	2541.691796
435.565050	2541.913607
435.941683	2542.453010
436.318257	2538.871270
436.694770	2536.259953
437.071222	2540.517207
437.447614	2536.943029
437.823946	2536.630478
438.200218	2540.645757
438.576429	2540.827238
438.952580	2543.252033
439.328670	2543.073072
439.704700	2543.683052
440.080670	2540.996117
440.456580	2541.162475
440.832429	2544.978628
441.208218	2542.286652
441.583947	2543.972918
441.959616	2542.984852
442.335224	2541.573329
442.710773	2540.963349
443.086261	2543.957795
443.461689	2543.914945
443.837057	2544.222455
444.212365	2544.542568
444.587612	2545.296221
444.962800	2544.671118
445.337927	2545.444935
445.712995	2543.698175
446.088002	2542.296734
446.462949	2545.442414
446.837837	2546.309493
447.212664	2545.205480
447.587431	2545.397044
447.962139	2545.931406
448.336786	2549.868547
448.711374	2546.301931
449.085901	2549.215718
449.460369	2544.396375
449.834776	2547.353012
450.209124	2545.240768
450.583412	2548.875440
450.957640	2546.780841
451.331808	2547.138763
451.705917	2546.465769
452.079965	2547.458876
452.453954	2547.451314
452.827883	2549.886192
453.201752	2547.688248
453.575562	2546.710265
453.949311	2549.437529
454.323001	2549.185471
454.696632	2549.283774
455.070202	2549.019113
455.443713	2548.872920
455.817164	2543.751107
456.190556	2545.313865
456.563888	2548.146993
456.937160	2545.109698
457.310373	2551.406099
457.683526	2550.165976
458.056619	2550.155893
458.429653	2549.661860
458.802628	2550.216387
459.175542	2549.974412
459.548398	2549.944165
459.921194	2550.234031
460.293930	2551.864844
460.666607	2550.919628
461.039224	2552.384083
461.411782	2551.118754
461.784280	2555.033210
462.156719	2550.899463
462.529099	2554.645041
462.901419	2552.041285
463.273680	2555.754095
463.645882	2553.777962
464.018024	2554.607232
464.390106	2553.535987
464.762130	2557.503375
465.134094	2554.093034
465.505999	2556.785011
465.877845	2558.771225
466.249631	2561.198541
466.621358	2559.701318
466.993026	2565.065106
467.364634	2563.744323
467.736184	2559.575289
468.107674	2561.090156
468.479105	2562.937739
468.850477	2561.952193
469.221790	2564.886145
469.593043	2562.181566
469.964238	2561.511092
470.335373	2564.704663
470.706449	2568.495611
471.077467	2568.515776
471.448425	2578.545151
471.819324	2583.545976
472.190164	2583.994638
472.560945	2581.847107
472.931667	2581.837025
473.302330	2583.571182
473.672934	2585.968250
474.043479	2593.393870
474.413965	2591.906729
474.784393	2592.320104
475.154761	2600.491814
475.525070	2606.790736
475.895321	2607.778802
476.265513	2615.993362
476.635645	2624.782614
477.005719	2629.075157
477.375734	2636.120169
477.745691	2645.673156
478.115588	2657.502223
478.485427	2667.854233
478.855207	2689.745443
479.224928	2715.919114
479.594591	2738.140520
479.964194	2740.116652
480.333739	2744.804926
480.703226	2762.668254
481.072653	2776.642333
481.442022	2802.473205
481.811333	2822.594971
482.180584	2834.769357
482.549777	2840.395285
482.918912	2849.219825
483.287988	2868.996271
483.657005	2888.659292
484.025964	2897.365364
484.394864	2914.638878
484.763706	2935.625202
485.132489	2944.757252
485.501213	2965.587299
485.869879	2984.307624
486.238487	3007.728825
486.607036	3031.724717
486.975527	3051.417985
487.343959	3081.591811
487.712333	3111.513580
488.080648	3133.021663
488.448905	3167.190603
488.817104	3187.604756
489.185244	3241.318250
489.553326	3288.629479
489.921350	3376.466544
490.289315	3520.502391
490.657222	3590.055191
491.025070	3627.909215
491.392861	3654.728154
491.760593	3657.916683
492.128267	3658.897188
492.495883	3657.982218
492.863440	3657.702434
493.230939	3667.494876
493.598380	3701.263045
493.965763	3735.641193
494.333088	3756.836725
494.700354	3798.774084
495.067563	3847.234696
495.434713	3875.835682
495.801805	3945.698512
496.168839	3985.135459
496.535815	4029.979043
496.902733	4071.447575
497.269593	4123.106799
497.636395	4181.392619
498.003139	4249.833845
498.369825	4265.426133
498.736453	4363.209395
499.103023	4398.356319
499.469535	4469.073625
499.835989	4515.893342
500.202385	4570.093307
500.568723	4598.573306
500.935003	4700.873441
501.301226	4742.215944
501.667390	4855.178119
502.033497	4953.284014
502.399546	4971.225481
502.765537	5009.470194
503.131470	5091.794757
503.497345	5216.104570
503.863163	5160.926620
504.228923	5328.000541
504.594625	5407.297891
504.960269	5396.562754
505.325856	5537.470566
505.691385	5543.552718
506.056856	5661.482950
506.422270	5743.338686
506.787625	5758.739411
507.152924	5881.579727
507.518164	5938.877482
507.883347	5984.487321
508.248472	6021.340677
508.613540	6188.855698
508.978550	6213.701025
509.343503	6272.942144
509.708398	6399.901083
510.073236	6520.082191
510.438016	6592.281597
510.802738	6649.697818
511.167403	6744.211891
511.532010	6774.569720
511.896561	6946.246214
512.261053	7064.736014
512.625488	7071.365132
512.989866	7134.263608
513.354186	7199.337343
513.718449	7226.415901
514.082655	7385.116465
514.446803	7414.077894
514.810894	7548.225518
515.174927	7554.355561
515.538904	7628.770554
515.902822	7792.338352
516.266684	7786.057074
516.630488	7834.338725
516.994235	7928.179804
517.357925	8042.780354
517.721558	8162.285948
518.085133	8250.927076
518.448651	8313.535686
518.812112	8305.999161
519.175516	8389.150473
519.538863	8535.081795
519.902152	8536.021970
520.265385	8721.566679
520.628560	8707.673259
520.991678	8777.326881
521.354739	8873.617961
521.717743	8881.303200
522.080690	8928.795910
522.443580	9099.260007
522.806413	9121.551989
523.169189	9206.555926
523.531908	9306.388416
523.894569	9224.499913
524.257174	9289.435015
524.619722	9441.607285
524.982213	9444.074930
525.344647	9542.886587
525.707025	9557.992404
526.069345	9683.116363
526.431608	9674.180918
526.793815	9808.668820
527.155964	9684.858082
527.518057	9776.428121
527.880093	9774.247822
528.242072	9881.969718
528.603995	9853.497281
528.965860	9829.468621
529.327669	9919.982538
529.689421	9907.724973
530.051117	9926.664588
530.412755	10056.854907
530.774337	9995.798972
531.135862	10025.693014
531.497331	10077.637063
531.858743	9991.937448
532.220098	10162.459518
532.581396	10084.510677
532.942638	10109.078740
533.303824	10106.658986
533.664953	10151.053907
534.026025	10099.089693
534.387040	10221.536800
534.747999	10250.752807
535.108902	10327.395989
535.469748	10136.038831
535.830537	10253.464948
536.191270	10263.902657
536.551947	10310.399739
536.912567	10327.569909
537.273131	10289.461307
537.633638	10279.280697
537.994089	10295.919025
538.354483	10271.431620
538.714821	10429.330641
539.075103	10456.149579
539.435328	10441.396642
539.795497	10297.539756
540.155609	10464.099479
540.515665	10559.077338
540.875665	10325.286267
541.235609	10406.705942
541.595496	10413.335060
541.955328	10580.482077
542.315102	10480.357200
542.674821	10451.547006
543.034483	10465.155601
543.394090	10474.232198
543.753640	10419.218086
544.113134	10643.509103
544.472571	10517.331543
544.831953	10664.066928
545.191278	10488.236523
545.550548	10530.315035
545.909761	10671.399287
546.268918	10648.366255
546.628019	10743.283620
546.987064	10619.672007
547.346053	10539.648731
547.704986	10654.917234
548.063863	10648.953549
548.422684	10642.218568
548.781449	10573.447147
549.140158	10672.939359
549.498811	10561.492051
549.857408	10427.518346
550.215949	10654.352625
550.574434	10508.975830
550.932864	10613.307550
551.291237	10673.942549
551.649555	10626.974118
552.007817	10642.795780
552.366022	10609.897210
552.724173	10617.174115
553.082267	10591.998593
553.440305	10738.295398
553.798288	10543.071674
554.156215	10695.959788
554.514086	10683.878663
554.871902	10530.234376
555.229661	10572.655686
555.587365	10553.211955
555.945014	10447.945101
556.302606	10571.453371
556.660143	10470.920160
557.017625	10625.547472
557.375050	10517.961687
557.732421	10661.528707
558.089735	10574.132744
558.446994	10579.161295
558.804197	10614.766964
559.161345	10620.077820
559.518437	10464.795158
559.875474	10552.397809
560.232455	10584.756976
560.589381	10540.644359
560.946251	10538.297702
561.303065	10639.309822
561.659825	10581.313868
562.016528	10513.459937
562.373177	10388.746832
562.729770	10505.283185
563.086307	10423.606411
563.442789	10513.482622
563.799216	10396.726978
564.155587	10443.614750
564.511904	10402.415920
564.868164	10392.467203
565.224370	10411.827755
565.580520	10327.562347
565.936615	10341.594399
566.292654	10209.097753
566.648638	10344.719915
567.004567	10300.332555
567.360441	10281.980234
567.716260	10200.421927
568.072023	10293.559765
568.427732	10246.835830
568.783385	10151.457200
569.138982	10226.794723
569.494525	10238.268389
569.850013	10120.635585
570.205445	10196.804899
570.560823	10097.970557
570.916145	10014.902424
571.271412	10082.194266
571.626625	10034.033603
571.981782	10007.098718
572.336884	9986.072065
572.691931	9988.985852
573.046923	9932.088869
573.401860	9890.030523
573.756743	9827.106841
574.111570	9872.177277
574.466342	9850.492753
574.821059	9885.924503
575.175722	9779.357031
575.530330	9786.654102
575.884882	9780.491291
576.239380	9701.264517
576.593823	9683.587711
576.948211	9695.716727
577.302544	9582.968801
577.656823	9596.002704
578.011047	9593.739226
578.365216	9574.393798
578.719330	9506.759158
579.073389	9506.169343
579.427394	9463.380029
579.781344	9435.099156
580.135239	9384.206187
580.489080	9390.817660
580.842866	9294.050192
581.196597	9303.083939
581.550273	9338.830761
581.903895	9303.441861
582.257463	9372.543478
582.610975	9250.499664
582.964434	9275.276935
583.317837	9199.069812
583.671186	9188.639665
584.024481	9178.262450
584.377721	9101.526006
584.730906	9074.210514
585.084037	9106.945246
585.437113	9041.536275
585.790135	9063.677023
586.143103	8959.955282
586.496016	8937.058362
586.848874	8995.530705
587.201679	8984.740115
587.554428	8870.802477
587.907124	8911.794619
588.259765	8885.063901
588.612352	8891.221670
588.964884	8763.476311
589.317362	8784.984394
589.669786	8779.991131
590.022155	8829.205396
590.374470	8839.874998
590.726731	8778.675390
591.078937	8633.921178
591.431090	8750.838138
591.783188	8618.691852
592.135232	8611.462837
592.487222	8614.752190
592.839157	8661.715580
593.191038	8596.442720
593.542866	8541.325264
593.894639	8446.659957
594.246358	8497.898244
594.598022	8512.215121
594.949633	8413.405985
595.301190	8385.788024
595.652692	8415.881192
596.004141	8521.246348
596.355535	8304.138976
596.706876	8285.098538
597.058162	8218.958599
597.409395	8290.815206
597.760573	8357.363478
598.111698	8264.066844
598.462768	8247.514215
598.813785	8220.196202
599.164748	8186.213784
599.515657	8178.674739
599.866511	8085.511695
600.217312	8211.570788
600.568060	8071.736742
600.918753	8176.244903
601.269392	8144.828432
601.619978	8055.864669
601.970510	8117.437322
602.320988	8118.770707
602.671412	8174.425046
603.021783	8108.448945
603.372100	8084.203516
603.722363	8086.363650
604.072572	8056.416676
604.422728	8073.196156
604.772830	7999.771750
605.122878	8005.987493
605.472872	8006.481526
605.822813	8036.622585
606.172701	7977.820046
606.522534	8055.151346
606.872314	8050.836118
607.222041	8024.138167
607.571714	8078.822084
607.921333	8033.441617
608.270899	8046.735140
608.620411	8130.350238
608.969870	8037.265332
609.319276	8033.524796
609.668627	8046.102475
610.017926	8076.765293
610.367171	8125.808158
610.716362	8103.160775
611.065500	8091.440092
611.414585	8119.940255
611.763616	8111.909697
612.112594	8090.651151
612.461518	8107.657484
612.810389	8165.713932
613.159207	8107.319727
613.507971	8052.189668
613.856682	8177.888319
614.205340	8129.513406
614.553945	8208.846044
614.902496	8105.499870
615.250994	8161.025659
615.599439	8141.496229
615.947830	8156.110534
616.296169	8125.288919
616.644454	8142.524624
616.992686	8138.859706
617.340864	8201.967390
617.688990	8102.109694
618.037063	8197.294240
618.385082	8141.939851
618.733048	8228.317501
619.080961	8162.011205
619.428821	8181.850666
619.776628	8194.700567
620.124382	8137.821228
620.472083	8118.228783
620.819731	8151.210533
621.167326	8046.447794
621.514868	8047.677835
621.862357	7941.513656
622.209793	7956.803476
622.557176	7895.961790
622.904506	7861.296295
623.251783	7796.865308
623.599007	7758.993640
623.946179	7756.762929
624.293297	7710.782565
624.640363	7632.901779
624.987376	7609.730116
625.334336	7564.190852
625.681243	7513.580188
626.028097	7495.527816
626.374899	7482.798903
626.721647	7476.237841
627.068343	7399.753455
627.414987	7376.682614
627.761577	7331.644946
628.108115	7367.376644
628.454600	7259.659790
628.801032	7316.884447
629.147412	7270.125225
629.493739	7261.963597
629.840014	7195.024636
630.186236	7257.368585
630.532405	7136.320399
630.878521	7188.667741
631.224585	7143.103272
631.570597	7066.719708
631.916556	7103.963753
632.262462	7093.742814
632.608316	7063.369862
632.954117	7040.273815
633.299866	7025.142792
633.645562	7017.618870
633.991206	6936.010151
634.336797	6883.864456
634.682336	6838.776376
635.027823	6804.433515
635.373257	6798.845396
635.718639	6729.942905
636.063968	6738.180151
636.409245	6638.992928
636.754470	6634.130735
637.099642	6591.152378
637.444762	6536.586929
637.789829	6547.669906
638.134845	6490.770402
638.479808	6476.324976
638.824719	6479.972251
639.169577	6409.688484
639.514383	6431.299910
639.859137	6357.653694
640.203839	6366.692482
640.548489	6351.062385
640.893086	6332.158058
641.237632	6302.276619
641.582125	6319.971069
641.926566	6292.882428
642.270955	6303.723430
642.615292	6304.983718
