Dividing Wavelength (nm)	Counts (n)	Blue Motor Position (mm): 21.500000	Red Motor Position (mm): 0.000000	
326.493990	2133.746503
326.888308	2133.746503
327.282561	2133.746503
327.676750	2099.874991
328.070874	2101.667121
328.464933	2103.718870
328.858929	2107.855137
329.252859	2120.294184
329.646726	2132.087964
330.040528	2143.823770
330.434265	2161.011584
330.827938	2175.817453
331.221547	2194.384022
331.615091	2214.904039
332.008571	2233.856257
332.401986	2255.119844
332.795338	2274.140117
333.188625	2291.758950
333.581847	2310.799388
333.975006	2328.229178
334.368100	2348.159379
334.761129	2363.940711
335.154095	2380.226159
335.546996	2401.232647
335.939833	2425.044537
336.332606	2438.325457
336.725315	2451.850873
337.117960	2460.287244
337.510540	2467.760754
337.903056	2481.482775
338.295508	2486.430668
338.687896	2495.693788
339.080220	2503.099243
339.472480	2508.954543
339.864676	2516.823784
340.256807	2518.255472
340.648875	2521.383508
341.040879	2525.204702
341.432818	2524.597243
341.824694	2526.712007
342.216506	2529.736700
342.608253	2526.739734
342.999937	2526.969106
343.391557	2531.417924
343.783113	2526.462470
344.174605	2526.419620
344.566033	2524.438447
344.957397	2523.082377
345.348697	2520.476100
345.739934	2520.960051
346.131106	2517.955523
346.522215	2515.807992
346.913260	2515.182888
347.304241	2511.906138
347.695159	2509.894718
348.086012	2509.945130
348.476802	2507.512773
348.867528	2506.292814
349.258191	2504.351969
349.648789	2502.375837
350.039324	2499.484735
350.429796	2498.370640
350.820203	2500.906341
351.210548	2496.081957
351.600828	2498.511793
351.991045	2496.598675
352.381198	2494.529281
352.771288	2496.404590
353.161314	2497.148161
353.551276	2494.062974
353.941175	2494.599857
354.331010	2495.008191
354.720782	2494.206647
355.110490	2494.342758
355.500135	2493.374857
355.889717	2494.181442
356.279235	2494.650269
356.668689	2496.086998
357.058080	2496.704539
357.447408	2495.736638
357.836672	2490.629949
358.225873	2493.536174
358.615010	2492.434682
359.004084	2500.324088
359.393095	2495.802172
359.782043	2499.691423
360.170927	2498.834427
360.559748	2500.450116
360.948505	2499.797287
361.337199	2499.620847
361.725830	2503.517658
362.114398	2502.441372
362.502903	2504.798112
362.891344	2502.048162
363.279722	2503.379027
363.668037	2504.888852
364.056289	2503.557988
364.444478	2503.245436
364.832603	2504.314161
365.220665	2504.984634
365.608665	2503.837772
365.996601	2505.244254
366.384474	2505.450941
366.772284	2505.481188
367.160031	2505.892042
367.547715	2508.518483
367.935336	2505.934892
368.322893	2507.396826
368.710388	2508.959584
369.097820	2511.775068
369.485189	2505.856754
369.872495	2510.509739
370.259738	2508.883967
370.646918	2509.700634
371.034035	2507.585870
371.421090	2509.872033
371.808081	2510.731550
372.195010	2511.205418
372.581875	2508.712568
372.968678	2510.033350
373.355418	2509.526714
373.742096	2510.146776
374.128710	2511.328926
374.515262	2511.888494
374.901751	2510.769358
375.288177	2512.284225
375.674540	2512.932013
376.060841	2512.664832
376.447079	2513.413443
376.833254	2512.498474
377.219367	2507.638802
377.605417	2512.286746
377.991404	2509.473782
378.377329	2509.927486
378.763191	2510.658453
379.148991	2515.049298
379.534727	2513.736077
379.920402	2514.567868
380.306013	2515.674401
380.691563	2516.085255
381.077049	2516.453259
381.462474	2514.197343
381.847835	2516.876716
382.233134	2518.507529
382.618371	2513.504184
383.003545	2517.378311
383.388657	2516.183558
383.773706	2516.470903
384.158693	2518.525173
384.543618	2515.883609
384.928480	2515.445028
385.313280	2517.411078
385.698017	2519.498116
386.082692	2517.554751
386.467305	2517.320338
386.851856	2521.736388
387.236344	2518.656243
387.620770	2520.259330
388.005133	2518.880575
388.389435	2519.959382
388.773674	2520.138343
389.157851	2520.264372
389.541965	2519.533404
389.926018	2519.518281
390.310008	2518.066428
390.693936	2519.233456
391.077802	2519.011645
391.461606	2520.735719
391.845348	2520.415606
392.229027	2519.984587
392.612645	2518.820081
392.996200	2519.873682
393.379694	2523.326872
393.763125	2521.302849
394.146494	2522.255627
394.529801	2523.745288
394.913047	2523.042047
395.296230	2523.374763
395.679351	2524.642614
396.062410	2523.813344
396.445408	2523.251255
396.828343	2523.684794
397.211217	2519.316635
397.594028	2520.791172
397.976778	2520.670184
398.359466	2521.731347
398.742092	2519.850997
399.124656	2525.166894
399.507158	2526.028931
399.889598	2524.183869
400.271977	2524.985412
400.654294	2526.802748
401.036549	2527.634538
401.418742	2526.457429
401.800874	2524.665299
402.182944	2529.134282
402.564952	2524.950124
402.946898	2527.780732
403.328783	2526.616225
403.710606	2526.333921
404.092367	2529.731658
404.474067	2527.241328
404.855705	2527.581606
405.237282	2526.238139
405.618797	2526.177645
406.000250	2528.052954
406.381642	2528.567152
406.762972	2528.012625
407.144240	2528.035310
407.525447	2526.253262
407.906593	2528.095804
408.287677	2530.127389
408.668700	2527.513551
409.049661	2528.610002
409.430560	2530.076977
409.811399	2531.178470
410.192176	2530.613860
410.572891	2528.514220
410.953545	2528.405835
411.334138	2532.216947
411.714669	2530.994467
412.095139	2532.486649
412.475547	2531.738038
412.855894	2531.087729
413.236180	2533.862884
413.616405	2532.317770
413.996568	2532.600075
414.376670	2531.291896
414.756711	2533.759540
415.136691	2531.415404
415.516609	2534.306506
415.896466	2532.721063
416.276262	2535.284489
416.655997	2531.168387
417.035670	2528.985568
417.415283	2530.104704
417.794834	2530.119827
418.174324	2530.321473
418.553753	2532.204344
418.933121	2535.599562
419.312428	2534.999664
419.691674	2531.249046
420.070859	2532.685775
420.449983	2535.082843
420.829045	2534.329191
421.208047	2532.466484
421.586988	2536.486805
421.965867	2533.537730
422.344686	2533.537730
422.723444	2535.357586
423.102141	2534.470343
423.480777	2538.508307
423.859352	2536.229706
424.237866	2536.164171
424.616319	2534.982020
424.994712	2535.803728
425.373044	2536.239788
425.751314	2535.657535
426.129524	2537.817669
426.507673	2534.954294
426.885762	2534.553522
427.263789	2537.575694
427.641756	2538.306661
428.019662	2537.179963
428.397508	2534.737524
428.775292	2537.351363
429.153016	2539.950077
429.530679	2538.147865
429.908282	2536.958153
430.285824	2539.239275
430.663305	2538.364634
431.040726	2538.599048
431.418086	2537.248019
431.795385	2537.636188
432.172624	2542.016950
432.549802	2538.372196
432.926920	2538.934285
433.303977	2539.675334
433.680974	2538.291538
434.057910	2538.452855
434.434786	2541.192722
434.811601	2539.496373
435.188355	2539.400592
435.565050	2540.035777
435.941683	2539.864378
436.318257	2540.444110
436.694770	2535.589479
437.071222	2538.092412
437.447614	2537.381609
437.823946	2537.769778
438.200218	2540.660880
438.576429	2540.907897
438.952580	2541.412012
439.328670	2540.945705
439.704700	2543.725902
440.080670	2542.498381
440.456580	2539.632485
440.832429	2543.115922
441.208218	2541.903524
441.583947	2542.750438
441.959616	2539.451003
442.335224	2542.942002
442.710773	2541.931251
443.086261	2542.989893
443.461689	2541.921168
443.837057	2541.137269
444.212365	2541.931251
444.587612	2543.690613
444.962800	2542.722712
445.337927	2543.249512
445.712995	2542.589121
446.088002	2545.114739
446.462949	2544.136756
446.837837	2545.099616
447.212664	2545.286139
447.587431	2543.425953
447.962139	2545.283618
448.336786	2550.695297
448.711374	2544.570295
449.085901	2546.826211
449.460369	2546.347302
449.834776	2544.202291
450.209124	2545.107178
450.583412	2545.954092
450.957640	2545.603731
451.331808	2547.088351
451.705917	2543.889739
452.079965	2546.551468
452.453954	2548.454504
452.827883	2548.399051
453.201752	2547.332847
453.575562	2546.637168
453.949311	2545.195398
454.323001	2545.840666
454.696632	2548.051212
455.070202	2550.617159
455.443713	2548.152035
455.817164	2545.848227
456.190556	2544.459389
456.563888	2545.510470
456.937160	2541.835469
457.310373	2549.155224
457.683526	2549.293856
458.056619	2547.985677
458.429653	2547.426108
458.802628	2549.200595
459.175542	2548.731767
459.548398	2549.825698
459.921194	2549.344267
460.293930	2548.388969
460.666607	2551.922818
461.039224	2550.332334
461.411782	2550.007179
461.784280	2553.684701
462.156719	2549.868548
462.529099	2554.781152
462.901419	2550.090358
463.273680	2552.983981
463.645882	2553.195709
464.018024	2550.990204
464.390106	2548.935934
464.762130	2554.811399
465.134094	2553.243600
465.505999	2553.326779
465.877845	2555.312994
466.249631	2558.874569
466.621358	2557.261400
466.993026	2558.055381
467.364634	2559.035886
467.736184	2556.550597
468.107674	2556.069167
468.479105	2556.550597
468.850477	2558.733417
469.221790	2557.100083
469.593043	2557.311811
469.964238	2555.948179
470.335373	2561.158212
470.706449	2558.587223
471.077467	2558.088149
471.448425	2562.973027
471.819324	2565.390260
472.190164	2565.168449
472.560945	2564.263562
472.931667	2563.893037
473.302330	2568.165415
473.672934	2564.485373
474.043479	2568.132648
474.413965	2571.991651
474.784393	2566.993347
475.154761	2573.690520
475.525070	2571.916034
475.895321	2577.753690
476.265513	2580.349884
476.635645	2586.424475
477.005719	2587.926738
477.375734	2592.486462
477.745691	2597.147009
478.115588	2606.737804
478.485427	2612.305758
478.855207	2619.978395
479.224928	2637.211579
479.594591	2649.373363
479.964194	2653.771769
480.333739	2657.784528
480.703226	2664.844664
481.072653	2676.666170
481.442022	2692.180321
481.811333	2702.784388
482.180584	2711.097250
482.549777	2714.747046
482.918912	2722.921277
483.287988	2736.693709
483.657005	2746.707961
484.025964	2751.837335
484.394864	2763.711773
484.763706	2778.189967
485.132489	2784.440998
485.501213	2799.289716
485.869879	2810.851603
486.238487	2825.770897
486.607036	2841.479133
486.975527	2855.299456
487.343959	2872.595655
487.712333	2893.637431
488.080648	2909.811973
488.448905	2933.008843
488.817104	2951.525001
489.185244	2983.402737
489.553326	3019.358767
489.921350	3078.133580
490.289315	3174.364165
490.657222	3220.921742
491.025070	3249.580701
491.392861	3268.737086
491.760593	3273.049793
492.128267	3274.980555
492.495883	3279.414250
492.863440	3281.730660
493.230939	3291.215591
493.598380	3318.563851
493.965763	3341.498580
494.333088	3359.079604
494.700354	3391.693349
495.067563	3432.057868
495.434713	3452.749284
495.801805	3507.723066
496.168839	3539.109290
496.535815	3577.187646
496.902733	3605.841564
497.269593	3644.729025
497.636395	3692.922456
498.003139	3747.603852
498.369825	3761.071294
498.736453	3838.468129
499.103023	3865.690360
499.469535	3922.569699
499.835989	3962.909012
500.202385	4009.978265
500.568723	4036.789642
500.935003	4116.258391
501.301226	4156.106192
501.667390	4239.338162
502.033497	4323.606090
502.399546	4341.048482
502.765537	4379.767064
503.131470	4452.095019
503.497345	4546.626736
503.863163	4514.718753
504.228923	4647.401922
504.594625	4722.817584
504.960269	4718.527562
505.325856	4831.545190
505.691385	4842.577755
506.056856	4943.360503
506.422270	5020.215414
506.787625	5038.832395
507.152924	5144.288292
507.518164	5198.468093
507.883347	5238.404114
508.248472	5276.177480
508.613540	5413.445578
508.978550	5451.113080
509.343503	5501.491851
509.708398	5613.087873
510.073236	5722.561570
510.438016	5787.433659
510.802738	5841.313511
511.167403	5926.597231
511.532010	5969.310928
511.896561	6112.862825
512.261053	6218.366613
512.625488	6242.120530
512.989866	6301.064221
513.354186	6369.966712
513.718449	6395.543006
514.082655	6544.181427
514.446803	6575.287867
514.810894	6697.840837
515.174927	6718.988478
515.538904	6789.630167
515.902822	6939.624658
516.266684	6949.333921
516.630488	6999.221179
516.994235	7083.040444
517.357925	7192.471291
517.721558	7309.277346
518.085133	7400.769248
518.448651	7469.268446
518.812112	7473.860937
519.175516	7562.320584
519.538863	7701.030453
519.902152	7714.979326
520.265385	7895.407263
520.628560	7898.003457
520.991678	7968.400650
521.354739	8063.388591
521.717743	8081.020027
522.080690	8132.326370
522.443580	8296.433572
522.806413	8344.279163
523.169189	8416.261799
523.531908	8510.876695
523.894569	8466.552350
524.257174	8538.479533
524.619722	8685.565278
524.982213	8689.502420
525.344647	8799.760016
525.707025	8812.315010
526.069345	8948.768962
526.431608	8958.510992
526.793815	9090.132998
527.155964	8994.398966
527.518057	9087.844314
527.880093	9105.306871
528.242072	9205.300678
528.603995	9206.523158
528.965860	9189.582361
529.327669	9279.680383
529.689421	9293.435171
530.051117	9322.850304
530.412755	9452.085324
530.774337	9408.486905
531.135862	9444.775651
531.497331	9509.125979
531.858743	9447.278583
532.220098	9617.689748
532.581396	9553.654491
532.942638	9584.347557
533.303824	9584.924769
533.664953	9651.329368
534.026025	9617.956929
534.387040	9739.478984
534.747999	9774.635991
535.108902	9861.144711
535.469748	9695.966264
535.830537	9820.278598
536.191270	9836.622018
536.551947	9889.755780
536.912567	9916.511704
537.273131	9883.386282
537.633638	9898.550073
537.994089	9927.347664
538.354483	9906.116845
538.714821	10060.275329
539.075103	10097.809240
539.435328	10098.610784
539.795497	9966.063726
540.155609	10140.505293
540.515665	10249.205173
540.875665	10025.766111
541.235609	10112.269790
541.595496	10134.551690
541.955328	10301.950765
542.315102	10216.394823
542.674821	10195.839518
543.034483	10215.522703
543.394090	10235.405014
543.753640	10192.527480
544.113134	10414.991079
544.472571	10288.180854
544.831953	10448.277817
545.191278	10287.485174
545.550548	10331.318007
545.909761	10467.182144
546.268918	10462.209046
546.628019	10555.026771
546.987064	10441.913361
547.346053	10381.744669
547.704986	10490.774744
548.063863	10489.832049
548.422684	10496.463687
548.781449	10424.627244
549.140158	10533.430468
549.498811	10432.272154
549.857408	10301.744078
550.215949	10537.670078
550.574434	10395.743953
550.932864	10508.630511
551.291237	10565.174613
551.649555	10528.359067
552.007817	10551.447552
552.366022	10511.627477
552.724173	10522.206339
553.082267	10514.838692
553.440305	10645.485235
553.798288	10457.833325
554.156215	10616.249064
554.514086	10606.736406
554.871902	10461.415064
555.229661	10500.110961
555.587365	10480.420214
555.945014	10387.552078
556.302606	10513.656542
556.660143	10417.330174
557.017625	10572.723741
557.375050	10477.960131
557.732421	10601.738102
558.089735	10526.801350
558.446994	10529.115240
558.804197	10570.636704
559.161345	10573.477394
559.518437	10432.060426
559.875474	10521.364466
560.232455	10551.286235
560.589381	10510.188228
560.946251	10510.634370
561.303065	10604.157856
561.659825	10546.212313
562.016528	10478.948198
562.373177	10364.266989
562.729770	10482.179577
563.086307	10402.945242
563.442789	10486.124280
563.799216	10374.452640
564.155587	10420.231358
564.511904	10382.619309
564.868164	10370.213030
565.224370	10390.120546
565.580520	10314.873763
565.936615	10322.813581
566.292654	10189.394403
566.648638	10329.014200
567.004567	10280.107446
567.360441	10265.772925
567.716260	10185.575729
568.072023	10269.334500
568.427732	10222.713909
568.783385	10139.008070
569.138982	10212.929030
569.494525	10231.223377
569.850013	10109.250139
570.205445	10178.777733
570.560823	10080.603782
570.916145	10002.090332
571.271412	10073.387371
571.626625	10011.517289
571.981782	9995.851904
572.336884	9972.697884
572.691931	9977.113935
573.046923	9927.665257
573.401860	9878.274552
573.756743	9815.668463
574.111570	9858.603970
574.466342	9843.266259
574.821059	9872.084015
575.175722	9764.725082
575.530330	9773.418552
575.884882	9763.358930
576.239380	9695.396614
576.593823	9674.798459
576.948211	9687.111478
577.302544	9572.137882
577.656823	9583.888812
578.011047	9592.567158
578.365216	9562.907529
578.719330	9495.804730
579.073389	9496.828085
579.427394	9448.611969
579.781344	9429.369884
580.135239	9369.395277
580.489080	9386.041167
580.842866	9284.706413
581.196597	9291.186816
581.550273	9333.920678
581.903895	9302.005132
582.257463	9366.834371
582.610975	9242.128828
582.964434	9273.326008
583.317837	9192.914563
583.671186	9173.480915
584.024481	9165.485645
584.377721	9090.642155
584.730906	9074.606244
585.084037	9098.952497
585.437113	9036.996716
585.790135	9057.887257
586.143103	8956.920508
586.496016	8928.579141
586.848874	8990.134150
587.201679	8977.037232
587.554428	8860.137916
587.907124	8906.057786
588.259765	8877.950833
588.612352	8883.755721
588.964884	8761.898430
589.317362	8775.484340
589.669786	8777.457951
590.022155	8823.183737
590.374470	8843.098816
590.726731	8779.083723
591.078937	8631.267010
591.431090	8743.157941
591.783188	8611.656922
592.135232	8611.543496
592.487222	8609.612734
592.839157	8655.136874
593.191038	8594.040610
593.542866	8537.564563
593.894639	8436.791898
594.246358	8490.394487
594.598022	8502.717587
594.949633	8403.792505
595.301190	8384.862972
595.652692	8408.931961
596.004141	8519.638220
596.355535	8297.623284
596.706876	8278.691231
597.058162	8216.581695
597.409395	8288.750853
597.760573	8350.772169
598.111698	8260.769929
598.462768	8247.315089
598.813785	8212.866365
599.164748	8180.683638
599.515657	8167.964807
599.866511	8079.202691
600.217312	8205.440745
600.568060	8065.730207
600.918753	8171.251640
601.269392	8139.895663
601.619978	8051.309987
601.970510	8117.134853
602.320988	8113.779965
602.671412	8170.313985
603.021783	8106.346784
603.372100	8075.469717
603.722363	8082.542455
604.072572	8057.238384
604.422728	8068.041576
604.772830	7996.139599
605.122878	8002.282245
605.472872	8000.147316
605.822813	8029.517079
606.172701	7972.526834
606.522534	8048.554996
606.872314	8048.557517
607.222041	8018.426540
607.571714	8068.540651
607.921333	8028.632356
608.270899	8038.518059
608.620411	8129.301678
608.969870	8032.503962
609.319276	8024.118003
609.668627	8040.141310
610.017926	8080.341992
610.367171	8121.578630
610.716362	8100.322605
611.065500	8091.987057
611.414585	8114.992363
611.763616	8106.117411
612.112594	8085.307528
612.461518	8102.669262
612.810389	8157.764032
613.159207	8103.664890
613.507971	8050.596663
613.856682	8169.303234
614.205340	8126.191286
614.553945	8201.806073
614.902496	8103.755631
615.250994	8158.676481
615.599439	8135.537585
615.947830	8154.270513
616.296169	8128.432079
616.644454	8134.264694
616.992686	8136.359293
617.340864	8187.753857
617.688990	8093.887572
618.037063	8184.872837
618.385082	8136.109756
618.733048	8220.342396
619.080961	8160.340062
619.428821	8177.117022
619.776628	8185.845780
620.124382	8129.745299
620.472083	8118.314483
620.819731	8141.697875
621.167326	8035.011936
621.514868	8043.952423
621.862357	7930.962521
622.209793	7950.660830
622.557176	7890.184627
622.904506	7857.157508
623.251783	7798.753220
623.599007	7746.652895
623.946179	7747.489727
624.293297	7706.449693
624.640363	7620.576158
624.987376	7613.647092
625.334336	7552.961682
625.681243	7508.433170
626.028097	7490.017835
626.374899	7479.829663
626.721647	7469.772561
627.068343	7397.462251
627.414987	7368.594083
627.761577	7330.946746
628.108115	7358.136209
628.454600	7250.497492
628.801032	7311.437481
629.147412	7264.227075
629.493739	7256.831702
629.840014	7188.279572
630.186236	7249.806854
630.532405	7131.203628
630.878521	7180.561565
631.224585	7145.820453
631.570597	7069.817497
631.916556	7098.796570
632.262462	7093.082422
632.608316	7053.920219
632.954117	7032.238216
633.299866	7021.341762
633.645562	7015.667943
633.991206	6936.572240
634.336797	6879.697942
634.682336	6835.643298
635.027823	6804.315048
635.373257	6795.790457
635.718639	6728.115487
636.063968	6736.839204
636.409245	6636.593339
636.754470	6631.514376
637.099642	6589.440906
637.444762	6534.572988
637.789829	6542.104472
638.134845	6484.741182
638.479808	6468.390200
638.824719	6478.545604
639.169577	6406.585653
639.514383	6424.317912
639.859137	6354.553384
640.203839	6365.175095
640.548489	6347.639442
640.893086	6326.022974
641.237632	6295.902080
641.582125	6318.496531
641.926566	6290.198014
642.270955	6300.726464
642.615292	6295.430732
642.959576	6312.162321
