Dividing Wavelength (nm)	Counts (n)	Blue Motor Position (mm): 43.300000	Red Motor Position (mm): 0.000000	
326.493990	2127.956738
326.888308	2127.956738
327.282561	2127.956738
327.676750	2097.992120
328.070874	2095.973138
328.464933	2099.806935
328.858929	2105.311875
329.252859	2115.789913
329.646726	2127.308950
330.040528	2141.404016
330.434265	2159.136275
330.827938	2174.796619
331.221547	2190.431758
331.615091	2209.799871
332.008571	2227.945504
332.401986	2249.312435
332.795338	2267.720208
333.188625	2286.289298
333.581847	2307.237813
333.975006	2323.593837
334.368100	2344.043277
334.761129	2361.427696
335.154095	2379.548124
335.546996	2398.835578
335.939833	2424.172418
336.332606	2437.680189
336.725315	2452.516305
337.117960	2462.747327
337.510540	2469.399129
337.903056	2479.063021
338.295508	2488.038796
338.687896	2496.018942
339.080220	2505.617299
339.472480	2511.951509
339.864676	2516.596932
340.256807	2521.474248
340.648875	2523.591533
341.040879	2525.204702
341.432818	2526.124713
341.824694	2529.860208
342.216506	2530.308871
342.608253	2532.083357
342.999937	2528.821730
343.391557	2528.247039
343.783113	2528.610002
344.174605	2528.057995
344.566033	2524.874507
344.957397	2523.810823
345.348697	2522.742099
345.739934	2520.239166
346.131106	2517.874865
346.522215	2518.061387
346.913260	2517.708507
347.304241	2514.812364
347.695159	2513.027795
348.086012	2509.700634
348.476802	2509.955212
348.867528	2505.546723
349.258191	2506.708709
349.648789	2502.874911
350.039324	2504.190652
350.429796	2500.293841
350.820203	2501.730569
351.210548	2502.927843
351.600828	2500.175373
351.991045	2499.056237
352.381198	2501.314674
352.771288	2496.981803
353.161314	2497.992554
353.551276	2498.506752
353.941175	2498.226968
354.331010	2498.287461
354.720782	2499.527585
355.110490	2495.721514
355.500135	2494.579693
355.889717	2497.506083
356.279235	2498.075733
356.668689	2500.737462
357.058080	2498.317708
357.447408	2496.747389
357.836672	2495.837461
358.225873	2496.754951
358.615010	2493.732779
359.004084	2496.427276
359.393095	2503.981445
359.782043	2500.752586
360.170927	2502.658142
360.559748	2504.140241
360.948505	2506.814573
361.337199	2502.869870
361.725830	2503.542864
362.114398	2508.321878
362.502903	2508.095026
362.891344	2507.583349
363.279722	2508.682321
363.668037	2506.885149
364.056289	2509.761128
364.444478	2511.598628
364.832603	2512.490912
365.220665	2507.275839
365.608665	2510.328257
365.996601	2511.066786
366.384474	2509.864471
366.772284	2513.478978
367.160031	2510.802126
367.547715	2512.334637
367.935336	2515.911335
368.322893	2513.511746
368.710388	2511.724657
369.097820	2515.119874
369.485189	2516.662467
369.872495	2516.972498
370.259738	2514.378824
370.646918	2514.567868
371.034035	2516.728002
371.421090	2518.114319
371.808081	2517.988291
372.195010	2520.395442
372.581875	2518.620955
372.968678	2520.241686
373.355418	2519.462828
373.742096	2520.521470
374.128710	2519.760256
374.515262	2519.450225
374.901751	2522.258148
375.288177	2520.718075
375.674540	2522.091790
376.060841	2522.427027
376.447079	2526.528005
376.833254	2522.379136
377.219367	2519.447705
377.605417	2522.457273
377.991404	2526.091945
378.377329	2526.797707
378.763191	2525.653365
379.148991	2534.427493
379.534727	2539.166178
379.920402	2546.669935
380.306013	2548.497354
380.691563	2560.273489
381.077049	2565.581824
381.462474	2576.155644
381.847835	2589.973447
382.233134	2601.563060
382.618371	2609.288628
383.003545	2628.424848
383.388657	2643.034112
383.773706	2661.804848
384.158693	2676.550223
384.543618	2697.367668
384.928480	2715.273846
385.313280	2747.665780
385.698017	2760.898809
386.082692	2792.393418
386.467305	2814.135914
386.851856	2841.456448
387.236344	2867.907382
387.620770	2902.144378
388.005133	2935.395829
388.389435	2966.708956
388.773674	2996.930673
389.157851	3041.751572
389.541965	3071.552353
389.926018	3080.157603
390.310008	3141.417704
390.693936	3176.645287
391.077802	3222.015672
391.461606	3242.991913
391.845348	3310.175371
392.229027	3336.081860
392.612645	3369.343393
392.996200	3447.030095
393.379694	3499.863908
393.763125	3570.941656
394.146494	3577.069179
394.529801	3646.926968
394.913047	3714.233934
395.296230	3709.492728
395.679351	3779.728604
396.062410	3821.557578
396.445408	3828.360616
396.828343	3882.076630
397.211217	3921.984925
397.594028	3873.559601
397.976778	3951.218576
398.359466	3990.705934
398.742092	4032.119013
399.124656	3975.474088
399.507158	4066.502203
399.889598	4101.255917
400.271977	4172.497503
400.654294	4153.951098
401.036549	4169.966844
401.418742	4153.525121
401.800874	4257.859362
402.182944	4286.692241
402.564952	4353.628682
402.946898	4352.101212
403.328783	4352.953167
403.710606	4274.427114
404.092367	4466.898367
404.474067	4435.129016
404.855705	4448.357004
405.237282	4376.339080
405.618797	4485.132221
406.000250	4523.593704
406.381642	4607.949852
406.762972	4570.355447
407.144240	4583.522941
407.525447	4580.097477
407.906593	4642.955624
408.287677	4685.210576
408.668700	4614.450420
409.049661	4665.315662
409.430560	4706.436354
409.811399	4640.208196
410.192176	4794.832987
410.572891	4738.132609
410.953545	4840.793187
411.334138	4725.383531
411.714669	4790.109426
412.095139	4686.745607
412.475547	4824.742153
412.855894	4809.906037
413.236180	4817.800484
413.616405	4771.820120
413.996568	4860.887226
414.376670	4801.247855
414.756711	4757.104992
415.136691	4788.045073
415.516609	4864.925190
415.896466	4900.339296
416.276262	4936.799441
416.655997	4917.068365
417.035670	5096.609059
417.415283	5187.168347
417.794834	5132.950737
418.174324	5085.992389
418.553753	4998.687166
418.933121	5180.468653
419.312428	5247.601699
419.691674	5186.059293
420.070859	5312.844312
420.449983	5223.885591
420.829045	5343.555021
421.208047	5244.488787
421.586988	5314.641483
421.965867	5325.142207
422.344686	5461.782682
422.723444	5314.336494
423.102141	5134.425275
423.480777	5431.467703
423.859352	5204.378846
424.237866	5462.987518
424.616319	5453.399243
424.994712	5562.320934
425.373044	5441.091266
425.751314	5583.869346
426.129524	5387.198811
426.507673	5579.488583
426.885762	5663.325492
427.263789	5593.447538
427.641756	5478.584848
428.019662	5594.508701
428.397508	5609.281802
428.775292	5552.440272
429.153016	5651.461137
429.530679	5575.508592
429.908282	5660.167209
430.285824	5537.261358
430.663305	5806.839580
431.040726	5545.468356
431.418086	5545.949787
431.795385	5649.200179
432.172624	5664.638713
432.549802	5655.882228
432.926920	5670.675494
433.303977	5676.924005
433.680974	5710.782914
434.057910	5731.358384
434.434786	5739.663685
434.811601	5707.884251
435.188355	5942.318069
435.565050	5811.653882
435.941683	5795.834742
436.318257	6008.410117
436.694770	5997.304455
437.071222	6028.814187
437.447614	5959.846161
437.823946	5872.745105
438.200218	6028.274784
438.576429	5893.766717
438.952580	5990.229196
439.328670	6035.937338
439.704700	5944.546259
440.080670	5931.918169
440.456580	6198.131421
440.832429	6084.899544
441.208218	5927.338281
441.583947	6086.114462
441.959616	6089.408856
442.335224	6016.100397
442.710773	6149.736344
443.086261	6179.027969
443.461689	5973.018696
443.837057	6124.782633
444.212365	6278.391632
444.587612	6171.337689
444.962800	6321.934598
445.337927	6303.935158
445.712995	5914.541312
446.088002	6495.216700
446.462949	6325.796122
446.837837	6252.724597
447.212664	6426.291524
447.587431	6571.577578
447.962139	7110.310566
448.336786	8035.216103
448.711374	7777.356043
449.085901	6854.288006
449.460369	6773.548886
449.834776	6706.688063
450.209124	7099.519976
450.583412	7246.953561
450.957640	7395.677682
451.331808	7158.909809
451.705917	6712.301387
452.079965	6634.249202
452.453954	6850.108889
452.827883	6726.643470
453.201752	6820.991185
453.575562	6614.533250
453.949311	6822.702657
454.323001	6709.924483
454.696632	6784.226050
455.070202	6926.532782
455.443713	7074.122643
455.817164	7175.729619
456.190556	7258.737258
456.563888	7337.530493
456.937160	7379.462811
457.310373	7034.529421
457.683526	7058.363996
458.056619	6952.464477
458.429653	6939.964936
458.802628	6871.793413
459.175542	6983.339024
459.548398	7338.473189
459.921194	7500.619382
460.293930	7498.023188
460.666607	8030.230402
461.039224	8335.739448
461.411782	8466.287689
461.784280	8482.782344
462.156719	8379.194195
462.529099	8250.559072
462.901419	7838.069179
463.273680	7729.633960
463.645882	7746.181547
464.018024	7618.819316
464.390106	7780.811754
464.762130	8166.964138
465.134094	8631.403122
465.505999	9659.548969
465.877845	10875.455112
466.249631	11528.037519
466.621358	11140.352623
466.993026	10514.074957
467.364634	10261.876113
467.736184	9897.015042
468.107674	9562.879803
468.479105	9600.980844
468.850477	9365.067447
469.221790	9129.925346
469.593043	8808.534144
469.964238	8666.945777
470.335373	8671.651694
470.706449	8735.535716
471.077467	8713.115184
471.448425	10032.750629
471.819324	11100.943403
472.190164	11119.867895
472.560945	9874.813800
472.931667	9082.276360
473.302330	8956.136608
473.672934	8597.637473
474.043479	8954.752812
474.413965	8894.563955
474.784393	8783.212428
475.154761	8934.552908
475.525070	9027.521867
475.895321	8850.196760
476.265513	9029.714769
476.635645	9196.672743
477.005719	9190.814923
477.375734	9309.811359
477.745691	9544.923213
478.115588	9677.334160
478.485427	9926.654506
478.855207	10461.752822
479.224928	11276.050402
479.594591	11904.077349
479.964194	11716.082639
480.333739	11649.068061
480.703226	11567.645864
481.072653	11662.802684
481.442022	11906.391238
481.811333	12089.261615
482.180584	11888.752241
482.549777	11605.179775
482.918912	11428.946078
483.287988	11444.750095
483.657005	11458.842641
484.025964	11145.101390
484.394864	11269.554876
484.763706	11244.490259
485.132489	10997.637558
485.501213	10961.404265
485.869879	11039.216995
486.238487	10880.687830
486.607036	10992.853503
486.975527	10775.985585
487.343959	10957.935951
487.712333	11010.888231
488.080648	10949.668458
488.448905	10983.784467
488.817104	10925.062587
489.185244	11194.824811
489.553326	11341.857625
489.921350	11883.262424
490.289315	12942.466821
490.657222	13285.408955
491.025070	13194.302702
491.392861	13061.173391
491.760593	12700.372969
492.128267	12336.895694
492.495883	12004.907987
492.863440	11671.186123
493.230939	11334.293373
493.598380	11273.708787
493.965763	11137.569906
494.333088	11033.679287
494.700354	10953.971083
495.067563	11019.032215
495.434713	10847.335556
495.801805	10973.339196
496.168839	10902.896633
496.535815	10841.608805
496.902733	10832.759060
497.269593	10767.556776
497.636395	10870.935718
498.003139	10866.103772
498.369825	10726.234438
498.736453	10887.425332
499.103023	10807.449947
499.469535	10838.448002
499.835989	10823.715230
500.202385	10784.724425
500.568723	10641.454833
500.935003	10861.281908
501.301226	10674.081181
501.667390	10932.478124
502.033497	11022.618996
502.399546	10884.325022
502.765537	10794.347988
503.131470	10871.001253
503.497345	11035.017714
503.863163	10657.291618
504.228923	10958.452669
504.594625	11025.068997
504.960269	10774.183372
505.325856	10995.961374
505.691385	10780.414239
506.056856	10937.552045
506.422270	10967.262085
506.787625	10860.031702
507.152924	10974.188631
507.518164	10953.749273
507.883347	10872.453105
508.248472	10791.456886
508.613540	11029.444718
508.978550	10911.486759
509.343503	10889.351053
509.708398	11010.774805
510.073236	11121.844027
510.438016	11130.658484
510.802738	11084.133676
511.167403	11128.473144
511.532010	11023.634788
511.896561	11248.016546
512.261053	11327.802888
512.625488	11199.571057
512.989866	11181.180928
513.354186	11173.588951
513.718449	11066.272867
514.082655	11255.358987
514.446803	11151.118007
514.810894	11281.116762
515.174927	11144.420834
515.538904	11167.791624
515.902822	11317.773512
516.266684	11206.409383
516.630488	11149.330918
516.994235	11208.879548
517.357925	11273.360947
517.721558	11356.159378
518.085133	11367.978363
518.448651	11377.836340
518.812112	11262.295614
519.175516	11278.381936
519.538863	11398.255533
519.902152	11312.066926
520.265385	11475.231432
520.628560	11379.905733
520.991678	11360.653567
521.354739	11425.205542
521.717743	11358.632064
522.080690	11344.605054
522.443580	11471.727830
522.806413	11423.516755
523.169189	11462.769700
523.531908	11517.723318
523.894569	11340.446102
524.257174	11345.880466
524.619722	11454.161930
524.982213	11410.923953
525.344647	11461.340533
525.707025	11414.251115
526.069345	11513.133347
526.431608	11426.271746
526.793815	11528.526511
527.155964	11326.338433
527.518057	11368.868127
527.880093	11321.151085
528.242072	11393.211859
528.603995	11291.730912
528.965860	11216.068233
529.327669	11266.930955
529.689421	11212.146216
530.051117	11185.486074
530.412755	11288.905345
530.774337	11181.107832
531.135862	11163.181488
531.497331	11184.873573
531.858743	11039.751357
532.220098	11208.451050
532.581396	11079.304250
532.942638	11062.416385
533.303824	11023.085303
533.664953	11037.621470
534.026025	10953.862698
534.387040	11043.915350
534.747999	11051.285517
535.108902	11105.858528
535.469748	10875.014011
535.830537	10974.241563
536.191270	10949.691144
536.551947	10975.184259
536.912567	10970.800975
537.273131	10900.749102
537.633638	10880.529033
537.994089	10868.911694
538.354483	10818.563170
538.714821	10962.588936
539.075103	10964.461724
539.435328	10931.588360
539.795497	10757.366083
540.155609	10919.240054
540.515665	11005.310194
540.875665	10740.016952
541.235609	10811.160236
541.595496	10806.078753
541.955328	10956.315220
542.315102	10840.250214
542.674821	10792.230703
543.034483	10792.843203
543.394090	10801.224122
543.753640	10726.289890
544.113134	10952.151227
544.472571	10799.615994
544.831953	10944.070257
545.191278	10752.229148
545.550548	10772.439133
545.909761	10916.989179
546.268918	10889.577905
546.628019	10972.454474
546.987064	10834.810809
547.346053	10755.400033
547.704986	10858.179078
548.063863	10854.468789
548.422684	10841.374392
548.781449	10755.475651
549.140158	10861.531445
549.498811	10740.415203
549.857408	10590.357698
550.215949	10818.974024
550.574434	10675.827940
550.932864	10772.030800
551.291237	10831.279481
551.649555	10780.893148
552.007817	10792.639037
552.366022	10754.182595
552.724173	10748.226471
553.082267	10732.843390
553.440305	10870.718948
553.798288	10667.499954
554.156215	10818.278345
554.514086	10805.393156
554.871902	10645.860801
555.229661	10684.188694
555.587365	10658.922431
555.945014	10551.621471
556.302606	10682.661224
556.660143	10570.195603
557.017625	10729.218801
557.375050	10627.412699
557.732421	10763.367577
558.089735	10676.856336
558.446994	10675.782570
558.804197	10713.011491
559.161345	10712.441841
559.518437	10562.137318
559.875474	10652.855402
560.232455	10681.441265
560.589381	10632.670622
560.946251	10626.805240
561.303065	10730.993287
561.659825	10668.213278
562.016528	10594.763666
562.373177	10472.344286
562.729770	10590.352656
563.086307	10505.991467
563.442789	10603.593247
563.799216	10477.599689
564.155587	10528.439725
564.511904	10484.760648
564.868164	10473.821344
565.224370	10486.318364
565.580520	10409.513865
565.936615	10418.986193
566.292654	10289.519280
566.648638	10419.656667
567.004567	10381.832889
567.360441	10358.807419
567.716260	10274.269790
568.072023	10361.479231
568.427732	10317.737139
568.783385	10224.546369
569.138982	10292.158324
569.494525	10310.805552
569.850013	10192.431698
570.205445	10266.917267
570.560823	10166.384056
570.916145	10076.699409
571.271412	10152.619186
571.626625	10100.226474
571.981782	10072.452237
572.336884	10044.506600
572.691931	10057.180061
573.046923	9993.606070
573.401860	9951.966139
573.756743	9885.972394
574.111570	9931.201626
574.466342	9919.695193
574.821059	9944.512793
575.175722	9833.675464
575.530330	9850.948978
575.884882	9830.922994
576.239380	9767.780022
576.593823	9744.386547
576.948211	9758.781562
577.302544	9640.914344
577.656823	9653.005551
578.011047	9654.071755
578.365216	9625.511098
578.719330	9556.911077
579.073389	9566.310308
579.427394	9514.152010
579.781344	9492.681736
580.135239	9443.845558
580.489080	9450.469634
580.842866	9345.414508
581.196597	9355.978246
581.550273	9399.725379
581.903895	9364.820430
582.257463	9428.548176
582.610975	9306.557294
582.964434	9333.076284
583.317837	9255.301363
583.671186	9240.644208
584.024481	9233.707580
584.377721	9151.446032
584.730906	9131.669585
585.084037	9159.484152
585.437113	9089.149973
585.790135	9116.331875
586.143103	9016.242286
586.496016	8986.754056
586.848874	9044.621461
587.201679	9032.048823
587.554428	8923.351464
587.907124	8965.898803
588.259765	8932.675078
588.612352	8941.615565
588.964884	8817.895567
589.317362	8834.112959
589.669786	8832.225047
590.022155	8880.292449
590.374470	8900.547805
590.726731	8836.613371
591.078937	8684.811626
591.431090	8794.711300
591.783188	8669.002567
592.135232	8662.776743
592.487222	8665.289758
592.839157	8719.419147
593.191038	8647.527252
593.542866	8593.375178
593.894639	8492.426072
594.246358	8550.245586
594.598022	8560.534581
594.949633	8460.732338
595.301190	8431.546577
595.652692	8462.831978
596.004141	8570.871467
596.355535	8350.026078
596.706876	8329.049837
597.058162	8257.931759
597.409395	8335.373965
597.760573	8401.735714
598.111698	8315.405954
598.462768	8298.245867
598.813785	8267.633460
599.164748	8232.957883
599.515657	8220.128147
599.866511	8126.566852
600.217312	8257.354547
600.568060	8115.194009
600.918753	8218.356181
601.269392	8190.657561
601.619978	8100.988037
601.970510	8165.567739
602.320988	8155.929052
602.671412	8216.304432
603.021783	8151.182806
603.372100	8124.948642
603.722363	8127.993498
604.072572	8105.494829
604.422728	8113.797609
604.772830	8048.902836
605.122878	8054.581696
605.472872	8047.191364
605.822813	8078.927948
606.172701	8022.013321
606.522534	8098.006195
606.872314	8095.054599
607.222041	8067.096360
607.571714	8119.448743
607.921333	8077.912156
608.270899	8087.172755
608.620411	8172.269953
608.969870	8084.405162
609.319276	8072.611382
609.668627	8096.287161
610.017926	8122.634752
610.367171	8170.218203
610.716362	8146.113926
611.065500	8140.457751
611.414585	8167.637132
611.763616	8150.648444
612.112594	8137.541444
612.461518	8154.449474
612.810389	8215.081952
613.159207	8154.482241
613.507971	8098.316226
613.856682	8217.113537
614.205340	8174.432608
614.553945	8249.939010
614.902496	8152.559041
615.250994	8208.140283
615.599439	8190.985236
615.947830	8200.155095
616.296169	8172.063265
616.644454	8188.830143
616.992686	8182.773197
617.340864	8245.757373
617.688990	8145.544276
618.037063	8240.925427
618.385082	8179.564502
618.733048	8269.249150
619.080961	8210.033236
619.428821	8229.444199
619.776628	8225.834733
620.124382	8181.540635
620.472083	8165.718973
620.819731	8196.323818
621.167326	8081.317455
621.514868	8095.180628
621.862357	7980.325499
622.209793	8001.727718
622.557176	7927.353055
622.904506	7907.112822
623.251783	7837.297882
623.599007	7790.384905
623.946179	7790.707539
624.293297	7754.985923
624.640363	7673.346957
624.987376	7654.591344
625.334336	7599.320133
625.681243	7546.025054
626.028097	7540.031123
626.374899	7517.545056
626.721647	7509.474168
627.068343	7442.595701
627.414987	7415.416320
627.761577	7367.716922
628.108115	7404.255205
628.454600	7296.803011
628.801032	7345.475352
629.147412	7307.533107
629.493739	7293.667413
629.840014	7234.822025
630.186236	7289.450488
630.532405	7179.182810
630.878521	7224.490180
631.224585	7183.356885
631.570597	7104.175482
631.916556	7137.668908
632.262462	7136.159082
632.608316	7100.006447
632.954117	7074.392345
633.299866	7058.162350
633.645562	7047.921246
633.991206	6972.871068
634.336797	6914.186996
634.682336	6872.615121
635.027823	6843.159659
635.373257	6830.597103
635.718639	6762.463389
636.063968	6778.849659
636.409245	6666.230282
636.754470	6665.980745
637.099642	6626.284179
637.444762	6570.796199
637.789829	6581.806079
638.134845	6522.113776
638.479808	6508.782445
638.824719	6513.889134
639.169577	6440.764677
639.514383	6458.733869
639.859137	6386.554629
640.203839	6397.360342
640.548489	6382.292333
