Dividing Wavelength (nm)	Counts (n)	Blue Motor Position (mm): 12.600000	Red Motor Position (mm): 0.000000	
326.493990	2136.375465
326.888308	2136.375465
327.282561	2136.375465
327.676750	2105.568974
328.070874	2104.772472
328.464933	2105.967225
328.858929	2114.171703
329.252859	2124.400204
329.646726	2135.631895
330.040528	2146.999697
330.434265	2166.703047
330.827938	2180.863648
331.221547	2200.277131
331.615091	2216.726416
332.008571	2239.149468
332.401986	2258.550349
332.795338	2276.464089
333.188625	2297.442851
333.581847	2316.392548
333.975006	2332.073057
334.368100	2351.095851
334.761129	2369.801053
335.154095	2386.144473
335.546996	2406.893863
335.939833	2423.630493
336.332606	2437.574325
336.725315	2450.961109
337.117960	2461.010649
337.510540	2467.722946
337.903056	2482.256592
338.295508	2485.971922
338.687896	2496.268479
339.080220	2502.769047
339.472480	2510.865140
339.864676	2515.679442
340.256807	2520.425688
340.648875	2522.043899
341.040879	2525.091276
341.432818	2525.305525
341.824694	2526.442306
342.216506	2527.891637
342.608253	2531.077647
342.999937	2529.192255
343.391557	2529.547656
343.783113	2527.029600
344.174605	2528.126051
344.566033	2523.707480
344.957397	2522.820237
345.348697	2521.985926
345.739934	2519.094824
346.131106	2516.304545
346.522215	2516.896881
346.913260	2511.525531
347.304241	2512.921931
347.695159	2511.149965
348.086012	2511.124760
348.476802	2507.764831
348.867528	2506.393637
349.258191	2503.066475
349.648789	2501.032370
350.039324	2500.533295
350.429796	2499.996412
350.820203	2495.832419
351.210548	2497.523727
351.600828	2496.165136
351.991045	2495.802173
352.381198	2496.495331
352.771288	2494.652789
353.161314	2494.385608
353.551276	2495.557677
353.941175	2491.015597
354.331010	2493.173211
354.720782	2494.718324
355.110490	2494.728407
355.500135	2492.303612
355.889717	2492.558190
356.279235	2492.628766
356.668689	2494.234374
357.058080	2493.667244
357.447408	2489.324290
357.836672	2489.662047
358.225873	2492.429641
358.615010	2491.481904
359.004084	2496.449961
359.393095	2499.920795
359.782043	2499.323418
360.170927	2497.579179
360.559748	2500.992040
360.948505	2499.494818
361.337199	2499.086484
361.725830	2501.188645
362.114398	2503.391630
362.502903	2501.256701
362.891344	2499.683861
363.279722	2503.439521
363.668037	2504.170488
364.056289	2504.306599
364.444478	2503.343739
364.832603	2503.449603
365.220665	2505.609737
365.608665	2503.008502
365.996601	2507.361538
366.384474	2504.097391
366.772284	2506.368431
367.160031	2504.551095
367.547715	2508.672238
367.935336	2505.014881
368.322893	2508.258864
368.710388	2508.180726
369.097820	2510.396313
369.485189	2506.602845
369.872495	2508.699965
370.259738	2508.357166
370.646918	2508.357166
371.034035	2509.897239
371.421090	2508.152999
371.808081	2509.378000
372.195010	2513.680625
372.581875	2509.572084
372.968678	2511.991838
373.355418	2511.633916
373.742096	2510.865140
374.128710	2511.822959
374.515262	2510.943278
374.901751	2511.936385
375.288177	2513.073166
375.674540	2509.287259
376.060841	2513.844462
376.447079	2511.752383
376.833254	2510.784482
377.219367	2507.316168
377.605417	2512.236334
377.991404	2508.490757
378.377329	2509.304903
378.763191	2508.641991
379.148991	2513.846983
379.534727	2512.417816
379.920402	2514.338495
380.306013	2514.661129
380.691563	2513.426046
381.077049	2513.602487
381.462474	2515.573578
381.847835	2513.151303
382.233134	2515.649195
382.618371	2514.464524
383.003545	2517.945441
383.388657	2515.064421
383.773706	2516.513753
384.158693	2515.649195
384.543618	2518.608352
384.928480	2517.905112
385.313280	2518.263033
385.698017	2521.146573
386.082692	2520.521470
386.467305	2516.150790
386.851856	2518.734381
387.236344	2518.535256
387.620770	2518.694052
388.005133	2517.030471
388.389435	2521.922911
388.773674	2518.194978
389.157851	2518.671367
389.541965	2519.730009
389.926018	2521.978364
390.310008	2520.130781
390.693936	2525.320649
391.077802	2518.943589
391.461606	2522.628673
391.845348	2519.598939
392.229027	2521.128929
392.612645	2523.044568
392.996200	2518.711696
393.379694	2520.208919
393.763125	2522.651358
394.146494	2520.771008
394.529801	2522.059022
394.913047	2522.159845
395.296230	2522.227901
395.679351	2521.075997
396.062410	2518.714217
396.445408	2523.026924
396.828343	2523.359640
397.211217	2519.104906
397.594028	2519.677077
397.976778	2521.025586
398.359466	2523.442819
398.742092	2519.666995
399.124656	2526.686802
399.507158	2525.693694
399.889598	2526.326359
400.271977	2525.547501
400.654294	2524.446009
401.036549	2524.572038
401.418742	2524.897192
401.800874	2526.306194
402.182944	2524.745957
402.564952	2523.710000
402.946898	2524.342665
403.328783	2527.828623
403.710606	2528.627646
404.092367	2526.338962
404.474067	2527.541277
404.855705	2528.549508
405.237282	2525.910464
405.618797	2525.948273
406.000250	2526.870804
406.381642	2528.335259
406.762972	2528.121010
407.144240	2525.683612
407.525447	2529.227543
407.906593	2527.137985
408.287677	2529.696370
408.668700	2528.899868
409.049661	2529.950949
409.430560	2527.004394
409.811399	2531.183511
410.192176	2528.340300
410.572891	2531.090249
410.953545	2529.275434
411.334138	2530.082019
411.714669	2526.764939
412.095139	2533.968748
412.475547	2529.489683
412.855894	2529.373737
413.236180	2530.046731
413.616405	2532.252235
413.996568	2530.639066
414.376670	2532.892462
414.756711	2527.906761
415.136691	2530.911288
415.516609	2531.155784
415.896466	2529.792152
416.276262	2532.196783
416.655997	2529.751823
417.035670	2528.592358
417.415283	2530.230733
417.794834	2525.960875
418.174324	2530.155115
418.553753	2532.910106
418.933121	2532.612678
419.312428	2531.175949
419.691674	2533.051258
420.070859	2532.620240
420.449983	2531.828778
420.829045	2530.727286
421.208047	2531.186031
421.586988	2531.738038
421.965867	2533.240302
422.344686	2534.193080
422.723444	2534.906403
423.102141	2533.764582
423.480777	2532.660569
423.859352	2532.360620
424.237866	2534.430014
424.616319	2534.102339
424.994712	2534.402287
425.373044	2535.034952
425.751314	2535.937319
426.129524	2533.109232
426.507673	2534.782895
426.885762	2535.284489
427.263789	2536.343132
427.641756	2536.146527
428.019662	2534.641742
428.397508	2534.261135
428.775292	2535.047555
429.153016	2534.394726
429.530679	2537.018646
429.908282	2533.794828
430.285824	2537.144675
430.663305	2536.746424
431.040726	2535.062679
431.418086	2536.547298
431.795385	2535.241640
432.172624	2533.643594
432.549802	2536.748945
432.926920	2536.295241
433.303977	2536.275076
433.680974	2537.016126
434.057910	2535.130734
434.434786	2536.781712
434.811601	2538.432690
435.188355	2538.808256
435.565050	2537.855478
435.941683	2537.921013
436.318257	2535.239119
436.694770	2531.183511
437.071222	2533.109232
437.447614	2535.534027
437.823946	2535.549150
438.200218	2534.750127
438.576429	2538.278935
438.952580	2538.271373
439.328670	2536.973276
439.704700	2538.137783
440.080670	2535.874304
440.456580	2538.636857
440.832429	2541.366642
441.208218	2539.501415
441.583947	2538.462937
441.959616	2537.343801
442.335224	2538.089892
442.710773	2536.484284
443.086261	2540.000489
443.461689	2539.004861
443.837057	2537.036290
444.212365	2538.536034
444.587612	2536.759027
444.962800	2538.833462
445.337927	2542.221117
445.712995	2538.677186
446.088002	2539.612320
446.462949	2539.312371
446.837837	2540.945705
447.212664	2540.882691
447.587431	2539.960160
447.962139	2539.244316
448.336786	2543.022661
448.711374	2541.986703
449.085901	2541.596014
449.460369	2540.789429
449.834776	2541.807742
450.209124	2542.510983
450.583412	2538.906558
450.957640	2540.290355
451.331808	2537.737011
451.705917	2541.883360
452.079965	2541.641384
452.453954	2538.737680
452.827883	2540.113915
453.201752	2541.333874
453.575562	2541.260777
453.949311	2538.530993
454.323001	2544.358566
454.696632	2540.660880
455.070202	2542.818494
455.443713	2542.793288
455.817164	2538.147865
456.190556	2536.832124
456.563888	2540.658359
456.937160	2537.918492
457.310373	2543.506611
457.683526	2542.929399
458.056619	2543.582229
458.429653	2541.848072
458.802628	2543.541899
459.175542	2542.526107
459.548398	2543.176416
459.921194	2542.780685
460.293930	2542.823535
460.666607	2542.095088
461.039224	2540.282793
461.411782	2543.196580
461.784280	2542.931920
462.156719	2543.302445
462.529099	2543.609955
462.901419	2544.275387
463.273680	2543.108360
463.645882	2541.076775
464.018024	2541.202804
464.390106	2541.459903
464.762130	2542.679862
465.134094	2546.017106
465.505999	2544.703885
465.877845	2542.836138
466.249631	2544.963505
466.621358	2543.599873
466.993026	2546.430481
467.364634	2548.512477
467.736184	2542.155582
468.107674	2543.302445
468.479105	2544.008206
468.850477	2543.940151
469.221790	2546.213711
469.593043	2543.988042
469.964238	2547.189174
470.335373	2545.792775
470.706449	2544.124153
471.077467	2546.223793
471.448425	2547.075748
471.819324	2545.563402
472.190164	2547.171530
472.560945	2543.846889
472.931667	2546.367466
473.302330	2546.624565
473.672934	2544.298073
474.043479	2543.902342
474.413965	2544.366128
474.784393	2543.872095
475.154761	2543.867054
475.525070	2541.769934
475.895321	2541.928730
476.265513	2543.042825
476.635645	2542.735315
477.005719	2543.937630
477.375734	2546.425439
477.745691	2547.557178
478.115588	2544.877805
478.485427	2547.978115
478.855207	2548.550286
479.224928	2547.559699
479.594591	2548.285625
479.964194	2547.443752
480.333739	2550.823846
480.703226	2548.814946
481.072653	2548.946016
481.442022	2549.515667
481.811333	2548.376366
482.180584	2546.916952
482.549777	2548.802343
482.918912	2551.577499
483.287988	2550.244113
483.657005	2548.409133
484.025964	2550.085317
484.394864	2547.877292
484.763706	2547.917621
485.132489	2547.136242
485.501213	2549.780327
485.869879	2548.462066
486.238487	2545.805377
486.607036	2547.471479
486.975527	2549.820657
487.343959	2547.632796
487.712333	2547.330327
488.080648	2548.991387
488.448905	2548.235214
488.817104	2545.888557
489.185244	2548.247817
489.553326	2548.179761
489.921350	2549.911397
490.289315	2550.085317
490.657222	2548.749411
491.025070	2548.948537
491.392861	2549.906356
491.760593	2549.679504
492.128267	2550.864175
492.495883	2549.445091
492.863440	2548.482230
493.230939	2549.170348
493.598380	2551.411141
493.965763	2545.419729
494.333088	2547.279915
494.700354	2549.261088
495.067563	2550.791079
495.434713	2544.605583
495.801805	2548.903167
496.168839	2550.473486
496.535815	2549.918959
496.902733	2549.971891
497.269593	2551.829556
497.636395	2548.706562
498.003139	2551.907694
498.369825	2551.779145
498.736453	2551.106151
499.103023	2551.358208
499.469535	2550.060111
499.835989	2552.842828
500.202385	2550.581871
500.568723	2551.653116
500.935003	2552.852911
501.301226	2550.909546
501.667390	2552.673950
502.033497	2552.036244
502.399546	2551.877447
502.765537	2553.029351
503.131470	2549.550955
503.497345	2554.718138
503.863163	2550.657488
504.228923	2551.806871
504.594625	2551.514484
504.960269	2552.174875
505.325856	2548.847714
505.691385	2550.241593
506.056856	2554.014897
506.422270	2552.689073
506.787625	2551.615307
507.152924	2551.968188
507.518164	2554.524053
507.883347	2551.043136
508.248472	2551.796789
508.613540	2553.435164
508.978550	2550.491130
509.343503	2550.728064
509.708398	2552.878116
510.073236	2553.697304
510.438016	2552.971378
510.802738	2555.580175
511.167403	2552.351316
511.532010	2552.555483
511.896561	2552.883158
512.261053	2554.576985
512.625488	2550.428116
512.989866	2550.733105
513.354186	2551.942982
513.718449	2551.774104
514.082655	2553.833415
514.446803	2553.475493
514.810894	2553.709907
515.174927	2555.189485
515.538904	2554.024979
515.902822	2553.513302
516.266684	2555.567572
516.630488	2556.248128
516.994235	2555.585216
517.357925	2556.616132
517.721558	2553.916594
518.085133	2556.691749
518.448651	2556.001111
518.812112	2556.913560
519.175516	2557.145453
519.538863	2557.636966
519.902152	2557.795762
520.265385	2556.805175
520.628560	2560.946483
520.991678	2560.943962
521.354739	2562.042934
521.717743	2559.534960
522.080690	2561.929508
522.443580	2555.849877
522.806413	2562.831875
523.169189	2561.571586
523.531908	2561.158212
523.894569	2559.292985
524.257174	2560.497820
524.619722	2563.910682
524.982213	2561.133006
525.344647	2563.204920
525.707025	2562.042934
526.069345	2562.254662
526.431608	2561.223747
526.793815	2562.940259
527.155964	2562.005125
527.518057	2563.177194
527.880093	2565.241546
528.242072	2563.162070
528.603995	2566.161557
528.965860	2565.748182
529.327669	2565.559139
529.689421	2564.898748
530.051117	2564.024107
530.412755	2564.245918
530.774337	2567.131979
531.135862	2566.648028
531.497331	2566.214489
531.858743	2561.874055
532.220098	2564.238357
532.581396	2565.296999
532.942638	2564.092163
533.303824	2566.859757
533.664953	2566.660631
534.026025	2566.348079
534.387040	2569.158523
534.747999	2569.491239
535.108902	2569.765982
535.469748	2569.685323
535.830537	2568.304047
536.191270	2569.009809
536.551947	2570.015519
536.912567	2571.651373
537.273131	2568.082236
537.633638	2568.309088
537.994089	2570.101218
538.354483	2570.587690
538.714821	2572.248750
539.075103	2573.960222
539.435328	2569.211455
539.795497	2571.658935
540.155609	2573.695561
540.515665	2574.890315
540.875665	2571.658935
541.235609	2572.520972
541.595496	2573.067938
541.955328	2570.663307
542.315102	2573.065417
542.674821	2571.691702
543.034483	2574.194635
543.394090	2574.983576
543.753640	2574.212279
544.113134	2573.614903
544.472571	2572.241188
544.831953	2576.251426
545.191278	2576.044739
545.550548	2576.117836
545.909761	2573.536765
546.268918	2573.191446
546.628019	2575.583473
546.987064	2575.134811
547.346053	2574.930644
547.704986	2576.690007
548.063863	2574.907959
548.422684	2574.983576
548.781449	2572.868812
549.140158	2577.340315
549.498811	2577.655387
549.857408	2572.780592
550.215949	2574.048442
550.574434	2569.481157
550.932864	2574.247567
551.291237	2571.651373
551.649555	2577.547003
552.007817	2575.792681
552.366022	2578.262847
552.724173	2578.290573
553.082267	2575.147413
553.440305	2578.792168
553.798288	2575.800243
554.156215	2576.276632
554.514086	2579.528176
554.871902	2577.607497
555.229661	2579.427353
555.587365	2577.589852
555.945014	2578.076324
556.302606	2578.174626
556.660143	2576.458113
557.017625	2578.683783
557.375050	2576.090109
557.732421	2578.028433
558.089735	2581.232086
558.446994	2581.819381
558.804197	2579.820563
559.161345	2577.070614
559.518437	2579.084555
559.875474	2580.115471
560.232455	2579.792837
560.589381	2580.397775
560.946251	2583.803075
561.303065	2581.232086
561.659825	2581.756366
562.016528	2581.332909
562.373177	2580.889288
562.729770	2582.242837
563.086307	2582.326017
563.442789	2584.370204
563.799216	2580.117991
564.155587	2580.997673
564.511904	2581.698393
564.868164	2581.390882
565.224370	2581.839545
565.580520	2586.185020
565.936615	2582.555389
566.292654	2582.308372
566.648638	2582.263002
567.004567	2583.119998
567.360441	2584.536562
567.716260	2584.017324
568.072023	2582.320975
568.427732	2584.420616
568.783385	2583.447673
569.138982	2584.425657
569.494525	2585.832139
569.850013	2582.149576
570.205445	2589.050916
570.560823	2590.026379
570.916145	2589.746595
571.271412	2591.533684
571.626625	2591.584096
571.981782	2593.504775
572.336884	2596.194231
572.691931	2595.385126
573.046923	2596.027873
573.401860	2593.829930
573.756743	2596.995774
574.111570	2597.373861
574.466342	2597.550301
574.821059	2598.966865
575.175722	2600.247318
575.530330	2600.222113
575.884882	2604.509614
576.239380	2602.909048
576.593823	2603.962649
576.948211	2608.250150
577.302544	2605.802670
577.656823	2607.574636
578.011047	2607.625047
578.365216	2608.197218
578.719330	2611.312651
579.073389	2615.373301
579.427394	2611.337857
579.781344	2614.163424
580.135239	2617.692231
580.489080	2619.852366
580.842866	2616.442025
581.196597	2622.614918
581.550273	2624.926287
581.903895	2625.337141
582.257463	2629.082718
582.610975	2630.716052
582.964434	2632.056999
583.317837	2635.742083
583.671186	2636.460447
584.024481	2640.591673
584.377721	2639.936323
584.730906	2640.304327
585.084037	2645.693320
585.437113	2647.495533
585.790135	2651.218425
586.143103	2652.206491
586.496016	2653.479382
586.848874	2648.899494
587.201679	2658.502892
587.554428	2656.584733
587.907124	2664.335507
588.259765	2664.038079
588.612352	2672.103925
588.964884	2672.111487
589.317362	2678.569205
589.669786	2682.576922
590.022155	2686.597243
590.374470	2688.404496
590.726731	2689.127902
591.078937	2692.087059
591.431090	2699.106866
591.783188	2699.679037
592.135232	2705.698175
592.487222	2704.142979
592.839157	2712.019782
593.191038	2715.631768
593.542866	2717.958261
593.894639	2719.873899
594.246358	2725.111658
594.598022	2732.254973
594.949633	2732.955693
595.301190	2739.156313
595.652692	2742.584297
596.004141	2755.429157
596.355535	2749.689804
596.706876	2754.085690
597.058162	2754.655340
597.409395	2765.085487
597.760573	2771.906169
598.111698	2771.661673
598.462768	2779.886315
598.813785	2782.434618
599.164748	2788.494085
599.515657	2793.641103
599.866511	2801.389357
600.217312	2806.702733
600.568060	2809.848413
600.918753	2820.512974
601.269392	2824.470280
601.619978	2827.840291
601.970510	2841.015347
602.320988	2847.591532
602.671412	2857.835157
603.021783	2862.387318
603.372100	2867.035262
603.722363	2876.658825
604.072572	2883.229969
604.422728	2894.512071
604.772830	2893.569376
605.122878	2901.310067
605.472872	2909.144020
605.822813	2920.862183
606.172701	2927.982812
606.522534	2941.621654
606.872314	2951.741770
607.222041	2959.437092
607.571714	2973.756489
607.921333	2980.466265
608.270899	2991.975219
608.620411	3005.775378
608.969870	3013.221162
609.319276	3021.143335
609.668627	3035.939122
610.017926	3050.429919
610.367171	3072.361458
610.716362	3074.909762
611.065500	3090.252513
611.414585	3103.354472
611.763616	3108.115842
612.112594	3121.802575
612.461518	3139.134062
612.810389	3152.583860
613.159207	3159.218019
613.507971	3168.944925
613.856682	3192.865200
614.205340	3201.215871
614.553945	3223.633882
614.902496	3227.893657
615.250994	3248.103643
615.599439	3257.487751
615.947830	3275.346039
616.296169	3285.085548
616.644454	3305.774443
616.992686	3317.911021
617.340864	3342.700895
617.688990	3342.915144
618.037063	3375.349928
618.385082	3386.720251
618.733048	3416.957091
619.080961	3417.549427
619.428821	3436.846964
619.776628	3455.259778
620.124382	3467.287971
620.472083	3478.960763
620.819731	3491.619100
621.167326	3494.006087
621.514868	3508.978314
621.862357	3499.155625
622.209793	3515.834283
622.557176	3520.441897
622.904506	3528.212836
623.251783	3522.498688
623.599007	3535.134340
623.946179	3542.590207
624.293297	3556.808781
624.640363	3551.071948
624.987376	3565.955955
625.334336	3568.705904
625.681243	3577.394333
626.028097	3585.016558
626.374899	3594.516612
626.721647	3611.205352
627.068343	3608.374744
627.414987	3620.470993
627.761577	3626.336375
628.108115	3647.184067
628.454600	3640.749034
628.801032	3673.609795
629.147412	3668.727438
629.493739	3688.229142
629.840014	3688.652598
630.186236	3722.448494
630.532405	3705.585834
630.878521	3736.165473
631.224585	3741.012543
631.570597	3733.463415
631.916556	3764.658075
632.262462	3775.685599
632.608316	3779.247174
632.954117	3789.667239
633.299866	3796.838281
633.645562	3816.234120
633.991206	3806.020742
634.336797	3800.193168
634.682336	3801.894558
635.027823	3810.444355
635.373257	3815.672031
635.718639	3813.872339
636.063968	3832.887572
636.409245	3811.054334
636.754470	3822.512877
637.099642	3823.919359
637.444762	3823.876509
637.789829	3840.373685
638.134845	3833.091738
638.479808	3844.152030
638.824719	3857.201057
639.169577	3845.140096
639.514383	3862.582488
639.859137	3851.764172
640.203839	3864.513250
640.548489	3875.689488
640.893086	3876.062534
641.237632	3881.885067
641.582125	3902.402563
641.926566	3902.657141
642.270955	3923.739246
642.615292	3935.908592
642.959576	3959.375163
643.303809	3962.447746
643.647990	3980.671517
643.992118	3989.750635
644.336195	3978.735714
