Dividing Wavelength (nm)	Counts (n)	Blue Motor Position (mm): 23.700000	Red Motor Position (mm): 0.000000	
326.493990	2133.406225
326.888308	2133.406225
327.282561	2133.406225
327.676750	2100.956318
328.070874	2099.635536
328.464933	2102.350197
328.858929	2111.885540
329.252859	2120.823505
329.646726	2130.825155
330.040528	2141.464510
330.434265	2160.265493
330.827938	2177.254182
331.221547	2195.571214
331.615091	2214.909080
332.008571	2233.828531
332.401986	2254.784607
332.795338	2273.676331
333.188625	2292.988992
333.581847	2310.232258
333.975006	2330.333859
334.368100	2348.232476
334.761129	2366.302492
335.154095	2379.318751
335.546996	2401.179715
335.939833	2421.629155
336.332606	2440.538523
336.725315	2452.445729
337.117960	2461.098869
337.510540	2470.896352
337.903056	2481.306335
338.295508	2488.573158
338.687896	2496.023983
339.080220	2503.865498
339.472480	2511.608710
339.864676	2515.863444
340.256807	2519.898888
340.648875	2524.098169
341.040879	2525.179497
341.432818	2525.303005
341.824694	2526.275947
342.216506	2528.088242
342.608253	2531.213758
342.999937	2530.641587
343.391557	2529.346010
343.783113	2529.156967
344.174605	2527.347193
344.566033	2527.468180
344.957397	2524.675381
345.348697	2521.149094
345.739934	2520.150946
346.131106	2519.694721
346.522215	2517.068280
346.913260	2513.947806
347.304241	2514.283042
347.695159	2511.034019
348.086012	2510.255161
348.476802	2507.734584
348.867528	2506.474295
349.258191	2506.580159
349.648789	2504.848523
350.039324	2504.853564
350.429796	2500.210662
350.820203	2499.308295
351.210548	2497.405259
351.600828	2498.703357
351.991045	2499.482215
352.381198	2496.238232
352.771288	2497.364930
353.161314	2498.882318
353.551276	2496.812924
353.941175	2497.586741
354.331010	2498.978099
354.720782	2496.465084
355.110490	2495.393839
355.500135	2496.472646
355.889717	2496.417193
356.279235	2494.796462
356.668689	2499.028511
357.058080	2499.424242
357.447408	2493.382419
357.836672	2494.599857
358.225873	2495.615650
358.615010	2495.333345
359.004084	2499.739314
359.393095	2496.586072
359.782043	2497.909375
360.170927	2502.091012
360.559748	2502.456496
360.948505	2501.271824
361.337199	2503.762154
361.725830	2503.240395
362.114398	2503.704181
362.502903	2502.146465
362.891344	2504.409943
363.279722	2504.979593
363.668037	2503.754593
364.056289	2506.895232
364.444478	2506.459172
364.832603	2505.637464
365.220665	2506.199552
365.608665	2507.149810
365.996601	2508.510921
366.384474	2505.753410
366.772284	2507.225427
367.160031	2509.057887
367.547715	2507.472444
367.935336	2506.776764
368.322893	2510.005623
368.710388	2510.537465
369.097820	2512.468227
369.485189	2507.994203
369.872495	2509.746004
370.259738	2510.043432
370.646918	2510.396313
371.034035	2510.078720
371.421090	2511.492764
371.808081	2511.623834
372.195010	2510.116529
372.581875	2512.037208
372.968678	2509.625016
373.355418	2510.723988
373.742096	2514.134328
374.128710	2512.344719
374.515262	2512.737929
374.901751	2517.973167
375.288177	2513.393279
375.674540	2511.707013
376.060841	2515.011489
376.447079	2514.149452
376.833254	2515.898732
377.219367	2508.210973
377.605417	2513.786489
377.991404	2508.342043
378.377329	2512.969822
378.763191	2509.718278
379.148991	2517.726151
379.534727	2516.085255
379.920402	2516.773372
380.306013	2519.152797
380.691563	2514.908146
381.077049	2517.506860
381.462474	2516.359998
381.847835	2518.673888
382.233134	2517.148938
382.618371	2519.243538
383.003545	2520.266892
383.388657	2519.167921
383.773706	2517.819412
384.158693	2518.976357
384.543618	2518.724299
384.928480	2518.741943
385.313280	2518.668846
385.698017	2519.815709
386.082692	2518.237828
386.467305	2518.736902
386.851856	2516.972498
387.236344	2521.398631
387.620770	2523.599095
388.005133	2521.680936
388.389435	2521.335617
388.773674	2522.432068
389.157851	2518.915863
389.541965	2522.278313
389.926018	2521.287726
390.310008	2522.986595
390.693936	2522.931142
391.077802	2522.749660
391.461606	2524.443488
391.845348	2522.565658
392.229027	2524.193951
392.612645	2523.858714
392.996200	2523.813344
393.379694	2527.004394
393.763125	2524.408200
394.146494	2526.991791
394.529801	2525.698735
394.913047	2524.748478
395.296230	2524.241842
395.679351	2526.031452
396.062410	2526.477594
396.445408	2527.009435
396.828343	2526.099507
397.211217	2520.856707
397.594028	2525.176976
397.976778	2524.624970
398.359466	2522.890813
398.742092	2524.032634
399.124656	2526.225536
399.507158	2527.105217
399.889598	2529.509848
400.271977	2526.442306
400.654294	2529.522451
401.036549	2524.967768
401.418742	2527.127902
401.800874	2525.479445
402.182944	2527.049765
402.564952	2527.899199
402.946898	2529.887934
403.328783	2529.451874
403.710606	2530.989426
404.092367	2528.415917
404.474067	2528.002543
404.855705	2531.198634
405.237282	2529.653521
405.618797	2528.325177
406.000250	2530.722245
406.381642	2527.057326
406.762972	2530.384488
407.144240	2530.402132
407.525447	2534.140147
407.906593	2530.472708
408.287677	2531.488501
408.668700	2531.314581
409.049661	2531.483459
409.430560	2532.796680
409.811399	2533.845240
410.192176	2531.319622
410.572891	2531.425486
410.953545	2534.228368
411.334138	2533.923378
411.714669	2530.762574
412.095139	2529.696370
412.475547	2533.472195
412.855894	2535.324819
413.236180	2533.126876
413.616405	2534.825744
413.996568	2531.647297
414.376670	2533.010929
414.756711	2532.847092
415.136691	2533.293234
415.516609	2536.393543
415.896466	2535.922195
416.276262	2536.408667
416.655997	2533.383974
417.035670	2530.515558
417.415283	2530.858356
417.794834	2530.450023
418.174324	2533.729293
418.553753	2533.787267
418.933121	2536.340611
419.312428	2537.051414
419.691674	2534.835827
420.070859	2536.060827
420.449983	2532.761392
420.829045	2536.983358
421.208047	2536.441434
421.586988	2538.455375
421.965867	2537.754655
422.344686	2535.924716
422.723444	2537.605941
423.102141	2537.910931
423.480777	2537.946219
423.859352	2535.680220
424.237866	2539.098122
424.616319	2538.533513
424.994712	2539.824048
425.373044	2539.231713
425.751314	2536.506969
426.129524	2535.549150
426.507673	2540.350849
426.885762	2539.884542
427.263789	2540.103832
427.641756	2540.181970
428.019662	2542.546272
428.397508	2540.134079
428.775292	2541.306148
429.153016	2539.824048
429.530679	2539.836651
429.908282	2538.904038
430.285824	2541.976621
430.663305	2541.691796
431.040726	2540.194573
431.418086	2542.001827
431.795385	2542.662218
432.172624	2539.803884
432.549802	2543.113401
432.926920	2540.360931
433.303977	2541.255736
433.680974	2542.261446
434.057910	2542.440407
434.434786	2541.079296
434.811601	2543.922507
435.188355	2542.405119
435.565050	2540.300437
435.941683	2542.947043
436.318257	2539.360262
436.694770	2540.504604
437.071222	2541.835469
437.447614	2540.106353
437.823946	2538.276414
438.200218	2542.725232
438.576429	2543.962836
438.952580	2543.070552
439.328670	2544.048535
439.704700	2540.398740
440.080670	2541.051569
440.456580	2546.763197
440.832429	2545.049204
441.208218	2545.785213
441.583947	2545.429812
441.959616	2544.623227
442.335224	2544.293031
442.710773	2545.999462
443.086261	2546.042312
443.461689	2548.212528
443.837057	2546.007024
444.212365	2545.891077
444.587612	2549.412323
444.962800	2546.163299
445.337927	2548.638506
445.712995	2546.725388
446.088002	2549.946685
446.462949	2546.748073
446.837837	2547.405944
447.212664	2550.818805
447.587431	2547.660522
447.962139	2550.057591
448.336786	2549.147663
448.711374	2550.095399
449.085901	2551.602704
449.460369	2550.758311
449.834776	2550.377704
450.209124	2550.130688
450.583412	2552.739485
450.957640	2552.805020
451.331808	2551.915256
451.705917	2551.108671
452.079965	2553.220915
452.453954	2552.351316
452.827883	2553.777962
453.201752	2552.184958
453.575562	2553.142777
453.949311	2554.604712
454.323001	2555.197047
454.696632	2554.786193
455.070202	2557.609239
455.443713	2556.590926
455.817164	2556.243087
456.190556	2556.490103
456.563888	2558.277192
456.937160	2558.173848
457.310373	2559.890361
457.683526	2561.054868
458.056619	2563.739282
458.429653	2565.231464
458.802628	2564.480332
459.175542	2570.955694
459.548398	2574.058524
459.921194	2577.771334
460.293930	2582.716706
460.666607	2589.673498
461.039224	2596.020311
461.411782	2600.648090
461.784280	2603.856785
462.156719	2606.528596
462.529099	2609.122270
462.901419	2611.201746
463.273680	2614.901953
463.645882	2620.469907
464.018024	2627.686319
464.390106	2631.835188
464.762130	2647.520739
465.134094	2668.413801
465.505999	2706.048535
465.877845	2745.845924
466.249631	2768.974738
466.621358	2764.883841
466.993026	2762.902668
467.364634	2765.700508
467.736184	2765.335025
468.107674	2770.731580
468.479105	2791.765794
468.850477	2794.142698
469.221790	2800.991106
469.593043	2803.829275
469.964238	2815.436532
470.335373	2826.905157
470.706449	2847.410050
471.077467	2868.497197
471.448425	2964.188379
471.819324	3049.681307
472.190164	3068.283165
472.560945	3020.674508
472.931667	2997.596106
473.302330	3005.374606
473.672934	3005.714884
474.043479	3056.887637
474.413965	3077.458065
474.784393	3098.716611
475.154761	3138.216572
475.525070	3175.616892
475.895321	3186.904036
476.265513	3234.011098
476.635645	3283.477420
477.005719	3326.806137
477.375734	3376.068293
477.745691	3440.436265
478.115588	3497.678567
478.485427	3576.998602
478.855207	3700.101059
479.224928	3893.068866
479.594591	4041.777864
479.964194	4063.094383
480.333739	4087.775872
480.703226	4147.896673
481.072653	4220.302765
481.442022	4353.772355
481.811333	4447.278197
482.180584	4473.245180
482.549777	4487.110874
482.918912	4513.962580
483.287988	4591.553499
483.657005	4657.937934
484.025964	4657.645547
484.394864	4757.646916
484.763706	4822.151000
485.132489	4827.096372
485.501213	4884.910844
485.869879	4969.103155
486.238487	5016.626112
486.607036	5103.916212
486.975527	5126.243482
487.343959	5251.886680
487.712333	5352.112380
488.080648	5391.685438
488.448905	5498.817519
488.817104	5548.367020
489.185244	5723.408484
489.553326	5869.566658
489.921350	6158.770092
490.289315	6658.540002
490.657222	6867.755448
491.025070	6942.450225
491.392861	6979.434650
491.760593	6929.446569
492.128267	6885.712038
492.495883	6829.520817
492.863440	6769.601663
493.230939	6711.431788
493.598380	6759.042966
493.965763	6791.323994
494.333088	6810.782848
494.700354	6861.345621
495.067563	6955.852133
495.434713	6963.209697
495.801805	7102.103567
496.168839	7148.184755
496.535815	7199.145779
496.902733	7265.867971
497.269593	7323.077505
497.636395	7441.612676
498.003139	7531.574587
498.369825	7520.632763
498.736453	7697.509207
499.103023	7714.253399
499.469535	7817.216446
499.835989	7879.204994
500.202385	7936.575846
500.568723	7902.411946
500.935003	8112.945654
501.301226	8075.351249
501.667390	8302.132596
502.033497	8443.070655
502.399546	8416.599556
502.765537	8420.710617
503.131470	8543.303917
503.497345	8733.962876
503.863163	8507.846961
504.228923	8809.565060
504.594625	8920.402389
504.960269	8794.945714
505.325856	9017.958798
505.691385	8931.928987
506.056856	9106.862067
506.422270	9183.190178
506.787625	9144.690886
507.152924	9305.917068
507.518164	9337.726749
507.883347	9334.016459
508.248472	9311.658942
508.613540	9559.625738
508.978550	9516.748204
509.343503	9548.346156
509.708398	9690.052991
510.073236	9831.928704
510.438016	9890.020441
510.802738	9885.188495
511.167403	9968.705290
511.532010	9932.814796
511.896561	10166.389097
512.261053	10268.555642
512.625488	10204.210354
512.989866	10222.905473
513.354186	10248.275080
513.718449	10202.990395
514.082655	10400.918698
514.446803	10344.566159
514.810894	10487.732408
515.174927	10405.415407
515.538904	10452.459455
515.902822	10624.009920
516.266684	10546.723990
516.630488	10519.433704
516.994235	10601.244069
517.357925	10692.791423
517.721558	10799.379059
518.085133	10843.993271
518.448651	10873.698270
518.812112	10783.388519
519.175516	10820.060393
519.538863	10951.321957
519.902152	10891.291897
520.265385	11073.194372
520.628560	10996.984728
520.991678	10992.936682
521.354739	11068.180944
521.717743	11026.581343
522.080690	11023.223934
522.443580	11167.698362
522.806413	11145.182049
523.169189	11182.468943
523.531908	11249.952349
523.894569	11089.832700
524.257174	11099.673032
524.619722	11226.808412
524.982213	11188.911538
525.344647	11246.567214
525.707025	11207.226050
526.069345	11306.015021
526.431608	11239.111348
526.793815	11350.077226
527.155964	11154.220837
527.518057	11206.777387
527.880093	11161.898515
528.242072	11239.708724
528.603995	11154.908955
528.965860	11079.936915
529.327669	11133.668053
529.689421	11089.414284
530.051117	11061.148535
530.412755	11171.514516
530.774337	11066.368649
531.135862	11054.317771
531.497331	11074.923487
531.858743	10935.480131
532.220098	11102.995153
532.581396	10976.547891
532.942638	10969.429782
533.303824	10924.790364
533.664953	10950.255753
534.026025	10861.153359
534.387040	10969.802827
534.747999	10966.395007
535.108902	11027.347598
535.469748	10783.133941
535.830537	10895.423123
536.191270	10875.321522
536.551947	10897.452187
536.912567	10898.331868
537.273131	10824.143728
537.633638	10802.865017
537.994089	10793.377566
538.354483	10745.353014
538.714821	10887.987421
539.075103	10899.398072
539.435328	10864.077228
539.795497	10697.978770
540.155609	10857.173368
540.515665	10939.986922
540.875665	10679.046717
541.235609	10755.090002
541.595496	10744.899310
541.955328	10896.441436
542.315102	10785.629312
542.674821	10732.760211
543.034483	10737.645089
543.394090	10742.527447
543.753640	10674.655872
544.113134	10892.905066
544.472571	10748.274362
544.831953	10886.008768
545.191278	10691.989880
545.550548	10724.636392
545.909761	10861.002124
546.268918	10837.530512
546.628019	10924.172823
546.987064	10793.962340
547.346053	10706.770543
547.704986	10812.758282
548.063863	10797.884357
548.422684	10790.045363
548.781449	10703.093021
549.140158	10804.916767
549.498811	10688.582060
549.857408	10544.838599
550.215949	10769.996694
550.574434	10623.193253
550.932864	10724.515404
551.291237	10781.223344
551.649555	10729.465817
552.007817	10742.580379
552.366022	10703.705521
552.724173	10704.237363
553.082267	10680.803559
553.440305	10821.431587
553.798288	10615.306368
554.156215	10771.688001
554.514086	10751.185629
554.871902	10606.055851
555.229661	10631.221291
555.587365	10613.352921
555.945014	10507.065233
556.302606	10633.184820
556.660143	10530.572133
557.017625	10681.267345
557.375050	10579.133568
557.732421	10715.837058
558.089735	10627.942020
558.446994	10633.114244
558.804197	10670.736375
559.161345	10672.909112
559.518437	10521.704744
559.875474	10601.700294
560.232455	10637.338731
560.589381	10580.759341
560.946251	10581.061810
561.303065	10690.487616
561.659825	10623.823397
562.016528	10559.163037
562.373177	10432.604870
562.729770	10547.727180
563.086307	10465.203492
563.442789	10558.527852
563.799216	10432.231825
564.155587	10484.972376
564.511904	10441.061406
564.868164	10431.447925
565.224370	10445.084247
565.580520	10376.028001
565.936615	10376.519513
566.292654	10244.239636
566.648638	10378.906499
567.004567	10331.335651
567.360441	10315.859309
567.716260	10225.736081
568.072023	10322.861472
568.427732	10267.648234
568.783385	10184.002889
569.138982	10250.410008
569.494525	10269.155539
569.850013	10146.032918
570.205445	10226.189785
570.560823	10119.415626
570.916145	10046.381909
571.271412	10106.096897
571.626625	10052.879957
571.981782	10030.522439
572.336884	10005.341876
572.691931	10016.981900
573.046923	9957.990318
573.401860	9909.010467
573.756743	9851.231282
574.111570	9894.277695
574.466342	9879.784378
574.821059	9910.227906
575.175722	9796.983426
575.530330	9804.353593
575.884882	9799.841760
576.239380	9727.065142
576.593823	9705.650321
576.948211	9719.415192
577.302544	9603.670299
577.656823	9617.291497
578.011047	9620.056570
578.365216	9590.838042
578.719330	9515.235858
579.073389	9532.466522
579.427394	9473.933684
579.781344	9452.415519
580.135239	9405.505062
580.489080	9408.476822
580.842866	9309.856730
581.196597	9313.657760
581.550273	9355.148976
581.903895	9326.006066
582.257463	9391.722548
582.610975	9267.329556
582.964434	9299.471953
583.317837	9219.110919
583.671186	9197.565028
584.024481	9194.280716
584.377721	9119.500240
584.730906	9089.543183
585.084037	9126.416703
585.437113	9062.353720
585.790135	9080.920289
586.143103	8982.864806
586.496016	8952.809447
586.848874	9013.149538
587.201679	9003.112600
587.554428	8882.878561
587.907124	8931.992002
588.259765	8902.745748
588.612352	8908.439731
588.964884	8784.818036
589.317362	8795.182648
589.669786	8802.336046
590.022155	8849.107871
590.374470	8862.159418
590.726731	8790.670816
591.078937	8652.059249
591.431090	8763.904809
591.783188	8636.351014
592.135232	8627.196279
592.487222	8626.367009
592.839157	8677.625461
593.191038	8618.880895
593.542866	8555.647182
593.894639	8460.034138
594.246358	8511.630347
594.598022	8524.896144
594.949633	8426.507944
595.301190	8400.301506
595.652692	8429.509951
596.004141	8532.906537
596.355535	8318.370153
596.706876	8301.119324
597.058162	8238.087257
597.409395	8310.974780
597.760573	8366.550981
598.111698	8282.222559
598.462768	8272.175540
598.813785	8229.991164
599.164748	8199.232564
599.515657	8189.414917
599.866511	8103.246474
600.217312	8224.919763
600.568060	8088.841377
600.918753	8185.192951
601.269392	8156.997777
601.619978	8072.807987
601.970510	8131.103890
602.320988	8133.639591
602.671412	8190.007253
603.021783	8121.616439
603.372100	8096.761030
603.722363	8100.040300
604.072572	8073.914521
604.422728	8087.384484
604.772830	8016.818412
605.122878	8026.202520
605.472872	8020.659771
605.822813	8039.853965
606.172701	7996.205134
606.522534	8065.785660
606.872314	8068.122235
607.222041	8034.681741
607.571714	8094.424455
607.921333	8044.917804
608.270899	8059.133857
608.620411	8148.498392
608.969870	8047.871920
609.319276	8045.472331
609.668627	8057.354330
610.017926	8095.127696
610.367171	8143.018657
610.716362	8117.149977
611.065500	8111.859286
611.414585	8140.982031
611.763616	8122.738096
612.112594	8103.256557
612.461518	8117.374308
612.810389	8178.483175
613.159207	8122.791028
613.507971	8071.373779
613.856682	8189.175462
614.205340	8146.335737
614.553945	8220.344916
614.902496	8118.397662
615.250994	8167.667379
615.599439	8156.496182
615.947830	8162.240577
616.296169	8143.008575
616.644454	8155.644227
616.992686	8152.770770
617.340864	8206.408647
617.688990	8114.856252
618.037063	8205.455868
618.385082	8154.850246
618.733048	8238.304027
619.080961	8180.900408
619.428821	8194.367851
619.776628	8198.506638
620.124382	8147.099472
620.472083	8131.517265
620.819731	8162.106987
621.167326	8052.335862
621.514868	8060.028662
621.862357	7947.845345
622.209793	7968.556926
622.557176	7905.774396
622.904506	7871.492029
623.251783	7808.593552
623.599007	7763.019001
623.946179	7765.905062
624.293297	7718.041827
624.640363	7640.163561
624.987376	7625.639997
625.334336	7575.341885
625.681243	7523.569235
626.028097	7506.522573
626.374899	7488.502968
626.721647	7479.590208
627.068343	7414.277019
627.414987	7383.906588
627.761577	7341.891091
628.108115	7375.724795
628.454600	7272.386182
628.801032	7323.682443
629.147412	7281.603932
629.493739	7267.329905
629.840014	7206.636933
630.186236	7263.102898
630.532405	7146.193499
630.878521	7199.445727
631.224585	7155.565004
631.570597	7082.095228
631.916556	7112.385001
632.262462	7107.409382
632.608316	7070.782878
632.954117	7042.567540
633.299866	7027.592793
633.645562	7026.914758
633.991206	6948.907943
634.336797	6887.804117
634.682336	6846.393559
635.027823	6817.724517
635.373257	6803.889070
635.718639	6737.857517
636.063968	6747.075267
636.409245	6644.684391
636.754470	6644.782693
637.099642	6602.777279
637.444762	6545.202261
637.789829	6555.718108
638.134845	6501.387072
638.479808	6483.092725
638.824719	6489.865515
639.169577	6417.595533
639.514383	6440.290808
639.859137	6372.454521
640.203839	6375.123812
640.548489	6363.148551
640.893086	6333.196536
641.237632	6309.639224
641.582125	6329.647563
641.926566	6299.262009
