Dividing Wavelength (nm)	Counts (n)	Blue Motor Position (mm): 6.000000	Red Motor Position (mm): 0.000000	
326.493990	2144.242186
326.888308	2144.242186
327.282561	2144.242186
327.676750	2109.029726
328.070874	2106.665425
328.464933	2109.095261
328.858929	2116.374687
329.252859	2125.877262
329.646726	2138.293624
330.040528	2153.502785
330.434265	2167.209683
330.827938	2185.435974
331.221547	2201.726463
331.615091	2221.001315
332.008571	2240.674418
332.401986	2261.189393
332.795338	2277.966353
333.188625	2301.563994
333.581847	2321.930256
333.975006	2337.736794
334.368100	2354.579289
334.761129	2371.956146
335.154095	2390.079094
335.546996	2407.753379
335.939833	2422.876841
336.332606	2438.491815
336.725315	2448.400203
337.117960	2459.548715
337.510540	2468.935343
337.903056	2480.177116
338.295508	2485.954278
338.687896	2492.210350
339.080220	2502.332987
339.472480	2508.823473
339.864676	2513.292456
340.256807	2518.164731
340.648875	2519.369567
341.040879	2523.034486
341.432818	2526.137316
341.824694	2526.800227
342.216506	2526.011287
342.608253	2526.875845
342.999937	2527.067409
343.391557	2526.795186
343.783113	2527.195958
344.174605	2526.621267
344.566033	2524.448529
344.957397	2522.081707
345.348697	2521.333096
345.739934	2518.144566
346.131106	2514.401510
346.522215	2514.540141
346.913260	2511.704492
347.304241	2511.175171
347.695159	2510.000582
348.086012	2508.757938
348.476802	2506.224758
348.867528	2503.989006
349.258191	2501.511279
349.648789	2503.056393
350.039324	2503.252998
350.429796	2498.345435
350.820203	2497.531288
351.210548	2496.800321
351.600828	2494.715804
351.991045	2497.581700
352.381198	2493.276554
352.771288	2494.173880
353.161314	2492.621204
353.551276	2494.481390
353.941175	2493.324445
354.331010	2491.058447
354.720782	2492.152377
355.110490	2491.920484
355.500135	2492.248159
355.889717	2493.309322
356.279235	2493.115238
356.668689	2494.486431
357.058080	2494.579693
357.447408	2492.837974
357.836672	2489.732623
358.225873	2494.178921
358.615010	2490.713128
359.004084	2494.549446
359.393095	2496.989364
359.782043	2497.533809
360.170927	2495.083808
360.559748	2500.891217
360.948505	2499.207472
361.337199	2497.853922
361.725830	2499.686382
362.114398	2500.492966
362.502903	2498.065651
362.891344	2500.014057
363.279722	2502.383399
363.668037	2502.980776
364.056289	2499.454488
364.444478	2503.595796
364.832603	2500.336690
365.220665	2504.414984
365.608665	2502.695950
365.996601	2505.892042
366.384474	2505.035046
366.772284	2504.634274
367.160031	2503.308451
367.547715	2505.183760
367.935336	2505.178719
368.322893	2507.590911
368.710388	2504.903976
369.097820	2511.603669
369.485189	2506.557474
369.872495	2509.206601
370.259738	2507.520335
370.646918	2505.614778
371.034035	2506.738956
371.421090	2507.379182
371.808081	2507.842968
372.195010	2507.399347
372.581875	2508.997393
372.968678	2510.149296
373.355418	2507.865654
373.742096	2510.212311
374.128710	2507.880777
374.515262	2508.321878
374.901751	2512.284225
375.288177	2507.926147
375.674540	2510.774399
376.060841	2508.445386
376.447079	2511.739780
376.833254	2509.872033
377.219367	2506.287772
377.605417	2508.818432
377.991404	2508.316837
378.377329	2507.038904
378.763191	2508.221055
379.148991	2513.821777
379.534727	2510.391272
379.920402	2511.003772
380.306013	2513.030316
380.691563	2515.823115
381.077049	2514.401510
381.462474	2517.282529
381.847835	2513.058042
382.233134	2514.315810
382.618371	2512.450583
383.003545	2515.321520
383.388657	2514.109123
383.773706	2513.322703
384.158693	2514.711541
384.543618	2513.305059
384.928480	2515.694566
385.313280	2512.369925
385.698017	2516.417971
386.082692	2515.321520
386.467305	2516.753208
386.851856	2515.268588
387.236344	2515.699607
387.620770	2516.165913
388.005133	2517.280008
388.389435	2517.486696
388.773674	2515.278670
389.157851	2519.293949
389.541965	2515.646675
389.926018	2517.373270
390.310008	2514.681294
390.693936	2519.427540
391.077802	2517.897550
391.461606	2517.476613
391.845348	2517.199350
392.229027	2518.031140
392.612645	2519.941738
392.996200	2520.841584
393.379694	2518.689011
393.763125	2521.436440
394.146494	2516.980060
394.529801	2522.522808
394.913047	2521.204547
395.296230	2521.650689
395.679351	2520.385359
396.062410	2522.016172
396.445408	2522.114475
396.828343	2522.747140
397.211217	2516.286901
397.594028	2518.487365
397.976778	2518.328568
398.359466	2520.115658
398.742092	2518.227745
399.124656	2524.685463
399.507158	2526.288550
399.889598	2522.364012
400.271977	2524.196472
400.654294	2521.391069
401.036549	2522.991636
401.418742	2522.973992
401.800874	2523.916688
402.182944	2525.439116
402.564952	2524.902233
402.946898	2524.985412
403.328783	2525.774353
403.710606	2526.049096
404.092367	2523.863755
404.474067	2526.439785
404.855705	2521.570030
405.237282	2525.222346
405.618797	2525.091276
406.000250	2526.180166
406.381642	2527.672347
406.762972	2528.494055
407.144240	2523.231091
407.525447	2527.437933
407.906593	2523.578930
408.287677	2526.482635
408.668700	2527.115300
409.049661	2525.408869
409.430560	2528.846936
409.811399	2527.006915
410.192176	2526.943900
410.572891	2527.803417
410.953545	2527.440454
411.334138	2531.193593
411.714669	2526.845598
412.095139	2528.811648
412.475547	2528.262162
412.855894	2528.531864
413.236180	2529.729138
413.616405	2528.418438
413.996568	2528.751154
414.376670	2528.841895
414.756711	2531.480939
415.136691	2530.714683
415.516609	2529.807276
415.896466	2530.601258
416.276262	2531.662420
416.655997	2524.509023
417.035670	2525.502130
417.415283	2528.879703
417.794834	2529.056144
418.174324	2530.485311
418.553753	2530.555887
418.933121	2529.736700
419.312428	2529.928263
419.691674	2528.778880
420.070859	2530.412214
420.449983	2530.689478
420.829045	2530.571011
421.208047	2529.275434
421.586988	2530.654190
421.965867	2531.042358
422.344686	2529.628315
422.723444	2531.274252
423.102141	2532.078316
423.480777	2531.125537
423.859352	2531.276772
424.237866	2533.278110
424.616319	2532.831968
424.994712	2530.729807
425.373044	2533.550332
425.751314	2533.452030
426.129524	2535.060158
426.507673	2534.982020
426.885762	2532.753830
427.263789	2536.144006
427.641756	2534.220806
428.019662	2534.644263
428.397508	2535.670138
428.775292	2534.929088
429.153016	2535.753317
429.530679	2535.839016
429.908282	2537.041332
430.285824	2535.571835
430.663305	2534.223327
431.040726	2534.208203
431.418086	2536.358255
431.795385	2535.261804
432.172624	2533.222657
432.549802	2534.883718
432.926920	2536.862371
433.303977	2537.084181
433.680974	2534.319108
434.057910	2535.881866
434.434786	2533.210055
434.811601	2536.401105
435.188355	2536.675848
435.565050	2536.668286
435.941683	2538.447813
436.318257	2534.399767
436.694770	2531.112935
437.071222	2533.268028
437.447614	2533.351207
437.823946	2531.745599
438.200218	2536.380940
438.576429	2535.110570
438.952580	2534.971938
439.328670	2536.965714
439.704700	2538.689789
440.080670	2537.036290
440.456580	2537.391692
440.832429	2537.109387
441.208218	2538.541075
441.583947	2537.626105
441.959616	2539.012423
442.335224	2537.512679
442.710773	2537.134593
443.086261	2538.180632
443.461689	2535.314736
443.837057	2536.028060
444.212365	2537.847916
444.587612	2538.772968
444.962800	2539.778678
445.337927	2541.863195
445.712995	2536.753986
446.088002	2539.514017
446.462949	2538.772968
446.837837	2539.546785
447.212664	2539.531662
447.587431	2540.857485
447.962139	2538.241126
448.336786	2539.670293
448.711374	2536.665766
449.085901	2541.767413
449.460369	2537.679037
449.834776	2538.546116
450.209124	2538.868750
450.583412	2539.440921
450.957640	2538.909079
451.331808	2541.447300
451.705917	2538.795653
452.079965	2537.638708
452.453954	2541.664070
452.827883	2538.941847
453.201752	2539.370345
453.575562	2543.844369
453.949311	2539.246836
454.323001	2539.887063
454.696632	2543.141128
455.070202	2541.921168
455.443713	2542.745397
455.817164	2536.958152
456.190556	2536.607792
456.563888	2540.229861
456.937160	2535.430683
457.310373	2543.546941
457.683526	2539.375386
458.056619	2541.638864
458.429653	2538.437731
458.802628	2542.508463
459.175542	2540.494522
459.548398	2543.441076
459.921194	2541.709440
460.293930	2541.250695
460.666607	2542.011909
461.039224	2540.832279
461.411782	2541.253216
461.784280	2542.644574
462.156719	2541.858154
462.529099	2541.837989
462.901419	2540.633154
463.273680	2542.160623
463.645882	2539.642567
464.018024	2543.385624
464.390106	2544.194729
464.762130	2542.077444
465.134094	2540.923020
465.505999	2543.960315
465.877845	2544.444266
466.249631	2543.587270
466.621358	2541.762372
466.993026	2542.987373
467.364634	2548.303269
467.736184	2542.851261
468.107674	2541.747249
468.479105	2544.058618
468.850477	2538.450334
469.221790	2541.961498
469.593043	2543.667928
469.964238	2545.119781
470.335373	2541.505273
470.706449	2544.149358
471.077467	2545.127342
471.448425	2543.983000
471.819324	2545.034081
472.190164	2542.863864
472.560945	2543.133566
472.931667	2544.819832
473.302330	2540.310520
473.672934	2543.753628
474.043479	2544.207332
474.413965	2546.233876
474.784393	2539.052752
475.154761	2540.958308
475.525070	2539.367824
475.895321	2541.205325
476.265513	2540.348328
476.635645	2545.026519
477.005719	2543.761190
477.375734	2544.580377
477.745691	2542.347146
478.115588	2543.670449
478.485427	2544.439225
478.855207	2543.410829
479.224928	2543.950233
479.594591	2544.550130
479.964194	2542.402599
480.333739	2544.915614
480.703226	2543.597352
481.072653	2545.094575
481.442022	2544.287990
481.811333	2546.004503
482.180584	2545.865871
482.549777	2545.127342
482.918912	2545.583567
483.287988	2545.432332
483.657005	2543.730943
484.025964	2545.525593
484.394864	2543.786395
484.763706	2546.001982
485.132489	2545.102137
485.501213	2546.027188
485.869879	2544.756818
486.238487	2543.977959
486.607036	2546.463248
486.975527	2546.584236
487.343959	2547.504246
487.712333	2545.112219
488.080648	2547.078269
488.448905	2546.243958
488.817104	2545.530635
489.185244	2544.764379
489.553326	2546.133052
489.921350	2546.203629
490.289315	2545.510470
490.657222	2547.650440
491.025070	2546.934596
491.392861	2547.118598
491.760593	2545.137425
492.128267	2545.775131
492.495883	2545.029040
492.863440	2548.411654
493.230939	2547.007693
493.598380	2546.501057
493.965763	2540.973432
494.333088	2544.416540
494.700354	2544.419060
495.067563	2542.911755
495.434713	2542.155582
495.801805	2548.600697
496.168839	2547.032898
496.535815	2548.671273
496.902733	2547.194215
497.269593	2548.741850
497.636395	2547.627755
498.003139	2548.109185
498.369825	2547.632796
498.736453	2549.185471
499.103023	2547.975594
499.469535	2548.605738
499.835989	2547.932744
500.202385	2548.681356
500.568723	2548.567930
500.935003	2546.440563
501.301226	2545.790254
501.667390	2546.992569
502.033497	2547.962991
502.399546	2547.022816
502.765537	2546.221273
503.131470	2547.065666
503.497345	2547.252189
503.863163	2548.618341
504.228923	2548.184802
504.594625	2545.255892
504.960269	2548.283105
505.325856	2550.385266
505.691385	2546.075079
506.056856	2547.272353
506.422270	2549.034237
506.787625	2547.582384
507.152924	2549.465255
507.518164	2546.997610
507.883347	2549.510626
508.248472	2547.683207
508.613540	2548.457024
508.978550	2546.251520
509.343503	2546.012065
509.708398	2549.767724
510.073236	2550.052550
510.438016	2546.359904
510.802738	2548.978784
511.167403	2549.215718
511.532010	2550.160934
511.896561	2546.979966
512.261053	2550.244113
512.625488	2544.391334
512.989866	2543.395706
513.354186	2545.785213
513.718449	2544.933258
514.082655	2546.596839
514.446803	2544.724050
514.810894	2548.595656
515.174927	2551.887530
515.538904	2546.841335
515.902822	2548.472148
516.266684	2549.591284
516.630488	2550.397869
516.994235	2549.596325
517.357925	2549.772766
517.721558	2550.017262
518.085133	2548.273022
518.448651	2549.094730
518.812112	2548.567930
519.175516	2546.654812
519.538863	2551.569937
519.902152	2550.730585
520.265385	2547.758825
520.628560	2549.813095
520.991678	2547.688248
521.354739	2549.762683
521.717743	2545.820501
522.080690	2547.259750
522.443580	2547.761345
522.806413	2549.419885
523.169189	2547.181612
523.531908	2548.484751
523.894569	2548.583053
524.257174	2549.061963
524.619722	2546.904349
524.982213	2549.397200
525.344647	2547.864689
525.707025	2550.100441
526.069345	2550.760832
526.431608	2549.742519
526.793815	2550.125646
527.155964	2548.908208
527.518057	2550.022303
527.880093	2548.973743
528.242072	2547.753783
528.603995	2549.692107
528.965860	2552.152190
529.327669	2548.895605
529.689421	2546.498536
530.051117	2550.178578
530.412755	2549.024154
530.774337	2550.223949
531.135862	2547.146324
531.497331	2550.559186
531.858743	2544.189688
532.220098	2546.322096
532.581396	2545.255892
532.942638	2546.440563
533.303824	2548.421736
533.664953	2549.009031
534.026025	2548.658671
534.387040	2548.971222
534.747999	2550.823846
535.108902	2549.344268
535.469748	2548.376366
535.830537	2549.167827
536.191270	2549.407282
536.551947	2550.206305
536.912567	2548.915769
537.273131	2547.791592
537.633638	2550.412992
537.994089	2550.176058
538.354483	2550.750749
538.714821	2548.671273
539.075103	2549.077086
539.435328	2550.740667
539.795497	2550.450801
540.155609	2550.029864
540.515665	2548.661191
540.875665	2549.606408
541.235609	2551.532128
541.595496	2548.184802
541.955328	2547.748742
542.315102	2551.413661
542.674821	2550.355019
543.034483	2552.663867
543.394090	2549.573640
543.753640	2553.155380
544.113134	2550.004659
544.472571	2553.218394
544.831953	2548.152035
545.191278	2551.365770
545.550548	2551.131357
545.909761	2549.301418
546.268918	2548.474668
546.628019	2550.730585
546.987064	2548.338557
547.346053	2552.331151
547.704986	2551.317879
548.063863	2548.424257
548.422684	2552.888199
548.781449	2550.695297
549.140158	2550.440718
549.498811	2550.226469
549.857408	2550.765873
550.215949	2548.351160
550.574434	2546.501057
550.932864	2548.217570
551.291237	2548.106664
551.649555	2550.392827
552.007817	2549.051881
552.366022	2549.296377
552.724173	2551.325441
553.082267	2550.798640
553.440305	2547.879812
553.798288	2552.472303
554.156215	2550.770914
554.514086	2551.486758
554.871902	2548.983825
555.229661	2549.734957
555.587365	2549.828218
555.945014	2551.872406
556.302606	2552.363919
556.660143	2552.368960
557.017625	2551.519525
557.375050	2551.721172
557.732421	2550.677653
558.089735	2550.932231
558.446994	2551.433826
558.804197	2550.826367
559.161345	2549.414844
559.518437	2550.148332
559.875474	2550.700338
560.232455	2550.370142
560.589381	2551.559855
560.946251	2553.493137
561.303065	2549.608928
561.659825	2552.379042
562.016528	2551.159083
562.373177	2549.334185
562.729770	2550.460883
563.086307	2552.671429
563.442789	2551.585060
563.799216	2548.348640
564.155587	2549.495502
564.511904	2551.015410
564.868164	2549.936603
565.224370	2551.517005
565.580520	2551.648075
565.936615	2553.689742
566.292654	2549.775286
566.648638	2549.258568
567.004567	2550.481048
567.360441	2552.719320
567.716260	2552.169834
568.072023	2550.654968
568.427732	2545.460058
568.783385	2551.418702
569.138982	2547.088351
569.494525	2549.641696
569.850013	2548.167158
570.205445	2549.223280
570.560823	2548.830070
570.916145	2552.230328
571.271412	2549.863506
571.626625	2552.976419
571.981782	2550.778476
572.336884	2552.714279
572.691931	2550.632282
573.046923	2549.745039
573.401860	2551.799309
573.756743	2554.002294
574.111570	2550.826367
574.466342	2553.112530
574.821059	2551.829556
575.175722	2551.075904
575.530330	2550.292004
575.884882	2549.429967
576.239380	2548.625903
576.593823	2553.450287
576.948211	2552.147149
577.302544	2549.067004
577.656823	2551.201933
578.011047	2551.421223
578.365216	2551.751418
578.719330	2551.494320
579.073389	2552.996583
579.427394	2548.608259
579.781344	2550.385266
580.135239	2555.549928
580.489080	2552.396686
580.842866	2554.519012
581.196597	2554.778631
581.550273	2550.740667
581.903895	2553.115051
582.257463	2552.409289
582.610975	2550.743188
582.964434	2552.525236
583.317837	2552.736964
583.671186	2553.798127
584.024481	2548.005841
584.377721	2552.983981
584.730906	2548.328475
585.084037	2553.074721
585.437113	2551.847200
585.790135	2552.608415
586.143103	2551.285112
586.496016	2552.164793
586.848874	2545.205480
587.201679	2546.874102
587.554428	2547.355532
587.907124	2547.534493
588.259765	2547.600028
588.612352	2554.110678
588.964884	2550.042467
589.317362	2552.399207
589.669786	2551.587581
590.022155	2549.578681
590.374470	2552.278219
590.726731	2551.212015
591.078937	2550.622200
591.431090	2551.806871
591.783188	2550.791079
592.135232	2553.556152
592.487222	2550.914587
592.839157	2553.961964
593.191038	2549.303938
593.542866	2550.788558
593.894639	2552.628579
594.246358	2552.613456
594.598022	2553.921635
594.949633	2551.408620
595.301190	2552.729402
595.652692	2552.805020
596.004141	2552.416851
596.355535	2552.714279
596.706876	2551.033054
597.058162	2551.045657
597.409395	2551.098589
597.760573	2552.653785
598.111698	2550.602035
598.462768	2553.321738
598.813785	2550.143290
599.164748	2551.451470
599.515657	2553.725030
599.866511	2552.169834
600.217312	2552.966337
600.568060	2552.497509
600.918753	2552.031202
601.269392	2552.840308
601.619978	2548.325954
601.970510	2551.643034
602.320988	2549.172868
602.671412	2551.413661
603.021783	2552.678991
603.372100	2550.932231
603.722363	2550.869217
604.072572	2553.031872
604.422728	2551.007848
604.772830	2548.988866
605.122878	2544.560213
605.472872	2548.038609
605.822813	2547.572302
606.172701	2550.239072
606.522534	2550.964998
606.872314	2552.207643
607.222041	2550.168496
607.571714	2550.259237
607.921333	2552.520194
608.270899	2553.508261
608.620411	2552.263096
608.969870	2551.998435
609.319276	2552.515153
609.668627	2555.799465
610.017926	2554.713096
610.367171	2557.732748
610.716362	2556.966492
611.065500	2556.555638
611.414585	2556.233004
611.763616	2554.312325
612.112594	2554.090514
612.461518	2555.335679
612.810389	2554.299722
613.159207	2551.736295
613.507971	2552.724361
613.856682	2554.380380
614.205340	2553.467931
614.553945	2553.407438
614.902496	2554.040102
615.250994	2552.179917
615.599439	2551.413661
615.947830	2552.293342
616.296169	2550.392827
616.644454	2555.323076
616.992686	2550.067673
617.340864	2555.262582
617.688990	2549.939124
618.037063	2551.091027
618.385082	2550.397869
618.733048	2554.123281
619.080961	2552.631100
619.428821	2552.005997
619.776628	2552.825184
620.124382	2551.867365
620.472083	2552.222766
620.819731	2550.647406
621.167326	2554.398024
621.514868	2550.455842
621.862357	2553.452808
622.209793	2552.636141
622.557176	2551.758980
622.904506	2549.823177
623.251783	2547.544576
623.599007	2550.055070
623.946179	2543.945192
624.293297	2548.678835
624.640363	2552.792417
624.987376	2553.268806
625.334336	2548.625903
625.681243	2552.996583
626.028097	2553.349464
626.374899	2551.514484
626.721647	2554.077911
627.068343	2550.264278
627.414987	2552.157231
627.761577	2551.491799
628.108115	2551.776624
628.454600	2550.682694
628.801032	2551.922818
629.147412	2550.715461
629.493739	2551.582540
629.840014	2551.542211
630.186236	2552.454659
630.532405	2553.838456
630.878521	2551.948023
631.224585	2550.491130
631.570597	2552.159752
631.916556	2552.910884
632.262462	2552.109340
632.608316	2552.152190
632.954117	2551.421223
633.299866	2550.886861
633.645562	2552.739485
633.991206	2550.385266
634.336797	2550.786037
634.682336	2553.198230
635.027823	2551.587581
635.373257	2551.811912
635.718639	2551.327962
636.063968	2551.794268
636.409245	2547.957950
636.754470	2549.878630
637.099642	2550.987684
637.444762	2552.086655
637.789829	2550.108002
638.134845	2552.706717
638.479808	2551.980791
638.824719	2548.809905
639.169577	2549.195553
639.514383	2549.059442
639.859137	2549.140101
640.203839	2552.303425
640.548489	2551.572457
640.893086	2547.947868
641.237632	2545.185316
641.582125	2547.473999
641.926566	2548.444422
642.270955	2547.975594
642.615292	2552.137067
642.959576	2549.843342
643.303809	2548.514998
643.647990	2552.905843
643.992118	2551.637993
644.336195	2548.845193
