Dividing Wavelength (nm)	Counts (n)	Blue Motor Position (mm): 38.300000	Red Motor Position (mm): 0.000000	
326.493990	2131.344393
326.888308	2131.344393
327.282561	2131.344393
327.676750	2095.569845
328.070874	2095.925247
328.464933	2097.850967
328.858929	2106.229365
329.252859	2115.336209
329.646726	2127.770215
330.040528	2139.195991
330.434265	2154.034627
330.827938	2173.261588
331.221547	2190.847653
331.615091	2210.019161
332.008571	2229.704867
332.401986	2250.192116
332.795338	2269.134252
333.188625	2287.650410
333.581847	2306.519448
333.975006	2323.001501
334.368100	2345.250633
334.761129	2361.674713
335.154095	2375.666435
335.546996	2400.216854
335.939833	2423.582603
336.332606	2439.648760
336.725315	2451.926490
337.117960	2463.639611
337.510540	2469.991465
337.903056	2480.275419
338.295508	2488.011069
338.687896	2495.207316
339.080220	2505.108142
339.472480	2512.556447
339.864676	2516.125584
340.256807	2522.162366
340.648875	2523.694877
341.040879	2526.338962
341.432818	2527.773170
341.824694	2529.850126
342.216506	2529.502286
342.608253	2530.046731
342.999937	2529.671165
343.391557	2530.714683
343.783113	2528.879703
344.174605	2527.072450
344.566033	2524.682943
344.957397	2523.757891
345.348697	2523.992305
345.739934	2521.892664
346.131106	2516.876716
346.522215	2520.503826
346.913260	2514.640964
347.304241	2516.791017
347.695159	2512.581653
348.086012	2510.323216
348.476802	2507.200221
348.867528	2507.958915
349.258191	2506.111332
349.648789	2506.411281
350.039324	2500.830723
350.429796	2503.487412
350.820203	2501.019767
351.210548	2498.577328
351.600828	2498.322749
351.991045	2498.126144
352.381198	2500.823162
352.771288	2496.845691
353.161314	2498.126144
353.551276	2495.517347
353.941175	2496.107162
354.331010	2496.880979
354.720782	2495.315701
355.110490	2498.234529
355.500135	2497.062461
355.889717	2496.888541
356.279235	2496.850732
356.668689	2497.869046
357.058080	2501.327277
357.447408	2493.717655
357.836672	2496.225629
358.225873	2495.429127
358.615010	2493.616832
359.004084	2498.695795
359.393095	2501.599499
359.782043	2503.759634
360.170927	2498.473984
360.559748	2501.798625
360.948505	2500.510610
361.337199	2503.845333
361.725830	2501.682678
362.114398	2505.753410
362.502903	2504.276352
362.891344	2506.713750
363.279722	2503.457165
363.668037	2505.166116
364.056289	2506.144100
364.444478	2505.317350
364.832603	2507.275839
365.220665	2507.021260
365.608665	2507.336332
365.996601	2508.662156
366.384474	2511.109636
366.772284	2507.812722
367.160031	2508.321878
367.547715	2512.319513
367.935336	2509.637619
368.322893	2509.249450
368.710388	2509.698113
369.097820	2512.432939
369.485189	2511.328926
369.872495	2512.246416
370.259738	2514.179699
370.646918	2512.248937
371.034035	2511.475120
371.421090	2515.571057
371.808081	2512.644667
372.195010	2514.046108
372.581875	2515.177847
372.968678	2514.769514
373.355418	2514.328413
373.742096	2515.525687
374.128710	2514.761952
374.515262	2518.242869
374.901751	2516.150790
375.288177	2516.405368
375.674540	2518.063908
376.060841	2515.802950
376.447079	2518.978877
376.833254	2517.486696
377.219367	2514.764473
377.605417	2514.923269
377.991404	2513.995697
378.377329	2516.395286
378.763191	2514.726664
379.148991	2517.867303
379.534727	2519.674557
379.920402	2520.098013
380.306013	2520.060205
380.691563	2521.070956
381.077049	2520.692870
381.462474	2523.498272
381.847835	2520.385359
382.233134	2521.489372
382.618371	2523.205885
383.003545	2521.451563
383.388657	2524.725793
383.773706	2523.198323
384.158693	2526.175124
384.543618	2527.881555
384.928480	2524.511544
385.313280	2528.448685
385.698017	2524.998015
386.082692	2526.608664
386.467305	2527.233767
386.851856	2527.863911
387.236344	2526.238139
387.620770	2530.518078
388.005133	2526.210412
388.389435	2529.880372
388.773674	2529.469518
389.157851	2528.935156
389.541965	2529.136802
389.926018	2530.109745
390.310008	2529.661082
390.693936	2535.246681
391.077802	2532.418593
391.461606	2534.997144
391.845348	2533.578059
392.229027	2539.297248
392.612645	2542.238761
392.996200	2544.950902
393.379694	2551.199412
393.763125	2555.728889
394.146494	2559.595454
394.529801	2569.723132
394.913047	2576.054821
395.296230	2588.287181
395.679351	2598.429982
396.062410	2613.795419
396.445408	2624.268417
396.828343	2640.871457
397.211217	2653.895278
397.594028	2667.549243
397.976778	2684.643796
398.359466	2705.899821
398.742092	2728.620301
399.124656	2741.576067
399.507158	2774.343567
399.889598	2801.865746
400.271977	2833.466219
400.654294	2856.295084
401.036549	2885.130484
401.418742	2907.228382
401.800874	2956.692183
402.182944	2990.004128
402.564952	3039.402395
402.946898	3068.497414
403.328783	3100.077722
403.710606	3109.981069
404.092367	3209.206100
404.474067	3232.738206
404.855705	3273.198507
405.237282	3280.757717
405.618797	3364.488762
406.000250	3423.026641
406.381642	3491.175479
406.762972	3519.335364
407.144240	3559.702404
407.525447	3603.555401
407.906593	3671.517717
408.287677	3741.017584
408.668700	3738.192017
409.049661	3811.588697
409.430560	3874.318295
409.811399	3871.374261
410.192176	4011.188142
410.572891	4010.235364
410.953545	4120.714771
411.334138	4077.645673
411.714669	4163.166328
412.095139	4118.095892
412.475547	4259.331378
412.855894	4284.771561
413.236180	4323.933765
413.616405	4320.553671
413.996568	4419.256943
414.376670	4404.244387
414.756711	4388.268970
415.136691	4446.763999
415.516609	4539.453174
415.896466	4593.552317
416.276262	4649.299917
416.655997	4652.964835
417.035670	4837.009801
417.415283	4944.502324
417.794834	4913.489146
418.174324	4887.050814
418.553753	4821.409950
418.933121	5009.185369
419.312428	5092.961784
419.691674	5050.479981
420.070859	5183.654663
420.449983	5113.118838
420.829045	5234.887909
421.208047	5154.582328
421.586988	5236.571654
421.965867	5256.176702
422.344686	5392.464296
422.723444	5261.522845
423.102141	5087.499694
423.480777	5386.092278
423.859352	5161.899563
424.237866	5422.060910
424.616319	5418.476650
424.994712	5529.198032
425.373044	5412.586062
425.751314	5555.661569
426.129524	5363.109657
426.507673	5555.979162
426.885762	5641.073839
427.263789	5581.535292
427.641756	5462.196057
428.019662	5581.832720
428.397508	5592.706488
428.775292	5539.247572
429.153016	5640.610053
429.530679	5568.690432
429.908282	5650.079860
430.285824	5520.184449
430.663305	5803.875382
431.040726	5538.561976
431.418086	5532.489906
431.795385	5641.227594
432.172624	5651.728318
432.549802	5646.561135
432.926920	5662.617210
433.303977	5668.827912
433.680974	5708.136309
434.057910	5726.977621
434.434786	5732.474999
434.811601	5701.723961
435.188355	5935.807419
435.565050	5806.554755
435.941683	5787.216889
436.318257	6005.019941
436.694770	5986.481098
437.071222	6025.552561
437.447614	5958.021264
437.823946	5871.517584
438.200218	6021.035687
438.576429	5888.629781
438.952580	5989.904041
439.328670	6034.031781
439.704700	5937.183654
440.080670	5924.116983
440.456580	6195.293252
440.832429	6077.922587
441.208218	5922.876860
441.583947	6076.793369
441.959616	6083.445171
442.335224	6011.258369
442.710773	6145.290047
443.086261	6171.793913
443.461689	5966.371935
443.837057	6119.275172
444.212365	6271.215549
444.587612	6165.706720
444.962800	6319.628270
445.337927	6299.662780
445.712995	5911.035189
446.088002	6490.616647
446.462949	6320.074412
446.837837	6244.406693
447.212664	6420.413538
447.587431	6563.794036
447.962139	7103.406706
448.336786	8030.245525
448.711374	7772.405630
449.085901	6846.824578
449.460369	6767.260047
449.834776	6701.808226
450.209124	7090.985302
450.583412	7245.705876
450.957640	7391.992599
451.331808	7154.700446
451.705917	6705.339554
452.079965	6630.546475
452.453954	6843.623445
452.827883	6717.319856
453.201752	6810.893754
453.575562	6613.172138
453.949311	6819.907337
454.323001	6703.108843
454.696632	6778.577437
455.070202	6916.674805
455.443713	7074.694814
455.817164	7169.135790
456.190556	7249.862307
456.563888	7332.645615
456.937160	7375.082048
457.310373	7025.626743
457.683526	7056.738224
458.056619	6947.549352
458.429653	6934.402023
458.802628	6868.153700
459.175542	6975.494988
459.548398	7333.936150
459.921194	7492.636715
460.293930	7491.411714
460.666607	8018.108947
461.039224	8331.724169
461.411782	8456.066750
461.784280	8471.215417
462.156719	8361.792132
462.529099	8241.464830
462.901419	7832.541554
463.273680	7720.005356
463.645882	7733.147644
464.018024	7606.309693
464.390106	7772.559385
464.762130	8156.239083
465.134094	8626.432544
465.505999	9641.972986
465.877845	10867.235511
466.249631	11509.239056
466.621358	11122.312854
466.993026	10501.141877
467.364634	10241.958514
467.736184	9882.393175
468.107674	9548.842710
468.479105	9584.161034
468.850477	9353.692083
469.221790	9117.438408
469.593043	8789.811299
469.964238	8656.520671
470.335373	8667.036517
470.706449	8722.506854
471.077467	8709.359525
471.448425	10013.881591
471.819324	11080.725856
472.190164	11106.226532
472.560945	9852.305048
472.931667	9072.960308
473.302330	8940.662787
473.672934	8580.757169
474.043479	8938.111963
474.413965	8880.846976
474.784393	8764.524871
475.154761	8923.850538
475.525070	9005.623095
475.895321	8832.542639
476.265513	9012.695834
476.635645	9180.583901
477.005719	9187.034057
477.375734	9296.681674
477.745691	9533.184886
478.115588	9670.510958
478.485427	9906.321012
478.855207	10447.393095
479.224928	11255.926116
479.594591	11882.634801
479.964194	11695.247551
480.333739	11632.326389
480.703226	11547.672813
481.072653	11643.406845
481.442022	11879.378215
481.811333	12066.190774
482.180584	11871.143491
482.549777	11573.917060
482.918912	11407.190979
483.287988	11428.789802
483.657005	11435.910432
484.025964	11121.448296
484.394864	11255.691703
484.763706	11221.888246
485.132489	10977.346914
485.501213	10946.389188
485.869879	11015.664724
486.238487	10869.756088
486.607036	10976.888169
486.975527	10754.878274
487.343959	10947.528489
487.712333	10996.536066
488.080648	10928.588874
488.448905	10965.868206
488.817104	10903.680532
489.185244	11175.549959
489.553326	11332.937303
489.921350	11862.979342
490.289315	12929.039708
490.657222	13269.998148
491.025070	13171.839321
491.392861	13048.414231
491.760593	12667.305520
492.128267	12319.894403
492.495883	11986.608599
492.863440	11651.765078
493.230939	11323.107053
493.598380	11254.499470
493.965763	11121.370158
494.333088	11016.405774
494.700354	10940.095307
495.067563	11008.334886
495.434713	10834.384832
495.801805	10959.082813
496.168839	10884.312419
496.535815	10823.599283
496.902733	10821.499643
497.269593	10755.856258
497.636395	10851.560043
498.003139	10846.236584
498.369825	10710.843795
498.736453	10869.955213
499.103023	10792.530652
499.469535	10828.010293
499.835989	10812.198714
500.202385	10784.550505
500.568723	10626.563264
500.935003	10850.977790
501.301226	10655.764148
501.667390	10915.461709
502.033497	11010.706749
502.399546	10871.543177
502.765537	10778.221337
503.131470	10846.796153
503.497345	11025.154696
503.863163	10638.278906
504.228923	10949.557553
504.594625	11015.684889
504.960269	10762.046795
505.325856	10981.042079
505.691385	10768.260017
506.056856	10923.535117
506.422270	10951.548809
506.787625	10841.646614
507.152924	10958.891249
507.518164	10942.757037
507.883347	10856.770075
508.248472	10778.193610
508.613540	11013.421411
508.978550	10901.210367
509.343503	10866.600325
509.708398	10993.264357
510.073236	11101.906263
510.438016	11109.818354
510.802738	11057.251723
511.167403	11111.557553
511.532010	11009.615339
511.896561	11246.960424
512.261053	11307.063581
512.625488	11179.688747
512.989866	11156.701085
513.354186	11154.195632
513.718449	11054.277442
514.082655	11242.438509
514.446803	11138.517643
514.810894	11264.511201
515.174927	11133.617642
515.538904	11154.057000
515.902822	11299.176696
516.266684	11187.900786
516.630488	11127.996755
516.994235	11184.800477
517.357925	11249.143244
517.721558	11343.894251
518.085133	11357.777589
518.448651	11359.022754
518.812112	11244.691905
519.175516	11259.747311
519.538863	11379.492359
519.902152	11306.047788
520.265385	11458.456993
520.628560	11369.465504
520.991678	11348.779129
521.354739	11406.371791
521.717743	11347.932215
522.080690	11321.869450
522.443580	11457.307610
522.806413	11415.009808
523.169189	11446.385950
523.531908	11509.138233
523.894569	11321.365334
524.257174	11322.345839
524.619722	11452.107659
524.982213	11390.630788
525.344647	11445.493666
525.707025	11399.672098
526.069345	11496.099288
526.431608	11401.746532
526.793815	11513.690395
527.155964	11304.490072
527.518057	11359.909997
527.880093	11306.173817
528.242072	11374.922553
528.603995	11284.643049
528.965860	11203.644310
529.327669	11249.526372
529.689421	11210.848119
530.051117	11173.566265
530.412755	11281.961155
530.774337	11175.895278
531.135862	11147.997533
531.497331	11168.159628
531.858743	11018.782678
532.220098	11189.564367
532.581396	11063.366642
532.942638	11037.107272
533.303824	11007.094763
533.664953	11022.374500
534.026025	10938.111613
534.387040	11035.519308
534.747999	11033.701973
535.108902	11097.671694
535.469748	10855.882832
535.830537	10959.138266
536.191270	10934.633217
536.551947	10955.448141
536.912567	10961.124481
537.273131	10886.338963
537.633638	10865.720644
537.994089	10857.523728
538.354483	10803.021293
538.714821	10946.116966
539.075103	10952.854468
539.435328	10921.964798
539.795497	10743.087015
540.155609	10904.219936
540.515665	10988.558440
540.875665	10722.705630
541.235609	10801.554317
541.595496	10791.721547
541.955328	10952.927564
542.315102	10833.578247
542.674821	10785.543613
543.034483	10775.685636
543.394090	10781.999682
543.753640	10717.321678
544.113134	10936.574061
544.472571	10790.859509
544.831953	10928.914028
545.191278	10741.806562
545.550548	10769.371591
545.909761	10907.539536
546.268918	10876.518796
546.628019	10958.389655
546.987064	10825.467031
547.346053	10745.564742
547.704986	10841.810451
548.063863	10835.282157
548.422684	10822.903604
548.781449	10738.292878
549.140158	10841.795328
549.498811	10722.115815
549.857408	10584.096584
550.215949	10802.938114
550.574434	10660.676752
550.932864	10764.229614
551.291237	10816.927316
551.649555	10760.151321
552.007817	10776.156984
552.366022	10738.003011
552.724173	10733.871786
553.082267	10716.820083
553.440305	10850.314878
553.798288	10654.226596
554.156215	10807.747375
554.514086	10784.731987
554.871902	10637.623556
555.229661	10671.598412
555.587365	10646.395164
555.945014	10541.319873
556.302606	10669.292084
556.660143	10561.386186
557.017625	10718.304703
557.375050	10612.057344
557.732421	10744.768240
558.089735	10662.695735
558.446994	10661.816053
558.804197	10700.910201
559.161345	10698.356857
559.518437	10546.207272
559.875474	10639.425768
560.232455	10668.004070
560.589381	10611.023908
560.946251	10615.366862
561.303065	10725.720240
561.659825	10655.703654
562.016528	10588.021123
562.373177	10462.045209
562.729770	10579.700698
563.086307	10499.203554
563.442789	10589.722512
563.799216	10468.976795
564.155587	10514.110246
564.511904	10471.217588
564.868164	10465.485796
565.224370	10478.413835
565.580520	10398.927442
565.936615	10406.897506
566.292654	10277.019739
566.648638	10411.232898
567.004567	10368.458708
567.360441	10351.580925
567.716260	10256.623231
568.072023	10352.095123
568.427732	10302.044027
568.783385	10213.687723
569.138982	10283.222879
569.494525	10296.269385
569.850013	10172.476291
570.205445	10256.633313
570.560823	10146.963011
570.916145	10070.644983
571.271412	10143.124172
571.626625	10079.272918
571.981782	10064.472090
572.336884	10035.276248
572.691931	10040.927381
573.046923	9985.552827
573.401860	9941.377195
573.756743	9879.360921
574.111570	9928.028220
574.466342	9908.155992
574.821059	9938.513820
575.175722	9824.737498
575.530330	9836.382564
575.884882	9828.299073
576.239380	9756.999514
576.593823	9732.910360
576.948211	9752.142362
577.302544	9627.310790
577.656823	9647.311568
578.011047	9645.917689
578.365216	9622.859451
578.719330	9546.130569
579.073389	9554.335047
579.427394	9505.324949
579.781344	9491.547476
580.135239	9429.879041
580.489080	9439.623591
580.842866	9341.298406
581.196597	9342.168005
581.550273	9383.359273
581.903895	9355.751394
582.257463	9420.817567
582.610975	9295.953227
582.964434	9329.681067
583.317837	9250.706351
583.671186	9233.090039
584.024481	9226.365140
584.377721	9150.195826
584.730906	9121.625086
585.084037	9151.509046
585.437113	9076.915093
585.790135	9107.870298
586.143103	9006.984207
586.496016	8979.882963
586.848874	9036.535450
587.201679	9020.887709
587.554428	8905.029391
587.907124	8957.797668
588.259765	8929.345396
588.612352	8929.927649
588.964884	8807.500708
589.317362	8819.725506
589.669786	8825.517792
590.022155	8869.615285
590.374470	8884.310248
590.726731	8826.195827
591.078937	8676.488681
591.431090	8790.239797
591.783188	8665.115838
592.135232	8652.686873
592.487222	8656.059405
592.839157	8709.223413
593.191038	8641.467785
593.542866	8583.176923
593.894639	8489.282912
594.246358	8535.348976
594.598022	8552.073004
594.949633	8452.573230
595.301190	8422.338910
595.652692	8450.108106
596.004141	8565.490035
596.355535	8341.501487
596.706876	8322.627407
597.058162	8260.283458
597.409395	8333.352462
597.760573	8393.543839
598.111698	8303.624778
598.462768	8295.241339
598.813785	8255.756502
599.164748	8227.518478
599.515657	8212.503402
599.866511	8121.810523
600.217312	8251.164010
600.568060	8108.179243
600.918753	8212.536169
601.269392	8184.588012
601.619978	8096.965197
601.970510	8162.200248
602.320988	8158.336203
602.671412	8214.540028
603.021783	8148.740367
603.372100	8122.420503
603.722363	8119.000080
604.072572	8100.446113
604.422728	8108.610262
604.772830	8040.816825
605.122878	8047.831591
605.472872	8035.732821
605.822813	8066.055362
606.172701	8012.621652
606.522534	8087.661747
606.872314	8089.111079
607.222041	8060.167294
607.571714	8115.267106
607.921333	8076.697237
608.270899	8079.253102
608.620411	8167.778285
608.969870	8074.700941
609.319276	8061.488076
609.668627	8082.159328
610.017926	8120.071325
610.367171	8159.525916
610.716362	8138.801732
611.065500	8134.695712
611.414585	8160.211513
611.763616	8147.417064
612.112594	8129.236143
612.461518	8148.909246
612.810389	8205.773461
613.159207	8142.302814
613.507971	8095.626770
613.856682	8212.248823
614.205340	8166.633943
614.553945	8243.836693
614.902496	8145.761045
615.250994	8195.600413
615.599439	8176.315479
615.947830	8192.616050
616.296169	8167.795929
616.644454	8178.057197
616.992686	8174.493102
617.340864	8233.096515
617.688990	8142.416240
618.037063	8225.381029
618.385082	8171.332298
618.733048	8265.828727
619.080961	8200.697019
619.428821	8222.520174
619.776628	8224.713076
620.124382	8172.834562
620.472083	8158.552973
620.819731	8183.466355
621.167326	8078.814522
621.514868	8085.902384
621.862357	7977.734346
622.209793	7991.221953
622.557176	7927.355575
622.904506	7902.220382
623.251783	7829.955442
623.599007	7786.503216
623.946179	7790.158053
624.293297	7747.766990
624.640363	7664.847571
624.987376	7645.229921
625.334336	7594.709998
625.681243	7544.779889
626.028097	7531.362858
626.374899	7509.590115
626.721647	7503.507963
627.068343	7436.901718
627.414987	7404.930720
627.761577	7359.388936
628.108115	7399.037611
628.454600	7289.780684
628.801032	7347.600198
629.147412	7299.749566
629.493739	7292.374357
629.840014	7227.963535
630.186236	7283.799355
630.532405	7169.581932
630.878521	7221.215950
631.224585	7174.814650
631.570597	7101.657425
631.916556	7133.804863
632.262462	7126.273379
632.608316	7083.728562
632.954117	7066.656694
633.299866	7058.197638
633.645562	7045.020062
633.991206	6965.604245
634.336797	6913.393014
634.682336	6869.751745
635.027823	6841.551531
635.373257	6828.835220
635.718639	6756.406442
636.063968	6767.658298
636.409245	6668.748339
636.754470	6665.118708
637.099642	6621.951308
637.444762	6563.521814
637.789829	6575.731488
638.134845	6515.983733
638.479808	6504.164748
638.824719	6503.033009
639.169577	6434.317041
639.514383	6457.377799
639.859137	6385.049844
640.203839	6388.566049
640.548489	6381.571448
