Dividing Wavelength (nm)	Counts (n)	Blue Motor Position (mm): 23.500000	Red Motor Position (mm): 0.000000	
326.493990	2137.660959
326.888308	2137.660959
327.282561	2137.660959
327.676750	2100.056472
328.070874	2102.410691
328.464933	2103.058479
328.858929	2110.436208
329.252859	2118.456684
329.646726	2130.459671
330.040528	2142.931486
330.434265	2161.107366
330.827938	2179.900787
331.221547	2195.661955
331.615091	2214.835983
332.008571	2234.466237
332.401986	2252.541294
332.795338	2272.988214
333.188625	2291.075874
333.581847	2308.445169
333.975006	2329.640701
334.368100	2347.834225
334.761129	2363.640763
335.154095	2383.961654
335.546996	2401.741803
335.939833	2426.004877
336.332606	2436.603903
336.725315	2451.946655
337.117960	2461.681123
337.510540	2469.968780
337.903056	2482.279277
338.295508	2488.124495
338.687896	2499.025990
339.080220	2504.770385
339.472480	2511.651560
339.864676	2516.145749
340.256807	2521.711183
340.648875	2523.611698
341.040879	2524.756040
341.432818	2526.941380
341.824694	2529.492204
342.216506	2530.293747
342.608253	2529.656041
342.999937	2527.488345
343.391557	2529.867770
343.783113	2525.570186
344.174605	2525.106400
344.566033	2526.112110
344.957397	2527.032121
345.348697	2521.252438
345.739934	2521.842253
346.131106	2519.470390
346.522215	2517.668177
346.913260	2514.388907
347.304241	2513.675583
347.695159	2513.733557
348.086012	2509.012516
348.476802	2508.493277
348.867528	2508.969666
349.258191	2502.335508
349.648789	2504.858605
350.039324	2503.096722
350.429796	2501.050014
350.820203	2498.519354
351.210548	2500.576145
351.600828	2495.897954
351.991045	2500.122441
352.381198	2497.833758
352.771288	2495.792090
353.161314	2495.149343
353.551276	2497.432986
353.941175	2495.590444
354.331010	2494.670433
354.720782	2494.977944
355.110490	2495.592965
355.500135	2494.073057
355.889717	2494.083139
356.279235	2497.843840
356.668689	2497.768223
357.058080	2495.542553
357.447408	2497.594303
357.836672	2494.249497
358.225873	2495.885352
358.615010	2491.146667
359.004084	2498.068171
359.393095	2499.270486
359.782043	2497.785867
360.170927	2501.914572
360.559748	2499.630929
360.948505	2502.010353
361.337199	2501.107987
361.725830	2503.111846
362.114398	2503.071516
362.502903	2503.210148
362.891344	2504.788029
363.279722	2505.080416
363.668037	2502.980776
364.056289	2504.644356
364.444478	2502.481701
364.832603	2506.156703
365.220665	2508.457989
365.608665	2505.284583
365.996601	2507.895901
366.384474	2505.710560
366.772284	2508.160561
367.160031	2508.921775
367.547715	2507.169974
367.935336	2509.040243
368.322893	2509.803977
368.710388	2508.599142
369.097820	2512.695079
369.485189	2509.995541
369.872495	2509.506549
370.259738	2508.848679
370.646918	2511.354132
371.034035	2513.090810
371.421090	2512.332116
371.808081	2511.091992
372.195010	2509.972856
372.581875	2512.856396
372.968678	2512.291787
373.355418	2512.606859
373.742096	2513.733557
374.128710	2509.899759
374.515262	2515.313958
374.901751	2514.719102
375.288177	2514.635923
375.674540	2513.103412
376.060841	2516.118022
376.447079	2514.615759
376.833254	2514.976201
377.219367	2508.919255
377.605417	2512.753052
377.991404	2512.884122
378.377329	2511.331447
378.763191	2509.415808
379.148991	2513.335306
379.534727	2516.518794
379.920402	2518.656243
380.306013	2514.462003
380.691563	2516.864113
381.077049	2516.211284
381.462474	2518.192457
381.847835	2515.563496
382.233134	2519.387211
382.618371	2519.339320
383.003545	2517.763959
383.388657	2520.397962
383.773706	2515.598784
384.158693	2519.334279
384.543618	2518.048784
384.928480	2519.488034
385.313280	2517.756398
385.698017	2520.420647
386.082692	2519.450225
386.467305	2518.787313
386.851856	2519.994670
387.236344	2518.343692
387.620770	2522.837881
388.005133	2519.543487
388.389435	2520.224042
388.773674	2520.029958
389.157851	2517.595081
389.541965	2522.835360
389.926018	2518.666326
390.310008	2522.139681
390.693936	2523.788138
391.077802	2521.975843
391.461606	2522.711852
391.845348	2523.331914
392.229027	2522.467356
392.612645	2523.432737
392.996200	2524.317459
393.379694	2523.120185
393.763125	2522.411903
394.146494	2521.643127
394.529801	2525.459281
394.913047	2524.647655
395.296230	2522.096831
395.679351	2523.110103
396.062410	2527.596730
396.445408	2528.368026
396.828343	2524.070443
397.211217	2521.822088
397.594028	2521.864938
397.976778	2521.307890
398.359466	2528.362985
398.742092	2520.584485
399.124656	2526.500279
399.507158	2525.509692
399.889598	2527.470701
400.271977	2528.831813
400.654294	2528.453726
401.036549	2525.371060
401.418742	2527.546318
401.800874	2528.257121
402.182944	2528.216792
402.564952	2529.456916
402.946898	2529.877852
403.328783	2528.519261
403.710606	2527.891637
404.092367	2526.747295
404.474067	2528.940197
404.855705	2528.950280
405.237282	2528.322656
405.618797	2528.897347
406.000250	2528.415917
406.381642	2530.795342
406.762972	2530.586134
407.144240	2530.387008
407.525447	2533.658717
407.906593	2530.916330
408.287677	2530.155115
408.668700	2528.635207
409.049661	2531.717873
409.430560	2531.796011
409.811399	2532.373223
410.192176	2532.116124
410.572891	2531.266690
410.953545	2535.009747
411.334138	2532.965559
411.714669	2533.492359
412.095139	2532.642925
412.475547	2535.307175
412.855894	2534.331711
413.236180	2528.516740
413.616405	2535.662576
413.996568	2533.026053
414.376670	2536.658204
414.756711	2535.642411
415.136691	2533.910775
415.516609	2535.342463
415.896466	2533.552853
416.276262	2536.685930
416.655997	2528.834333
417.035670	2529.683768
417.415283	2534.515713
417.794834	2529.098994
418.174324	2533.005888
418.553753	2534.908923
418.933121	2535.735673
419.312428	2536.144006
419.691674	2532.607637
420.070859	2538.823379
420.449983	2534.664427
420.829045	2533.595703
421.208047	2536.131403
421.586988	2538.087371
421.965867	2540.517207
422.344686	2537.827752
422.723444	2537.565612
423.102141	2534.656866
423.480777	2538.460416
423.859352	2537.006043
424.237866	2537.689120
424.616319	2537.653832
424.994712	2538.462937
425.373044	2541.041487
425.751314	2540.250026
426.129524	2536.207021
426.507673	2538.226003
426.885762	2537.288348
427.263789	2538.425128
427.641756	2540.522248
428.019662	2540.123997
428.397508	2541.631302
428.775292	2540.723894
429.153016	2537.797505
429.530679	2540.534851
429.908282	2542.626930
430.285824	2539.728267
430.663305	2538.026877
431.040726	2539.070396
431.418086	2539.534182
431.795385	2542.619368
432.172624	2540.555016
432.549802	2540.371014
432.926920	2540.968390
433.303977	2542.072403
433.680974	2541.417053
434.057910	2543.998124
434.434786	2541.656508
434.811601	2540.577701
435.188355	2543.350336
435.565050	2540.978473
435.941683	2542.326981
436.318257	2541.112063
436.694770	2538.165509
437.071222	2539.980324
437.447614	2540.623071
437.823946	2538.823379
438.200218	2543.325130
438.576429	2543.423432
438.952580	2544.293031
439.328670	2543.642723
439.704700	2544.837476
440.080670	2543.554502
440.456580	2543.829245
440.832429	2545.177754
441.208218	2545.553320
441.583947	2545.883515
441.959616	2547.539534
442.335224	2544.492157
442.710773	2544.328319
443.086261	2545.044163
443.461689	2544.953423
443.837057	2547.801674
444.212365	2547.284956
444.587612	2547.622713
444.962800	2544.255223
445.337927	2548.477189
445.712995	2547.204298
446.088002	2547.842004
446.462949	2546.087682
446.837837	2546.460727
447.212664	2549.230842
447.587431	2550.148332
447.962139	2549.747560
448.336786	2550.624721
448.711374	2551.504402
449.085901	2546.470810
449.460369	2547.327806
449.834776	2549.999618
450.209124	2552.374001
450.583412	2551.396017
450.957640	2551.335523
451.331808	2550.385266
451.705917	2551.738816
452.079965	2554.811399
452.453954	2550.685214
452.827883	2550.145811
453.201752	2553.397355
453.575562	2552.767211
453.949311	2551.121274
454.323001	2555.524722
454.696632	2554.362736
455.070202	2553.755277
455.443713	2557.778118
455.817164	2552.253013
456.190556	2552.784855
456.563888	2554.506409
456.937160	2553.520863
457.310373	2557.584033
457.683526	2555.991029
458.056619	2559.678633
458.429653	2560.185269
458.802628	2560.543191
459.175542	2561.324570
459.548398	2566.222051
459.921194	2567.893193
460.293930	2568.611557
460.666607	2576.989955
461.039224	2581.050605
461.411782	2587.939341
461.784280	2590.033941
462.156719	2588.090576
462.529099	2592.005032
462.901419	2594.301278
463.273680	2596.111052
463.645882	2598.225816
464.018024	2602.518358
464.390106	2609.691920
464.762130	2620.427057
465.134094	2636.929274
465.505999	2665.177380
465.877845	2697.639890
466.249631	2717.209649
466.621358	2712.221428
466.993026	2710.013402
467.364634	2716.186295
467.736184	2713.912735
468.107674	2718.331306
468.479105	2735.423338
468.850477	2738.868967
469.221790	2745.740060
469.593043	2746.037488
469.964238	2757.372522
470.335373	2769.405756
470.706449	2787.246400
471.077467	2799.577062
471.448425	2879.224772
471.819324	2946.584670
472.190164	2960.684777
472.560945	2919.387645
472.931667	2902.172105
473.302330	2914.835483
473.672934	2914.681728
474.043479	2958.257462
474.413965	2971.331694
474.784393	2989.520177
475.154761	3024.916639
475.525070	3052.983263
475.895321	3067.842064
476.265513	3107.392437
476.635645	3148.578663
477.005719	3185.275743
477.375734	3228.859038
477.745691	3277.579270
478.115588	3331.822085
478.485427	3393.651837
478.855207	3502.434896
479.224928	3666.325328
479.594591	3792.210501
479.964194	3811.876043
480.333739	3832.801872
480.703226	3881.678379
481.072653	3954.326447
481.442022	4068.654775
481.811333	4153.812467
482.180584	4179.734080
482.549777	4189.375287
482.918912	4219.332343
483.287988	4289.427067
483.657005	4352.466696
484.025964	4352.585163
484.394864	4441.344759
484.763706	4503.539994
485.132489	4506.554604
485.501213	4568.691867
485.869879	4641.539060
486.238487	4688.157130
486.607036	4767.083956
486.975527	4796.793996
487.343959	4906.441612
487.712333	4997.815047
488.080648	5042.893044
488.448905	5137.165142
488.817104	5187.193553
489.185244	5338.584444
489.553326	5479.963603
489.921350	5742.516978
490.289315	6193.105391
490.657222	6392.903962
491.025070	6465.299972
491.392861	6513.258989
491.760593	6467.876002
492.128267	6428.892759
492.495883	6387.028497
492.863440	6342.144584
493.230939	6290.021574
493.598380	6342.711714
493.965763	6376.759667
494.333088	6399.154993
494.700354	6456.787984
495.067563	6546.369288
495.434713	6565.369397
495.801805	6698.929727
496.168839	6747.468477
496.535815	6804.327651
496.902733	6865.106322
497.269593	6922.504900
497.636395	7037.349946
498.003139	7129.981148
498.369825	7123.785570
498.736453	7294.360572
499.103023	7324.441137
499.469535	7424.853360
499.835989	7489.707804
500.202385	7550.186527
500.568723	7531.307406
500.935003	7736.517655
501.301226	7711.747946
501.667390	7929.291378
502.033497	8068.651556
502.399546	8049.510295
502.765537	8063.043272
503.131470	8181.737240
503.497345	8369.870581
503.863163	8175.234151
504.228923	8463.883059
504.594625	8566.228564
504.960269	8458.970454
505.325856	8679.583949
505.691385	8596.417514
506.056856	8769.069471
506.422270	8855.938634
506.787625	8828.010642
507.152924	8981.881781
507.518164	9023.620014
507.883347	9033.150316
508.248472	9017.704220
508.613540	9257.151466
508.978550	9230.882013
509.343503	9258.217670
509.708398	9415.473944
510.073236	9559.829905
510.438016	9614.286969
510.802738	9626.194175
511.167403	9723.813598
511.532010	9686.531745
511.896561	9909.033152
512.261053	10024.039516
512.625488	9965.665475
512.989866	9999.113530
513.354186	10024.435246
513.718449	9984.400923
514.082655	10195.589981
514.446803	10145.392692
514.810894	10293.892481
515.174927	10209.017094
515.538904	10264.517678
515.902822	10434.775087
516.266684	10370.712104
516.630488	10353.612510
516.994235	10435.236352
517.357925	10522.642398
517.721558	10635.337393
518.085133	10686.966370
518.448651	10720.031298
518.812112	10638.725048
519.175516	10684.221462
519.538863	10820.292286
519.902152	10761.456980
520.265385	10949.890269
520.628560	10884.113294
520.991678	10886.487677
521.354739	10974.307098
521.717743	10925.019737
522.080690	10925.327247
522.443580	11078.394322
522.806413	11048.293592
523.169189	11091.841600
523.531908	11170.045019
523.894569	11009.116265
524.257174	11032.257682
524.619722	11157.694193
524.982213	11119.572987
525.344647	11188.246105
525.707025	11150.608851
526.069345	11255.595921
526.431608	11184.573625
526.793815	11297.457662
527.155964	11110.776174
527.518057	11166.128043
527.880093	11126.542382
528.242072	11202.976357
528.603995	11114.670465
528.965860	11048.863243
529.327669	11100.678743
529.689421	11059.069059
530.051117	11039.700946
530.412755	11147.853860
530.774337	11040.210102
531.135862	11032.313135
531.497331	11056.714840
531.858743	10916.772409
532.220098	11087.254150
532.581396	10969.389452
532.942638	10945.781729
533.303824	10911.411142
533.664953	10930.489389
534.026025	10855.270332
534.387040	10953.774478
534.747999	10956.544592
535.108902	11018.880980
535.469748	10780.724270
535.830537	10887.838707
536.191270	10869.763649
536.551947	10896.607794
536.912567	10886.487677
537.273131	10817.718777
537.633638	10799.232866
537.994089	10791.615683
538.354483	10748.990206
538.714821	10887.238809
539.075103	10896.753987
539.435328	10860.873575
539.795497	10692.867040
540.155609	10846.866729
540.515665	10938.686305
540.875665	10682.454537
541.235609	10750.792419
541.595496	10740.886551
541.955328	10904.013249
542.315102	10783.232244
542.674821	10735.961344
543.034483	10734.648123
543.394090	10732.770294
543.753640	10663.527525
544.113134	10887.274097
544.472571	10742.287992
544.831953	10887.768130
545.191278	10693.517349
545.550548	10726.914993
545.909761	10861.128153
546.268918	10839.113434
546.628019	10925.246589
546.987064	10785.846082
547.346053	10711.675585
547.704986	10815.835906
548.063863	10797.007197
548.422684	10785.163006
548.781449	10703.158556
549.140158	10817.691051
549.498811	10688.531648
549.857408	10550.419156
550.215949	10770.475604
550.574434	10623.435228
550.932864	10722.546834
551.291237	10778.390215
551.649555	10731.615869
552.007817	10747.195555
552.366022	10707.022600
552.724173	10694.974243
553.082267	10680.284320
553.440305	10825.935858
553.798288	10626.260795
554.156215	10775.141192
554.514086	10755.616803
554.871902	10597.430436
555.229661	10638.253700
555.587365	10613.995668
555.945014	10509.545481
556.302606	10635.581889
556.660143	10533.322083
557.017625	10684.821359
557.375050	10585.215721
557.732421	10715.423683
558.089735	10629.247679
558.446994	10626.903542
558.804197	10671.777373
559.161345	10669.103041
559.518437	10519.716009
559.875474	10610.527354
560.232455	10635.750767
560.589381	10583.905021
560.946251	10585.641698
561.303065	10683.397233
561.659825	10630.016455
562.016528	10557.973325
562.373177	10440.799266
562.729770	10554.683972
563.086307	10463.867586
563.442789	10564.015148
563.799216	10441.704153
564.155587	10491.523356
564.511904	10442.815727
564.868164	10432.299880
565.224370	10449.696902
565.580520	10370.530622
565.936615	10378.339370
566.292654	10248.295244
566.648638	10376.096056
567.004567	10331.456639
567.360441	10319.834259
567.716260	10227.145083
568.072023	10326.838942
568.427732	10278.005285
568.783385	10183.496253
569.138982	10256.351008
569.494525	10268.351475
569.850013	10146.988217
570.205445	10230.615918
570.560823	10125.538107
570.916145	10042.364110
571.271412	10114.510583
571.626625	10056.186954
571.981782	10038.313543
572.336884	10014.368062
572.691931	10008.729531
573.046923	9961.365370
573.401860	9918.117312
573.756743	9852.279842
574.111570	9894.728878
574.466342	9878.266990
574.821059	9909.754037
575.175722	9798.500813
575.530330	9813.730139
575.884882	9800.320670
576.239380	9730.719979
576.593823	9709.773985
576.948211	9728.148991
577.302544	9601.532850
577.656823	9624.606211
578.011047	9621.026992
578.365216	9599.050082
578.719330	9517.587556
579.073389	9534.775370
579.427394	9481.230755
579.781344	9452.871744
580.135239	9403.365092
580.489080	9408.965814
580.842866	9312.271442
581.196597	9321.441301
581.550273	9362.892189
581.903895	9327.094955
582.257463	9388.554182
582.610975	9270.707129
582.964434	9294.090521
583.317837	9218.672339
583.671186	9206.024084
584.024481	9198.616108
584.377721	9117.130898
584.730906	9092.278009
585.084037	9122.403944
585.437113	9059.495386
585.790135	9079.831400
586.143103	8982.753901
586.496016	8954.198285
586.848874	9016.277574
587.201679	9003.846088
587.554428	8893.338955
587.907124	8931.651724
588.259765	8913.783354
588.612352	8909.818487
588.964884	8780.706975
589.317362	8800.884193
589.669786	8801.151374
590.022155	8847.547634
590.374470	8866.116724
590.726731	8799.475191
591.078937	8654.859610
591.431090	8763.017566
591.783188	8635.471333
592.135232	8630.321794
592.487222	8625.492369
592.839157	8682.701903
593.191038	8611.621634
593.542866	8564.895179
593.894639	8460.508006
594.246358	8511.542127
594.598022	8524.873458
594.949633	8426.213037
595.301190	8398.852174
595.652692	8432.902648
596.004141	8542.777116
596.355535	8318.297056
596.706876	8297.635887
597.058162	8237.424346
597.409395	8309.545613
597.760573	8371.123307
598.111698	8283.906305
598.462768	8267.056248
598.813785	8233.025939
599.164748	8206.063328
599.515657	8194.763581
599.866511	8100.829241
600.217312	8227.694919
600.568060	8088.163342
600.918753	8185.928959
601.269392	8158.641193
601.619978	8076.351918
601.970510	8136.389540
602.320988	8132.112121
602.671412	8191.829630
603.021783	8124.928477
603.372100	8099.465609
603.722363	8095.304136
604.072572	8077.705468
604.422728	8083.976664
604.772830	8013.488730
605.122878	8026.066409
605.472872	8020.251438
605.822813	8044.207001
606.172701	7997.848550
606.522534	8068.447389
606.872314	8070.541989
607.222041	8038.011423
607.571714	8092.904547
607.921333	8052.461890
608.270899	8060.875576
608.620411	8147.003690
608.969870	8049.296046
609.319276	8041.860344
609.668627	8060.285761
610.017926	8094.532840
610.367171	8140.389696
610.716362	8119.360522
611.065500	8114.836087
611.414585	8137.075137
611.763616	8122.743137
612.112594	8106.787885
612.461518	8122.899412
612.810389	8181.003752
613.159207	8124.666337
613.507971	8074.625323
613.856682	8194.882048
614.205340	8141.067731
614.553945	8227.052172
614.902496	8123.491748
615.250994	8175.866816
615.599439	8154.915781
615.947830	8168.758789
616.296169	8143.658884
616.644454	8156.481059
616.992686	8151.071901
617.340864	8208.485602
617.688990	8113.447249
618.037063	8205.133235
618.385082	8149.451170
618.733048	8239.324861
619.080961	8176.053339
619.428821	8194.415742
619.776628	8199.318264
620.124382	8148.415213
620.472083	8135.681258
620.819731	8160.017428
621.167326	8051.625059
621.514868	8065.563849
621.862357	7951.439688
622.209793	7971.246381
622.557176	7901.965804
622.904506	7877.029737
623.251783	7803.990979
623.599007	7765.663086
623.946179	7768.130731
624.293297	7726.765543
624.640363	7641.963253
624.987376	7627.908516
625.334336	7576.418171
625.681243	7522.137547
626.028097	7515.954572
626.374899	7489.405335
626.721647	7478.932338
627.068343	7416.422030
627.414987	7392.700881
627.761577	7338.556368
628.108115	7372.868982
628.454600	7271.143538
628.801032	7323.420303
629.147412	7282.092924
629.493739	7273.568333
629.840014	7212.270423
630.186236	7263.831344
630.532405	7148.167111
630.878521	7197.905655
631.224585	7154.602143
631.570597	7082.201092
631.916556	7110.446677
632.262462	7110.749146
632.608316	7071.581901
632.954117	7047.704476
633.299866	7040.745163
633.645562	7027.464243
633.991206	6950.190917
634.336797	6894.299644
634.682336	6848.059660
635.027823	6814.162942
635.373257	6811.808723
635.718639	6736.945068
636.063968	6750.730103
636.409245	6650.050699
636.754470	6643.408979
637.099642	6605.398679
637.444762	6547.795934
637.789829	6555.518982
638.134845	6504.981415
638.479808	6481.182127
638.824719	6486.525751
639.169577	6418.505462
639.514383	6441.082269
639.859137	6363.917327
640.203839	6375.040633
640.548489	6361.734508
640.893086	6341.330437
641.237632	6309.929090
641.582125	6332.180743
641.926566	6299.783768
