Dividing Wavelength (nm)	Counts (n)	Blue Motor Position (mm): 14.000000	Red Motor Position (mm): 0.000000	
326.493990	2136.453603
326.888308	2136.453603
327.282561	2136.453603
327.676750	2106.214242
328.070874	2101.959508
328.464933	2106.105857
328.858929	2112.684563
329.252859	2124.226284
329.646726	2132.080402
330.040528	2144.849645
330.434265	2163.867398
330.827938	2181.561848
331.221547	2199.006760
331.615091	2217.774976
332.008571	2236.278531
332.401986	2255.697056
332.795338	2274.629109
333.188625	2294.105607
333.581847	2314.212249
333.975006	2332.244457
334.368100	2349.717096
334.761129	2368.253418
335.154095	2383.293701
335.546996	2406.309089
335.939833	2420.429361
336.332606	2437.007195
336.725315	2449.080759
337.117960	2458.727007
337.510540	2466.744962
337.903056	2477.026395
338.295508	2484.605770
338.687896	2494.945176
339.080220	2502.834582
339.472480	2506.544871
339.864676	2512.773217
340.256807	2517.937879
340.648875	2518.343692
341.040879	2523.029444
341.432818	2523.899043
341.824694	2526.908612
342.216506	2525.857532
342.608253	2524.887110
342.999937	2525.681091
343.391557	2527.745444
343.783113	2525.454239
344.174605	2523.712521
344.566033	2522.704290
344.957397	2520.975174
345.348697	2521.164217
345.739934	2516.211284
346.131106	2515.631551
346.522215	2514.424195
346.913260	2511.465038
347.304241	2511.467558
347.695159	2508.576456
348.086012	2504.641836
348.476802	2506.010509
348.867528	2505.271980
349.258191	2501.922133
349.648789	2501.150837
350.039324	2498.458861
350.429796	2500.326608
350.820203	2496.606237
351.210548	2497.750578
351.600828	2494.436020
351.991045	2494.607419
352.381198	2496.437358
352.771288	2494.062974
353.161314	2493.858808
353.551276	2491.073570
353.941175	2492.127171
354.331010	2491.534836
354.720782	2494.388129
355.110490	2491.928046
355.500135	2491.890237
355.889717	2494.060454
356.279235	2493.642038
356.668689	2494.713283
357.058080	2493.493324
357.447408	2492.535505
357.836672	2490.040134
358.225873	2491.892758
358.615010	2491.416369
359.004084	2495.908037
359.393095	2498.317708
359.782043	2498.635301
360.170927	2498.090856
360.559748	2496.608757
360.948505	2500.853409
361.337199	2500.482884
361.725830	2501.498676
362.114398	2500.669407
362.502903	2502.398522
362.891344	2501.970024
363.279722	2500.813079
363.668037	2501.957421
364.056289	2503.414315
364.444478	2503.114366
364.832603	2501.037411
365.220665	2503.568070
365.608665	2502.965652
365.996601	2502.990858
366.384474	2504.445231
366.772284	2502.602689
367.160031	2506.023112
367.547715	2502.630415
367.935336	2504.120076
368.322893	2506.617968
368.710388	2505.408091
369.097820	2509.294821
369.485189	2506.824655
369.872495	2505.728204
370.259738	2507.525376
370.646918	2507.946312
371.034035	2508.957063
371.421090	2506.907834
371.808081	2506.116373
372.195010	2508.072341
372.581875	2510.280366
372.968678	2508.657115
373.355418	2508.374810
373.742096	2509.902280
374.128710	2510.310613
374.515262	2510.043432
374.901751	2509.088133
375.288177	2508.498318
375.674540	2513.819256
376.060841	2510.338340
376.447079	2510.570233
376.833254	2509.864471
377.219367	2509.607372
377.605417	2508.707526
377.991404	2510.474451
378.377329	2509.821621
378.763191	2509.052845
379.148991	2513.345388
379.534727	2512.453104
379.920402	2515.704648
380.306013	2512.097702
380.691563	2513.138701
381.077049	2513.967970
381.462474	2514.199863
381.847835	2513.408402
382.233134	2513.645337
382.618371	2513.156345
383.003545	2516.387724
383.388657	2513.799092
383.773706	2517.090965
384.158693	2514.819925
384.543618	2514.729185
384.928480	2516.206243
385.313280	2517.852179
385.698017	2516.241531
386.082692	2517.569875
386.467305	2515.223218
386.851856	2516.506191
387.236344	2515.991994
387.620770	2517.736233
388.005133	2515.949144
388.389435	2520.912160
388.773674	2515.497961
389.157851	2517.012827
389.541965	2519.288908
389.926018	2516.770852
390.310008	2518.179854
390.693936	2520.476100
391.077802	2518.197498
391.461606	2516.826305
391.845348	2520.821419
392.229027	2518.452077
392.612645	2520.254289
392.996200	2518.794875
393.379694	2518.936027
393.763125	2521.108765
394.146494	2520.264372
394.529801	2520.075328
394.913047	2520.700431
395.296230	2522.787469
395.679351	2519.140194
396.062410	2522.263189
396.445408	2518.799916
396.828343	2519.321676
397.211217	2515.762621
397.594028	2522.174969
397.976778	2516.906963
398.359466	2521.335617
398.742092	2518.704134
399.124656	2523.679753
399.507158	2524.564476
399.889598	2522.464835
400.271977	2523.921729
400.654294	2526.104548
401.036549	2523.717562
401.418742	2521.025586
401.800874	2521.857376
402.182944	2524.244363
402.564952	2523.523477
402.946898	2523.621780
403.328783	2525.048427
403.710606	2526.452388
404.092367	2523.780576
404.474067	2523.026924
404.855705	2526.152439
405.237282	2526.071781
405.618797	2525.292923
406.000250	2526.785104
406.381642	2524.438447
406.762972	2525.383663
407.144240	2528.080681
407.525447	2528.262162
407.906593	2526.835516
408.287677	2527.765608
408.668700	2525.406348
409.049661	2526.069260
409.430560	2525.101359
409.811399	2528.131092
410.192176	2530.707122
410.572891	2528.831813
410.953545	2527.107738
411.334138	2528.209230
411.714669	2527.919364
412.095139	2527.836185
412.475547	2527.440454
412.855894	2528.688140
413.236180	2528.494055
413.616405	2529.638397
413.996568	2529.487163
414.376670	2528.529343
414.756711	2530.145033
415.136691	2531.838861
415.516609	2527.216123
415.896466	2528.826771
416.276262	2528.012625
416.655997	2527.531195
417.035670	2528.176463
417.415283	2524.977850
417.794834	2527.884076
418.174324	2528.443644
418.553753	2529.943387
418.933121	2532.070754
419.312428	2531.254087
419.691674	2529.719056
420.070859	2531.289375
420.449983	2529.961031
420.829045	2529.109076
421.208047	2532.295085
421.586988	2531.579241
421.965867	2533.013450
422.344686	2530.182842
422.723444	2534.823224
423.102141	2529.814837
423.480777	2531.614529
423.859352	2532.043028
424.237866	2533.429345
424.616319	2530.734848
424.994712	2535.657535
425.373044	2533.880528
425.751314	2532.252235
426.129524	2531.919519
426.507673	2532.600075
426.885762	2530.734848
427.263789	2532.194262
427.641756	2532.224509
428.019662	2535.092926
428.397508	2533.699047
428.775292	2533.565456
429.153016	2536.093595
429.530679	2536.121321
429.908282	2533.830117
430.285824	2531.448171
430.663305	2532.403470
431.040726	2535.476053
431.418086	2533.731814
431.795385	2535.503780
432.172624	2531.957328
432.549802	2537.500077
432.926920	2533.646114
433.303977	2537.323636
433.680974	2534.286341
434.057910	2534.051927
434.434786	2535.985210
434.811601	2535.004705
435.188355	2532.998326
435.565050	2537.931095
435.941683	2537.114428
436.318257	2533.701567
436.694770	2532.295085
437.071222	2535.115611
437.447614	2533.958666
437.823946	2531.760723
438.200218	2534.850950
438.576429	2537.134593
438.952580	2536.857329
439.328670	2536.731301
439.704700	2537.984027
440.080670	2537.096784
440.456580	2535.770961
440.832429	2540.401261
441.208218	2538.082330
441.583947	2538.813297
441.959616	2538.263811
442.335224	2536.892617
442.710773	2536.610313
443.086261	2538.168029
443.461689	2537.535365
443.837057	2538.548637
444.212365	2537.305992
444.587612	2537.734490
444.962800	2537.323636
445.337927	2538.047042
445.712995	2537.379089
446.088002	2538.387320
446.462949	2537.275745
446.837837	2537.379089
447.212664	2539.093081
447.587431	2540.323123
447.962139	2540.083668
448.336786	2540.779347
448.711374	2540.920499
449.085901	2542.473175
449.460369	2540.103833
449.834776	2537.023688
450.209124	2540.686086
450.583412	2539.123328
450.957640	2540.086188
451.331808	2543.282280
451.705917	2539.579553
452.079965	2541.369162
452.453954	2540.408822
452.827883	2541.202804
453.201752	2541.774975
453.575562	2540.549975
453.949311	2539.740869
454.323001	2539.980324
454.696632	2537.767258
455.070202	2541.679193
455.443713	2540.434028
455.817164	2539.937474
456.190556	2536.413708
456.563888	2538.374717
456.937160	2535.007226
457.310373	2541.684234
457.683526	2542.621889
458.056619	2543.257074
458.429653	2539.050231
458.802628	2540.189532
459.175542	2543.395706
459.548398	2543.110881
459.921194	2539.347659
460.293930	2541.107022
460.666607	2540.378575
461.039224	2544.532486
461.411782	2543.098278
461.784280	2544.935778
462.156719	2542.586601
462.529099	2544.406457
462.901419	2542.016950
463.273680	2541.313709
463.645882	2540.791950
464.018024	2546.133052
464.390106	2541.933771
464.762130	2543.405788
465.134094	2542.057280
465.505999	2541.878319
465.877845	2542.326981
466.249631	2544.091385
466.621358	2544.686241
466.993026	2544.595501
467.364634	2550.443239
467.736184	2545.104657
468.107674	2546.064997
468.479105	2545.621375
468.850477	2542.586601
469.221790	2544.046015
469.593043	2543.347815
469.964238	2544.340922
470.335373	2545.016437
470.706449	2544.161961
471.077467	2544.260264
471.448425	2545.880995
471.819324	2546.760676
472.190164	2546.894267
472.560945	2544.603062
472.931667	2543.667928
473.302330	2545.190357
473.672934	2547.320244
474.043479	2544.789585
474.413965	2545.150028
474.784393	2539.889583
475.154761	2543.761190
475.525070	2541.336395
475.895321	2542.082485
476.265513	2540.945705
476.635645	2544.318237
477.005719	2543.914945
477.375734	2546.944678
477.745691	2546.095244
478.115588	2547.516849
478.485427	2544.061138
478.855207	2547.191695
479.224928	2546.170861
479.594591	2548.199926
479.964194	2543.849410
480.333739	2547.111036
480.703226	2547.307641
481.072653	2546.682538
481.442022	2547.789072
481.811333	2549.684545
482.180584	2547.443752
482.549777	2546.826211
482.918912	2548.262940
483.287988	2547.789072
483.657005	2546.238917
484.025964	2550.118085
484.394864	2546.879143
484.763706	2547.665563
485.132489	2547.978115
485.501213	2550.163455
485.869879	2549.147663
486.238487	2548.361242
486.607036	2550.108002
486.975527	2548.341078
487.343959	2549.150183
487.712333	2548.091541
488.080648	2547.189174
488.448905	2549.102292
488.817104	2545.843186
489.185244	2549.311500
489.553326	2548.441901
489.921350	2550.720503
490.289315	2551.196892
490.657222	2549.624052
491.025070	2552.956254
491.392861	2550.881819
491.760593	2547.811757
492.128267	2552.144628
492.495883	2549.929041
492.863440	2550.097920
493.230939	2549.303938
493.598380	2549.666901
493.965763	2547.708413
494.333088	2545.263453
494.700354	2546.276725
495.067563	2546.054915
495.434713	2545.200439
495.801805	2549.346788
496.168839	2550.039947
496.535815	2549.097251
496.902733	2550.385266
497.269593	2550.420554
497.636395	2548.686397
498.003139	2551.411141
498.369825	2551.151521
498.736453	2548.124308
499.103023	2550.120605
499.469535	2551.325441
499.835989	2549.253527
500.202385	2549.684545
500.568723	2550.319731
500.935003	2552.530277
501.301226	2550.871737
501.667390	2551.499361
502.033497	2553.112530
502.399546	2552.091696
502.765537	2550.468445
503.131470	2551.015410
503.497345	2551.703527
503.863163	2553.742674
504.228923	2551.975750
504.594625	2553.984650
504.960269	2551.953065
505.325856	2551.184289
505.691385	2550.165976
506.056856	2554.667726
506.422270	2553.722510
506.787625	2551.864844
507.152924	2551.585060
507.518164	2554.415668
507.883347	2552.275698
508.248472	2553.578837
508.613540	2554.118240
508.978550	2554.166131
509.343503	2552.903322
509.708398	2555.486913
510.073236	2554.919784
510.438016	2554.584547
510.802738	2553.679660
511.167403	2554.569423
511.532010	2555.355843
511.896561	2558.055381
512.261053	2555.328117
512.625488	2553.372149
512.989866	2551.751418
513.354186	2554.715617
513.718449	2552.253013
514.082655	2553.281409
514.446803	2556.885834
514.810894	2557.498334
515.174927	2559.643345
515.538904	2558.740978
515.902822	2557.863818
516.266684	2557.964641
516.630488	2557.962120
516.994235	2558.269630
517.357925	2558.047820
517.721558	2561.322049
518.085133	2560.989333
518.448651	2558.499003
518.812112	2560.908674
519.175516	2558.483879
519.538863	2559.494631
519.902152	2560.649055
520.265385	2561.256514
520.628560	2562.728531
520.991678	2559.355999
521.354739	2563.434293
521.717743	2559.666030
522.080690	2565.037379
522.443580	2561.468242
522.806413	2563.877914
523.169189	2565.130641
523.531908	2564.893707
523.894569	2563.716597
524.257174	2565.957390
524.619722	2565.632236
524.982213	2566.650549
525.344647	2565.173491
525.707025	2568.278841
526.069345	2564.447564
526.431608	2565.551577
526.793815	2564.873542
527.155964	2565.619633
527.518057	2567.300857
527.880093	2568.268759
528.242072	2567.066444
528.603995	2569.524006
528.965860	2566.993347
529.327669	2570.297823
529.689421	2571.197669
530.051117	2570.968297
530.412755	2568.946794
530.774337	2570.784295
531.135862	2570.799418
531.497331	2568.586352
531.858743	2564.813048
532.220098	2571.900910
532.581396	2566.983265
532.942638	2567.182390
533.303824	2572.150447
533.664953	2572.001733
534.026025	2568.916547
534.387040	2574.164388
534.747999	2574.514749
535.108902	2574.182032
535.469748	2572.344532
535.830537	2574.323185
536.191270	2572.284038
536.551947	2573.448545
536.912567	2574.229923
537.273131	2574.441652
537.633638	2574.078689
537.994089	2574.418967
538.354483	2573.922413
538.714821	2576.639595
539.075103	2577.080696
539.435328	2579.394586
539.795497	2578.945923
540.155609	2579.117322
540.515665	2577.007599
540.875665	2578.545151
541.235609	2578.028433
541.595496	2577.468865
541.955328	2581.186716
542.315102	2581.264854
542.674821	2581.350553
543.034483	2580.523804
543.394090	2582.250399
543.753640	2580.284349
544.113134	2581.083372
544.472571	2583.666963
544.831953	2584.859196
545.191278	2583.571182
545.550548	2580.738053
545.909761	2585.343147
546.268918	2584.130750
546.628019	2585.552355
546.987064	2587.296594
547.346053	2588.357757
547.704986	2587.823395
548.063863	2588.642582
548.422684	2590.152408
548.781449	2589.597881
549.140158	2592.972933
549.498811	2589.870103
549.857408	2594.334045
550.215949	2592.105855
550.574434	2590.154928
550.932864	2593.741709
551.291237	2593.862697
551.649555	2599.876794
552.007817	2597.898141
552.366022	2599.965014
552.724173	2601.086671
553.082267	2600.380909
553.440305	2605.122114
553.798288	2605.863164
554.156215	2607.476333
554.514086	2608.938268
554.871902	2607.030191
555.229661	2608.648401
555.587365	2613.306427
555.945014	2614.271808
556.302606	2615.748867
556.660143	2616.772221
557.017625	2619.675925
557.375050	2621.374794
557.732421	2624.805299
558.089735	2626.572224
558.446994	2628.495424
558.804197	2631.847791
559.161345	2633.047586
559.518437	2630.259828
559.875474	2635.149747
560.232455	2638.391209
560.589381	2637.960190
560.946251	2648.276912
561.303065	2648.531490
561.659825	2648.796151
562.016528	2652.093065
562.373177	2651.692293
562.729770	2659.664878
563.086307	2662.382060
563.442789	2664.746361
563.799216	2670.226096
564.155587	2670.906651
564.511904	2674.858916
564.868164	2679.146417
565.224370	2681.803105
565.580520	2683.837211
565.936615	2687.156811
566.292654	2691.600588
566.648638	2697.133254
567.004567	2701.319932
567.360441	2706.469471
567.716260	2710.986345
568.072023	2716.516491
568.427732	2716.670246
568.783385	2721.199723
569.138982	2726.026627
569.494525	2733.447206
569.850013	2735.209089
570.205445	2746.748290
570.560823	2750.176275
570.916145	2756.366812
571.271412	2765.211516
571.626625	2771.263422
571.981782	2772.690068
572.336884	2782.379166
572.691931	2785.275309
573.046923	2794.873666
573.401860	2797.079170
573.756743	2805.563432
574.111570	2814.907211
574.466342	2820.775114
574.821059	2827.585713
575.175722	2835.772547
575.530330	2842.384020
575.884882	2851.117819
576.239380	2858.009076
576.593823	2861.096783
576.948211	2872.391488
577.302544	2869.545757
577.656823	2886.216853
578.011047	2895.086763
578.365216	2908.077816
578.719330	2912.178795
579.073389	2925.071546
579.427394	2928.234870
579.781344	2937.218206
580.135239	2949.359825
580.489080	2957.697894
580.842866	2965.199131
581.196597	2979.745380
581.550273	2988.539673
581.903895	3003.529544
582.257463	3018.438756
582.610975	3028.475694
582.964434	3039.316695
583.317837	3049.870351
583.671186	3056.658264
584.024481	3071.368351
584.377721	3078.935123
584.730906	3087.787389
585.084037	3108.030143
585.437113	3114.404682
585.790135	3131.922691
586.143103	3133.896303
586.496016	3146.002634
586.848874	3166.308402
587.201679	3180.718540
587.554428	3184.824560
587.907124	3209.672407
588.259765	3211.983776
588.612352	3240.350349
588.964884	3236.655183
589.317362	3260.734254
589.669786	3274.242026
590.022155	3291.709624
590.374470	3313.691575
590.726731	3319.307421
591.078937	3320.179540
591.431090	3354.774459
591.783188	3350.960826
592.135232	3374.011502
592.487222	3380.476782
592.839157	3409.365114
593.191038	3417.115888
593.542866	3423.800458
593.894639	3428.826488
594.246358	3452.923203
594.598022	3473.536482
594.949633	3476.183087
595.301190	3488.523832
595.652692	3508.612830
596.004141	3549.446176
596.355535	3527.635624
596.706876	3539.043755
597.058162	3553.058163
597.409395	3580.323243
597.760573	3612.198459
598.111698	3607.454733
598.462768	3625.872589
598.813785	3635.849032
599.164748	3654.939882
599.515657	3665.059998
599.866511	3673.355217
600.217312	3707.952656
600.568060	3703.864280
600.918753	3742.509766
601.269392	3758.845625
601.619978	3759.947117
601.970510	3795.898105
602.320988	3810.013336
602.671412	3851.950695
603.021783	3851.018082
603.372100	3866.368395
603.722363	3890.379411
604.072572	3903.277203
604.422728	3927.293260
604.772830	3926.143877
605.122878	3949.948205
605.472872	3964.295329
605.822813	3997.904702
606.172701	4001.443592
606.522534	4043.723749
606.872314	4065.647727
607.222041	4079.687341
607.571714	4113.450468
607.921333	4122.186788
608.270899	4152.743742
608.620411	4194.900391
608.969870	4193.451059
609.319276	4212.151220
609.668627	4236.164756
610.017926	4266.877986
610.367171	4314.050583
610.716362	4319.467303
611.065500	4343.826158
611.414585	4378.912589
611.763616	4390.575298
612.112594	4409.898041
612.461518	4434.498872
612.810389	4480.431345
613.159207	4480.779185
613.507971	4482.982169
613.856682	4553.336512
614.205340	4559.073345
614.553945	4606.641673
614.902496	4601.202268
615.250994	4638.973113
615.599439	4656.173530
615.947830	4686.801060
616.296169	4696.535528
616.644454	4723.800609
616.992686	4746.858846
617.340864	4796.907422
617.688990	4782.398981
618.037063	4836.162887
618.385082	4842.040872
618.733048	4903.863062
619.080961	4894.841917
619.428821	4928.809212
619.776628	4957.780723
620.124382	4960.306341
620.472083	4972.778156
620.819731	5002.601622
621.167326	4987.720136
621.514868	5010.780894
621.862357	4986.003623
622.209793	5009.233260
622.557176	5002.493237
622.904506	5015.421276
623.251783	4997.157176
623.599007	5001.253113
623.946179	5021.561402
624.293297	5025.783368
624.640363	5005.938866
624.987376	5020.795146
625.334336	5014.299620
625.681243	5016.729456
626.028097	5024.749932
626.374899	5034.592784
626.721647	5053.892842
627.068343	5037.952713
627.414987	5044.014701
627.761577	5041.748702
628.108115	5078.735648
628.454600	5041.179052
628.801032	5095.870530
629.147412	5078.536523
629.493739	5102.204740
629.840014	5084.036421
630.186236	5136.406448
630.532405	5088.649077
630.878521	5134.614318
631.224585	5126.883708
631.570597	5102.045943
631.916556	5136.837467
632.262462	5151.093850
632.608316	5148.606040
632.954117	5147.658303
633.299866	5157.254140
633.645562	5173.602602
633.991206	5140.870390
634.336797	5128.280108
634.682336	5121.434221
635.027823	5115.445330
635.373257	5125.996465
635.718639	5101.541828
636.063968	5127.102999
636.409245	5078.574331
636.754470	5095.747022
637.099642	5085.200928
637.444762	5066.760387
637.789829	5091.295683
638.134845	5067.740892
638.479808	5073.754988
638.824719	5087.557667
639.169577	5053.492070
639.514383	5081.956945
639.859137	5052.020053
640.203839	5068.053443
640.548489	5078.566769
640.893086	5071.622580
641.237632	5066.800716
641.582125	5092.934058
641.926566	5084.167491
642.270955	5109.625318
642.615292	5117.822234
642.959576	5141.049351
643.303809	5140.514988
643.647990	5162.234800
643.992118	5167.076828
644.336195	5138.632118
