Dividing Wavelength (nm)	Counts (n)	Blue Motor Position (mm): 22.800000	Red Motor Position (mm): 0.000000	
326.493990	2132.294651
326.888308	2132.294651
327.282561	2132.294651
327.676750	2102.851792
328.070874	2102.914806
328.464933	2102.715681
328.858929	2109.002000
329.252859	2120.120264
329.646726	2129.963117
330.040528	2144.224542
330.434265	2160.820020
330.827938	2176.687052
331.221547	2196.639939
331.615091	2212.360777
332.008571	2232.313664
332.401986	2252.352250
332.795338	2272.839500
333.188625	2292.668878
333.581847	2309.791157
333.975006	2329.234888
334.368100	2347.642661
334.761129	2364.172604
335.154095	2381.995604
335.546996	2402.727349
335.939833	2423.038158
336.332606	2438.373348
336.725315	2451.775255
337.117960	2459.241204
337.510540	2470.588842
337.903056	2482.763228
338.295508	2487.370843
338.687896	2497.357368
339.080220	2504.921620
339.472480	2511.172651
339.864676	2516.425533
340.256807	2520.143384
340.648875	2521.320493
341.040879	2527.112779
341.432818	2527.740403
341.824694	2528.993129
342.216506	2525.698735
342.608253	2529.812317
342.999937	2528.713345
343.391557	2527.969775
343.783113	2526.238139
344.174605	2526.888448
344.566033	2526.167563
344.957397	2525.005577
345.348697	2521.562469
345.739934	2520.811337
346.131106	2517.312776
346.522215	2519.760256
346.913260	2514.048629
347.304241	2512.425377
347.695159	2510.320696
348.086012	2510.315654
348.476802	2505.269459
348.867528	2507.079234
349.258191	2506.693585
349.648789	2502.106135
350.039324	2503.149654
350.429796	2502.232164
350.820203	2499.830054
351.210548	2500.266114
351.600828	2497.410301
351.991045	2498.025321
352.381198	2496.696977
352.771288	2497.916937
353.161314	2494.395691
353.551276	2495.459374
353.941175	2496.029024
354.331010	2492.374188
354.720782	2496.339055
355.110490	2495.761843
355.500135	2495.968531
355.889717	2495.076246
356.279235	2496.200424
356.668689	2497.173366
357.058080	2496.543222
357.447408	2494.781339
357.836672	2494.027686
358.225873	2496.003819
358.615010	2494.829230
359.004084	2499.474653
359.393095	2499.189828
359.782043	2498.683192
360.170927	2496.533140
360.559748	2501.738131
360.948505	2499.651093
361.337199	2501.675117
361.725830	2499.812410
362.114398	2501.004643
362.502903	2505.844151
362.891344	2505.594614
363.279722	2501.735611
363.668037	2504.117556
364.056289	2504.107473
364.444478	2506.968328
364.832603	2505.080416
365.220665	2506.013030
365.608665	2504.838441
365.996601	2507.825324
366.384474	2507.353977
366.772284	2509.461179
367.160031	2508.284069
367.547715	2508.087464
367.935336	2506.093688
368.322893	2506.998575
368.710388	2510.421519
369.097820	2508.909173
369.485189	2511.432270
369.872495	2508.841117
370.259738	2508.246261
370.646918	2507.638802
371.034035	2510.817249
371.421090	2510.313134
371.808081	2508.977228
372.195010	2509.115860
372.581875	2510.721467
372.968678	2511.124760
373.355418	2510.635768
373.742096	2514.698938
374.128710	2512.095182
374.515262	2513.133659
374.901751	2511.286077
375.288177	2512.904287
375.674540	2513.201715
376.060841	2512.301869
376.447079	2513.771365
376.833254	2513.594925
377.219367	2509.118380
377.605417	2513.390758
377.991404	2511.202897
378.377329	2514.151972
378.763191	2507.926147
379.148991	2515.014010
379.534727	2515.127436
379.920402	2514.487209
380.306013	2514.146931
380.691563	2517.332941
381.077049	2517.350585
381.462474	2515.878568
381.847835	2515.558454
382.233134	2517.017868
382.618371	2519.853517
383.003545	2515.543331
383.388657	2517.320338
383.773706	2516.985101
384.158693	2518.436953
384.543618	2520.372756
384.928480	2517.521984
385.313280	2517.053157
385.698017	2517.453928
386.082692	2517.897550
386.467305	2519.419978
386.851856	2522.066584
387.236344	2519.664474
387.620770	2517.632889
388.005133	2519.319155
388.389435	2521.481810
388.773674	2520.854187
389.157851	2521.955679
389.541965	2521.585154
389.926018	2522.732016
390.310008	2521.081038
390.693936	2521.454084
391.077802	2521.774197
391.461606	2525.083715
391.845348	2521.751512
392.229027	2523.248735
392.612645	2523.752850
392.996200	2522.898374
393.379694	2522.485000
393.763125	2523.523478
394.146494	2523.515916
394.529801	2524.052799
394.913047	2526.976668
395.296230	2525.829805
395.679351	2524.506502
396.062410	2523.321831
396.445408	2522.603467
396.828343	2526.326359
397.211217	2520.697911
397.594028	2521.358302
397.976778	2520.846625
398.359466	2521.501975
398.742092	2523.135309
399.124656	2528.118489
399.507158	2525.446678
399.889598	2528.849457
400.271977	2525.688653
400.654294	2527.460619
401.036549	2527.977337
401.418742	2527.707635
401.800874	2528.035310
402.182944	2526.366688
402.564952	2526.593540
402.946898	2530.109745
403.328783	2528.199148
403.710606	2530.634025
404.092367	2528.476411
404.474067	2526.026410
404.855705	2530.185362
405.237282	2529.686288
405.618797	2530.248377
406.000250	2529.282996
406.381642	2526.908612
406.762972	2531.236443
407.144240	2530.051772
407.525447	2530.994468
407.906593	2527.697553
408.287677	2530.323994
408.668700	2529.267872
409.049661	2530.404652
409.430560	2530.205527
409.811399	2531.579241
410.192176	2532.650487
410.572891	2531.155784
410.953545	2532.584952
411.334138	2531.730476
411.714669	2531.150743
412.095139	2534.785415
412.475547	2532.458923
412.855894	2531.415404
413.236180	2533.018491
413.616405	2532.630322
413.996568	2532.658048
414.376670	2534.288862
414.756711	2532.065713
415.136691	2536.275076
415.516609	2532.400949
415.896466	2536.000333
416.276262	2532.126207
416.655997	2528.834333
417.035670	2530.076978
417.415283	2533.855322
417.794834	2525.544980
418.174324	2532.123686
418.553753	2534.896321
418.933121	2536.010416
419.312428	2536.020498
419.691674	2534.185518
420.070859	2536.471681
420.449983	2535.289531
420.829045	2532.310209
421.208047	2534.866074
421.586988	2535.823893
421.965867	2540.529810
422.344686	2537.255581
422.723444	2536.315405
423.102141	2534.767771
423.480777	2534.624098
423.859352	2536.348173
424.237866	2538.682227
424.616319	2535.695343
424.994712	2537.275745
425.373044	2535.927237
425.751314	2538.437731
426.129524	2538.283976
426.507673	2540.953267
426.885762	2538.248688
427.263789	2539.899666
427.641756	2538.538554
428.019662	2538.210879
428.397508	2536.151568
428.775292	2539.536703
429.153016	2538.321785
429.530679	2540.663401
429.908282	2539.002340
430.285824	2538.778009
430.663305	2541.154913
431.040726	2540.229861
431.418086	2540.287835
431.795385	2539.960160
432.172624	2538.425128
432.549802	2541.308668
432.926920	2538.803215
433.303977	2541.109543
433.680974	2538.772968
434.057910	2538.276414
434.434786	2542.198432
434.811601	2543.216745
435.188355	2541.621220
435.565050	2541.091899
435.941683	2541.144831
436.318257	2540.996117
436.694770	2537.351362
437.071222	2540.590304
437.447614	2535.468492
437.823946	2539.975283
438.200218	2542.752959
438.576429	2541.500232
438.952580	2542.200952
439.328670	2546.047353
439.704700	2542.795809
440.080670	2543.983000
440.456580	2541.154913
440.832429	2544.696324
441.208218	2544.535007
441.583947	2543.728422
441.959616	2543.110881
442.335224	2543.380583
442.710773	2542.304296
443.086261	2544.837476
443.461689	2545.628937
443.837057	2544.615665
444.212365	2544.265305
444.587612	2544.184647
444.962800	2545.525593
445.337927	2546.548948
445.712995	2546.536345
446.088002	2549.429967
446.462949	2544.456869
446.837837	2545.981818
447.212664	2545.714637
447.587431	2544.061138
447.962139	2544.925696
448.336786	2547.877292
448.711374	2547.781510
449.085901	2549.361912
449.460369	2545.533155
449.834776	2545.986859
450.209124	2545.669266
450.583412	2548.298228
450.957640	2545.986859
451.331808	2548.956099
451.705917	2548.399051
452.079965	2548.467107
452.453954	2547.993238
452.827883	2551.143959
453.201752	2548.280584
453.575562	2551.267468
453.949311	2550.347457
454.323001	2549.258568
454.696632	2549.467776
455.070202	2551.131357
455.443713	2550.647406
455.817164	2552.132026
456.190556	2546.097764
456.563888	2552.971378
456.937160	2546.674977
457.310373	2550.864175
457.683526	2551.045657
458.056619	2552.850390
458.429653	2556.069167
458.802628	2552.948692
459.175542	2555.970864
459.548398	2554.282078
459.921194	2552.663867
460.293930	2555.280226
460.666607	2556.686708
461.039224	2557.742830
461.411782	2558.884651
461.784280	2559.769374
462.156719	2559.953376
462.529099	2564.066957
462.901419	2561.455640
463.273680	2562.602502
463.645882	2561.916905
464.018024	2565.486042
464.390106	2566.963100
464.762130	2571.366548
465.134094	2572.594069
465.505999	2583.054463
465.877845	2593.139292
466.249631	2596.663058
466.621358	2597.028542
466.993026	2598.898810
467.364634	2601.174891
467.736184	2604.403750
468.107674	2603.884511
468.479105	2610.773248
468.850477	2613.959257
469.221790	2615.837087
469.593043	2617.457818
469.964238	2623.202212
470.335373	2626.418469
470.706449	2635.031280
471.077467	2642.751807
471.448425	2672.923113
471.819324	2702.676003
472.190164	2708.034749
472.560945	2694.521937
472.931667	2692.296267
473.302330	2697.622246
473.672934	2700.299099
474.043479	2716.455997
474.413965	2726.369426
474.784393	2736.686147
475.154761	2752.346492
475.525070	2765.017432
475.895321	2772.019595
476.265513	2790.510547
476.635645	2814.249340
477.005719	2835.696929
477.375734	2852.985567
477.745691	2881.987325
478.115588	2905.330388
478.485427	2938.700305
478.855207	2995.130982
479.224928	3082.660536
479.594591	3145.523724
479.964194	3157.771207
480.333739	3166.167249
480.703226	3195.262269
481.072653	3235.568814
481.442022	3304.045328
481.811333	3348.092409
482.180584	3368.420862
482.549777	3383.645147
482.918912	3404.588620
483.287988	3444.577573
483.657005	3481.191474
484.025964	3491.407372
484.394864	3541.539126
484.763706	3585.929007
485.132489	3596.013835
485.501213	3635.765853
485.869879	3679.991896
486.238487	3716.701578
486.607036	3769.149743
486.975527	3798.917757
487.343959	3868.301677
487.712333	3932.770473
488.080648	3970.445537
488.448905	4039.123696
488.817104	4079.878904
489.185244	4184.135007
489.553326	4282.119914
489.921350	4459.951657
490.289315	4762.360394
490.657222	4892.444849
491.025070	4958.594870
491.392861	4996.423688
491.760593	4986.043952
492.128267	4968.631807
492.495883	4954.798881
492.863440	4945.908806
493.230939	4933.043781
493.598380	4985.169312
493.965763	5025.435528
494.333088	5057.237648
494.700354	5112.158498
495.067563	5192.635478
495.434713	5220.122369
495.801805	5326.518442
496.168839	5377.492069
496.535815	5437.895174
496.902733	5495.797867
497.269593	5559.253392
497.636395	5653.127238
498.003139	5734.120936
498.369825	5744.898923
498.736453	5891.755296
499.103023	5927.270225
499.469535	6020.632394
499.835989	6084.637404
500.202385	6155.334546
500.568723	6157.315719
500.935003	6319.905534
501.301226	6338.356157
501.667390	6507.970819
502.033497	6638.224152
502.399546	6638.035109
502.765537	6672.135994
503.131470	6787.495238
503.497345	6945.142201
503.863163	6819.365413
504.228923	7062.855664
504.594625	7160.706981
504.960269	7101.324709
505.325856	7296.911396
505.691385	7261.968638
506.056856	7418.735920
506.422270	7510.527770
506.787625	7514.227977
507.152924	7660.494535
507.518164	7714.883544
507.883347	7742.932524
508.248472	7759.044051
508.613540	7974.724777
508.978550	7982.034451
509.343503	8031.624281
509.708398	8179.365377
510.073236	8319.184299
510.438016	8396.059375
510.802738	8425.280423
511.167403	8524.966720
511.532010	8522.110906
511.896561	8733.746106
512.261053	8850.973098
512.625488	8827.095673
512.989866	8881.613231
513.354186	8930.640973
513.718449	8924.253831
514.082655	9119.880847
514.446803	9110.950443
514.810894	9261.622970
515.174927	9219.473882
515.538904	9285.107185
515.902822	9464.970513
516.266684	9426.579606
516.630488	9437.791132
516.994235	9525.870172
517.357925	9630.297674
517.721558	9758.695862
518.085133	9819.777003
518.448651	9872.691474
518.812112	9818.526797
519.175516	9879.736487
519.538863	10031.999498
519.902152	10005.689716
520.265385	10195.254744
520.628560	10149.052569
520.991678	10181.184884
521.354739	10271.721486
521.717743	10244.083360
522.080690	10278.895048
522.443580	10433.729047
522.806413	10437.951014
523.169189	10498.414613
523.531908	10584.840155
523.894569	10454.175967
524.257174	10491.170475
524.619722	10636.504420
524.982213	10610.976017
525.344647	10687.856133
525.707025	10674.265183
526.069345	10790.788933
526.431608	10747.553477
526.793815	10877.239681
527.155964	10702.324245
527.518057	10775.191603
527.880093	10750.915927
528.242072	10839.793990
528.603995	10776.966089
528.965860	10718.967614
529.327669	10792.865889
529.689421	10759.677452
530.051117	10745.408466
530.412755	10868.299194
530.774337	10776.555235
531.135862	10776.749320
531.497331	10809.375667
531.858743	10697.688904
532.220098	10863.736950
532.581396	10755.228634
532.942638	10750.074054
533.303824	10726.264685
533.664953	10748.135731
534.026025	10677.224340
534.387040	10787.489498
534.747999	10795.013420
535.108902	10861.808709
535.469748	10629.648451
535.830537	10749.088509
536.191270	10734.655685
536.551947	10761.668708
536.912567	10765.250448
537.273131	10711.443692
537.633638	10686.139621
537.994089	10685.612820
538.354483	10642.115224
538.714821	10788.366659
539.075103	10804.347117
539.435328	10770.659606
539.795497	10607.633732
540.155609	10765.603329
540.515665	10859.946002
540.875665	10601.402866
541.235609	10674.103866
541.595496	10672.636890
541.955328	10828.191774
542.315102	10718.773530
542.674821	10670.111272
543.034483	10676.279124
543.394090	10678.492190
543.753640	10607.026273
544.113134	10829.855355
544.472571	10689.018119
544.831953	10838.586633
545.191278	10642.735286
545.550548	10682.197438
545.909761	10811.039248
546.268918	10789.271546
546.628019	10870.918074
546.987064	10741.332693
547.346053	10660.835549
547.704986	10767.513926
548.063863	10751.034394
548.422684	10738.789431
548.781449	10668.810654
549.140158	10766.364543
549.498811	10640.343258
549.857408	10511.135965
550.215949	10725.841228
550.574434	10588.444580
550.932864	10677.816676
551.291237	10743.538198
551.649555	10688.173726
552.007817	10704.146622
552.366022	10666.345530
552.724173	10665.685139
553.082267	10649.576132
553.440305	10782.176122
553.798288	10588.931051
554.156215	10734.930428
554.514086	10717.619106
554.871902	10572.688453
555.229661	10611.510379
555.587365	10585.097253
555.945014	10480.153033
556.302606	10605.768505
556.660143	10500.569706
557.017625	10652.472275
557.375050	10553.794209
557.732421	10685.065855
558.089735	10599.583009
558.446994	10601.097876
558.804197	10641.563218
559.161345	10641.147323
559.518437	10490.283232
559.875474	10577.464947
560.232455	10611.822931
560.589381	10563.032123
560.946251	10558.772348
561.303065	10661.112812
561.659825	10598.514284
562.016528	10530.892247
562.373177	10410.784236
562.729770	10523.701041
563.086307	10436.920098
563.442789	10538.960613
563.799216	10410.068392
564.155587	10463.988573
564.511904	10412.374720
564.868164	10406.854656
565.224370	10421.300083
565.580520	10349.337612
565.936615	10351.538075
566.292654	10221.743487
566.648638	10350.998672
567.004567	10309.371344
567.360441	10289.050453
567.716260	10206.551970
568.072023	10296.728130
568.427732	10247.874308
568.783385	10158.454321
569.138982	10230.404189
569.494525	10244.388350
569.850013	10123.481316
570.205445	10200.295898
570.560823	10102.600857
570.916145	10028.301811
571.271412	10087.762221
571.626625	10033.595023
571.981782	10011.355973
572.336884	9981.840017
572.691931	9986.306479
573.046923	9944.795098
573.401860	9893.776100
573.756743	9832.074898
574.111570	9874.498728
574.466342	9857.807467
574.821059	9885.886694
575.175722	9776.256722
575.530330	9790.497981
575.884882	9777.751424
576.239380	9707.815497
576.593823	9685.770531
576.948211	9707.475219
577.302544	9585.559954
577.656823	9595.838867
578.011047	9594.679401
578.365216	9571.306092
578.719330	9494.909926
579.073389	9502.151543
579.427394	9457.560017
579.781344	9433.690153
580.135239	9385.935303
580.489080	9387.876147
580.842866	9292.865521
581.196597	9304.351790
581.550273	9339.612140
581.903895	9306.658118
582.257463	9373.259322
582.610975	9252.989994
582.964434	9281.283470
583.317837	9203.508548
583.671186	9180.397378
584.024481	9173.047376
584.377721	9096.159697
584.730906	9076.635309
585.084037	9103.711346
585.437113	9041.800936
585.790135	9060.964882
586.143103	8960.905540
586.496016	8932.682640
586.848874	8994.469542
587.201679	8976.225606
587.554428	8872.219041
587.907124	8912.192870
588.259765	8888.078511
588.612352	8891.995487
588.964884	8765.288606
589.317362	8778.554402
589.669786	8779.184547
590.022155	8830.372423
590.374470	8847.073765
590.726731	8779.640771
591.078937	8636.509810
591.431090	8747.142973
591.783188	8621.096482
592.135232	8614.719423
592.487222	8614.706820
592.839157	8665.098194
593.191038	8597.017411
593.542866	8544.254174
593.894639	8443.312630
594.246358	8495.682657
594.598022	8508.078854
594.949633	8411.775172
595.301190	8388.727017
595.652692	8416.070235
596.004141	8522.410855
596.355535	8302.795508
596.706876	8282.525028
597.058162	8221.043116
597.409395	8298.253428
597.760573	8354.495061
598.111698	8262.219261
598.462768	8250.309535
598.813785	8214.469452
599.164748	8186.985081
599.515657	8178.405037
599.866511	8086.562776
600.217312	8214.711427
600.568060	8074.040549
600.918753	8173.966301
601.269392	8148.967219
601.619978	8056.378867
601.970510	8120.540152
602.320988	8113.701827
602.671412	8171.836413
603.021783	8109.721836
603.372100	8075.996517
603.722363	8082.504647
604.072572	8061.344403
604.422728	8074.723626
604.772830	7998.322419
605.122878	8007.646033
605.472872	8002.405753
605.822813	8033.098818
606.172701	7976.101012
606.522534	8052.600522
606.872314	8048.953247
607.222041	8022.041047
607.571714	8076.934172
607.921333	8032.226699
608.270899	8041.136938
608.620411	8126.506358
608.969870	8033.358438
609.319276	8026.416769
609.668627	8046.931745
610.017926	8076.243534
610.367171	8129.803273
610.716362	8103.054910
611.065500	8096.009898
611.414585	8124.008466
611.763616	8113.406920
612.112594	8086.986232
612.461518	8107.818801
612.810389	8167.929519
613.159207	8105.114222
613.507971	8051.264616
613.856682	8177.177516
614.205340	8125.170452
614.553945	8209.776137
614.902496	8109.154707
615.250994	8160.851739
615.599439	8141.922207
615.947830	8155.780338
616.296169	8126.680278
616.644454	8141.763410
616.992686	8137.808625
617.340864	8192.711832
617.688990	8101.960980
618.037063	8192.169908
618.385082	8138.665621
618.733048	8222.716779
619.080961	8164.882142
619.428821	8182.964761
619.776628	8183.824277
620.124382	8139.303327
620.472083	8122.586861
620.819731	8149.216756
621.167326	8036.413377
621.514868	8046.772948
621.862357	7933.311699
622.209793	7955.613763
622.557176	7893.340390
622.904506	7855.695573
623.251783	7798.670041
623.599007	7750.743792
623.946179	7752.193123
624.293297	7707.200825
624.640363	7631.792725
624.987376	7612.129705
625.334336	7562.479381
625.681243	7512.224118
626.028097	7500.253898
626.374899	7482.221691
626.721647	7468.353477
627.068343	7401.747231
627.414987	7375.374435
627.761577	7329.298289
628.108115	7357.911878
628.454600	7258.878411
628.801032	7312.637275
629.147412	7271.985411
629.493739	7264.038032
629.840014	7202.170471
630.186236	7252.597133
630.532405	7137.202601
630.878521	7190.477515
631.224585	7141.301059
631.570597	7067.029739
631.916556	7100.261026
632.262462	7098.171467
632.608316	7063.992444
632.954117	7037.793568
633.299866	7023.393512
633.645562	7018.604416
633.991206	6939.750687
634.336797	6879.866821
634.682336	6838.675553
635.027823	6804.030223
635.373257	6796.433204
635.718639	6730.008440
636.063968	6742.018989
636.409245	6641.619369
636.754470	6633.049408
637.099642	6595.021464
637.444762	6535.326640
637.789829	6548.060595
638.134845	6489.079095
638.479808	6477.618032
638.824719	6480.824206
639.169577	6407.810654
639.514383	6430.838645
639.859137	6357.361307
640.203839	6363.360280
640.548489	6350.943918
640.893086	6328.833417
641.237632	6302.493388
641.582125	6321.543909
641.926566	6291.470905
642.270955	6306.211239
