Dividing Wavelength (nm)	Counts (n)	Blue Motor Position (mm): 1.300000	Red Motor Position (mm): 0.000000	
326.493990	2145.807464
326.888308	2145.807464
327.282561	2145.807464
327.676750	2112.372011
328.070874	2110.403440
328.464933	2112.457711
328.858929	2117.282095
329.252859	2129.766512
329.646726	2138.286062
330.040528	2153.049081
330.434265	2171.512307
330.827938	2188.538804
331.221547	2205.948429
331.615091	2223.854608
332.008571	2244.167937
332.401986	2263.130237
332.795338	2282.571447
333.188625	2303.507359
333.581847	2320.755667
333.975006	2336.421053
334.368100	2358.735720
334.761129	2374.237268
335.154095	2393.791904
335.546996	2410.841086
335.939833	2425.803231
336.332606	2438.045673
336.725315	2450.918259
337.117960	2459.652058
337.510540	2467.891824
337.903056	2478.332054
338.295508	2486.914618
338.687896	2496.011380
339.080220	2506.144100
339.472480	2513.552075
339.864676	2514.202384
340.256807	2519.336799
340.648875	2519.609022
341.040879	2523.818385
341.432818	2527.324507
341.824694	2527.190917
342.216506	2528.395753
342.608253	2530.145033
342.999937	2529.456916
343.391557	2529.398942
343.783113	2524.849301
344.174605	2525.340813
344.566033	2527.125382
344.957397	2522.167407
345.348697	2523.001718
345.739934	2519.737571
346.131106	2517.736233
346.522215	2515.848321
346.913260	2515.152642
347.304241	2513.302538
347.695159	2510.504698
348.086012	2509.456138
348.476802	2508.112670
348.867528	2504.631753
349.258191	2502.073368
349.648789	2503.000940
350.039324	2500.883656
350.429796	2497.634632
350.820203	2500.210662
351.210548	2496.633963
351.600828	2495.499703
351.991045	2501.249139
352.381198	2496.654128
352.771288	2497.853922
353.161314	2494.882162
353.551276	2493.389980
353.941175	2497.806031
354.331010	2495.156905
354.720782	2495.759323
355.110490	2496.661689
355.500135	2493.533653
355.889717	2492.590958
356.279235	2494.746051
356.668689	2497.407780
357.058080	2496.175218
357.447408	2496.676813
357.836672	2493.266472
358.225873	2493.218581
358.615010	2492.918633
359.004084	2495.378716
359.393095	2496.386946
359.782043	2497.962307
360.170927	2499.830054
360.559748	2497.422903
360.948505	2501.430621
361.337199	2501.430621
361.725830	2501.007164
362.114398	2501.725528
362.502903	2504.765344
362.891344	2503.696619
363.279722	2505.614778
363.668037	2505.821466
364.056289	2505.831548
364.444478	2505.798781
364.832603	2504.167967
365.220665	2507.527896
365.608665	2507.041425
365.996601	2507.086795
366.384474	2503.016064
366.772284	2505.818945
367.160031	2506.817094
367.547715	2507.021260
367.935336	2511.691889
368.322893	2510.734070
368.710388	2507.454800
369.097820	2509.070489
369.485189	2510.197187
369.872495	2508.526045
370.259738	2510.187105
370.646918	2507.260715
371.034035	2507.845489
371.421090	2512.871519
371.808081	2508.566374
372.195010	2510.910511
372.581875	2509.231806
372.968678	2511.253309
373.355418	2510.978566
373.742096	2513.158865
374.128710	2509.625016
374.515262	2511.180212
374.901751	2512.490912
375.288177	2511.994359
375.674540	2512.332116
376.060841	2513.743639
376.447079	2511.835562
376.833254	2512.561488
377.219367	2510.403875
377.605417	2510.882784
377.991404	2508.183246
378.377329	2511.086951
378.763191	2513.148783
379.148991	2515.684483
379.534727	2512.863958
379.920402	2513.627693
380.306013	2515.636592
380.691563	2517.451408
381.077049	2512.158196
381.462474	2519.971985
381.847835	2514.686335
382.233134	2515.147600
382.618371	2518.041223
383.003545	2513.826818
383.388657	2517.423681
383.773706	2518.449556
384.158693	2516.425533
384.543618	2518.769669
384.928480	2517.458969
385.313280	2519.334279
385.698017	2518.663805
386.082692	2516.196160
386.467305	2519.984588
386.851856	2515.422343
387.236344	2520.806296
387.620770	2520.677746
388.005133	2521.028106
388.389435	2518.363857
388.773674	2519.107427
389.157851	2520.375277
389.541965	2520.024917
389.926018	2524.503982
390.310008	2520.060205
390.693936	2524.251924
391.077802	2519.966943
391.461606	2522.616070
391.845348	2524.330062
392.229027	2523.183200
392.612645	2521.295288
392.996200	2520.092972
393.379694	2523.760412
393.763125	2522.689167
394.146494	2524.100690
394.529801	2523.735206
394.913047	2526.036493
395.296230	2523.233611
395.679351	2524.561955
396.062410	2524.148581
396.445408	2522.714372
396.828343	2525.081194
397.211217	2517.418640
397.594028	2521.849814
397.976778	2521.169259
398.359466	2521.733868
398.742092	2519.082221
399.124656	2523.820906
399.507158	2525.073632
399.889598	2527.306863
400.271977	2524.662778
400.654294	2525.799558
401.036549	2527.432892
401.418742	2522.802593
401.800874	2524.844260
402.182944	2528.645290
402.564952	2527.387522
402.946898	2528.345341
403.328783	2525.991122
403.710606	2523.082377
404.092367	2526.122192
404.474067	2526.815351
404.855705	2524.624970
405.237282	2527.997502
405.618797	2528.451205
406.000250	2528.196627
406.381642	2527.720238
406.762972	2526.283509
407.144240	2529.590506
407.525447	2529.953469
407.906593	2526.331400
408.287677	2529.446833
408.668700	2526.464991
409.049661	2529.676206
409.430560	2528.824251
409.811399	2528.925074
410.192176	2527.919364
410.572891	2530.016484
410.953545	2530.752492
411.334138	2528.075639
411.714669	2529.068747
412.095139	2528.133613
412.475547	2528.068078
412.855894	2532.723583
413.236180	2526.979188
413.616405	2530.855836
413.996568	2529.466998
414.376670	2530.258459
414.756711	2531.238963
415.136691	2535.433203
415.516609	2530.061854
415.896466	2530.145033
416.276262	2534.240971
416.655997	2529.895496
417.035670	2528.461288
417.415283	2530.656710
417.794834	2530.016484
418.174324	2530.709642
418.553753	2533.928419
418.933121	2531.301978
419.312428	2533.096629
419.691674	2532.060672
420.070859	2531.203675
420.449983	2534.160312
420.829045	2531.054961
421.208047	2535.831455
421.586988	2533.880528
421.965867	2533.260466
422.344686	2536.713657
422.723444	2536.746424
423.102141	2535.685261
423.480777	2531.947246
423.859352	2535.297092
424.237866	2534.515713
424.616319	2533.535209
424.994712	2535.786084
425.373044	2535.009747
425.751314	2534.576207
426.129524	2535.125693
426.507673	2536.048224
426.885762	2534.737524
427.263789	2537.842875
427.641756	2536.620395
428.019662	2536.857329
428.397508	2532.849612
428.775292	2536.759027
429.153016	2535.763399
429.530679	2537.056455
429.908282	2537.048893
430.285824	2536.307844
430.663305	2534.848430
431.040726	2537.058976
431.418086	2535.407998
431.795385	2538.208359
432.172624	2536.948070
432.549802	2536.370858
432.926920	2536.280117
433.303977	2538.135262
433.680974	2537.994110
434.057910	2538.697351
434.434786	2536.481763
434.811601	2538.120138
435.188355	2539.143493
435.565050	2540.454193
435.941683	2538.657021
436.318257	2536.161650
436.694770	2533.358769
437.071222	2535.405477
437.447614	2538.649460
437.823946	2537.618544
438.200218	2535.022349
438.576429	2541.099460
438.952580	2537.762217
439.328670	2538.956970
439.704700	2535.884387
440.080670	2538.964532
440.456580	2538.825900
440.832429	2542.112732
441.208218	2538.788091
441.583947	2539.846734
441.959616	2539.980324
442.335224	2539.221631
442.710773	2540.292876
443.086261	2538.735159
443.461689	2540.497043
443.837057	2538.609130
444.212365	2538.606610
444.587612	2537.835313
444.962800	2538.631816
445.337927	2541.018802
445.712995	2540.451672
446.088002	2539.577032
446.462949	2540.978473
446.837837	2538.946888
447.212664	2539.882022
447.587431	2542.473175
447.962139	2539.342618
448.336786	2541.908566
448.711374	2543.851930
449.085901	2544.222455
449.460369	2544.436704
449.834776	2540.537372
450.209124	2542.611807
450.583412	2545.081972
450.957640	2541.681714
451.331808	2543.267157
451.705917	2540.978473
452.079965	2544.134235
452.453954	2543.980480
452.827883	2543.559543
453.201752	2543.688093
453.575562	2542.604245
453.949311	2542.606765
454.323001	2541.737166
454.696632	2543.534338
455.070202	2545.326468
455.443713	2542.972249
455.817164	2540.759182
456.190556	2538.374717
456.563888	2542.107691
456.937160	2539.201466
457.310373	2542.732794
457.683526	2544.020809
458.056619	2543.657846
458.429653	2540.940664
458.802628	2544.950902
459.175542	2545.404606
459.548398	2544.608103
459.921194	2542.440407
460.293930	2542.090047
460.666607	2543.153731
461.039224	2544.129194
461.411782	2544.842517
461.784280	2544.053577
462.156719	2546.503577
462.529099	2544.164482
462.901419	2542.473175
463.273680	2547.484082
463.645882	2544.219935
464.018024	2541.162475
464.390106	2543.504091
464.762130	2544.363607
465.134094	2543.977959
465.505999	2547.100954
465.877845	2543.219266
466.249631	2545.318906
466.621358	2547.821839
466.993026	2551.824515
467.364634	2547.786551
467.736184	2542.896632
468.107674	2544.103988
468.479105	2545.568443
468.850477	2544.701365
469.221790	2546.312013
469.593043	2544.653474
469.964238	2546.990049
470.335373	2545.480223
470.706449	2543.995603
471.077467	2548.240255
471.448425	2545.250851
471.819324	2547.264792
472.190164	2548.459545
472.560945	2546.485933
472.931667	2542.014430
473.302330	2543.844369
473.672934	2547.398382
474.043479	2543.221786
474.413965	2545.848227
474.784393	2542.269008
475.154761	2544.356046
475.525070	2542.059800
475.895321	2540.746580
476.265513	2540.184491
476.635645	2546.710265
477.005719	2545.661705
477.375734	2548.958619
477.745691	2546.138094
478.115588	2547.284956
478.485427	2545.328988
478.855207	2547.862168
479.224928	2546.211190
479.594591	2547.398382
479.964194	2547.867209
480.333739	2545.825542
480.703226	2547.325285
481.072653	2548.225131
481.442022	2550.085317
481.811333	2547.955430
482.180584	2545.855789
482.549777	2547.282436
482.918912	2547.065666
483.287988	2548.010882
483.657005	2545.003834
484.025964	2547.511808
484.394864	2546.163299
484.763706	2546.798485
485.132489	2546.080120
485.501213	2549.031716
485.869879	2547.085831
486.238487	2546.680018
486.607036	2545.465100
486.975527	2549.336706
487.343959	2547.773948
487.712333	2549.061963
488.080648	2546.286808
488.448905	2549.525749
488.817104	2547.468958
489.185244	2548.978784
489.553326	2549.810574
489.921350	2547.491643
490.289315	2549.588763
490.657222	2548.031047
491.025070	2547.811757
491.392861	2550.327293
491.760593	2549.311500
492.128267	2549.435008
492.495883	2549.440049
492.863440	2552.447098
493.230939	2544.562733
493.598380	2551.902653
493.965763	2544.109029
494.333088	2546.790923
494.700354	2545.533155
495.067563	2549.253527
495.434713	2546.216232
495.801805	2548.850234
496.168839	2547.143804
496.535815	2548.996428
496.902733	2547.254709
497.269593	2550.536500
497.636395	2548.381407
498.003139	2548.961140
498.369825	2548.338557
498.736453	2547.990718
499.103023	2548.628424
499.469535	2548.890564
499.835989	2549.871068
500.202385	2550.138249
500.568723	2549.634134
500.935003	2551.131357
501.301226	2551.985832
501.667390	2552.303425
502.033497	2548.590615
502.399546	2549.377035
502.765537	2551.133877
503.131470	2549.016593
503.497345	2547.552137
503.863163	2550.168496
504.228923	2549.041798
504.594625	2552.419371
504.960269	2547.221942
505.325856	2550.682694
505.691385	2550.551624
506.056856	2549.646737
506.422270	2549.876109
506.787625	2549.707231
507.152924	2551.539690
507.518164	2548.356201
507.883347	2547.899977
508.248472	2548.436860
508.613540	2549.954247
508.978550	2552.048847
509.343503	2550.846531
509.708398	2551.501881
510.073236	2549.190512
510.438016	2549.596325
510.802738	2551.247303
511.167403	2552.459701
511.532010	2547.027857
511.896561	2550.261757
512.261053	2551.514484
512.625488	2550.150852
512.989866	2546.727909
513.354186	2552.167314
513.718449	2547.761345
514.082655	2548.923331
514.446803	2551.403579
514.810894	2549.359391
515.174927	2550.735626
515.538904	2552.540359
515.902822	2549.097251
516.266684	2549.808054
516.630488	2552.326110
516.994235	2551.252344
517.357925	2548.822508
517.721558	2553.561193
518.085133	2549.412323
518.448651	2551.272509
518.812112	2549.742519
519.175516	2552.111861
519.538863	2548.199926
519.902152	2552.137067
520.265385	2549.656819
520.628560	2554.148487
520.991678	2550.733105
521.354739	2550.780996
521.717743	2551.781665
522.080690	2550.418033
522.443580	2554.662685
522.806413	2550.869217
523.169189	2550.695297
523.531908	2552.000956
523.894569	2548.701520
524.257174	2553.369629
524.619722	2552.414330
524.982213	2554.864331
525.344647	2549.671942
525.707025	2551.827036
526.069345	2551.171686
526.431608	2551.327962
526.793815	2551.048177
527.155964	2553.225956
527.518057	2550.337375
527.880093	2554.256872
528.242072	2553.737633
528.603995	2551.146480
528.965860	2551.108671
529.327669	2550.531459
529.689421	2552.046326
530.051117	2552.404248
530.412755	2551.418702
530.774337	2552.789896
531.135862	2552.255534
531.497331	2550.657488
531.858743	2546.821170
532.220098	2550.730585
532.581396	2549.644216
532.942638	2549.530790
533.303824	2551.612787
533.664953	2554.455997
534.026025	2553.523384
534.387040	2549.924000
534.747999	2551.728733
535.108902	2551.461552
535.469748	2553.437684
535.830537	2551.038095
536.191270	2549.969371
536.551947	2553.246121
536.912567	2555.973385
537.273131	2549.911397
537.633638	2551.401058
537.994089	2550.919628
538.354483	2552.285781
538.714821	2553.654454
539.075103	2552.878116
539.435328	2553.319217
539.795497	2550.622200
540.155609	2551.632951
540.515665	2553.031872
540.875665	2551.249824
541.235609	2551.937941
541.595496	2554.682849
541.955328	2552.860472
542.315102	2554.645041
542.674821	2553.571275
543.034483	2555.441543
543.394090	2552.043805
543.753640	2551.685883
544.113134	2551.217056
544.472571	2552.426933
544.831953	2551.776624
545.191278	2552.535318
545.550548	2553.016748
545.909761	2550.246634
546.268918	2550.692776
546.628019	2552.522715
546.987064	2551.965667
547.346053	2551.600184
547.704986	2551.471634
548.063863	2553.167983
548.422684	2553.329300
548.781449	2550.846531
549.140158	2554.708055
549.498811	2553.467931
549.857408	2551.542211
550.215949	2550.385266
550.574434	2545.286139
550.932864	2550.294525
551.291237	2549.679504
551.649555	2552.668908
552.007817	2552.205122
552.366022	2554.508930
552.724173	2553.843497
553.082267	2552.852911
553.440305	2552.588250
553.798288	2553.523384
554.156215	2552.938610
554.514086	2552.895760
554.871902	2554.902140
555.229661	2552.532797
555.587365	2551.970709
555.945014	2552.066491
556.302606	2551.736295
556.660143	2553.001625
557.017625	2551.532128
557.375050	2552.797458
557.732421	2551.675801
558.089735	2554.425751
558.446994	2552.336192
558.804197	2554.803837
559.161345	2553.364588
559.518437	2552.061449
559.875474	2554.453477
560.232455	2552.568085
560.589381	2554.019938
560.946251	2555.398693
561.303065	2554.105637
561.659825	2553.588919
562.016528	2555.738971
562.373177	2552.668908
562.729770	2552.494989
563.086307	2554.309804
563.442789	2553.735112
563.799216	2552.212684
564.155587	2554.735782
564.511904	2551.229659
564.868164	2552.981460
565.224370	2553.669578
565.580520	2551.998435
565.936615	2552.986501
566.292654	2552.641182
566.648638	2554.531615
567.004567	2555.554969
567.360441	2552.106820
567.716260	2553.372149
568.072023	2554.413148
568.427732	2547.277394
568.783385	2554.027499
569.138982	2549.321582
569.494525	2549.399720
569.850013	2549.036757
570.205445	2553.001625
570.560823	2553.435164
570.916145	2549.545914
571.271412	2552.968857
571.626625	2555.330638
571.981782	2554.939948
572.336884	2551.897612
572.691931	2555.590257
573.046923	2554.622356
573.401860	2553.770401
573.756743	2554.811399
574.111570	2552.694114
574.466342	2554.440874
574.821059	2554.133364
575.175722	2553.152859
575.530330	2555.033210
575.884882	2552.520194
576.239380	2552.230328
576.593823	2554.826522
576.948211	2554.685370
577.302544	2554.836605
577.656823	2552.729402
578.011047	2553.788045
578.365216	2553.029351
578.719330	2553.097407
579.073389	2555.595298
579.427394	2549.966850
579.781344	2550.617159
580.135239	2550.775955
580.489080	2552.550441
580.842866	2557.921791
581.196597	2556.411965
581.550273	2553.578837
581.903895	2553.241079
582.257463	2553.052036
582.610975	2552.041285
582.964434	2553.490617
583.317837	2555.645710
583.671186	2553.460370
584.024481	2555.532284
584.377721	2555.562531
584.730906	2554.113199
585.084037	2554.982798
585.437113	2554.080432
585.790135	2553.909032
586.143103	2556.018755
586.496016	2554.811399
586.848874	2549.182951
587.201679	2551.935421
587.554428	2549.477858
587.907124	2552.129505
588.259765	2548.401572
588.612352	2552.497509
588.964884	2553.067160
589.317362	2554.140925
589.669786	2551.678322
590.022155	2554.839125
590.374470	2550.985163
590.726731	2555.065977
591.078937	2552.701676
591.431090	2554.783672
591.783188	2551.650595
592.135232	2550.962478
592.487222	2553.316697
592.839157	2552.739485
593.191038	2554.710576
593.542866	2552.212684
593.894639	2554.183775
594.246358	2552.936090
594.598022	2554.632438
594.949633	2553.132695
595.301190	2553.561193
595.652692	2552.464742
596.004141	2553.979608
596.355535	2553.777962
596.706876	2552.588250
597.058162	2553.891388
597.409395	2551.557334
597.760573	2555.701163
598.111698	2553.843497
598.462768	2553.606563
598.813785	2553.152859
599.164748	2552.363919
599.515657	2551.774104
599.866511	2553.561193
600.217312	2551.212015
600.568060	2552.280740
600.918753	2551.854762
601.269392	2551.660678
601.619978	2552.530277
601.970510	2555.607901
602.320988	2551.302756
602.671412	2552.787376
603.021783	2551.852242
603.372100	2554.458518
603.722363	2553.909032
604.072572	2554.982798
604.422728	2553.130174
604.772830	2551.552293
605.122878	2551.194371
605.472872	2551.975750
605.822813	2549.561037
606.172701	2553.462890
606.522534	2553.357026
606.872314	2555.413817
607.222041	2550.801161
607.571714	2553.304094
607.921333	2555.922973
608.270899	2552.348795
608.620411	2553.034392
608.969870	2554.811399
609.319276	2554.496327
609.668627	2553.175544
610.017926	2554.786193
610.367171	2551.272509
610.716362	2554.927345
611.065500	2555.350802
611.414585	2551.053219
611.763616	2555.239897
612.112594	2554.345092
612.461518	2552.590771
612.810389	2554.108158
613.159207	2553.389793
613.507971	2553.248641
613.856682	2555.396173
614.205340	2554.665205
614.553945	2553.772921
614.902496	2551.564896
615.250994	2554.214022
615.599439	2553.399876
615.947830	2554.846687
616.296169	2552.731923
616.644454	2558.130999
616.992686	2553.122612
617.340864	2552.689073
617.688990	2551.333003
618.037063	2554.123281
618.385082	2555.312994
618.733048	2552.633620
619.080961	2551.970709
619.428821	2554.009855
619.776628	2552.772252
620.124382	2553.072201
620.472083	2552.308466
620.819731	2552.096738
621.167326	2553.518343
621.514868	2554.556821
621.862357	2554.473642
622.209793	2552.885678
622.557176	2551.948023
622.904506	2552.283260
623.251783	2548.197405
623.599007	2552.875596
623.946179	2552.174875
624.293297	2551.879968
624.640363	2552.845349
624.987376	2554.531615
625.334336	2551.829556
625.681243	2552.711758
626.028097	2550.760832
626.374899	2552.704197
626.721647	2551.736295
627.068343	2553.331820
627.414987	2553.346944
627.761577	2554.208981
628.108115	2551.834597
628.454600	2554.428271
628.801032	2551.960626
629.147412	2554.014897
629.493739	2554.062787
629.840014	2554.516491
630.186236	2554.148487
630.532405	2553.150339
630.878521	2552.462221
631.224585	2556.419527
631.570597	2554.597150
631.916556	2552.595812
632.262462	2550.743188
632.608316	2552.116902
632.954117	2551.852242
633.299866	2554.738302
633.645562	2552.063970
633.991206	2553.190668
634.336797	2553.205791
634.682336	2554.453477
635.027823	2554.844166
635.373257	2553.730071
635.718639	2552.109340
636.063968	2550.901984
636.409245	2552.321069
636.754470	2552.157231
637.099642	2553.004145
637.444762	2552.946172
637.789829	2556.159907
638.134845	2553.717468
638.479808	2553.573796
638.824719	2553.714948
639.169577	2553.067160
639.514383	2554.486244
639.859137	2551.741336
640.203839	2552.779814
640.548489	2553.533466
640.893086	2547.932744
641.237632	2549.031716
641.582125	2550.786037
641.926566	2547.859648
642.270955	2552.003476
642.615292	2554.947510
642.959576	2549.765204
643.303809	2554.997922
643.647990	2551.489278
643.992118	2553.336861
644.336195	2553.019269
