Dividing Wavelength (nm)	Counts (n)	Blue Motor Position (mm): 5.600000	Red Motor Position (mm): 0.000000	
326.493990	2142.316465
326.888308	2142.316465
327.282561	2142.316465
327.676750	2109.964860
328.070874	2109.191043
328.464933	2111.515015
328.858929	2116.745212
329.252859	2126.242746
329.646726	2137.655918
330.040528	2150.752836
330.434265	2168.016267
330.827938	2184.513443
331.221547	2204.773840
331.615091	2223.048023
332.008571	2241.027298
332.401986	2261.484301
332.795338	2279.771086
333.188625	2298.801442
333.581847	2319.875986
333.975006	2338.906341
334.368100	2356.951152
334.761129	2374.353215
335.154095	2390.099259
335.546996	2406.488050
335.939833	2421.460277
336.332606	2434.093408
336.725315	2449.494133
337.117960	2459.480659
337.510540	2468.002730
337.903056	2479.488999
338.295508	2486.405462
338.687896	2494.514158
339.080220	2504.790550
339.472480	2509.012516
339.864676	2515.263547
340.256807	2514.923269
340.648875	2518.744464
341.040879	2520.372756
341.432818	2524.388035
341.824694	2525.323169
342.216506	2527.558921
342.608253	2526.270906
342.999937	2527.473222
343.391557	2526.316277
343.783113	2522.694208
344.174605	2525.832326
344.566033	2520.196316
344.957397	2521.383508
345.348697	2521.055833
345.739934	2518.625997
346.131106	2515.528208
346.522215	2514.623320
346.913260	2510.529903
347.304241	2509.047804
347.695159	2508.251302
348.086012	2507.921106
348.476802	2504.052021
348.867528	2502.847185
349.258191	2502.764006
349.648789	2501.579335
350.039324	2498.484066
350.429796	2498.950373
350.820203	2497.047337
351.210548	2494.204127
351.600828	2497.324601
351.991045	2494.405773
352.381198	2493.125320
352.771288	2495.353510
353.161314	2493.173211
353.551276	2493.359733
353.941175	2494.183962
354.331010	2493.614312
354.720782	2493.654641
355.110490	2489.220946
355.500135	2493.974754
355.889717	2492.525422
356.279235	2493.203458
356.668689	2494.783859
357.058080	2492.482573
357.447408	2491.912922
357.836672	2490.476193
358.225873	2492.243118
358.615010	2491.618015
359.004084	2497.385095
359.393095	2494.972903
359.782043	2497.221257
360.170927	2497.369971
360.559748	2497.120434
360.948505	2497.322080
361.337199	2497.705208
361.725830	2499.552791
362.114398	2498.529437
362.502903	2500.916423
362.891344	2502.063286
363.279722	2498.413490
363.668037	2502.340549
364.056289	2502.063286
364.444478	2504.556136
364.832603	2500.412308
365.220665	2504.946826
365.608665	2503.232833
365.996601	2504.818276
366.384474	2502.643018
366.772284	2503.469768
367.160031	2502.027998
367.547715	2505.319871
367.935336	2504.054541
368.322893	2504.977072
368.710388	2506.370952
369.097820	2505.599655
369.485189	2507.535458
369.872495	2505.284583
370.259738	2507.391785
370.646918	2505.203924
371.034035	2509.788854
371.421090	2508.720129
371.808081	2507.338853
372.195010	2504.961949
372.581875	2509.224245
372.968678	2511.117198
373.355418	2506.837258
373.742096	2508.498318
374.128710	2507.240551
374.515262	2512.410254
374.901751	2509.839265
375.288177	2511.775068
375.674540	2510.078720
376.060841	2511.739780
376.447079	2510.862620
376.833254	2508.836076
377.219367	2507.074193
377.605417	2509.478823
377.991404	2505.355159
378.377329	2508.032012
378.763191	2509.176354
379.148991	2513.612569
379.534727	2515.301356
379.920402	2512.624503
380.306013	2511.974194
380.691563	2514.656088
381.077049	2512.758093
381.462474	2513.345388
381.847835	2512.480830
382.233134	2512.823628
382.618371	2513.196674
383.003545	2512.987466
383.388657	2512.788340
383.773706	2512.024606
384.158693	2514.807323
384.543618	2516.992663
384.928480	2515.071983
385.313280	2514.610717
385.698017	2516.037364
386.082692	2515.951664
386.467305	2514.630882
386.851856	2515.475275
387.236344	2518.121881
387.620770	2516.866634
388.005133	2515.006448
388.389435	2517.527025
388.773674	2515.540810
389.157851	2514.976201
389.541965	2519.283867
389.926018	2516.629700
390.310008	2517.927797
390.693936	2517.698424
391.077802	2520.070287
391.461606	2517.010307
391.845348	2517.456449
392.229027	2518.643641
392.612645	2518.565503
392.996200	2518.414268
393.379694	2518.749505
393.763125	2518.802437
394.146494	2522.328724
394.529801	2521.234794
394.913047	2518.066428
395.296230	2523.442819
395.679351	2518.326048
396.062410	2520.881913
396.445408	2521.806965
396.828343	2521.696059
397.211217	2517.093486
397.594028	2516.816222
397.976778	2517.761439
398.359466	2517.814371
398.742092	2518.724299
399.124656	2523.079856
399.507158	2519.525842
399.889598	2525.960875
400.271977	2522.033817
400.654294	2525.139167
401.036549	2523.493231
401.418742	2526.031452
401.800874	2523.415093
402.182944	2523.001718
402.564952	2526.401976
402.946898	2524.670340
403.328783	2523.682274
403.710606	2523.974661
404.092367	2525.179497
404.474067	2526.195289
404.855705	2524.446009
405.237282	2524.309898
405.618797	2526.775022
406.000250	2528.078160
406.381642	2522.394259
406.762972	2523.299146
407.144240	2524.022552
407.525447	2528.350382
407.906593	2525.625639
408.287677	2526.643952
408.668700	2526.286030
409.049661	2525.751668
409.430560	2525.645803
409.811399	2525.270237
410.192176	2525.517254
410.572891	2529.159487
410.953545	2526.291071
411.334138	2526.827954
411.714669	2525.749147
412.095139	2527.768129
412.475547	2527.054806
412.855894	2530.187883
413.236180	2527.127903
413.616405	2527.364837
413.996568	2528.995650
414.376670	2531.065044
414.756711	2528.133613
415.136691	2527.304343
415.516609	2529.129241
415.896466	2531.377595
416.276262	2529.043541
416.655997	2525.239990
417.035670	2526.245701
417.415283	2528.496576
417.794834	2524.972809
418.174324	2530.802904
418.553753	2530.777698
418.933121	2530.276103
419.312428	2531.231402
419.691674	2531.415404
420.070859	2531.478418
420.449983	2529.081350
420.829045	2534.913965
421.208047	2531.180990
421.586988	2530.271062
421.965867	2534.543440
422.344686	2529.472039
422.723444	2531.798532
423.102141	2533.212575
423.480777	2532.128727
423.859352	2534.122503
424.237866	2531.301978
424.616319	2534.530837
424.994712	2531.453213
425.373044	2533.220137
425.751314	2532.290044
426.129524	2529.640918
426.507673	2534.772812
426.885762	2529.119158
427.263789	2535.907072
427.641756	2534.863553
428.019662	2532.395908
428.397508	2534.306506
428.775292	2533.928419
429.153016	2533.527647
429.530679	2536.582587
429.908282	2533.719211
430.285824	2535.284489
430.663305	2531.319622
431.040726	2532.247194
431.418086	2534.359438
431.795385	2537.706764
432.172624	2532.398429
432.549802	2535.196269
432.926920	2534.306506
433.303977	2534.523275
433.680974	2536.822041
434.057910	2535.339942
434.434786	2532.804242
434.811601	2535.599562
435.188355	2534.243491
435.565050	2536.456558
435.941683	2533.870446
436.318257	2532.665610
436.694770	2533.182328
437.071222	2534.513193
437.447614	2532.491690
437.823946	2535.264325
438.200218	2537.921013
438.576429	2537.452186
438.952580	2536.471681
439.328670	2541.477547
439.704700	2537.416897
440.080670	2537.434542
440.456580	2537.091743
440.832429	2538.725077
441.208218	2537.341280
441.583947	2534.997144
441.959616	2537.699202
442.335224	2538.044521
442.710773	2537.111908
443.086261	2536.176774
443.461689	2536.317926
443.837057	2537.926054
444.212365	2537.459747
444.587612	2537.605941
444.962800	2538.087371
445.337927	2538.319264
445.712995	2538.057124
446.088002	2538.110056
446.462949	2536.759027
446.837837	2538.185673
447.212664	2537.951260
447.587431	2539.312371
447.962139	2539.022505
448.336786	2538.800694
448.711374	2539.309851
449.085901	2540.602907
449.460369	2538.682227
449.834776	2537.699202
450.209124	2540.376055
450.583412	2539.100643
450.957640	2539.433359
451.331808	2540.514687
451.705917	2539.766075
452.079965	2539.529141
452.453954	2538.541075
452.827883	2541.757331
453.201752	2539.355221
453.575562	2541.253216
453.949311	2539.892104
454.323001	2540.481919
454.696632	2539.972762
455.070202	2540.381096
455.443713	2540.003009
455.817164	2537.593338
456.190556	2536.083512
456.563888	2538.873791
456.937160	2535.445806
457.310373	2539.967721
457.683526	2538.636857
458.056619	2540.618030
458.429653	2542.899152
458.802628	2540.635674
459.175542	2542.969728
459.548398	2540.527289
459.921194	2539.022505
460.293930	2539.819007
460.666607	2538.858667
461.039224	2543.690613
461.411782	2541.222969
461.784280	2541.316230
462.156719	2540.449152
462.529099	2542.846220
462.901419	2541.860675
463.273680	2542.475695
463.645882	2541.069213
464.018024	2542.808412
464.390106	2541.822866
464.762130	2542.153062
465.134094	2543.463762
465.505999	2542.049718
465.877845	2539.763555
466.249631	2543.983000
466.621358	2543.501570
466.993026	2546.143135
467.364634	2542.694986
467.736184	2543.708257
468.107674	2541.275901
468.479105	2543.060469
468.850477	2542.924358
469.221790	2542.657177
469.593043	2542.795809
469.964238	2542.584080
470.335373	2543.388144
470.706449	2543.146169
471.077467	2540.302958
471.448425	2547.108516
471.819324	2544.877805
472.190164	2545.727240
472.560945	2543.294883
472.931667	2543.126004
473.302330	2543.090716
473.672934	2546.795964
474.043479	2546.024668
474.413965	2542.168185
474.784393	2540.605427
475.154761	2541.056611
475.525070	2540.870088
475.895321	2541.401930
476.265513	2540.290355
476.635645	2543.032743
477.005719	2543.491488
477.375734	2543.846889
477.745691	2542.634492
478.115588	2544.524924
478.485427	2543.816642
478.855207	2544.852599
479.224928	2546.864020
479.594591	2546.029709
479.964194	2543.032743
480.333739	2547.874771
480.703226	2545.341591
481.072653	2545.618855
481.442022	2544.426622
481.811333	2542.553833
482.180584	2542.929399
482.549777	2543.105840
482.918912	2543.327650
483.287988	2545.018958
483.657005	2546.727909
484.025964	2544.603062
484.394864	2544.764379
484.763706	2546.881664
485.132489	2546.001982
485.501213	2548.809905
485.869879	2546.715306
486.238487	2542.137938
486.607036	2544.895449
486.975527	2545.127342
487.343959	2545.409647
487.712333	2547.526932
488.080648	2545.631458
488.448905	2544.575336
488.817104	2545.971736
489.185244	2546.266643
489.553326	2547.174051
489.921350	2545.782692
490.289315	2547.242106
490.657222	2546.911911
491.025070	2544.892929
491.392861	2544.867723
491.760593	2546.319575
492.128267	2548.898125
492.495883	2546.798485
492.863440	2543.441076
493.230939	2547.605069
493.598380	2546.062476
493.965763	2540.544933
494.333088	2543.415871
494.700354	2541.157434
495.067563	2545.964174
495.434713	2544.119112
495.801805	2546.528783
496.168839	2548.177240
496.535815	2546.037271
496.902733	2548.336037
497.269593	2547.804195
497.636395	2543.224307
498.003139	2547.151366
498.369825	2544.897970
498.736453	2546.871582
499.103023	2545.190357
499.469535	2548.056253
499.835989	2546.622044
500.202385	2546.385110
500.568723	2545.495347
500.935003	2549.860986
501.301226	2549.233362
501.667390	2547.048022
502.033497	2547.055584
502.399546	2546.846376
502.765537	2546.669935
503.131470	2547.889895
503.497345	2548.144473
503.863163	2548.562889
504.228923	2546.967363
504.594625	2545.880995
504.960269	2544.998793
505.325856	2547.516849
505.691385	2546.680018
506.056856	2546.831252
506.422270	2543.980480
506.787625	2547.025337
507.152924	2544.950902
507.518164	2547.942827
507.883347	2546.153217
508.248472	2547.547096
508.613540	2546.644730
508.978550	2549.903836
509.343503	2549.366953
509.708398	2549.956768
510.073236	2546.425439
510.438016	2546.748073
510.802738	2544.557692
511.167403	2549.717313
511.532010	2547.428629
511.896561	2544.383772
512.261053	2549.190512
512.625488	2546.664894
512.989866	2544.068700
513.354186	2545.959133
513.718449	2543.269677
514.082655	2546.077600
514.446803	2547.121119
514.810894	2548.759494
515.174927	2552.139587
515.538904	2548.772097
515.902822	2548.474668
516.266684	2546.785882
516.630488	2548.341078
516.994235	2547.537014
517.357925	2547.970553
517.721558	2548.414175
518.085133	2548.096582
518.448651	2551.038095
518.812112	2549.745039
519.175516	2548.056253
519.538863	2545.737322
519.902152	2550.034906
520.265385	2548.336037
520.628560	2549.359391
520.991678	2547.458876
521.354739	2549.316541
521.717743	2549.127498
522.080690	2550.418033
522.443580	2545.986859
522.806413	2548.772097
523.169189	2547.166489
523.531908	2548.305790
523.894569	2548.028526
524.257174	2548.772097
524.619722	2547.378218
524.982213	2552.295863
525.344647	2547.269833
525.707025	2548.623383
526.069345	2550.143290
526.431608	2546.959802
526.793815	2546.221273
527.155964	2549.482899
527.518057	2550.498692
527.880093	2548.714123
528.242072	2549.243444
528.603995	2553.886347
528.965860	2548.247817
529.327669	2551.874927
529.689421	2547.229503
530.051117	2551.499361
530.412755	2547.176571
530.774337	2548.154555
531.135862	2552.411810
531.497331	2547.814277
531.858743	2545.815460
532.220098	2546.445604
532.581396	2544.809750
532.942638	2546.259081
533.303824	2549.215718
533.664953	2549.069525
534.026025	2547.426108
534.387040	2550.937272
534.747999	2549.465255
535.108902	2550.022303
535.469748	2549.477858
535.830537	2550.932231
536.191270	2550.155893
536.551947	2547.526932
536.912567	2548.053732
537.273131	2550.208825
537.633638	2548.381407
537.994089	2549.094730
538.354483	2549.371994
538.714821	2547.736139
539.075103	2550.511295
539.435328	2549.293856
539.795497	2550.919628
540.155609	2551.370811
540.515665	2551.811912
540.875665	2551.842159
541.235609	2549.863506
541.595496	2552.946172
541.955328	2547.378217
542.315102	2550.362581
542.674821	2550.886861
543.034483	2550.138249
543.394090	2545.981818
543.753640	2551.751418
544.113134	2548.799823
544.472571	2550.733105
544.831953	2548.278063
545.191278	2548.764535
545.550548	2548.179761
545.909761	2550.100441
546.268918	2550.813764
546.628019	2549.911397
546.987064	2547.209339
547.346053	2550.503733
547.704986	2550.367622
548.063863	2551.360729
548.422684	2550.977601
548.781449	2552.492468
549.140158	2548.454504
549.498811	2552.437015
549.857408	2549.621531
550.215949	2549.684545
550.574434	2548.210008
550.932864	2548.724206
551.291237	2545.782692
551.649555	2550.574309
552.007817	2551.194371
552.366022	2551.975750
552.724173	2548.978784
553.082267	2553.717468
553.440305	2548.794782
553.798288	2551.481717
554.156215	2551.794268
554.514086	2550.760832
554.871902	2552.802499
555.229661	2548.381407
555.587365	2546.899308
555.945014	2551.506922
556.302606	2548.293187
556.660143	2549.808054
557.017625	2550.402910
557.375050	2549.893753
557.732421	2550.468445
558.089735	2548.736808
558.446994	2550.841490
558.804197	2549.271171
559.161345	2550.375183
559.518437	2547.915100
559.875474	2550.324772
560.232455	2549.636654
560.589381	2549.682025
560.946251	2553.891388
561.303065	2549.195553
561.659825	2549.329144
562.016528	2551.794268
562.373177	2546.962322
562.729770	2548.252858
563.086307	2550.319731
563.442789	2548.388969
563.799216	2551.479196
564.155587	2549.888712
564.511904	2553.460370
564.868164	2551.867365
565.224370	2551.890050
565.580520	2551.196892
565.936615	2552.247972
566.292654	2548.635985
566.648638	2550.952396
567.004567	2550.289484
567.360441	2549.913918
567.716260	2551.388455
568.072023	2550.438198
568.427732	2547.413506
568.783385	2548.673794
569.138982	2545.674307
569.494525	2545.964174
569.850013	2546.236396
570.205445	2550.163455
570.560823	2551.779145
570.916145	2551.920297
571.271412	2550.385266
571.626625	2550.879299
571.981782	2550.105482
572.336884	2552.976419
572.691931	2549.205636
573.046923	2551.116233
573.401860	2550.375183
573.756743	2550.458363
574.111570	2550.236552
574.466342	2550.407951
574.821059	2550.775955
575.175722	2548.764535
575.530330	2551.658157
575.884882	2550.226469
576.239380	2550.516336
576.593823	2551.869886
576.948211	2549.392158
577.302544	2551.385935
577.656823	2548.376366
578.011047	2553.205791
578.365216	2551.915256
578.719330	2550.624721
579.073389	2551.857283
579.427394	2548.451983
579.781344	2550.889381
580.135239	2552.174875
580.489080	2548.605738
580.842866	2553.961964
581.196597	2554.695452
581.550273	2549.944165
581.903895	2552.192519
582.257463	2551.103630
582.610975	2549.765204
582.964434	2549.936603
583.317837	2552.351316
583.671186	2552.124464
584.024481	2551.597663
584.377721	2553.062118
584.730906	2549.843342
585.084037	2552.384083
585.437113	2550.400389
585.790135	2550.211346
586.143103	2552.305945
586.496016	2551.816953
586.848874	2549.001469
587.201679	2550.476007
587.554428	2547.529452
587.907124	2550.067673
588.259765	2545.417209
588.612352	2552.086655
588.964884	2550.244113
589.317362	2548.603218
589.669786	2550.289484
590.022155	2553.286450
590.374470	2550.992725
590.726731	2550.312169
591.078937	2552.384083
591.431090	2553.208312
591.783188	2549.611449
592.135232	2552.845349
592.487222	2550.559186
592.839157	2551.050698
593.191038	2553.001625
593.542866	2551.317879
593.894639	2548.895605
594.246358	2552.406768
594.598022	2551.025492
594.949633	2551.806871
595.301190	2549.727395
595.652692	2552.923487
596.004141	2550.216387
596.355535	2552.477345
596.706876	2550.470965
597.058162	2551.650595
597.409395	2552.782334
597.760573	2550.609597
598.111698	2551.212015
598.462768	2552.550441
598.813785	2551.968188
599.164748	2551.824515
599.515657	2550.813764
599.866511	2552.646223
600.217312	2549.445091
600.568060	2551.239741
600.918753	2556.167469
601.269392	2550.246634
601.619978	2552.096738
601.970510	2550.360060
602.320988	2551.887530
602.671412	2548.315872
603.021783	2551.053219
603.372100	2553.089845
603.722363	2550.135729
604.072572	2551.123795
604.422728	2550.670091
604.772830	2547.322765
605.122878	2548.961140
605.472872	2548.507436
605.822813	2545.631458
606.172701	2548.938455
606.522534	2550.271840
606.872314	2552.333672
607.222041	2552.651264
607.571714	2549.858465
607.921333	2551.796789
608.270899	2550.685214
608.620411	2550.130688
608.969870	2551.746377
609.319276	2550.622200
609.668627	2554.831563
610.017926	2556.200237
610.367171	2558.425906
610.716362	2556.684187
611.065500	2557.914229
611.414585	2553.344423
611.763616	2556.943807
612.112594	2555.234856
612.461518	2552.799978
612.810389	2554.897098
613.159207	2551.791748
613.507971	2552.545400
613.856682	2553.311656
614.205340	2551.479196
614.553945	2553.679660
614.902496	2552.142108
615.250994	2552.018600
615.599439	2552.016079
615.947830	2551.267468
616.296169	2550.985163
616.644454	2553.525905
616.992686	2549.959288
617.340864	2551.239741
617.688990	2553.936759
618.037063	2553.767880
618.385082	2554.526574
618.733048	2552.371480
619.080961	2550.859134
619.428821	2552.046326
619.776628	2552.268137
620.124382	2551.827036
620.472083	2549.709751
620.819731	2551.574978
621.167326	2549.903836
621.514868	2552.772252
621.862357	2547.995759
622.209793	2551.453990
622.557176	2549.860986
622.904506	2547.819318
623.251783	2547.647919
623.599007	2548.164638
623.946179	2548.570450
624.293297	2548.210008
624.640363	2548.371325
624.987376	2549.702189
625.334336	2554.264434
625.681243	2553.377191
626.028097	2549.684545
626.374899	2549.571119
626.721647	2549.210677
627.068343	2550.178578
627.414987	2551.698486
627.761577	2551.786707
628.108115	2550.407951
628.454600	2550.594474
628.801032	2550.649926
629.147412	2548.547765
629.493739	2549.961809
629.840014	2551.643034
630.186236	2552.237890
630.532405	2553.112530
630.878521	2550.788558
631.224585	2552.000956
631.570597	2553.344423
631.916556	2550.100441
632.262462	2551.282591
632.608316	2549.389638
632.954117	2550.556665
633.299866	2549.815615
633.645562	2548.769576
633.991206	2551.282591
634.336797	2550.443239
634.682336	2553.006666
635.027823	2550.919628
635.373257	2550.854093
635.718639	2552.147149
636.063968	2549.790410
636.409245	2553.765359
636.754470	2548.988866
637.099642	2551.648075
637.444762	2553.077242
637.789829	2551.171686
638.134845	2550.894422
638.479808	2549.772766
638.824719	2547.839483
639.169577	2550.349978
639.514383	2550.060111
639.859137	2550.760832
640.203839	2552.792417
640.548489	2548.240255
640.893086	2547.819318
641.237632	2545.293700
641.582125	2548.489792
641.926566	2545.850748
642.270955	2549.571119
642.615292	2549.714792
642.959576	2548.179761
643.303809	2550.251675
643.647990	2550.082797
643.992118	2550.574309
644.336195	2550.559186
