Dividing Wavelength (nm)	Counts (n)	Blue Motor Position (mm): 49.900000	Red Motor Position (mm): 0.000000	
326.493990	2131.273817
326.888308	2131.273817
327.282561	2131.273817
327.676750	2096.474732
328.070874	2094.412900
328.464933	2096.903230
328.858929	2103.686103
329.252859	2114.849738
329.646726	2127.513117
330.040528	2139.702627
330.434265	2156.214926
330.827938	2174.693275
331.221547	2191.104752
331.615091	2209.245344
332.008571	2227.582541
332.401986	2251.044071
332.795338	2269.219951
333.188625	2286.911881
333.581847	2307.338636
333.975006	2324.375215
334.368100	2342.480519
334.761129	2363.239991
335.154095	2377.188864
335.546996	2399.430434
335.939833	2426.743406
336.332606	2439.333688
336.725315	2454.870524
337.117960	2460.209106
337.510540	2471.851651
337.903056	2481.255923
338.295508	2486.120637
338.687896	2495.882831
339.080220	2505.844151
339.472480	2512.939575
339.864676	2515.351767
340.256807	2523.367202
340.648875	2522.434588
341.040879	2526.767460
341.432818	2526.409538
341.824694	2530.568490
342.216506	2528.047913
342.608253	2530.734848
342.999937	2530.795342
343.391557	2529.978675
343.783113	2525.489527
344.174605	2527.115300
344.566033	2527.659744
344.957397	2523.341996
345.348697	2521.970802
345.739934	2521.058353
346.131106	2520.176151
346.522215	2520.017355
346.913260	2515.903773
347.304241	2516.745646
347.695159	2512.090141
348.086012	2512.017044
348.476802	2509.471261
348.867528	2510.086282
349.258191	2505.108142
349.648789	2505.798781
350.039324	2503.308451
350.429796	2505.098060
350.820203	2504.359531
351.210548	2500.891217
351.600828	2499.827534
351.991045	2500.140085
352.381198	2497.889210
352.771288	2499.343583
353.161314	2497.528768
353.551276	2500.099756
353.941175	2502.007833
354.331010	2497.158243
354.720782	2498.053048
355.110490	2498.660507
355.500135	2497.369971
355.889717	2500.823162
356.279235	2500.364417
356.668689	2499.197390
357.058080	2499.832575
357.447408	2500.137565
357.836672	2496.941473
358.225873	2499.290651
358.615010	2497.501041
359.004084	2504.848523
359.393095	2501.720487
359.782043	2504.543533
360.170927	2502.829541
360.559748	2504.505725
360.948505	2506.323061
361.337199	2507.409429
361.725830	2505.776095
362.114398	2508.097547
362.502903	2509.690551
362.891344	2511.454955
363.279722	2510.040912
363.668037	2508.871364
364.056289	2510.877743
364.444478	2508.707526
364.832603	2511.951509
365.220665	2511.621313
365.608665	2513.305059
365.996601	2513.902435
366.384474	2516.591891
366.772284	2515.382014
367.160031	2518.363857
367.547715	2518.189937
367.935336	2520.299660
368.322893	2523.737727
368.710388	2526.472553
369.097820	2533.610826
369.485189	2537.202648
369.872495	2541.832948
370.259738	2547.123639
370.646918	2555.108827
371.034035	2561.342214
371.421090	2570.265056
371.808081	2582.913311
372.195010	2589.643251
372.581875	2603.975252
372.968678	2616.865482
373.355418	2625.821092
373.742096	2648.100471
374.128710	2659.748057
374.515262	2673.127280
374.901751	2689.843746
375.288177	2704.447968
375.674540	2723.715258
376.060841	2742.932137
376.447079	2763.270672
376.833254	2783.553755
377.219367	2794.316618
377.605417	2833.730879
377.991404	2841.814370
378.377329	2863.803883
378.763191	2882.796430
379.148991	2918.762542
379.534727	2944.154834
379.920402	2973.668269
380.306013	2986.402224
380.691563	3032.949718
381.077049	3056.930487
381.462474	3073.021850
381.847835	3116.005248
382.233134	3135.234729
382.618371	3133.881179
383.003545	3204.122097
383.388657	3211.777089
383.773706	3244.426122
384.158693	3261.329110
384.543618	3284.341978
384.928480	3322.667350
385.313280	3367.843650
385.698017	3370.102087
386.082692	3423.346754
386.467305	3429.980912
386.851856	3456.139460
387.236344	3481.698110
387.620770	3510.200793
388.005133	3537.896893
388.389435	3566.812951
388.773674	3578.536154
389.157851	3620.067700
389.541965	3634.155205
389.926018	3600.329062
390.310008	3671.086698
390.693936	3687.024306
391.077802	3729.327148
391.461606	3722.309862
391.845348	3781.810601
392.229027	3786.408133
392.612645	3795.882982
392.996200	3872.324518
393.379694	3915.113832
393.763125	3975.519458
394.146494	3946.694140
394.529801	4007.503059
394.913047	4058.436357
395.296230	4021.222559
395.679351	4076.725663
396.062410	4098.251390
396.445408	4080.365376
396.828343	4112.109522
397.211217	4138.714211
397.594028	4060.583888
397.976778	4123.071511
398.359466	4150.941530
398.742092	4177.838606
399.124656	4104.373871
399.507158	4185.705327
399.889598	4205.265003
400.271977	4267.611474
400.654294	4241.480653
401.036549	4246.433586
401.418742	4217.247826
401.800874	4319.331192
402.182944	4344.103422
402.564952	4406.318822
402.946898	4392.422881
403.328783	4386.413826
403.710606	4303.935508
404.092367	4495.280064
404.474067	4455.684321
404.855705	4465.121361
405.237282	4397.161566
405.618797	4505.004449
406.000250	4540.693298
406.381642	4623.002738
406.762972	4580.399946
407.144240	4591.898818
407.525447	4597.471814
407.906593	4654.492305
408.287677	4694.592163
408.668700	4622.405361
409.049661	4673.557949
409.430560	4717.463878
409.811399	4644.493176
410.192176	4804.244821
410.572891	4739.624791
410.953545	4847.747458
411.334138	4725.683480
411.714669	4794.817863
412.095139	4687.388354
412.475547	4829.715251
412.855894	4810.647087
413.236180	4821.747707
413.616405	4775.104431
413.996568	4861.499726
414.376670	4804.320438
414.756711	4760.268316
415.136691	4790.588335
415.516609	4870.891396
415.896466	4904.178134
416.276262	4942.606850
416.655997	4918.537861
417.035670	5100.493268
417.415283	5192.549778
417.794834	5135.720851
418.174324	5086.884673
418.553753	4998.309080
418.933121	5182.336401
419.312428	5245.189507
419.691674	5185.456875
420.070859	5312.864477
420.449983	5224.919027
420.829045	5345.354713
421.208047	5246.601030
421.586988	5323.017361
421.965867	5337.109906
422.344686	5465.913907
422.723444	5322.188091
423.102141	5137.828053
423.480777	5440.304846
423.859352	5206.808682
424.237866	5464.136901
424.616319	5453.633657
424.994712	5564.095420
425.373044	5441.202171
425.751314	5583.725673
426.129524	5384.768975
426.507673	5585.631229
426.885762	5665.475544
427.263789	5597.470379
427.641756	5479.106607
428.019662	5599.098672
428.397508	5606.310042
428.775292	5555.437238
429.153016	5655.471374
429.530679	5579.506227
429.908282	5661.798022
430.285824	5537.095000
430.663305	5809.342513
431.040726	5542.917532
431.418086	5544.845774
431.795385	5647.846629
432.172624	5658.249050
432.549802	5656.396426
432.926920	5668.812788
433.303977	5677.952400
433.680974	5713.333738
434.057910	5732.159927
434.434786	5741.528912
434.811601	5706.686977
435.188355	5940.084838
435.565050	5813.851825
435.941683	5799.771883
436.318257	6017.322877
436.694770	5995.381255
437.071222	6027.211100
437.447614	5962.281039
437.823946	5874.345672
438.200218	6029.303179
438.576429	5896.637654
438.952580	5992.167519
439.328670	6042.453029
439.704700	5949.829389
440.080670	5931.499753
440.456580	6202.313058
440.832429	6085.408701
441.208218	5930.226862
441.583947	6086.217806
441.959616	6095.241471
442.335224	6013.930180
442.710773	6151.137785
443.086261	6179.166601
443.461689	5977.384336
443.837057	6125.493436
444.212365	6276.685201
444.587612	6167.713099
444.962800	6325.309651
445.337927	6301.787627
445.712995	5916.698926
446.088002	6496.229972
446.462949	6325.171019
446.837837	6248.578248
447.212664	6429.346463
447.587431	6569.538431
447.962139	7114.542614
448.336786	8044.060807
448.711374	7781.489789
449.085901	6851.621236
449.460369	6772.142404
449.834776	6710.781479
450.209124	7100.588701
450.583412	7249.587564
450.957640	7397.802528
451.331808	7157.102556
451.705917	6716.523354
452.079965	6635.554861
452.453954	6846.025555
452.827883	6724.495938
453.201752	6817.485062
453.575562	6619.526513
453.949311	6820.222409
454.323001	6711.580502
454.696632	6784.452902
455.070202	6925.849705
455.443713	7080.338386
455.817164	7180.954775
456.190556	7261.691375
456.563888	7331.932292
456.937160	7379.309056
457.310373	7038.332971
457.683526	7060.559418
458.056619	6950.231246
458.429653	6941.623476
458.802628	6876.232149
459.175542	6983.165104
459.548398	7339.342788
459.921194	7497.629978
460.293930	7496.810790
460.666607	8028.478601
461.039224	8339.270777
461.411782	8464.445147
461.784280	8484.534145
462.156719	8368.522072
462.529099	8249.797858
462.901419	7840.516659
463.273680	7738.140907
463.645882	7749.662464
464.018024	7611.305476
464.390106	7781.620859
464.762130	8168.231988
465.134094	8637.936457
465.505999	9659.037292
465.877845	10884.619930
466.249631	11532.098168
466.621358	11154.031794
466.993026	10518.944712
467.364634	10260.946020
467.736184	9898.726513
468.107674	9566.627901
468.479105	9600.280123
468.850477	9360.923618
469.221790	9132.549267
469.593043	8807.586407
469.964238	8668.140530
470.335373	8682.013786
470.706449	8738.114266
471.077467	8720.777738
471.448425	10027.812819
471.819324	11099.912487
472.190164	11124.324275
472.560945	9874.435713
472.931667	9086.596629
473.302330	8951.299621
473.672934	8594.668233
474.043479	8956.489489
474.413965	8894.868945
474.784393	8778.851830
475.154761	8938.711860
475.525070	9023.872072
475.895321	8847.358591
476.265513	9024.434161
476.635645	9192.254172
477.005719	9196.120737
477.375734	9312.583994
477.745691	9550.332371
478.115588	9684.376652
478.485427	9926.523436
478.855207	10462.299787
479.224928	11278.656679
479.594591	11904.833522
479.964194	11717.600027
480.333739	11654.537713
480.703226	11577.322359
481.072653	11666.928869
481.442022	11898.101061
481.811333	12088.651635
482.180584	11893.725339
482.549777	11602.316400
482.918912	11427.716037
483.287988	11448.931733
483.657005	11462.656274
484.025964	11143.715073
484.394864	11276.846905
484.763706	11247.638459
485.132489	10999.782569
485.501213	10964.885181
485.869879	11042.052644
486.238487	10891.241485
486.607036	10988.750004
486.975527	10774.228743
487.343959	10969.797786
487.712333	11013.338232
488.080648	10947.543612
488.448905	10985.372431
488.817104	10928.200705
489.185244	11193.320027
489.553326	11347.218892
489.921350	11885.815769
490.289315	12949.781535
490.657222	13297.263228
491.025070	13194.136344
491.392861	13069.329978
491.760593	12690.988861
492.128267	12341.019358
492.495883	12020.091943
492.863440	11673.585713
493.230939	11338.903509
493.598380	11266.792323
493.965763	11141.486883
494.333088	11047.446678
494.700354	10965.356529
495.067563	11024.965653
495.434713	10850.014929
495.801805	10980.658952
496.168839	10902.624411
496.535815	10837.878351
496.902733	10841.709628
497.269593	10776.509865
497.636395	10880.355114
498.003139	10866.698628
498.369825	10724.275949
498.736453	10888.191587
499.103023	10811.934053
499.469535	10843.237098
499.835989	10829.734367
500.202385	10797.039964
500.568723	10647.418518
500.935003	10867.863134
501.301226	10672.561273
501.667390	10936.702611
502.033497	11029.434636
502.399546	10891.163348
502.765537	10796.981991
503.131470	10868.309277
503.497345	11042.178673
503.863163	10654.400516
504.228923	10966.584050
504.594625	11031.660305
504.960269	10776.061202
505.325856	10990.118677
505.691385	10787.449169
506.056856	10943.845926
506.422270	10968.892899
506.787625	10856.318892
507.152924	10972.235184
507.518164	10958.293873
507.883347	10879.057017
508.248472	10795.507453
508.613540	11034.516119
508.978550	10911.806873
509.343503	10890.124870
509.708398	11003.565955
510.073236	11118.549633
510.438016	11132.982456
510.802738	11079.120248
511.167403	11131.951540
511.532010	11023.009685
511.896561	11254.680951
512.261053	11331.341778
512.625488	11199.092148
512.989866	11180.465084
513.354186	11174.375371
513.718449	11069.347971
514.082655	11266.792323
514.446803	11159.801395
514.810894	11276.831781
515.174927	11144.138530
515.538904	11166.738023
515.902822	11322.459265
516.266684	11204.433250
516.630488	11147.271607
516.994235	11203.402334
517.357925	11263.076993
517.721558	11354.904131
518.085133	11374.627645
518.448651	11381.377750
518.812112	11258.386199
519.175516	11278.833119
519.538863	11403.347099
519.902152	11311.792183
520.265385	11477.031124
520.628560	11391.152548
520.991678	11366.516429
521.354739	11423.899883
521.717743	11362.342353
522.080690	11347.100425
522.443580	11476.554735
522.806413	11437.304311
523.169189	11459.407250
523.531908	11526.255471
523.894569	11341.300577
524.257174	11347.075219
524.619722	11464.705503
524.982213	11411.115517
525.344647	11465.060904
525.707025	11419.294789
526.069345	11513.337514
526.431608	11422.876529
526.793815	11531.644464
527.155964	11318.612864
527.518057	11372.056657
527.880093	11325.345325
528.242072	11394.318392
528.603995	11300.250462
528.965860	11215.344828
529.327669	11268.806264
529.689421	11223.932433
530.051117	11187.754593
530.412755	11291.317537
530.774337	11185.821310
531.135862	11159.244347
531.497331	11191.094357
531.858743	11035.826819
532.220098	11211.768129
532.581396	11075.538508
532.942638	11059.051415
533.303824	11016.461226
533.664953	11039.733713
534.026025	10944.125710
534.387040	11049.614375
534.747999	11056.407329
535.108902	11112.492687
535.469748	10863.308452
535.830537	10970.695111
536.191270	10950.674169
536.551947	10977.475463
536.912567	10973.319032
537.273131	10894.999666
537.633638	10879.213292
537.994089	10864.427588
538.354483	10815.697274
538.714821	10961.152207
539.075103	10968.081273
539.435328	10930.451580
539.795497	10758.623851
540.155609	10917.798284
540.515665	11002.129226
540.875665	10744.306974
541.235609	10807.762498
541.595496	10810.237705
541.955328	10961.593308
542.315102	10841.084525
542.674821	10791.348501
543.034483	10790.904880
543.394090	10804.034565
543.753640	10725.248892
544.113134	10952.816659
544.472571	10797.158431
544.831953	10943.460278
545.191278	10749.927861
545.550548	10784.358942
545.909761	10921.374982
546.268918	10884.355269
546.628019	10969.943979
546.987064	10840.545122
547.346053	10765.275654
547.704986	10863.263082
548.063863	10851.040804
548.422684	10837.243166
548.781449	10756.012533
549.140158	10857.080106
549.498811	10739.648948
549.857408	10599.537639
550.215949	10827.601959
550.574434	10676.689978
550.932864	10770.052147
551.291237	10834.369708
551.649555	10774.271593
552.007817	10791.527462
552.366022	10749.862326
552.724173	10743.051727
553.082267	10733.400438
553.440305	10872.942097
553.798288	10677.007570
554.156215	10825.782103
554.514086	10800.097424
554.871902	10649.175360
555.229661	10692.637668
555.587365	10661.899232
555.945014	10551.760103
556.302606	10686.610968
556.660143	10571.576879
557.017625	10726.587318
557.375050	10632.103492
557.732421	10762.034192
558.089735	10678.996306
558.446994	10678.993785
558.804197	10711.320184
559.161345	10718.529034
559.518437	10564.806609
559.875474	10649.674434
560.232455	10678.194762
560.589381	10627.437905
560.946251	10630.041661
561.303065	10732.142670
561.659825	10673.781232
562.016528	10597.657288
562.373177	10478.986006
562.729770	10596.651578
563.086307	10518.591831
563.442789	10601.475962
563.799216	10486.855247
564.155587	10529.727740
564.511904	10480.226130
564.868164	10483.790226
565.224370	10492.614766
565.580520	10414.693651
565.936615	10420.274208
566.292654	10292.002048
566.648638	10417.221789
567.004567	10379.927333
567.360441	10359.611483
567.716260	10273.914388
568.072023	10371.680005
568.427732	10317.689248
568.783385	10227.439991
569.138982	10296.685280
569.494525	10314.911572
569.850013	10186.347025
570.205445	10268.180076
570.560823	10166.852883
570.916145	10087.404299
571.271412	10154.512139
571.626625	10097.410989
571.981782	10075.108925
572.336884	10046.354183
572.691931	10053.855420
573.046923	9996.038427
573.401860	9958.086100
573.756743	9890.761490
574.111570	9936.981309
574.466342	9912.866950
574.821059	9949.808525
575.175722	9835.616308
575.530330	9849.842444
575.884882	9842.172329
576.239380	9767.265824
576.593823	9749.309234
576.948211	9761.375236
577.302544	9643.681937
577.656823	9655.747939
578.011047	9665.013580
578.365216	9627.656109
578.719330	9555.940655
579.073389	9574.950846
579.427394	9518.328606
579.781344	9490.163679
580.135239	9448.690107
580.489080	9452.123132
580.842866	9351.965488
581.196597	9360.366571
581.550273	9402.329135
581.903895	9364.573413
582.257463	9434.474053
582.610975	9312.720105
582.964434	9335.680040
583.317837	9255.865972
583.671186	9238.466429
584.024481	9237.987520
584.377721	9160.691508
584.730906	9130.434502
585.084037	9156.036002
585.437113	9092.817413
585.790135	9118.313048
586.143103	9017.137090
586.496016	8991.817895
586.848874	9048.006596
587.201679	9038.178867
587.554428	8925.398173
587.907124	8966.387795
588.259765	8937.501983
588.612352	8938.021222
588.964884	8816.617634
589.317362	8834.513731
589.669786	8834.612033
590.022155	8885.671360
590.374470	8898.717866
590.726731	8839.746448
591.078937	8686.024023
591.431090	8799.265983
591.783188	8676.753342
592.135232	8661.113162
592.487222	8664.019387
592.839157	8719.318324
593.191038	8649.969691
593.542866	8595.653779
593.894639	8501.729521
594.246358	8546.111840
594.598022	8562.699756
594.949633	8460.719735
595.301190	8438.233668
595.652692	8468.420097
596.004141	8578.339936
596.355535	8355.238632
596.706876	8331.789704
597.058162	8267.777133
597.409395	8343.729677
597.760573	8408.125377
598.111698	8316.386459
598.462768	8306.684758
598.813785	8272.167978
599.164748	8237.573060
599.515657	8227.710042
599.866511	8133.778223
600.217312	8257.553673
600.568060	8122.491079
600.918753	8221.373312
601.269392	8192.416924
601.619978	8104.559695
601.970510	8170.848347
602.320988	8165.671082
602.671412	8224.440854
603.021783	8155.646748
603.372100	8127.449054
603.722363	8131.139178
604.072572	8109.540355
604.422728	8122.634752
604.772830	8051.647744
605.122878	8055.955410
605.472872	8047.871920
605.822813	8083.376766
606.172701	8024.244032
606.522534	8098.389322
606.872314	8095.125175
607.222041	8071.028460
607.571714	8123.521995
607.921333	8083.396931
608.270899	8092.075277
608.620411	8178.233638
608.969870	8077.980211
609.319276	8077.324861
609.668627	8088.871624
610.017926	8129.170608
610.367171	8174.057042
610.716362	8151.548290
611.065500	8145.682907
611.414585	8169.986310
611.763616	8163.498345
612.112594	8141.201322
612.461518	8161.686050
612.810389	8215.918783
613.159207	8156.342427
613.507971	8109.074048
613.856682	8217.032878
614.205340	8185.261006
614.553945	8256.489989
614.902496	8157.829567
615.250994	8209.133390
615.599439	8189.488014
615.947830	8208.147845
616.296169	8177.653905
616.644454	8189.866100
616.992686	8188.749485
617.340864	8244.043381
617.688990	8153.040471
618.037063	8241.598421
618.385082	8192.671502
618.733048	8279.976725
619.080961	8215.031540
619.428821	8229.913026
619.776628	8239.478616
620.124382	8181.926283
620.472083	8167.710229
620.819731	8190.450874
621.167326	8088.498579
621.514868	8096.672810
621.862357	7986.374884
622.209793	8004.351639
622.557176	7940.301258
622.904506	7910.848317
623.251783	7842.512956
623.599007	7794.700132
623.946179	7804.338819
624.293297	7754.443998
624.640363	7671.925351
624.987376	7662.621902
625.334336	7607.791792
625.681243	7554.141312
626.028097	7540.817543
626.374899	7520.363061
626.721647	7508.002152
627.068343	7444.712986
627.414987	7415.857421
627.761577	7375.344188
628.108115	7411.937924
628.454600	7299.104298
628.801032	7352.371650
629.147412	7312.251627
629.493739	7296.031715
629.840014	7239.565750
630.186236	7298.259905
630.532405	7178.043509
630.878521	7233.654997
631.224585	7186.762184
631.570597	7113.047912
631.916556	7142.831049
632.262462	7146.911863
632.608316	7098.484019
632.954117	7082.332162
633.299866	7066.797846
633.645562	7059.021867
633.991206	6976.528425
634.336797	6922.373830
634.682336	6874.248455
635.027823	6845.334917
635.373257	6835.542475
635.718639	6764.615961
636.063968	6782.822088
636.409245	6678.596233
636.754470	6672.161200
637.099642	6630.193594
637.444762	6573.462969
637.789829	6586.643066
638.134845	6528.949581
638.479808	6511.514750
638.824719	6514.786459
639.169577	6444.550583
639.514383	6463.971628
639.859137	6391.563015
640.203839	6402.880405
640.548489	6389.556636
