Dividing Wavelength (nm)	Counts (n)	Blue Motor Position (mm): 37.600000	Red Motor Position (mm): 0.000000	
326.493990	2129.088477
326.888308	2129.088477
327.282561	2129.088477
327.676750	2097.477922
328.070874	2097.639239
328.464933	2100.086719
328.858929	2105.873964
329.252859	2116.757815
329.646726	2127.545884
330.040528	2140.738584
330.434265	2156.025883
330.827938	2172.283604
331.221547	2192.622139
331.615091	2209.187371
332.008571	2227.683364
332.401986	2249.231776
332.795338	2267.500918
333.188625	2288.267951
333.581847	2307.578091
333.975006	2323.198106
334.368100	2341.757114
334.761129	2362.088087
335.154095	2377.279604
335.546996	2398.311298
335.939833	2424.933632
336.332606	2441.564398
336.725315	2453.012859
337.117960	2463.077522
337.510540	2468.277473
337.903056	2480.366159
338.295508	2486.781028
338.687896	2497.463233
339.080220	2507.013699
339.472480	2512.316992
339.864676	2517.451408
340.256807	2519.475431
340.648875	2522.721934
341.040879	2526.477594
341.432818	2527.536236
341.824694	2528.748633
342.216506	2527.836185
342.608253	2529.759385
342.999937	2529.446833
343.391557	2528.909950
343.783113	2529.651000
344.174605	2527.077491
344.566033	2523.145391
344.957397	2523.747809
345.348697	2524.740916
345.739934	2521.890144
346.131106	2519.518281
346.522215	2518.797396
346.913260	2513.221880
347.304241	2513.562157
347.695159	2513.282373
348.086012	2508.904131
348.476802	2506.829697
348.867528	2507.918586
349.258191	2505.589573
349.648789	2504.251146
350.039324	2499.913233
350.429796	2502.895076
350.820203	2502.043121
351.210548	2499.646052
351.600828	2497.783346
351.991045	2496.530619
352.381198	2497.158243
352.771288	2495.003150
353.161314	2494.481390
353.551276	2494.569610
353.941175	2494.839312
354.331010	2496.303767
354.720782	2496.792759
355.110490	2496.560866
355.500135	2494.390649
355.889717	2498.065651
356.279235	2495.779487
356.668689	2499.164622
357.058080	2498.625219
357.447408	2495.265290
357.836672	2493.785711
358.225873	2493.523571
358.615010	2496.772595
359.004084	2498.826865
359.393095	2500.805518
359.782043	2500.130003
360.170927	2502.640498
360.559748	2502.098574
360.948505	2501.433141
361.337199	2502.708553
361.725830	2502.643018
362.114398	2507.064110
362.502903	2501.997751
362.891344	2505.012361
363.279722	2507.056548
363.668037	2505.461023
364.056289	2506.393637
364.444478	2508.279028
364.832603	2508.246261
365.220665	2506.633092
365.608665	2507.253153
365.996601	2507.853051
366.384474	2508.946981
366.772284	2506.945643
367.160031	2508.528565
367.547715	2509.274656
367.935336	2511.601149
368.322893	2508.095026
368.710388	2508.687362
369.097820	2513.874709
369.485189	2508.314316
369.872495	2510.865140
370.259738	2512.158196
370.646918	2513.912518
371.034035	2510.640809
371.421090	2511.190295
371.808081	2513.562158
372.195010	2512.374966
372.581875	2511.583505
372.968678	2514.893022
373.355418	2514.106602
373.742096	2512.412774
374.128710	2514.545182
374.515262	2517.002745
374.901751	2515.908815
375.288177	2514.950995
375.674540	2517.648013
376.060841	2516.075173
376.447079	2519.137674
376.833254	2516.075173
377.219367	2514.313289
377.605417	2516.801099
377.991404	2511.379338
378.377329	2516.372601
378.763191	2513.723474
379.148991	2520.559279
379.534727	2520.095493
379.920402	2520.753363
380.306013	2517.302694
380.691563	2520.213960
381.077049	2517.300173
381.462474	2522.729496
381.847835	2519.203209
382.233134	2523.276461
382.618371	2521.721265
383.003545	2524.037675
383.388657	2523.962058
383.773706	2521.970802
384.158693	2524.347706
384.543618	2526.984230
384.928480	2522.384177
385.313280	2526.429703
385.698017	2525.418951
386.082692	2527.319466
386.467305	2525.212264
386.851856	2527.455578
387.236344	2525.519774
387.620770	2528.688140
388.005133	2527.264014
388.389435	2529.139323
388.773674	2527.826102
389.157851	2527.919364
389.541965	2532.171577
389.926018	2529.714014
390.310008	2531.296937
390.693936	2531.942204
391.077802	2531.828778
391.461606	2532.710980
391.845348	2532.363141
392.229027	2530.329035
392.612645	2532.965559
392.996200	2536.322967
393.379694	2535.080323
393.763125	2539.965201
394.146494	2539.035108
394.529801	2540.867567
394.913047	2542.180788
395.296230	2548.434339
395.679351	2553.909032
396.062410	2557.868859
396.445408	2562.337842
396.828343	2571.195149
397.211217	2577.804102
397.594028	2584.735688
397.976778	2596.242122
398.359466	2608.986159
398.742092	2623.209774
399.124656	2636.737711
399.507158	2654.366626
399.889598	2672.968483
400.271977	2694.474046
400.654294	2712.894422
401.036549	2730.498131
401.418742	2747.683424
401.800874	2778.701644
402.182944	2806.629636
402.564952	2842.121880
402.946898	2866.102649
403.328783	2890.993346
403.710606	2900.929460
404.092367	2971.775316
404.474067	2993.976557
404.855705	3026.512164
405.237282	3038.973897
405.618797	3101.068309
406.000250	3147.696462
406.381642	3208.797767
406.762972	3233.489338
407.144240	3274.441152
407.525447	3314.064621
407.906593	3371.720297
408.287677	3429.479318
408.668700	3435.369906
409.049661	3502.966738
409.430560	3562.437230
409.811399	3572.413673
410.192176	3691.410110
410.572891	3699.233980
410.953545	3799.066471
411.334138	3774.521092
411.714669	3854.057897
412.095139	3832.937983
412.475547	3962.165442
412.855894	3990.529494
413.236180	4033.827964
413.616405	4047.991086
413.996568	4146.462464
414.376670	4137.360661
414.756711	4144.385509
415.136691	4201.529508
415.516609	4293.480155
415.896466	4356.471893
416.276262	4418.105039
416.655997	4435.002987
417.035670	4610.891365
417.415283	4715.712077
417.794834	4704.099779
418.174324	4696.006207
418.553753	4644.687261
418.933121	4829.374973
419.312428	4913.050565
419.691674	4891.081217
420.070859	5026.831928
420.449983	4967.951251
420.829045	5095.913380
421.208047	5033.226632
421.586988	5118.434735
421.965867	5144.860463
422.344686	5287.434376
422.723444	5162.557434
423.102141	5009.296274
423.480777	5303.654289
423.859352	5098.204584
424.237866	5358.086147
424.616319	5357.680334
424.994712	5476.616277
425.373044	5364.480851
425.751314	5514.510631
426.129524	5328.988607
426.507673	5525.331467
426.885762	5614.595178
427.263789	5551.472371
427.641756	5439.720072
428.019662	5563.213218
428.397508	5570.293518
428.775292	5524.063617
429.153016	5622.272856
429.530679	5553.352721
429.908282	5643.092821
430.285824	5512.756309
430.663305	5787.675634
431.040726	5522.077402
431.418086	5524.139234
431.795385	5634.923631
432.172624	5645.565507
432.549802	5641.935876
432.926920	5654.102701
433.303977	5664.474875
433.680974	5705.156987
434.057910	5722.455706
434.434786	5731.628086
434.811601	5698.835380
435.188355	5929.700061
435.565050	5807.507533
435.941683	5784.419049
436.318257	5998.310165
436.694770	5986.342466
437.071222	6020.599627
437.447614	5951.104801
437.823946	5867.552717
438.200218	6015.445047
438.576429	5886.729266
438.952580	5982.226364
439.328670	6027.473240
439.704700	5940.571310
440.080670	5922.241674
440.456580	6193.188570
440.832429	6072.518470
441.208218	5925.611686
441.583947	6078.683802
441.959616	6084.894503
442.335224	6007.351475
442.710773	6145.378267
443.086261	6173.543193
443.461689	5961.857582
443.837057	6115.791735
444.212365	6271.462566
444.587612	6162.855947
444.962800	6316.545605
445.337927	6298.284025
445.712995	5911.665333
446.088002	6484.426110
446.462949	6321.039793
446.837837	6252.220482
447.212664	6421.555360
447.587431	6565.215642
447.962139	7107.933662
448.336786	8026.021038
448.711374	7765.259794
449.085901	6847.046388
449.460369	6764.671414
449.834776	6701.321754
450.209124	7091.829696
450.583412	7240.415185
450.957640	7389.424131
451.331808	7151.900085
451.705917	6704.293514
452.079965	6623.723273
452.453954	6839.877868
452.827883	6714.501851
453.201752	6806.495347
453.575562	6610.089473
453.949311	6814.016748
454.323001	6700.968873
454.696632	6775.618280
455.070202	6914.527274
455.443713	7070.114926
455.817164	7173.251892
456.190556	7249.832060
456.563888	7330.737538
456.937160	7373.763786
457.310373	7026.846702
457.683526	7052.107924
458.056619	6943.692869
458.429653	6931.400016
458.802628	6867.281580
459.175542	6976.709907
459.548398	7326.913823
459.921194	7490.695870
460.293930	7496.881366
460.666607	8016.528546
461.039224	8327.401380
461.411782	8452.311090
461.784280	8471.394378
462.156719	8363.438068
462.529099	8239.907114
462.901419	7830.139444
463.273680	7720.164152
463.645882	7743.431598
464.018024	7606.004703
464.390106	7770.376565
464.762130	8154.207498
465.134094	8632.290365
465.505999	9643.954160
465.877845	10860.954233
466.249631	11511.852894
466.621358	11126.686055
466.993026	10495.125260
467.364634	10243.556560
467.736184	9882.940140
468.107674	9550.793637
468.479105	9576.201052
468.850477	9342.467954
469.221790	9120.223645
469.593043	8793.244325
469.964238	8651.318200
470.335373	8667.974172
470.706449	8719.633396
471.077467	8707.877425
471.448425	10012.883442
471.819324	11079.178221
472.190164	11102.838877
472.560945	9857.540286
472.931667	9070.076767
473.302330	8936.632384
473.672934	8582.703055
474.043479	8938.893342
474.413965	8876.831697
474.784393	8758.351978
475.154761	8919.144621
475.525070	9004.193928
475.895321	8835.582455
476.265513	9014.669446
476.635645	9178.315382
477.005719	9173.871605
477.375734	9293.881313
477.745691	9529.489720
478.115588	9660.048043
478.485427	9907.987113
478.855207	10445.316140
479.224928	11257.725808
479.594591	11879.665561
479.964194	11691.940554
480.333739	11635.386369
480.703226	11544.121320
481.072653	11631.756738
481.442022	11868.441432
481.811333	12063.687841
482.180584	11868.864889
482.549777	11575.404200
482.918912	11404.299877
483.287988	11424.502301
483.657005	11442.645414
484.025964	11121.788574
484.394864	11250.121228
484.763706	11222.858668
485.132489	10977.956893
485.501213	10941.645462
485.869879	11020.121104
486.238487	10863.774759
486.607036	10972.648558
486.975527	10752.085475
487.343959	10944.188724
487.712333	10989.556588
488.080648	10920.911196
488.448905	10969.679319
488.817104	10909.737479
489.185244	11170.337406
489.553326	11329.179123
489.921350	11867.768438
490.289315	12922.158532
490.657222	13267.948919
491.025070	13169.928723
491.392861	13044.988767
491.760593	12663.010457
492.128267	12310.790079
492.495883	11984.317394
492.863440	11647.936322
493.230939	11320.503297
493.598380	11252.966959
493.965763	11123.585746
494.333088	11019.765703
494.700354	10938.789648
495.067563	11006.580565
495.434713	10830.850983
495.801805	10957.925868
496.168839	10883.178160
496.535815	10823.319499
496.902733	10819.125259
497.269593	10753.779302
497.636395	10851.532317
498.003139	10842.417910
498.369825	10712.003260
498.736453	10868.730213
499.103023	10792.429829
499.469535	10825.099026
499.835989	10813.244753
500.202385	10778.818713
500.568723	10627.465631
500.935003	10850.133396
501.301226	10657.490743
501.667390	10907.968034
502.033497	11005.176603
502.399546	10870.792045
502.765537	10773.533064
503.131470	10846.591986
503.497345	11021.583039
503.863163	10628.768769
504.228923	10944.299630
504.594625	11008.735658
504.960269	10756.292318
505.325856	10979.030659
505.691385	10770.014338
506.056856	10923.053687
506.422270	10950.268356
506.787625	10838.422796
507.152924	10956.171547
507.518164	10933.251941
507.883347	10860.346774
508.248472	10773.601119
508.613540	11010.222798
508.978550	10895.730633
509.343503	10871.422189
509.708398	10987.908131
510.073236	11096.539955
510.438016	11100.681263
510.802738	11059.633668
511.167403	11106.826430
511.532010	11009.098621
511.896561	11237.334341
512.261053	11308.402007
512.625488	11178.312512
512.989866	11160.234934
513.354186	11149.845116
513.718449	11051.683768
514.082655	11246.753737
514.446803	11140.856739
514.810894	11263.258475
515.174927	11129.655295
515.538904	11147.057358
515.902822	11307.928139
516.266684	11187.792402
516.630488	11130.083793
516.994235	11186.390961
517.357925	11247.088974
517.721558	11335.082314
518.085133	11347.274345
518.448651	11361.613907
518.812112	11241.899106
519.175516	11254.590211
519.538863	11385.259439
519.902152	11298.017230
520.265385	11456.576642
520.628560	11367.431398
520.991678	11343.498520
521.354739	11407.004456
521.717743	11343.075063
522.080690	11326.209883
522.443580	11467.011831
522.806413	11412.358161
523.169189	11441.833788
523.531908	11502.436019
523.894569	11318.580097
524.257174	11330.585605
524.619722	11446.958121
524.982213	11394.762014
525.344647	11447.898296
525.707025	11397.156562
526.069345	11488.774492
526.431608	11401.854917
526.793815	11518.928154
527.155964	11304.800103
527.518057	11354.400016
527.880093	11305.488220
528.242072	11374.262162
528.603995	11282.750096
528.965860	11201.302694
529.327669	11253.496280
529.689421	11204.415606
530.051117	11169.077118
530.412755	11271.528487
530.774337	11168.139463
531.135862	11147.276648
531.497331	11171.897643
531.858743	11017.237564
532.220098	11186.088492
532.581396	11060.982177
532.942638	11047.391226
533.303824	11001.829277
533.664953	11017.754282
534.026025	10931.071642
534.387040	11036.283043
534.747999	11042.135823
535.108902	11098.037178
535.469748	10855.900476
535.830537	10955.165837
536.191270	10930.844790
536.551947	10961.172372
536.912567	10959.609614
537.273131	10881.572552
537.633638	10855.716474
537.994089	10846.967552
538.354483	10798.857300
538.714821	10947.132758
539.075103	10957.399068
539.435328	10920.467575
539.795497	10737.914791
540.155609	10894.992104
540.515665	10992.745118
540.875665	10722.501463
541.235609	10793.992587
541.595496	10793.942175
541.955328	10942.096645
542.315102	10833.240490
542.674821	10774.309401
543.034483	10776.235122
543.394090	10786.183839
543.753640	10709.749865
544.113134	10930.247413
544.472571	10787.497060
544.831953	10933.619945
545.191278	10732.873637
545.550548	10764.280026
545.909761	10903.403269
546.268918	10871.722138
546.628019	10958.550972
546.987064	10822.964098
547.346053	10744.642211
547.704986	10840.028403
548.063863	10827.977525
548.422684	10823.127935
548.781449	10745.524413
549.140158	10840.537560
549.498811	10720.008613
549.857408	10578.939484
550.215949	10808.553959
550.574434	10657.677266
550.932864	10759.669891
551.291237	10812.198714
551.649555	10763.299521
552.007817	10777.780236
552.366022	10737.740871
552.724173	10730.355581
553.082267	10717.808149
553.440305	10852.780002
553.798288	10653.752728
554.156215	10800.783021
554.514086	10787.020671
554.871902	10626.306166
555.229661	10671.953814
555.587365	10645.369289
555.945014	10538.065809
556.302606	10667.822588
556.660143	10563.427854
557.017625	10716.149609
557.375050	10616.581780
557.732421	10744.039793
558.089735	10660.611218
558.446994	10661.916876
558.804197	10692.791423
559.161345	10700.101096
559.518437	10552.879239
559.875474	10635.788576
560.232455	10669.768473
560.589381	10612.238826
560.946251	10616.627150
561.303065	10712.658610
561.659825	10657.515949
562.016528	10583.834444
562.373177	10463.310538
562.729770	10581.298744
563.086307	10500.932669
563.442789	10590.738305
563.799216	10461.044540
564.155587	10518.606955
564.511904	10473.050047
564.868164	10456.754518
565.224370	10481.257046
565.580520	10402.988091
565.936615	10407.608309
566.292654	10269.919274
566.648638	10410.421273
567.004567	10357.980670
567.360441	10348.286531
567.716260	10261.578685
568.072023	10351.253250
568.427732	10308.171549
568.783385	10210.942815
569.138982	10281.156006
569.494525	10297.653182
569.850013	10170.648872
570.205445	10256.870247
570.560823	10156.432818
570.916145	10066.977543
571.271412	10141.785746
571.626625	10088.082334
571.981782	10061.880937
572.336884	10037.716166
572.691931	10040.914778
573.046923	9988.275050
573.401860	9946.473802
573.756743	9882.935099
574.111570	9926.573847
574.466342	9910.502649
574.821059	9934.246483
575.175722	9825.458383
575.530330	9840.274334
575.884882	9831.099434
576.239380	9752.729657
576.593823	9732.444054
576.948211	9749.546168
577.302544	9630.154001
577.656823	9647.709819
578.011047	9649.567484
578.365216	9624.200398
578.719330	9543.186535
579.073389	9558.763701
579.427394	9503.686574
579.781344	9484.482299
580.135239	9428.056664
580.489080	9438.801883
580.842866	9338.722377
581.196597	9346.160599
581.550273	9382.046053
581.903895	9354.216363
582.257463	9427.005583
582.610975	9294.569431
582.964434	9319.939037
583.317837	9246.680990
583.671186	9237.319567
584.024481	9225.432526
584.377721	9141.749372
584.730906	9117.307338
585.084037	9153.530549
585.437113	9082.306607
585.790135	9109.881718
586.143103	9012.615175
586.496016	8978.632757
586.848874	9038.796408
587.201679	9028.091518
587.554428	8911.776975
587.907124	8959.310015
588.259765	8932.914533
588.612352	8928.720293
588.964884	8808.536665
589.317362	8821.840270
589.669786	8822.556114
590.022155	8872.597127
590.374470	8884.854693
590.726731	8827.778749
591.078937	8675.586314
591.431090	8787.363819
591.783188	8665.158688
592.135232	8660.011670
592.487222	8652.003797
592.839157	8706.511273
593.191038	8641.619020
593.542866	8587.202285
593.894639	8483.561203
594.246358	8536.919296
594.598022	8552.761122
594.949633	8456.283519
595.301190	8426.626411
595.652692	8455.010628
596.004141	8568.867608
596.355535	8346.451900
596.706876	8323.930546
597.058162	8256.520236
597.409395	8337.778595
597.760573	8397.375116
598.111698	8306.092423
598.462768	8296.524313
598.813785	8259.434023
599.164748	8228.030155
599.515657	8215.122281
599.866511	8125.011656
600.217312	8248.572857
600.568060	8111.125798
600.918753	8219.129998
601.269392	8182.349740
601.619978	8097.902851
601.970510	8159.465422
602.320988	8160.776122
602.671412	8216.561530
603.021783	8146.996128
603.372100	8116.592929
603.722363	8130.277141
604.072572	8101.860157
604.422728	8111.040098
604.772830	8039.261629
605.122878	8045.341261
605.472872	8044.522073
605.822813	8071.343532
606.172701	8014.751539
606.522534	8090.073939
606.872314	8089.201820
607.222041	8061.598982
607.571714	8118.158207
607.921333	8074.627844
608.270899	8081.204029
608.620411	8171.317175
608.969870	8075.462155
609.319276	8066.652738
609.668627	8091.356913
610.017926	8119.315152
610.367171	8163.095053
610.716362	8138.390878
611.065500	8131.449209
611.414585	8165.640835
611.763616	8144.853637
612.112594	8132.482646
612.461518	8147.943865
612.810389	8207.031229
613.159207	8146.786920
613.507971	8094.984023
613.856682	8218.058753
614.205340	8168.907503
614.553945	8245.248216
614.902496	8149.488978
615.250994	8196.890948
615.599439	8184.615738
615.947830	8197.460598
616.296169	8168.872215
616.644454	8178.326899
616.992686	8179.415788
617.340864	8239.067762
617.688990	8142.930437
618.037063	8232.799087
618.385082	8182.145573
618.733048	8265.516175
619.080961	8203.429325
619.428821	8219.072025
619.776628	8220.891882
620.124382	8176.335643
620.472083	8164.950197
620.819731	8191.761574
621.167326	8082.993639
621.514868	8092.481090
621.862357	7970.099519
622.209793	7998.115731
622.557176	7931.126358
622.904506	7899.205772
623.251783	7833.466606
623.599007	7784.509440
623.946179	7790.508413
624.293297	7748.991991
624.640363	7670.959970
624.987376	7647.896691
625.334336	7598.039680
625.681243	7544.618573
626.028097	7534.536265
626.374899	7511.258737
626.721647	7508.642378
627.068343	7440.485978
627.414987	7408.046153
627.761577	7366.726336
628.108115	7402.873929
628.454600	7296.896272
628.801032	7345.697162
629.147412	7306.262736
629.493739	7293.725387
629.840014	7229.901858
630.186236	7287.565097
630.532405	7170.925400
630.878521	7221.352062
631.224585	7181.970568
631.570597	7105.697910
631.916556	7137.457179
632.262462	7132.751262
632.608316	7092.784994
632.954117	7073.303455
633.299866	7056.299643
633.645562	7050.986267
633.991206	6973.218907
634.336797	6909.433188
634.682336	6868.327619
635.027823	6837.190933
635.373257	6830.740776
635.718639	6756.794611
636.063968	6775.207426
636.409245	6666.641136
636.754470	6661.116032
637.099642	6621.575742
637.444762	6568.462145
637.789829	6577.979843
638.134845	6516.480287
638.479808	6505.004100
638.824719	6507.123905
639.169577	6434.432987
639.514383	6454.481656
639.859137	6384.134875
640.203839	6393.420680
640.548489	6380.573300
