Dividing Wavelength (nm)	Counts (n)	Blue Motor Position (mm): 33.500000	Red Motor Position (mm): 0.000000	
326.493990	2132.055196
326.888308	2132.055196
327.282561	2132.055196
327.676750	2096.930957
328.070874	2097.102356
328.464933	2099.532192
328.858929	2105.684920
329.252859	2114.262444
329.646726	2126.890534
330.040528	2140.788995
330.434265	2158.748106
330.827938	2174.300065
331.221547	2192.138188
331.615091	2211.579398
332.008571	2230.201420
332.401986	2249.718248
332.795338	2269.424118
333.188625	2286.831222
333.581847	2306.753862
333.975006	2325.322952
334.368100	2340.758965
334.761129	2359.406193
335.154095	2378.640716
335.546996	2400.713408
335.939833	2426.932449
336.332606	2437.581887
336.725315	2448.929524
337.117960	2461.945783
337.510540	2469.124386
337.903056	2482.838845
338.295508	2487.940493
338.687896	2495.358551
339.080220	2503.278204
339.472480	2509.942609
339.864676	2516.654905
340.256807	2516.826305
340.648875	2522.966430
341.040879	2525.325690
341.432818	2528.433561
341.824694	2528.236956
342.216506	2528.032790
342.608253	2531.170908
342.999937	2528.741072
343.391557	2529.572862
343.783113	2527.742923
344.174605	2525.633200
344.566033	2525.829805
344.957397	2523.218488
345.348697	2522.212777
345.739934	2522.459794
346.131106	2517.889988
346.522215	2517.070801
346.913260	2513.491581
347.304241	2512.894205
347.695159	2510.567712
348.086012	2511.399503
348.476802	2509.241889
348.867528	2505.884480
349.258191	2503.681496
349.648789	2502.030518
350.039324	2499.446927
350.429796	2502.234685
350.820203	2499.751917
351.210548	2499.373830
351.600828	2496.081957
351.991045	2497.687564
352.381198	2496.056751
352.771288	2498.080774
353.161314	2494.763695
353.551276	2498.342914
353.941175	2494.037769
354.331010	2494.733448
354.720782	2495.628253
355.110490	2493.314363
355.500135	2495.618170
355.889717	2494.977944
356.279235	2492.089363
356.668689	2499.343583
357.058080	2497.314519
357.447408	2493.006853
357.836672	2493.324445
358.225873	2494.501555
358.615010	2490.778663
359.004084	2496.071874
359.393095	2496.258397
359.782043	2499.925836
360.170927	2501.201248
360.559748	2498.912564
360.948505	2502.963132
361.337199	2500.082112
361.725830	2500.447596
362.114398	2502.496825
362.502903	2501.748213
362.891344	2504.152844
363.279722	2503.116887
363.668037	2505.360200
364.056289	2502.290137
364.444478	2504.974552
364.832603	2504.339367
365.220665	2506.633092
365.608665	2505.682834
365.996601	2508.241220
366.384474	2508.170643
366.772284	2509.829183
367.160031	2510.837414
367.547715	2510.151817
367.935336	2508.374810
368.322893	2508.712567
368.710388	2509.327588
369.097820	2512.513598
369.485189	2508.344563
369.872495	2512.218690
370.259738	2508.556292
370.646918	2510.144255
371.034035	2510.209790
371.421090	2511.946468
371.808081	2509.788854
372.195010	2513.471417
372.581875	2511.575943
372.968678	2511.747342
373.355418	2512.654750
373.742096	2511.707013
374.128710	2513.748680
374.515262	2514.038547
374.901751	2512.006962
375.288177	2514.565347
375.674540	2514.214987
376.060841	2515.258506
376.447079	2512.720285
376.833254	2517.267406
377.219367	2510.784482
377.605417	2513.564678
377.991404	2510.706344
378.377329	2513.274812
378.763191	2509.647702
379.148991	2517.138856
379.534727	2517.857221
379.920402	2519.188085
380.306013	2517.892509
380.691563	2517.779083
381.077049	2519.223373
381.462474	2516.647344
381.847835	2517.930317
382.233134	2517.607683
382.618371	2518.757067
383.003545	2517.958044
383.388657	2518.084073
383.773706	2521.181862
384.158693	2520.929804
384.543618	2520.203878
384.928480	2520.314783
385.313280	2520.725637
385.698017	2518.946110
386.082692	2520.907119
386.467305	2520.130781
386.851856	2521.378467
387.236344	2524.503982
387.620770	2522.623632
388.005133	2522.729496
388.389435	2524.002387
388.773674	2520.418127
389.157851	2520.599608
389.541965	2523.969620
389.926018	2522.064063
390.310008	2523.712521
390.693936	2525.665968
391.077802	2524.410721
391.461606	2524.345186
391.845348	2524.491379
392.229027	2526.318797
392.612645	2524.783766
392.996200	2527.309384
393.379694	2527.014477
393.763125	2529.134282
394.146494	2526.744775
394.529801	2527.173273
394.913047	2527.165711
395.296230	2527.884076
395.679351	2528.519261
396.062410	2528.534384
396.445408	2528.909950
396.828343	2529.270393
397.211217	2526.422141
397.594028	2528.005063
397.976778	2526.049096
398.359466	2531.533871
398.742092	2527.924405
399.124656	2530.954138
399.507158	2531.251566
399.889598	2532.758871
400.271977	2533.915816
400.654294	2532.385826
401.036549	2534.792977
401.418742	2532.942873
401.800874	2537.011085
402.182944	2532.887421
402.564952	2534.172915
402.946898	2536.963194
403.328783	2537.522762
403.710606	2537.298430
404.092367	2537.701723
404.474067	2539.115766
404.855705	2538.213400
405.237282	2539.163657
405.618797	2538.331867
406.000250	2539.176260
406.381642	2540.776827
406.762972	2543.665408
407.144240	2543.463762
407.525447	2548.293187
407.906593	2543.312527
408.287677	2548.938455
408.668700	2551.229659
409.049661	2551.499361
409.430560	2556.709393
409.811399	2558.486400
410.192176	2566.272462
410.572891	2571.295972
410.953545	2579.749987
411.334138	2580.014648
411.714669	2591.321956
412.095139	2595.735486
412.475547	2610.821139
412.855894	2619.151645
413.236180	2629.226391
413.616405	2640.667290
413.996568	2656.378046
414.376670	2665.671413
414.756711	2677.911335
415.136691	2693.952286
415.516609	2715.203270
415.896466	2733.565673
416.276262	2756.467635
416.655997	2770.456837
417.035670	2805.873463
417.415283	2839.354287
417.794834	2853.507326
418.174324	2872.830069
418.553753	2884.273488
418.933121	2936.751899
419.312428	2972.309678
419.691674	2991.985302
420.070859	3042.601007
420.449983	3057.958882
420.829045	3113.996348
421.208047	3124.529839
421.586988	3179.135617
421.965867	3214.726164
422.344686	3293.363123
422.723444	3289.657874
423.102141	3276.311420
423.480777	3399.166859
423.859352	3372.615102
424.237866	3499.684947
424.616319	3537.196172
424.994712	3620.166003
425.373044	3623.699852
425.751314	3722.796333
426.129524	3692.204091
426.507673	3822.016323
426.885762	3896.305287
427.263789	3926.716048
427.641756	3911.942946
428.019662	4023.685162
428.397508	4073.963110
428.775292	4105.969396
429.153016	4204.261814
429.530679	4216.718505
429.908282	4308.021363
430.285824	4280.446251
430.663305	4487.398220
431.040726	4386.877612
431.418086	4428.641051
431.795385	4544.973238
432.172624	4600.103296
432.549802	4635.966065
432.926920	4693.715002
433.303977	4744.386160
433.680974	4814.027180
434.057910	4866.044326
434.434786	4914.086522
434.811601	4936.023103
435.188355	5147.373478
435.565050	5092.576136
435.941683	5120.065548
436.318257	5327.062887
436.694770	5354.239747
437.071222	5421.395478
437.447614	5399.829422
437.823946	5360.606724
438.200218	5526.614441
438.576429	5441.182007
438.952580	5557.660387
439.328670	5624.548937
439.704700	5573.328293
440.080670	5586.818421
440.456580	5856.232806
440.832429	5773.908243
441.208218	5660.199977
441.583947	5820.697712
441.959616	5845.033883
442.335224	5797.389938
442.710773	5941.035096
443.086261	5986.183670
443.461689	5807.981402
443.837057	5967.150793
444.212365	6127.194825
444.587612	6035.040012
444.962800	6199.739549
445.337927	6193.990113
445.712995	5822.439431
446.088002	6397.188943
446.462949	6236.240024
446.837837	6179.562331
447.212664	6350.633887
447.587431	6503.995869
447.962139	7040.629217
448.336786	7960.213816
448.711374	7707.997328
449.085901	6801.623072
449.460369	6728.687658
449.834776	6668.594583
450.209124	7056.909623
450.583412	7212.651030
450.957640	7356.853236
451.331808	7125.769264
451.705917	6686.954466
452.079965	6610.281036
452.453954	6824.058727
452.827883	6700.530293
453.201752	6796.886908
453.575562	6600.871723
453.949311	6805.356046
454.323001	6693.419746
454.696632	6768.480006
455.070202	6910.506954
455.443713	7061.280303
455.817164	7164.306365
456.190556	7244.685042
456.563888	7319.825961
456.937160	7367.265739
457.310373	7021.162801
457.683526	7050.096504
458.056619	6934.165089
458.429653	6930.636281
458.802628	6865.696137
459.175542	6972.011551
459.548398	7323.664799
459.921194	7483.728996
460.293930	7493.289544
460.666607	8017.367898
461.039224	8328.898603
461.411782	8449.954351
461.784280	8469.188873
462.156719	8362.084518
462.529099	8240.091116
462.901419	7833.509455
463.273680	7723.619863
463.645882	7741.047132
464.018024	7599.615040
464.390106	7775.899149
464.762130	8157.368302
465.134094	8629.772308
465.505999	9645.605137
465.877845	10865.226611
466.249631	11508.515650
466.621358	11127.648916
466.993026	10497.582823
467.364634	10245.310881
467.736184	9883.424091
468.107674	9544.444303
468.479105	9579.505528
468.850477	9351.199232
469.221790	9119.296073
469.593043	8788.142677
469.964238	8658.779108
470.335373	8661.917226
470.706449	8727.411897
471.077467	8707.650573
471.448425	10013.311940
471.819324	11073.917777
472.190164	11103.227046
472.560945	9851.097692
472.931667	9075.838806
473.302330	8936.526520
473.672934	8580.832787
474.043479	8942.686810
474.413965	8888.363336
474.784393	8764.968493
475.154761	8918.096061
475.525070	9008.307509
475.895321	8832.940891
476.265513	9005.802056
476.635645	9179.174898
477.005719	9179.356380
477.375734	9295.068505
477.745691	9532.365699
478.115588	9662.765225
478.485427	9903.467718
478.855207	10438.525705
479.224928	11255.452248
479.594591	11874.934438
479.964194	11692.210255
480.333739	11637.438119
480.703226	11546.485621
481.072653	11641.796196
481.442022	11869.197605
481.811333	12059.569218
482.180584	11871.514015
482.549777	11583.407032
482.918912	11405.063612
483.287988	11423.849472
483.657005	11438.473859
484.025964	11126.060952
484.394864	11259.205387
484.763706	11224.242464
485.132489	10981.258849
485.501213	10948.292223
485.869879	11015.866370
486.238487	10862.106137
486.607036	10969.497837
486.975527	10757.063614
487.343959	10941.587489
487.712333	10995.500109
488.080648	10919.507235
488.448905	10961.638678
488.817104	10903.201623
489.185244	11169.787921
489.553326	11326.547641
489.921350	11868.675846
490.289315	12926.463678
490.657222	13264.251232
491.025070	13170.566429
491.392861	13041.157490
491.760593	12670.335254
492.128267	12319.682675
492.495883	12000.471772
492.863440	11652.533854
493.230939	11324.891622
493.598380	11252.601475
493.965763	11119.822524
494.333088	11022.049345
494.700354	10937.612539
495.067563	11002.595533
495.434713	10834.646972
495.801805	10962.231014
496.168839	10887.080013
496.535815	10825.956023
496.902733	10823.443007
497.269593	10753.136555
497.636395	10853.579025
498.003139	10841.422283
498.369825	10708.660975
498.736453	10865.551765
499.103023	10798.330499
499.469535	10824.307565
499.835989	10817.738942
500.202385	10775.801583
500.568723	10636.103648
500.935003	10853.924344
501.301226	10657.236165
501.667390	10917.026987
502.033497	11013.456699
502.399546	10867.457322
502.765537	10778.448189
503.131470	10849.919147
503.497345	11022.253512
503.863163	10637.638679
504.228923	10950.648963
504.594625	11015.258911
504.960269	10756.965312
505.325856	10975.927829
505.691385	10771.788824
506.056856	10921.803481
506.422270	10955.392689
506.787625	10843.854639
507.152924	10954.417225
507.518164	10935.434761
507.883347	10866.350788
508.248472	10776.338466
508.613540	11012.231698
508.978550	10892.653008
509.343503	10872.742971
509.708398	10991.545323
510.073236	11106.594537
510.438016	11112.008736
510.802738	11052.298789
511.167403	11112.132244
511.532010	11000.848773
511.896561	11234.886861
512.261053	11304.124588
512.625488	11175.802017
512.989866	11157.200159
513.354186	11148.912503
513.718449	11050.458768
514.082655	11243.005639
514.446803	11134.615790
514.810894	11263.200501
515.174927	11127.124636
515.538904	11150.230764
515.902822	11303.650720
516.266684	11182.988182
516.630488	11122.035591
516.994235	11185.022287
517.357925	11253.299675
517.721558	11340.461225
518.085133	11352.799449
518.448651	11359.421005
518.812112	11244.119734
519.175516	11258.970973
519.538863	11385.589634
519.902152	11293.991869
520.265385	11461.562343
520.628560	11368.669002
520.991678	11345.204951
521.354739	11406.346585
521.717743	11343.206133
522.080690	11321.766106
522.443580	11457.045470
522.806413	11414.271279
523.169189	11447.623553
523.531908	11502.836791
523.894569	11320.016826
524.257174	11324.203504
524.619722	11446.590117
524.982213	11388.732794
525.344647	11440.709611
525.707025	11391.023998
526.069345	11489.341622
526.431608	11403.402552
526.793815	11506.201761
527.155964	11310.390742
527.518057	11358.662311
527.880093	11303.592747
528.242072	11373.581606
528.603995	11278.344127
528.965860	11195.883453
529.327669	11249.052503
529.689421	11196.251458
530.051117	11166.727940
530.412755	11275.815989
530.774337	11166.705255
531.135862	11147.165743
531.497331	11162.952116
531.858743	11021.726712
532.220098	11189.912207
532.581396	11059.018647
532.942638	11041.165401
533.303824	11000.034627
533.664953	11022.213183
534.026025	10927.474779
534.387040	11031.393124
534.747999	11033.570902
535.108902	11093.593401
535.469748	10852.298572
535.830537	10958.082144
536.191270	10935.618763
536.551947	10954.026536
536.912567	10951.463109
537.273131	10878.631039
537.633638	10853.505928
537.994089	10847.597696
538.354483	10797.652464
538.714821	10945.580083
539.075103	10943.334249
539.435328	10918.158726
539.795497	10743.540719
540.155609	10903.463763
540.515665	10986.604993
540.875665	10724.344005
541.235609	10791.156938
541.595496	10790.262133
541.955328	10943.117479
542.315102	10818.908489
542.674821	10777.744948
543.034483	10783.126379
543.394090	10780.333580
543.753640	10710.846316
544.113134	10933.410737
544.472571	10781.815679
544.831953	10925.601990
545.191278	10727.083872
545.550548	10759.168296
545.909761	10904.098948
546.268918	10869.486386
546.628019	10957.625920
546.987064	10824.955353
547.346053	10745.942829
547.704986	10850.443427
548.063863	10828.101033
548.422684	10824.070631
548.781449	10740.238763
549.140158	10844.666265
549.498811	10715.219517
549.857408	10575.546787
550.215949	10807.104628
550.574434	10654.866823
550.932864	10753.154199
551.291237	10809.196707
551.649555	10757.048491
552.007817	10769.419482
552.366022	10733.584440
552.724173	10728.581095
553.082267	10717.520803
553.440305	10850.748417
553.798288	10652.222737
554.156215	10806.585389
554.514086	10788.147369
554.871902	10629.507298
555.229661	10671.936170
555.587365	10640.975923
555.945014	10537.332321
556.302606	10659.519808
556.660143	10551.513087
557.017625	10712.950997
557.375050	10605.526529
557.732421	10737.624925
558.089735	10660.865796
558.446994	10658.526700
558.804197	10696.040447
559.161345	10692.741012
559.518437	10547.054186
559.875474	10634.034254
560.232455	10664.066928
560.589381	10608.049627
560.946251	10607.636252
561.303065	10723.570188
561.659825	10646.720318
562.016528	10582.367469
562.373177	10458.135794
562.729770	10577.485111
563.086307	10492.950002
563.442789	10584.769578
563.799216	10461.939344
564.155587	10511.970276
564.511904	10465.700045
564.868164	10453.623961
565.224370	10472.429986
565.580520	10397.311752
565.936615	10406.095963
566.292654	10269.936918
566.648638	10407.814996
567.004567	10366.018790
567.360441	10342.101035
567.716260	10256.363611
568.072023	10339.220016
568.427732	10298.646289
568.783385	10211.373834
569.138982	10280.140213
569.494525	10292.901894
569.850013	10171.795735
570.205445	10250.674669
570.560823	10148.014092
570.916145	10068.290764
571.271412	10137.720055
571.626625	10076.270911
571.981782	10056.391120
572.336884	10029.307521
572.691931	10038.275734
573.046923	9979.964708
573.401860	9933.981823
573.756743	9876.023677
574.111570	9924.292725
574.466342	9900.818592
574.821059	9931.380587
575.175722	9822.753804
575.530330	9834.741668
575.884882	9822.300100
576.239380	9748.573225
576.593823	9728.007838
576.948211	9750.314944
577.302544	9629.604515
577.656823	9641.625147
578.011047	9646.323502
578.365216	9616.333678
578.719330	9539.521617
579.073389	9557.027023
579.427394	9501.775977
579.781344	9478.178336
580.135239	9423.789327
580.489080	9435.285678
580.842866	9338.094753
581.196597	9345.575825
581.550273	9383.550837
581.903895	9350.102781
582.257463	9414.659798
582.610975	9295.237383
582.964434	9324.460952
583.317837	9247.661494
583.671186	9223.789110
584.024481	9224.711641
584.377721	9141.192325
584.730906	9112.674518
585.084037	9149.338829
585.437113	9081.852903
585.790135	9105.929454
586.143103	9001.900203
586.496016	8979.933375
586.848874	9029.112351
587.201679	9024.902988
587.554428	8908.845544
587.907124	8956.360940
588.259765	8926.519829
588.612352	8923.185106
588.964884	8806.729411
589.317362	8815.085124
589.669786	8817.159558
590.022155	8863.160087
590.374470	8886.286381
590.726731	8823.387904
591.078937	8674.580604
591.431090	8789.942369
591.783188	8659.658789
592.135232	8652.303745
592.487222	8648.369125
592.839157	8702.697640
593.191038	8639.095922
593.542866	8579.801871
593.894639	8481.837128
594.246358	8539.238226
594.598022	8547.115029
594.949633	8444.240203
595.301190	8420.493847
595.652692	8451.668343
596.004141	8559.460815
596.355535	8334.194335
596.706876	8322.813930
597.058162	8250.790965
597.409395	8325.707552
597.760573	8396.414776
598.111698	8301.953635
598.462768	8285.320348
598.813785	8246.677383
599.164748	8223.344403
599.515657	8211.477527
599.866511	8119.836912
600.217312	8246.478258
600.568060	8106.233358
600.918753	8207.220272
601.269392	8181.336468
601.619978	8084.238804
601.970510	8154.799834
602.320988	8149.373032
602.671412	8206.635498
603.021783	8144.241137
603.372100	8116.219884
603.722363	8121.429916
604.072572	8095.291533
604.422728	8103.173377
604.772830	8035.558902
605.122878	8041.625930
605.472872	8033.970938
605.822813	8063.023108
606.172701	8008.228286
606.522534	8089.726100
606.872314	8091.498065
607.222041	8060.502531
607.571714	8111.176209
607.921333	8068.870846
608.270899	8077.924758
608.620411	8164.733428
608.969870	8070.967966
609.319276	8064.802635
609.668627	8081.929955
610.017926	8118.448074
610.367171	8163.515989
610.716362	8136.480281
611.065500	8129.215978
611.414585	8150.542580
611.763616	8140.838358
612.112594	8122.932180
612.461518	8138.690827
612.810389	8204.545940
613.159207	8140.487998
613.507971	8092.327335
613.856682	8209.836631
614.205340	8164.556987
614.553945	8242.218483
614.902496	8137.589335
615.250994	8193.412552
615.599439	8177.167434
615.947830	8192.237963
616.296169	8162.369127
616.644454	8176.771703
616.992686	8174.724995
617.340864	8227.342038
617.688990	8136.031618
618.037063	8228.390598
618.385082	8179.136004
618.733048	8257.813292
619.080961	8198.496556
619.428821	8214.366108
619.776628	8221.363229
620.124382	8173.666352
620.472083	8154.764546
620.819731	8182.879061
621.167326	8079.270747
621.514868	8083.190244
621.862357	7972.516752
622.209793	7986.631983
622.557176	7924.091428
622.904506	7892.057416
623.251783	7826.114083
623.599007	7780.978112
623.946179	7783.486086
624.293297	7743.971001
624.640363	7668.255391
624.987376	7646.777555
625.334336	7596.250070
625.681243	7543.106226
626.028097	7532.388733
626.374899	7510.137080
626.721647	7502.114084
627.068343	7430.310409
627.414987	7401.606079
627.761577	7352.979109
628.108115	7396.345635
628.454600	7289.518544
628.801032	7337.827921
629.147412	7301.818959
629.493739	7285.974613
629.840014	7229.334729
630.186236	7283.635517
630.532405	7166.279976
630.878521	7215.254786
631.224585	7173.869433
631.570597	7099.467044
631.916556	7128.204141
632.262462	7123.465457
632.608316	7090.501352
632.954117	7066.518062
633.299866	7054.411731
633.645562	7047.003756
633.991206	6966.783875
634.336797	6910.955616
634.682336	6866.490119
635.027823	6831.222207
635.373257	6822.029663
635.718639	6757.971721
636.063968	6771.003103
636.409245	6662.976218
636.754470	6662.358676
637.099642	6620.930474
637.444762	6563.932668
637.789829	6575.378608
638.134845	6517.211254
638.479808	6501.107288
638.824719	6508.386714
639.169577	6431.309992
639.514383	6456.427542
639.859137	6384.220574
640.203839	6395.220372
640.548489	6376.951231
