Dividing Wavelength (nm)	Counts (n)	Blue Motor Position (mm): 32.100000	Red Motor Position (mm): 0.000000	
326.493990	2132.012346
326.888308	2132.012346
327.282561	2132.012346
327.676750	2099.040680
328.070874	2099.607809
328.464933	2097.984558
328.858929	2105.752976
329.252859	2113.118102
329.646726	2128.133178
330.040528	2141.716568
330.434265	2158.861532
330.827938	2173.800991
331.221547	2194.958714
331.615091	2212.738863
332.008571	2232.648901
332.401986	2251.560789
332.795338	2270.724736
333.188625	2288.671243
333.581847	2308.188070
333.975006	2329.181956
334.368100	2343.093020
334.761129	2362.647655
335.154095	2377.471168
335.546996	2400.983110
335.939833	2424.704259
336.332606	2439.618513
336.725315	2450.577981
337.117960	2464.201700
337.510540	2471.312247
337.903056	2480.414050
338.295508	2488.749598
338.687896	2497.185969
339.080220	2506.073523
339.472480	2515.984432
339.864676	2517.302694
340.256807	2522.278313
340.648875	2520.498785
341.040879	2524.897192
341.432818	2528.887265
341.824694	2530.346679
342.216506	2530.996988
342.608253	2530.674354
342.999937	2528.826771
343.391557	2528.209230
343.783113	2529.414066
344.174605	2528.176463
344.566033	2526.923736
344.957397	2522.749660
345.348697	2521.932993
345.739934	2520.914680
346.131106	2518.268075
346.522215	2516.717920
346.913260	2515.316479
347.304241	2516.919566
347.695159	2510.756755
348.086012	2512.886643
348.476802	2509.045284
348.867528	2509.594769
349.258191	2502.869870
349.648789	2506.544871
350.039324	2502.075888
350.429796	2503.999089
350.820203	2501.657473
351.210548	2500.611433
351.600828	2499.925836
351.991045	2500.805518
352.381198	2498.678151
352.771288	2496.717142
353.161314	2495.804693
353.551276	2498.622698
353.941175	2495.776967
354.331010	2499.409118
354.720782	2499.494818
355.110490	2495.252687
355.500135	2496.568428
355.889717	2498.458861
356.279235	2497.007008
356.668689	2501.778460
357.058080	2496.081957
357.447408	2498.690754
357.836672	2493.243787
358.225873	2494.408293
358.615010	2493.684888
359.004084	2499.318377
359.393095	2500.314005
359.782043	2501.423059
360.170927	2501.571773
360.559748	2500.679489
360.948505	2503.323574
361.337199	2504.382216
361.725830	2504.389778
362.114398	2504.198214
362.502903	2504.004130
362.891344	2501.647390
363.279722	2504.450272
363.668037	2505.382885
364.056289	2506.882629
364.444478	2508.001765
364.832603	2505.745848
365.220665	2507.815242
365.608665	2505.430776
365.996601	2508.342043
366.384474	2508.820952
366.772284	2509.521673
367.160031	2507.873215
367.547715	2508.825993
367.935336	2508.919255
368.322893	2510.590397
368.710388	2509.057887
369.097820	2512.720285
369.485189	2511.230624
369.872495	2511.530572
370.259738	2509.199039
370.646918	2510.618124
371.034035	2511.023937
371.421090	2511.583505
371.808081	2512.591735
372.195010	2512.679956
372.581875	2514.706499
372.968678	2514.257837
373.355418	2512.989987
373.742096	2513.610048
374.128710	2514.023423
374.515262	2514.915707
374.901751	2515.008969
375.288177	2513.783968
375.674540	2515.656757
376.060841	2513.761283
376.447079	2517.660616
376.833254	2515.555934
377.219367	2511.654081
377.605417	2512.526200
377.991404	2510.479492
378.377329	2515.200533
378.763191	2514.726664
379.148991	2516.949813
379.534727	2517.353105
379.920402	2516.664988
380.306013	2516.163393
380.691563	2517.791686
381.077049	2517.030471
381.462474	2518.174813
381.847835	2516.022241
382.233134	2520.347551
382.618371	2518.068949
383.003545	2521.534742
383.388657	2522.399300
383.773706	2520.574403
384.158693	2521.262520
384.543618	2519.651871
384.928480	2522.210257
385.313280	2519.992149
385.698017	2522.719413
386.082692	2525.045906
386.467305	2519.956861
386.851856	2521.658251
387.236344	2523.200844
387.620770	2520.851666
388.005133	2526.389373
388.389435	2524.965248
388.773674	2524.236801
389.157851	2526.278468
389.541965	2525.050947
389.926018	2522.971471
390.310008	2524.796369
390.693936	2523.662109
391.077802	2523.601615
391.461606	2524.264527
391.845348	2523.006759
392.229027	2525.764270
392.612645	2525.134126
392.996200	2526.722090
393.379694	2523.523477
393.763125	2528.673016
394.146494	2528.277286
394.529801	2527.662265
394.913047	2529.701412
395.296230	2528.226874
395.679351	2528.985568
396.062410	2529.104035
396.445408	2528.015146
396.828343	2530.044210
397.211217	2525.126564
397.594028	2528.133613
397.976778	2526.071781
398.359466	2531.969931
398.742092	2522.396780
399.124656	2532.022863
399.507158	2533.704088
399.889598	2530.344159
400.271977	2531.289375
400.654294	2533.018491
401.036549	2534.205682
401.418742	2532.695857
401.800874	2532.718542
402.182944	2532.983203
402.564952	2534.311547
402.946898	2532.897503
403.328783	2534.142668
403.710606	2535.055117
404.092367	2534.906403
404.474067	2535.551671
404.855705	2539.632485
405.237282	2534.515713
405.618797	2535.574356
406.000250	2535.138296
406.381642	2537.454706
406.762972	2537.840354
407.144240	2538.014274
407.525447	2541.328833
407.906593	2535.665097
408.287677	2538.702392
408.668700	2537.396733
409.049661	2540.307999
409.430560	2539.723225
409.811399	2540.282793
410.192176	2540.164326
410.572891	2540.713812
410.953545	2543.728422
411.334138	2542.669780
411.714669	2546.009544
412.095139	2544.252702
412.475547	2546.818649
412.855894	2546.944678
413.236180	2546.281767
413.616405	2550.428116
413.996568	2551.194371
414.376670	2552.721841
414.756711	2558.209137
415.136691	2559.497151
415.516609	2563.625856
415.896466	2569.841599
416.276262	2574.106415
416.655997	2578.472054
417.035670	2585.754001
417.415283	2595.876638
417.794834	2601.343769
418.174324	2613.039246
418.553753	2621.815895
418.933121	2637.135962
419.312428	2647.843372
419.691674	2657.328303
420.070859	2677.500481
420.449983	2687.590350
420.829045	2706.484595
421.208047	2713.121274
421.586988	2736.567680
421.965867	2754.420927
422.344686	2787.314455
422.723444	2790.502985
423.102141	2793.336114
423.480777	2838.668690
423.859352	2842.116839
424.237866	2893.937380
424.616319	2915.142993
424.994712	2955.588171
425.373044	2963.822896
425.751314	3014.728467
426.129524	3016.087058
426.507673	3076.220462
426.885762	3116.635392
427.263789	3146.819301
427.641756	3152.656957
428.019662	3214.585011
428.397508	3253.369128
428.775292	3284.042029
429.153016	3343.847758
429.530679	3364.985316
429.908282	3426.797424
430.285824	3430.142229
430.663305	3554.051270
431.040726	3520.560365
431.418086	3560.660223
431.795385	3641.805156
432.172624	3691.195861
432.549802	3733.710432
432.926920	3786.995428
433.303977	3835.259435
433.680974	3900.421389
434.057910	3960.191830
434.434786	4009.900127
434.811601	4043.464130
435.188355	4203.183007
435.565050	4192.914177
435.941683	4232.978747
436.318257	4396.380187
436.694770	4440.621353
437.071222	4512.798073
437.447614	4533.350858
437.823946	4526.336092
438.200218	4671.324718
438.576429	4639.625942
438.952580	4755.585084
439.328670	4831.656095
439.704700	4812.237571
440.080670	4853.358262
440.456580	5087.928192
440.832429	5057.298141
441.208218	4992.219366
441.583947	5145.866173
441.959616	5193.058935
442.335224	5184.390671
442.710773	5325.893339
443.086261	5393.066714
443.461689	5263.708186
443.837057	5428.632054
444.212365	5589.588535
444.587612	5537.183220
444.962800	5701.348395
445.337927	5721.150047
445.712995	5428.765645
446.088002	5948.758143
446.462949	5832.597356
446.837837	5805.380166
447.212664	5985.490511
447.587431	6147.044368
447.962139	6658.797101
448.336786	7510.462235
448.711374	7307.212994
449.085901	6498.889180
449.460369	6457.166071
449.834776	6420.348003
450.209124	6806.084493
450.583412	6966.831766
450.957640	7123.586444
451.331808	6924.412977
451.705917	6521.024887
452.079965	6459.774868
452.453954	6678.336613
452.827883	6574.665284
453.201752	6674.321334
453.575562	6490.861143
453.949311	6698.546599
454.323001	6597.852072
454.696632	6679.249062
455.070202	6829.412432
455.443713	6985.428582
455.817164	7094.798935
456.190556	7179.545773
456.563888	7263.705316
456.937160	7305.562016
457.310373	6973.707899
457.683526	7004.292580
458.056619	6895.960704
458.429653	6890.791001
458.802628	6829.926630
459.175542	6938.349246
459.548398	7299.779812
459.921194	7456.267310
460.293930	7464.071016
460.666607	7989.797827
461.039224	8295.684961
461.411782	8427.962317
461.784280	8438.841127
462.156719	8336.677103
462.529099	8224.345072
462.901419	7808.293604
463.273680	7699.755041
463.645882	7719.470994
464.018024	7584.136178
464.390106	7749.528873
464.762130	8140.092268
465.134094	8609.058207
465.505999	9622.113361
465.877845	10841.576038
466.249631	11484.149233
466.621358	11101.029103
466.993026	10479.502724
467.364634	10222.121574
467.736184	9856.534576
468.107674	9534.694712
468.479105	9559.403927
468.850477	9329.048402
469.221790	9102.917364
469.593043	8775.270091
469.964238	8641.639184
470.335373	8650.320051
470.706449	8715.202222
471.077467	8694.881331
471.448425	9998.531277
471.819324	11068.541387
472.190164	11083.135527
472.560945	9842.769706
472.931667	9054.761742
473.302330	8923.598481
473.672934	8569.293586
474.043479	8926.114017
474.413965	8864.667392
474.784393	8745.562571
475.154761	8908.623733
475.525070	8994.885437
475.895321	8820.088469
476.265513	9003.309205
476.635645	9160.928442
477.005719	9173.508642
477.375734	9275.408005
477.745691	9517.887505
478.115588	9651.019337
478.485427	9890.675791
478.855207	10429.812071
479.224928	11245.092677
479.594591	11865.575536
479.964194	11676.277689
480.333739	11614.110179
480.703226	11530.434587
481.072653	11620.550253
481.442022	11857.905421
481.811333	12047.571272
482.180584	11848.720438
482.549777	11563.071017
482.918912	11386.484439
483.287988	11411.208778
483.657005	11416.267576
484.025964	11107.121337
484.394864	11224.897814
484.763706	11202.041223
485.132489	10964.292846
485.501213	10932.410068
485.869879	10999.414565
486.238487	10843.821872
486.607036	10959.715478
486.975527	10732.379604
487.343959	10932.236148
487.712333	10975.849691
488.080648	10905.870914
488.448905	10947.087388
488.817104	10888.216793
489.185244	11156.196970
489.553326	11312.203037
489.921350	11857.131603
490.289315	12895.606775
490.657222	13245.614087
491.025070	13151.478100
491.392861	13028.408412
491.760593	12644.393476
492.128267	12295.346504
492.495883	11964.296452
492.863440	11641.876855
493.230939	11300.948661
493.598380	11230.395193
493.965763	11109.188210
494.333088	10997.456076
494.700354	10922.932699
495.067563	10987.547688
495.434713	10814.205093
495.801805	10946.001019
496.168839	10866.958247
496.535815	10805.924998
496.902733	10807.666716
497.269593	10737.004863
497.636395	10834.609163
498.003139	10827.793523
498.369825	10698.568585
498.736453	10851.731442
499.103023	10780.477253
499.469535	10808.871552
499.835989	10798.879985
500.202385	10762.195509
500.568723	10609.365368
500.935003	10835.685449
501.301226	10642.500872
501.667390	10900.416385
502.033497	10993.052628
502.399546	10859.764521
502.765537	10765.220201
503.131470	10833.457259
503.497345	11005.453867
503.863163	10618.449527
504.228923	10930.285222
504.594625	10994.532207
504.960269	10743.888558
505.325856	10964.426436
505.691385	10754.999262
506.056856	10911.539691
506.422270	10932.914184
506.787625	10824.428553
507.152924	10943.588827
507.518164	10924.616444
507.883347	10840.492190
508.248472	10766.687177
508.613540	10999.522949
508.978550	10880.584486
509.343503	10854.302431
509.708398	10971.879782
510.073236	11081.255177
510.438016	11089.641136
510.802738	11046.017511
511.167403	11094.120201
511.532010	10988.278656
511.896561	11217.628471
512.261053	11293.578494
512.625488	11155.723101
512.989866	11140.743313
513.354186	11132.644699
513.718449	11034.180882
514.082655	11224.620551
514.446803	11118.063162
514.810894	11245.808521
515.174927	11114.032759
515.538904	11130.655964
515.902822	11292.570264
516.266684	11176.885865
516.630488	11114.126020
516.994235	11164.613176
517.357925	11226.957126
517.721558	11318.764099
518.085133	11338.212871
518.448651	11346.802997
518.812112	11223.400592
519.175516	11244.651576
519.538863	11363.708506
519.902152	11286.034408
520.265385	11442.945362
520.628560	11349.752072
520.991678	11332.284474
521.354739	11393.395861
521.717743	11330.023516
522.080690	11306.473766
522.443580	11437.306832
522.806413	11394.792261
523.169189	11429.551017
523.531908	11483.813997
523.894569	11303.159207
524.257174	11308.931328
524.619722	11426.269225
524.982213	11373.253931
525.344647	11429.493043
525.707025	11377.871628
526.069345	11472.040382
526.431608	11391.754966
526.793815	11495.882519
527.155964	11294.006993
527.518057	11342.790238
527.880093	11285.487443
528.242072	11351.760972
528.603995	11261.511715
528.965860	11181.861484
529.327669	11232.436860
529.689421	11183.328460
530.051117	11152.660600
530.412755	11258.885274
530.774337	11148.824282
531.135862	11128.057249
531.497331	11154.911476
531.858743	11006.315904
532.220098	11165.525625
532.581396	11044.043900
532.942638	11028.439008
533.303824	10988.533234
533.664953	11006.988898
534.026025	10921.155692
534.387040	11020.738645
534.747999	11022.006496
535.108902	11080.466236
535.469748	10837.845584
535.830537	10942.744434
536.191270	10918.632595
536.551947	10942.570514
536.912567	10936.475759
537.273131	10866.922959
537.633638	10844.646100
537.994089	10830.311579
538.354483	10786.468664
538.714821	10930.338154
539.075103	10937.234452
539.435328	10900.053422
539.795497	10722.352749
540.155609	10877.491738
540.515665	10972.688888
540.875665	10708.824813
541.235609	10774.400142
541.595496	10773.381829
541.955328	10932.137846
542.315102	10812.667541
542.674821	10760.504202
543.034483	10760.453790
543.394090	10768.277661
543.753640	10694.515498
544.113134	10911.590103
544.472571	10766.961920
544.831953	10912.563046
545.191278	10719.517100
545.550548	10748.309650
545.909761	10881.081040
546.268918	10860.160251
546.628019	10942.144536
546.987064	10805.143619
547.346053	10729.881713
547.704986	10833.386683
548.063863	10817.081071
548.422684	10800.921653
548.781449	10720.076668
549.140158	10827.289408
549.498811	10702.052023
549.857408	10560.834180
550.215949	10789.465630
550.574434	10635.435695
550.932864	10736.944369
551.291237	10795.860334
551.649555	10742.623229
552.007817	10758.339026
552.366022	10718.904600
552.724173	10713.185411
553.082267	10696.617659
553.440305	10839.816675
553.798288	10632.292536
554.156215	10784.535382
554.514086	10762.321537
554.871902	10618.825093
555.229661	10661.349747
555.587365	10628.672987
555.945014	10525.147852
556.302606	10651.338015
556.660143	10538.814420
557.017625	10703.902126
557.375050	10602.088463
557.732421	10732.185520
558.089735	10644.502210
558.446994	10646.687551
558.804197	10678.260297
559.161345	10682.792294
559.518437	10528.885867
559.875474	10616.019691
560.232455	10651.849692
560.589381	10594.657802
560.946251	10596.119736
561.303065	10702.238545
561.659825	10639.740841
562.016528	10565.708976
562.373177	10446.664648
562.729770	10561.451721
563.086307	10475.225305
563.442789	10571.881869
563.799216	10454.327202
564.155587	10503.919553
564.511904	10451.047932
564.868164	10441.852867
565.224370	10460.104364
565.580520	10387.819259
565.936615	10384.726512
566.292654	10259.736143
566.648638	10389.334126
567.004567	10341.238998
567.360441	10330.846659
567.716260	10243.924564
568.072023	10330.211474
568.427732	10286.247571
568.783385	10201.674654
569.138982	10262.788562
569.494525	10285.819073
569.850013	10156.178240
570.205445	10241.550181
570.560823	10134.226536
570.916145	10056.713754
571.271412	10126.064908
571.626625	10068.454602
571.981782	10046.228154
572.336884	10020.369556
572.691931	10024.735195
573.046923	9972.579417
573.401860	9926.382283
573.756743	9860.713693
574.111570	9911.899048
574.466342	9888.639164
574.821059	9927.698024
575.175722	9810.967587
575.530330	9823.966202
575.884882	9810.118152
576.239380	9740.648532
576.593823	9718.941323
576.948211	9738.387574
577.302544	9611.826886
577.656823	9629.581830
578.011047	9635.555597
578.365216	9606.180794
578.719330	9530.127426
579.073389	9543.657883
579.427394	9488.298452
579.781344	9462.371798
580.135239	9419.448894
580.489080	9426.753526
580.842866	9322.169748
581.196597	9330.026386
581.550273	9372.500628
581.903895	9331.901695
582.257463	9408.839785
582.610975	9278.609138
582.964434	9308.140217
583.317837	9226.425633
583.671186	9213.762255
584.024481	9208.569867
584.377721	9129.617836
584.730906	9111.603272
585.084037	9136.355338
585.437113	9077.273015
585.790135	9090.362371
586.143103	8994.663627
586.496016	8963.864697
586.848874	9019.009879
587.201679	9011.753138
587.554428	8900.013442
587.907124	8946.535731
588.259765	8915.383921
588.612352	8918.428777
588.964884	8791.648799
589.317362	8809.532293
589.669786	8811.294176
590.022155	8853.546607
590.374470	8876.151141
590.726731	8812.786358
591.078937	8661.070312
591.431090	8774.241695
591.783188	8652.366760
592.135232	8642.017271
592.487222	8639.796643
592.839157	8695.793780
593.191038	8631.203996
593.542866	8574.329698
593.894639	8472.939492
594.246358	8521.301801
594.598022	8540.218731
594.949633	8434.974562
595.301190	8413.877333
595.652692	8446.102909
596.004141	8557.956031
596.355535	8329.942122
596.706876	8313.328999
597.058162	8244.411385
597.409395	8328.848191
597.760573	8380.593115
598.111698	8293.217316
598.462768	8283.583671
598.813785	8243.047753
599.164748	8215.530614
599.515657	8204.019140
599.866511	8118.443032
600.217312	8236.395950
600.568060	8098.222964
600.918753	8202.824386
601.269392	8172.655601
601.619978	8080.500788
601.970510	8149.615007
602.320988	8147.979153
602.671412	8202.284983
603.021783	8135.527503
603.372100	8113.149821
603.722363	8117.404555
604.072572	8085.794000
604.422728	8097.121472
604.772830	8026.076491
605.122878	8037.943367
605.472872	8032.130917
605.822813	8064.341369
606.172701	8001.400043
606.522534	8085.126047
606.872314	8076.954336
607.222041	8043.297073
607.571714	8097.854960
607.921333	8059.338024
608.270899	8067.769354
608.620411	8155.712283
608.969870	8062.771050
609.319276	8052.368629
609.668627	8073.266732
610.017926	8102.011392
610.367171	8154.646079
610.716362	8129.941904
611.065500	8123.421172
611.414585	8155.092221
611.763616	8135.512379
612.112594	8115.105789
612.461518	8137.241495
612.810389	8197.364817
613.159207	8141.685272
613.507971	8081.173782
613.856682	8201.236423
614.205340	8161.474322
614.553945	8238.062052
614.902496	8138.826938
615.250994	8193.921708
615.599439	8172.806836
615.947830	8183.710851
616.296169	8151.918815
616.644454	8171.044952
616.992686	8172.269953
617.340864	8226.182572
617.688990	8129.657079
618.037063	8224.740803
618.385082	8173.815066
618.733048	8251.879854
619.080961	8193.611677
619.428821	8215.170172
619.776628	8215.454997
620.124382	8166.593613
620.472083	8149.002507
620.819731	8176.633071
621.167326	8073.594407
621.514868	8084.659740
621.862357	7966.341339
622.209793	7983.385480
622.557176	7917.127074
622.904506	7886.010552
623.251783	7819.956313
623.599007	7779.712782
623.946179	7777.759335
624.293297	7741.299190
624.640363	7656.607805
624.987376	7636.135679
625.334336	7588.766477
625.681243	7536.250257
626.028097	7529.759772
626.374899	7502.592993
626.721647	7497.047724
627.068343	7425.314626
627.414987	7400.502066
627.761577	7355.081270
628.108115	7393.000829
628.454600	7286.529140
628.801032	7340.716502
629.147412	7294.375696
629.493739	7281.992101
629.840014	7218.793676
630.186236	7276.482120
630.532405	7163.167064
630.878521	7212.192285
631.224585	7168.755183
631.570597	7096.500325
631.916556	7128.524255
632.262462	7125.116435
632.608316	7087.133861
632.954117	7061.565129
633.299866	7049.967954
633.645562	7042.907818
633.991206	6962.549305
634.336797	6905.450676
634.682336	6861.567432
635.027823	6830.831517
635.373257	6822.311967
635.718639	6751.597182
636.063968	6766.138390
636.409245	6662.507390
636.754470	6654.640670
637.099642	6617.810000
637.444762	6559.667852
637.789829	6568.716723
638.134845	6510.796386
638.479808	6496.335836
638.824719	6498.921948
639.169577	6430.533655
639.514383	6449.959741
639.859137	6383.121603
640.203839	6391.104270
640.548489	6374.440736
