Dividing Wavelength (nm)	Counts (n)	Blue Motor Position (mm): 40.000000	Red Motor Position (mm): 0.000000	
326.493990	2128.962448
326.888308	2128.962448
327.282561	2128.962448
327.676750	2095.471543
328.070874	2096.472212
328.464933	2094.664958
328.858929	2103.229878
329.252859	2112.727412
329.646726	2128.521347
330.040528	2139.115332
330.434265	2156.293064
330.827938	2172.142452
331.221547	2192.579289
331.615091	2209.714171
332.008571	2228.621019
332.401986	2250.078690
332.795338	2269.998809
333.188625	2289.394649
333.581847	2308.160344
333.975006	2324.309680
334.368100	2345.013699
334.761129	2361.137830
335.154095	2379.853113
335.546996	2398.853222
335.939833	2423.811975
336.332606	2438.852257
336.725315	2452.619649
337.117960	2460.561987
337.510540	2472.454068
337.903056	2480.527476
338.295508	2488.444608
338.687896	2493.579024
339.080220	2509.108298
339.472480	2511.558299
339.864676	2515.124915
340.256807	2518.389062
340.648875	2525.781914
341.040879	2526.071781
341.432818	2525.827285
341.824694	2529.376257
342.216506	2528.544467
342.608253	2529.280475
342.999937	2529.535053
343.391557	2531.213758
343.783113	2527.654703
344.174605	2526.661596
344.566033	2524.713190
344.957397	2523.941893
345.348697	2524.627490
345.739934	2519.397293
346.131106	2520.680267
346.522215	2518.651202
346.913260	2515.192971
347.304241	2515.770183
347.695159	2513.562158
348.086012	2510.857578
348.476802	2507.832886
348.867528	2506.214676
349.258191	2506.141579
349.648789	2504.956908
350.039324	2502.214520
350.429796	2504.803153
350.820203	2500.833244
351.210548	2498.683192
351.600828	2497.380054
351.991045	2498.957935
352.381198	2499.048676
352.771288	2498.572287
353.161314	2496.447440
353.551276	2494.859477
353.941175	2496.099601
354.331010	2498.337873
354.720782	2498.461381
355.110490	2494.350320
355.500135	2498.531957
355.889717	2497.271669
356.279235	2497.732934
356.668689	2496.283603
357.058080	2499.457009
357.447408	2496.361741
357.836672	2493.049702
358.225873	2499.078922
358.615010	2494.677995
359.004084	2500.041783
359.393095	2501.390292
359.782043	2497.743017
360.170927	2500.581186
360.559748	2500.003974
360.948505	2500.555981
361.337199	2502.995899
361.725830	2503.195025
362.114398	2504.233502
362.502903	2504.629233
362.891344	2502.096053
363.279722	2507.890859
363.668037	2506.708709
364.056289	2505.899604
364.444478	2508.150479
364.832603	2507.782475
365.220665	2506.476816
365.608665	2507.316168
365.996601	2508.165602
366.384474	2507.931189
366.772284	2507.263236
367.160031	2510.398833
367.547715	2511.321365
367.935336	2510.376148
368.322893	2510.792043
368.710388	2509.486385
369.097820	2510.655932
369.485189	2510.575274
369.872495	2513.665501
370.259738	2510.343381
370.646918	2513.536952
371.034035	2513.852024
371.421090	2514.003258
371.808081	2513.345388
372.195010	2514.303207
372.581875	2511.873371
372.968678	2514.887981
373.355418	2515.787827
373.742096	2514.998886
374.128710	2514.610717
374.515262	2516.463342
374.901751	2516.007117
375.288177	2515.669360
375.674540	2519.367046
376.060841	2518.608353
376.447079	2518.341171
376.833254	2518.787313
377.219367	2513.277332
377.605417	2518.119361
377.991404	2519.200688
378.377329	2517.527025
378.763191	2517.017868
379.148991	2522.394259
379.534727	2522.094310
379.920402	2521.685977
380.306013	2524.161183
380.691563	2524.824095
381.077049	2520.791172
381.462474	2524.509023
381.847835	2525.444157
382.233134	2523.278982
382.618371	2524.428365
383.003545	2524.791328
383.388657	2526.585978
383.773706	2526.273427
384.158693	2526.782583
384.543618	2527.886596
384.928480	2526.369209
385.313280	2528.990609
385.698017	2528.252080
386.082692	2530.628984
386.467305	2530.331556
386.851856	2530.956659
387.236344	2533.968748
387.620770	2536.711136
388.005133	2540.761703
388.389435	2544.678680
388.773674	2545.966694
389.157851	2554.657644
389.541965	2563.272976
389.926018	2566.542164
390.310008	2581.489185
390.693936	2592.541915
391.077802	2605.837958
391.461606	2618.634927
391.845348	2637.965232
392.229027	2651.803199
392.612645	2668.106290
392.996200	2695.116793
393.379694	2719.768035
393.763125	2749.631830
394.146494	2765.019952
394.529801	2798.808286
394.913047	2831.898420
395.296230	2851.626976
395.679351	2887.303221
396.062410	2921.063829
396.445408	2942.314813
396.828343	2986.649240
397.211217	3018.708458
397.594028	3024.871269
397.976778	3082.209353
398.359466	3124.867596
398.742092	3167.682116
399.124656	3172.312416
399.507158	3240.267170
399.889598	3284.157976
400.271977	3346.874971
400.654294	3373.545195
401.036549	3412.001637
401.418742	3433.630708
401.800874	3522.838966
402.182944	3574.485587
402.564952	3648.502329
402.946898	3677.027698
403.328783	3713.661763
403.710606	3692.141077
404.092367	3854.519163
404.474067	3867.802603
404.855705	3908.308274
405.237282	3888.206673
405.618797	4002.270341
406.000250	4057.168506
406.381642	4154.157786
406.762972	4153.636026
407.144240	4193.675391
407.525447	4222.563723
407.906593	4297.374446
408.287677	4361.016493
408.668700	4323.800174
409.049661	4395.634096
409.430560	4452.972180
409.811399	4410.472732
410.192176	4576.465326
410.572891	4540.272362
410.953545	4656.017254
411.334138	4564.038882
411.714669	4640.477897
412.095139	4557.508067
412.475547	4705.072722
412.855894	4702.436199
413.236180	4722.353797
413.616405	4689.041853
413.996568	4783.641625
414.376670	4736.214450
414.756711	4696.172565
415.136691	4738.235953
415.516609	4817.233354
415.896466	4862.497874
416.276262	4900.505654
416.655997	4885.901431
417.035670	5063.602104
417.415283	5157.506198
417.794834	5112.193786
418.174324	5063.229059
418.553753	4978.850226
418.933121	5161.876878
419.312428	5230.676025
419.691674	5174.235267
420.070859	5301.859638
420.449983	5216.273448
420.829045	5332.121684
421.208047	5242.656327
421.586988	5313.078726
421.965867	5324.396116
422.344686	5459.173885
422.723444	5313.292975
423.102141	5133.686746
423.480777	5433.068270
423.859352	5200.164441
424.237866	5460.666066
424.616319	5446.790290
424.994712	5559.946550
425.373044	5438.046409
425.751314	5576.572276
426.129524	5385.943563
426.507673	5575.022121
426.885762	5656.131766
427.263789	5596.167241
427.641756	5471.582685
428.019662	5594.032312
428.397508	5602.829125
428.775292	5549.806269
429.153016	5647.904602
429.530679	5573.605557
429.908282	5659.627806
430.285824	5532.255492
430.663305	5806.491741
431.040726	5540.160021
431.418086	5539.882758
431.795385	5645.736906
432.172624	5656.048587
432.549802	5649.747144
432.926920	5668.117109
433.303977	5673.924518
433.680974	5712.701073
434.057910	5725.871088
434.434786	5738.000104
434.811601	5703.437953
435.188355	5939.724396
435.565050	5812.281506
435.941683	5797.150483
436.318257	6004.213356
436.694770	5987.839689
437.071222	6024.617427
437.447614	5955.515810
437.823946	5868.240834
438.200218	6030.218148
438.576429	5896.451131
438.952580	5992.520400
439.328670	6033.396596
439.704700	5942.870076
440.080670	5929.442963
440.456580	6197.435742
440.832429	6081.842084
441.208218	5931.288025
441.583947	6085.111273
441.959616	6087.410039
442.335224	6014.557804
442.710773	6152.347662
443.086261	6180.315984
443.461689	5976.330734
443.837057	6126.252129
444.212365	6275.180417
444.587612	6167.531618
444.962800	6321.052396
445.337927	6304.315765
445.712995	5913.147433
446.088002	6490.684702
446.462949	6324.586245
446.837837	6251.411376
447.212664	6422.712305
447.587431	6566.962401
447.962139	7113.516740
448.336786	8035.117801
448.711374	7777.577853
449.085901	6853.330187
449.460369	6769.473113
449.834776	6706.546910
450.209124	7097.085099
450.583412	7249.572441
450.957640	7392.259780
451.331808	7156.787484
451.705917	6712.941614
452.079965	6630.511187
452.453954	6845.216450
452.827883	6725.715898
453.201752	6817.152346
453.575562	6616.849660
453.949311	6818.707542
454.323001	6708.044133
454.696632	6782.837212
455.070202	6920.977430
455.443713	7072.176757
455.817164	7176.276584
456.190556	7259.213647
456.563888	7331.735687
456.937160	7375.185392
457.310373	7032.301231
457.683526	7058.106897
458.056619	6947.297294
458.429653	6938.245903
458.802628	6873.275512
459.175542	6980.722665
459.548398	7332.317940
459.921194	7492.404822
460.293930	7493.745768
460.666607	8024.848970
461.039224	8333.203748
461.411782	8458.342831
461.784280	8478.310841
462.156719	8367.813790
462.529099	8248.242662
462.901419	7835.089857
463.273680	7724.857467
463.645882	7744.477637
464.018024	7614.932586
464.390106	7770.414374
464.762130	8162.616143
465.134094	8621.966082
465.505999	9650.351384
465.877845	10870.754236
466.249631	11516.158040
466.621358	11133.920111
466.993026	10508.454071
467.364634	10253.951419
467.736184	9892.351974
468.107674	9560.991891
468.479105	9595.095297
468.850477	9355.471610
469.221790	9129.877455
469.593043	8802.507445
469.964238	8658.791710
470.335373	8674.840224
470.706449	8724.150270
471.077467	8718.791523
471.448425	10022.416264
471.819324	11084.118552
472.190164	11113.309353
472.560945	9865.583447
472.931667	9078.286287
473.302330	8943.911810
473.672934	8590.131195
474.043479	8946.752500
474.413965	8886.440136
474.784393	8772.991489
475.154761	8930.668699
475.525070	9020.370991
475.895321	8839.353238
476.265513	9018.465434
476.635645	9190.409110
477.005719	9195.949338
477.375734	9305.712901
477.745691	9540.693685
478.115588	9672.081277
478.485427	9909.766640
478.855207	10448.504669
479.224928	11266.424319
479.594591	11892.742314
479.964194	11702.214425
480.333739	11648.044707
480.703226	11563.234855
481.072653	11647.517906
481.442022	11884.507589
481.811333	12080.610995
482.180584	11880.341076
482.549777	11593.058321
482.918912	11414.278841
483.287988	11443.532657
483.657005	11457.809204
484.025964	11134.643517
484.394864	11260.853844
484.763706	11238.829043
485.132489	10995.638740
485.501213	10961.416867
485.869879	11030.437825
486.238487	10874.404032
486.607036	10991.436939
486.975527	10768.161714
487.343959	10957.701537
487.712333	11002.910605
488.080648	10933.854359
488.448905	10977.268776
488.817104	10912.976420
489.185244	11181.642194
489.553326	11334.961326
489.921350	11877.621373
490.289315	12940.180657
490.657222	13281.408800
491.025070	13182.685363
491.392861	13053.415055
491.760593	12677.453363
492.128267	12322.503200
492.495883	11997.857934
492.863440	11664.693117
493.230939	11329.166520
493.598380	11261.143711
493.965763	11133.620162
494.333088	11031.693073
494.700354	10946.437079
495.067563	11007.556028
495.434713	10844.174753
495.801805	10962.609100
496.168839	10892.844572
496.535815	10830.810654
496.902733	10827.329737
497.269593	10765.812537
497.636395	10859.434325
498.003139	10857.480878
498.369825	10718.438293
498.736453	10881.489373
499.103023	10800.344440
499.469535	10831.559265
499.835989	10818.739611
500.202385	10787.222317
500.568723	10640.570110
500.935003	10856.636485
501.301226	10666.564820
501.667390	10922.118553
502.033497	11013.991061
502.399546	10875.583662
502.765537	10782.597058
503.131470	10858.473985
503.497345	11039.428723
503.863163	10638.341920
504.228923	10963.440891
504.594625	11020.753769
504.960269	10770.107600
505.325856	10985.556433
505.691385	10775.945256
506.056856	10933.561972
506.422270	10958.583739
506.787625	10848.074085
507.152924	10964.081117
507.518164	10949.353386
507.883347	10867.369101
508.248472	10786.335074
508.613540	11019.740497
508.978550	10898.921683
509.343503	10884.135979
509.708398	10999.157466
510.073236	11117.120466
510.438016	11115.348500
510.802738	11066.151880
511.167403	11119.946032
511.532010	11010.971410
511.896561	11249.619633
512.261053	11317.486167
512.625488	11187.986486
512.989866	11173.515854
513.354186	11162.984883
513.718449	11061.355222
514.082655	11251.835220
514.446803	11153.666311
514.810894	11269.136460
515.174927	11127.727053
515.538904	11161.810295
515.902822	11315.215127
516.266684	11202.623476
516.630488	11139.848508
516.994235	11199.129957
517.357925	11262.988773
517.721558	11350.162926
518.085133	11361.528207
518.448651	11370.514064
518.812112	11252.835889
519.175516	11272.294743
519.538863	11391.182795
519.902152	11304.807665
520.265385	11469.086266
520.628560	11377.460774
520.991678	11357.061745
521.354739	11421.636405
521.717743	11355.065448
522.080690	11330.739360
522.443580	11470.119702
522.806413	11429.011613
523.169189	11459.394647
523.531908	11510.443892
523.894569	11329.894967
524.257174	11335.901502
524.619722	11461.287601
524.982213	11401.943137
525.344647	11451.517844
525.707025	11401.630586
526.069345	11505.765701
526.431608	11416.905282
526.793815	11528.687828
527.155964	11314.597585
527.518057	11367.726306
527.880093	11315.673872
528.242072	11386.751620
528.603995	11287.990375
528.965860	11213.403984
529.327669	11265.917683
529.689421	11212.708304
530.051117	11186.756444
530.412755	11284.514500
530.774337	11179.371154
531.135862	11152.932823
531.497331	11178.400732
531.858743	11028.680983
532.220098	11196.291787
532.581396	11068.720348
532.942638	11057.569315
533.303824	11018.144972
533.664953	11033.649040
534.026025	10943.921543
534.387040	11043.877542
534.747999	11049.080012
535.108902	11102.332241
535.469748	10860.361898
535.830537	10958.374531
536.191270	10948.130907
536.551947	10971.995729
536.912567	10971.073198
537.273131	10893.139480
537.633638	10871.013856
537.994089	10862.970695
538.354483	10811.213168
538.714821	10958.303955
539.075103	10964.849893
539.435328	10928.830849
539.795497	10753.572615
540.155609	10911.063302
540.515665	10998.592857
540.875665	10740.584082
541.235609	10802.247476
541.595496	10805.204113
541.955328	10949.970928
542.315102	10839.562097
542.674821	10793.175920
543.034483	10785.394899
543.394090	10795.174737
543.753640	10723.587832
544.113134	10946.721904
544.472571	10792.926383
544.831953	10940.922057
545.191278	10744.979968
545.550548	10777.727304
545.909761	10918.836762
546.268918	10885.814683
546.628019	10962.914090
546.987064	10837.091931
547.346053	10752.647563
547.704986	10850.856802
548.063863	10840.913126
548.422684	10831.586991
548.781449	10749.522048
549.140158	10855.910559
549.498811	10737.319935
549.857408	10583.980638
550.215949	10812.382716
550.574434	10661.621969
550.932864	10768.804461
551.291237	10822.923768
551.649555	10775.390729
552.007817	10781.188056
552.366022	10754.096895
552.724173	10740.228681
553.082267	10721.415095
553.440305	10861.165962
553.798288	10667.399131
554.156215	10825.802267
554.514086	10797.627258
554.871902	10640.779318
555.229661	10681.111070
555.587365	10656.331278
555.945014	10549.920082
556.302606	10677.239463
556.660143	10566.588657
557.017625	10729.228883
557.375050	10620.231575
557.732421	10749.554815
558.089735	10670.587661
558.446994	10671.941211
558.804197	10702.440192
559.161345	10715.889990
559.518437	10553.292614
559.875474	10644.287961
560.232455	10676.538743
560.589381	10624.619900
560.946251	10622.800043
561.303065	10731.315921
561.659825	10661.984932
562.016528	10598.748698
562.373177	10476.117590
562.729770	10582.866543
563.086307	10503.959882
563.442789	10595.318193
563.799216	10478.595317
564.155587	10525.047029
564.511904	10481.834258
564.868164	10469.196085
565.224370	10485.063117
565.580520	10407.273072
565.936615	10410.615357
566.292654	10279.610892
566.648638	10420.054918
567.004567	10371.077587
567.360441	10353.390699
567.716260	10265.495661
568.072023	10359.329178
568.427732	10310.354369
568.783385	10222.681142
569.138982	10290.845103
569.494525	10307.803545
569.850013	10185.535400
570.205445	10258.233879
570.560823	10158.260237
570.916145	10076.722094
571.271412	10148.107353
571.626625	10094.502243
571.981782	10070.188758
572.336884	10041.703719
572.691931	10052.481706
573.046923	9993.096913
573.401860	9953.135687
573.756743	9885.730419
574.111570	9929.278426
574.466342	9917.782075
574.821059	9942.042628
575.175722	9835.883489
575.530330	9846.923616
575.884882	9838.877935
576.239380	9760.102344
576.593823	9745.029294
576.948211	9749.994831
577.302544	9639.109611
577.656823	9653.756683
578.011047	9652.307352
578.365216	9627.739288
578.719330	9552.608452
579.073389	9569.831554
579.427394	9507.880814
579.781344	9487.577567
580.135239	9438.063354
580.489080	9443.217934
580.842866	9348.030867
581.196597	9351.622689
581.550273	9391.725068
581.903895	9355.496816
582.257463	9429.352240
582.610975	9305.513776
582.964434	9334.056789
583.317837	9250.940765
583.671186	9238.809228
584.024481	9231.413855
584.377721	9152.086258
584.730906	9126.845201
585.084037	9153.394438
585.437113	9092.373791
585.790135	9109.491029
586.143103	9011.357408
586.496016	8987.805137
586.848874	9049.226555
587.201679	9029.185448
587.554428	8916.011544
587.907124	8961.444943
588.259765	8939.992313
588.612352	8939.122714
588.964884	8818.011513
589.317362	8825.656423
589.669786	8832.908123
590.022155	8876.604845
590.374470	8892.118996
590.726731	8821.565527
591.078937	8680.377931
591.431090	8795.669120
591.783188	8667.593565
592.135232	8659.898244
592.487222	8660.142740
592.839157	8709.982107
593.191038	8643.653125
593.542866	8590.496679
593.894639	8487.268971
594.246358	8538.620685
594.598022	8557.567862
594.949633	8456.114641
595.301190	8426.523068
595.652692	8460.381977
596.004141	8571.393226
596.355535	8344.548865
596.706876	8326.037748
597.058162	8256.933611
597.409395	8334.083429
597.760573	8400.362000
598.111698	8315.937796
598.462768	8295.495917
598.813785	8259.930577
599.164748	8228.798931
599.515657	8218.648568
599.866511	8129.745299
600.217312	8258.246832
600.568060	8114.571426
600.918753	8213.246972
601.269392	8186.095317
601.619978	8096.657686
601.970510	8169.598141
602.320988	8155.377046
602.671412	8214.540028
603.021783	8153.610122
603.372100	8128.364023
603.722363	8130.521637
604.072572	8101.567770
604.422728	8116.013196
604.772830	8046.334368
605.122878	8052.623207
605.472872	8045.487454
605.822813	8074.751352
606.172701	8019.071808
606.522534	8089.685770
606.872314	8093.484280
607.222041	8063.280207
607.571714	8119.526881
607.921333	8080.941889
608.270899	8082.323165
608.620411	8171.584356
608.969870	8079.127074
609.319276	8071.313285
609.668627	8086.119154
610.017926	8123.070812
610.367171	8167.248963
610.716362	8148.296746
611.065500	8137.317112
611.414585	8169.635950
611.763616	8150.822364
612.112594	8137.359962
612.461518	8149.604925
612.810389	8209.433339
613.159207	8153.340420
613.507971	8102.278573
613.856682	8214.356026
614.205340	8172.675766
614.553945	8253.457735
614.902496	8153.594998
615.250994	8207.500056
615.599439	8182.362343
615.947830	8197.987399
616.296169	8175.216507
616.644454	8187.887447
616.992686	8178.757918
617.340864	8239.218996
617.688990	8146.958319
618.037063	8232.529385
618.385082	8174.674583
618.733048	8272.367103
619.080961	8209.209007
619.428821	8226.926143
619.776628	8230.235660
620.124382	8179.193978
620.472083	8164.231833
620.819731	8195.222326
621.167326	8088.112930
621.514868	8090.575534
621.862357	7981.006055
622.209793	7999.615475
622.557176	7934.801360
622.904506	7902.865650
623.251783	7834.552974
623.599007	7792.963455
623.946179	7797.470247
624.293297	7753.546673
624.640363	7671.499374
624.987376	7651.301991
625.334336	7594.820903
625.681243	7546.801392
626.028097	7535.751183
626.374899	7513.073552
626.721647	7511.167996
627.068343	7438.499763
627.414987	7413.155362
627.761577	7361.097887
628.108115	7407.690752
628.454600	7298.907693
628.801032	7352.933739
629.147412	7303.689227
629.493739	7293.624564
629.840014	7229.644760
630.186236	7290.640201
630.532405	7180.042326
630.878521	7223.418935
631.224585	7187.389808
631.570597	7101.060048
631.916556	7142.377345
632.262462	7133.472147
632.608316	7094.506548
632.954117	7071.670122
633.299866	7062.596045
633.645562	7054.573048
633.991206	6975.888198
634.336797	6911.374032
634.682336	6869.875254
635.027823	6840.732343
635.373257	6830.617268
635.718639	6760.209993
636.063968	6777.211284
636.409245	6674.812847
636.754470	6668.970149
637.099642	6624.096318
637.444762	6571.887609
637.789829	6579.499751
638.134845	6522.431369
638.479808	6507.897722
638.824719	6512.563310
639.169577	6442.214008
639.514383	6460.410053
639.859137	6390.748869
640.203839	6400.868985
640.548489	6381.606736
