Dividing Wavelength (nm)	Counts (n)	Blue Motor Position (mm): 35.500000	Red Motor Position (mm): 0.000000	
326.493990	2130.983951
326.888308	2130.983951
327.282561	2130.983951
327.676750	2098.655031
328.070874	2096.298292
328.464933	2100.011102
328.858929	2107.265322
329.252859	2117.614811
329.646726	2129.582510
330.040528	2141.106588
330.434265	2156.504792
330.827938	2170.602379
331.221547	2190.167097
331.615091	2211.516384
332.008571	2230.410628
332.401986	2250.610532
332.795338	2269.998809
333.188625	2287.446243
333.581847	2308.114974
333.975006	2324.778508
334.368100	2342.755262
334.761129	2361.553725
335.154095	2377.193905
335.546996	2397.799621
335.939833	2425.142840
336.332606	2439.242947
336.725315	2453.728702
337.117960	2461.023252
337.510540	2471.783595
337.903056	2480.371201
338.295508	2487.874958
338.687896	2494.680516
339.080220	2506.186949
339.472480	2511.623834
339.864676	2511.321365
340.256807	2520.065246
340.648875	2521.973323
341.040879	2525.063550
341.432818	2526.832995
341.824694	2527.221164
342.216506	2527.327028
342.608253	2530.500434
342.999937	2528.115969
343.391557	2527.848788
343.783113	2528.872142
344.174605	2525.426513
344.566033	2522.986595
344.957397	2523.775535
345.348697	2521.597757
345.739934	2520.579444
346.131106	2518.711696
346.522215	2515.036695
346.913260	2514.222549
347.304241	2516.337313
347.695159	2512.284225
348.086012	2510.071158
348.476802	2509.425891
348.867528	2505.907165
349.258191	2505.171157
349.648789	2505.564367
350.039324	2501.165960
350.429796	2502.811897
350.820203	2496.389467
351.210548	2501.589417
351.600828	2497.228819
351.991045	2497.889210
352.381198	2496.833088
352.771288	2498.085815
353.161314	2498.005157
353.551276	2493.959631
353.941175	2495.106493
354.331010	2496.795280
354.720782	2494.380567
355.110490	2495.293016
355.500135	2498.179077
355.889717	2498.063130
356.279235	2496.777636
356.668689	2496.215547
357.058080	2499.615805
357.447408	2493.924343
357.836672	2494.549446
358.225873	2496.964158
358.615010	2493.962151
359.004084	2498.486587
359.393095	2498.920126
359.782043	2499.303254
360.170927	2500.495487
360.559748	2501.760816
360.948505	2503.106804
361.337199	2504.157885
361.725830	2504.596465
362.114398	2501.037411
362.502903	2502.297699
362.891344	2503.512617
363.279722	2507.734584
363.668037	2507.520335
364.056289	2505.899604
364.444478	2506.842299
364.832603	2507.805160
365.220665	2507.583349
365.608665	2506.749038
365.996601	2507.177536
366.384474	2509.509070
366.772284	2510.469410
367.160031	2507.553102
367.547715	2509.108298
367.935336	2509.430932
368.322893	2511.117198
368.710388	2508.344563
369.097820	2511.984276
369.485189	2507.875736
369.872495	2513.778927
370.259738	2510.003103
370.646918	2510.855058
371.034035	2508.926817
371.421090	2513.736077
371.808081	2512.705161
372.195010	2511.568381
372.581875	2513.577281
372.968678	2511.326406
373.355418	2510.945799
373.742096	2513.302538
374.128710	2512.967301
374.515262	2512.926972
374.901751	2512.410254
375.288177	2512.349760
375.674540	2515.336644
376.060841	2517.963085
376.447079	2515.707168
376.833254	2517.254803
377.219367	2511.399503
377.605417	2512.150634
377.991404	2513.347908
378.377329	2514.285563
378.763191	2511.633916
379.148991	2519.165400
379.534727	2516.057529
379.920402	2517.232117
380.306013	2518.101717
380.691563	2521.247397
381.077049	2516.153311
381.462474	2519.273785
381.847835	2518.804957
382.233134	2520.932324
382.618371	2517.453928
383.003545	2518.958713
383.388657	2521.323014
383.773706	2520.629855
384.158693	2522.069105
384.543618	2522.157325
384.928480	2521.237314
385.313280	2522.621111
385.698017	2520.037520
386.082692	2526.618746
386.467305	2523.510875
386.851856	2522.737057
387.236344	2521.149094
387.620770	2524.745957
388.005133	2527.072450
388.389435	2526.855680
388.773674	2525.270237
389.157851	2527.657224
389.541965	2527.740403
389.926018	2527.919364
390.310008	2529.421628
390.693936	2526.182686
391.077802	2528.037831
391.461606	2530.394570
391.845348	2526.391894
392.229027	2530.477749
392.612645	2529.620753
392.996200	2530.772657
393.379694	2530.303829
393.763125	2531.498583
394.146494	2528.851977
394.529801	2530.455064
394.913047	2530.818027
395.296230	2532.098480
395.679351	2529.540095
396.062410	2532.751310
396.445408	2534.117462
396.828343	2534.994623
397.211217	2528.597399
397.594028	2531.097811
397.976778	2530.434899
398.359466	2536.317926
398.742092	2531.581762
399.124656	2536.542257
399.507158	2535.788605
399.889598	2540.287835
400.271977	2537.679038
400.654294	2542.742877
401.036549	2543.274718
401.418742	2544.214893
401.800874	2550.196223
402.182944	2553.513302
402.564952	2556.041440
402.946898	2562.584858
403.328783	2564.601320
403.710606	2572.762948
404.092367	2581.274936
404.474067	2590.167531
404.855705	2599.256732
405.237282	2605.948863
405.618797	2622.831688
406.000250	2636.997330
406.381642	2655.561379
406.762972	2668.623009
407.144240	2684.328723
407.525447	2700.730117
407.906593	2720.872048
408.287677	2743.209400
408.668700	2755.739188
409.049661	2780.299690
409.430560	2806.614513
409.811399	2824.389621
410.192176	2870.274204
410.572891	2888.137532
410.953545	2928.733944
411.334138	2937.220727
411.714669	2979.319403
412.095139	2988.254848
412.475547	3048.116029
412.855894	3072.963876
413.236180	3111.735391
413.616405	3136.099287
413.996568	3192.061136
414.376670	3207.345914
414.756711	3230.479769
415.136691	3279.802419
415.516609	3345.481092
415.896466	3392.010942
416.276262	3447.844241
416.655997	3480.291628
417.035670	3591.902774
417.415283	3675.578366
417.794834	3697.351109
418.174324	3719.222155
418.553753	3720.306003
418.933121	3855.950851
419.312428	3939.024025
419.691674	3956.539514
420.070859	4071.198037
420.449983	4067.525557
420.829045	4181.526210
421.208047	4174.942463
421.586988	4264.158283
421.965867	4316.861026
422.344686	4458.099033
422.723444	4401.880086
423.102141	4317.097960
423.480777	4563.938058
423.859352	4450.393630
424.237866	4677.421993
424.616319	4711.512796
424.994712	4831.260365
425.373044	4776.336993
425.751314	4931.332310
426.129524	4815.887366
426.507673	5006.803424
426.885762	5109.317808
427.263789	5086.665383
427.641756	5018.284652
428.019662	5153.773223
428.397508	5186.061813
428.775292	5172.201161
429.153016	5288.351866
429.530679	5247.455506
429.908282	5353.294531
430.285824	5254.404736
430.663305	5526.395151
431.040726	5312.073016
431.418086	5325.928627
431.795385	5445.968582
432.172624	5472.296008
432.549802	5482.993337
432.926920	5510.918808
433.303977	5533.772879
433.680974	5580.020425
434.057910	5614.534685
434.434786	5630.240399
434.811601	5609.886741
435.188355	5846.949521
435.565050	5731.285287
435.941683	5725.548454
436.318257	5938.446463
436.694770	5934.123674
437.071222	5975.078008
437.447614	5908.983440
437.823946	5829.975956
438.200218	5985.427497
438.576429	5857.951839
438.952580	5956.443383
439.328670	6002.890053
439.704700	5920.063896
440.080670	5904.557307
440.456580	6175.171486
440.832429	6061.264094
441.208218	5909.916053
441.583947	6064.992028
441.959616	6069.871865
442.335224	6001.080279
442.710773	6137.191433
443.086261	6165.590773
443.461689	5961.161903
443.837057	6108.850066
444.212365	6264.518376
444.587612	6158.944012
444.962800	6310.740716
445.337927	6293.217665
445.712995	5907.488738
446.088002	6484.922664
446.462949	6309.397248
446.837837	6243.872331
447.212664	6421.497387
447.587431	6562.271608
447.962139	7106.358301
448.336786	8027.031790
448.711374	7765.519413
449.085901	6842.910122
449.460369	6769.538648
449.834776	6699.385951
450.209124	7092.250632
450.583412	7245.156390
450.957640	7385.602936
451.331808	7147.128633
451.705917	6702.922321
452.079965	6628.643439
452.453954	6841.077662
452.827883	6718.559980
453.201752	6814.377191
453.575562	6610.051664
453.949311	6815.677809
454.323001	6704.890891
454.696632	6778.343023
455.070202	6917.196565
455.443713	7071.823877
455.817164	7170.668301
456.190556	7255.939418
456.563888	7330.515727
456.937160	7372.863940
457.310373	7027.486929
457.683526	7055.566156
458.056619	6944.517098
458.429653	6931.546209
458.802628	6865.224789
459.175542	6973.589432
459.548398	7325.845098
459.921194	7488.197979
460.293930	7496.094946
460.666607	8025.756378
461.039224	8334.877411
461.411782	8453.074825
461.784280	8467.636198
462.156719	8358.142336
462.529099	8238.563646
462.901419	7828.501069
463.273680	7727.282262
463.645882	7732.860298
464.018024	7599.471368
464.390106	7772.609796
464.762130	8153.078280
465.134094	8627.440775
465.505999	9642.731680
465.877845	10865.803823
466.249631	11505.712769
466.621358	11124.846034
466.993026	10496.864458
467.364634	10243.372558
467.736184	9879.149192
468.107674	9546.269201
468.479105	9585.501981
468.850477	9344.194549
469.221790	9115.966391
469.593043	8787.061349
469.964238	8652.553282
470.335373	8669.433586
470.706449	8721.760763
471.077467	8705.112352
471.448425	10013.138020
471.819324	11082.170146
472.190164	11100.782086
472.560945	9849.318164
472.931667	9071.004340
473.302330	8938.961397
473.672934	8586.073066
474.043479	8945.542623
474.413965	8884.685814
474.784393	8759.564376
475.154761	8916.044312
475.525070	9008.572170
475.895321	8834.806117
476.265513	9003.465481
476.635645	9179.018623
477.005719	9182.726391
477.375734	9293.568762
477.745691	9529.063743
478.115588	9662.001490
478.485427	9903.863449
478.855207	10441.527712
479.224928	11257.733370
479.594591	11875.980478
479.964194	11689.372086
480.333739	11631.487037
480.703226	11541.961186
481.072653	11635.661112
481.442022	11869.787420
481.811333	12059.909496
482.180584	11868.184333
482.549777	11579.553070
482.918912	11402.495144
483.287988	11419.889645
483.657005	11434.022520
484.025964	11117.339756
484.394864	11251.268090
484.763706	11216.476567
485.132489	10982.158695
485.501213	10938.340986
485.869879	11019.551454
486.238487	10860.886178
486.607036	10970.581685
486.975527	10753.623027
487.343959	10943.175452
487.712333	10988.876033
488.080648	10926.839593
488.448905	10963.655140
488.817104	10903.660368
489.185244	11169.329176
489.553326	11326.499750
489.921350	11862.601255
490.289315	12921.712390
490.657222	13266.411367
491.025070	13171.534331
491.392861	13043.143704
491.760593	12668.825428
492.128267	12318.954228
492.495883	11989.507262
492.863440	11651.709625
493.230939	11316.107411
493.598380	11251.419325
493.965763	11121.685231
494.333088	11017.298058
494.700354	10939.840729
495.067563	11001.448670
495.434713	10835.675367
495.801805	10965.598505
496.168839	10883.894004
496.535815	10817.416308
496.902733	10824.335292
497.269593	10757.242575
497.636395	10855.663542
498.003139	10839.819196
498.369825	10707.287261
498.736453	10869.816582
499.103023	10797.261775
499.469535	10822.918727
499.835989	10809.904989
500.202385	10774.690008
500.568723	10629.328337
500.935003	10847.668272
501.301226	10650.007150
501.667390	10908.046172
502.033497	11009.983344
502.399546	10869.539318
502.765537	10771.322518
503.131470	10851.693633
503.497345	11025.936075
503.863163	10633.162135
504.228923	10947.087388
504.594625	11011.130206
504.960269	10758.911197
505.325856	10978.365227
505.691385	10769.663978
506.056856	10924.908831
506.422270	10949.807090
506.787625	10838.906747
507.152924	10957.734305
507.518164	10935.596078
507.883347	10855.547596
508.248472	10772.197158
508.613540	11010.515185
508.978550	10890.596218
509.343503	10870.623166
509.708398	10984.732204
510.073236	11100.000707
510.438016	11103.353075
510.802738	11054.113604
511.167403	11111.134096
511.532010	11001.652837
511.896561	11232.434339
512.261053	11313.181021
512.625488	11176.817810
512.989866	11160.799543
513.354186	11149.643470
513.718449	11051.877853
514.082655	11237.707386
514.446803	11141.272634
514.810894	11255.926116
515.174927	11129.826694
515.538904	11153.320992
515.902822	11305.185751
516.266684	11183.237719
516.630488	11128.596653
516.994235	11185.753255
517.357925	11245.773233
517.721558	11337.103817
518.085133	11349.310971
518.448651	11360.315810
518.812112	11243.305588
519.175516	11261.426015
519.538863	11375.373736
519.902152	11298.365070
520.265385	11457.708381
520.628560	11371.315607
520.991678	11346.402225
521.354739	11410.901268
521.717743	11347.728048
522.080690	11322.794502
522.443580	11455.928854
522.806413	11415.156002
523.169189	11442.773963
523.531908	11493.361942
523.894569	11324.238792
524.257174	11320.077320
524.619722	11446.113728
524.982213	11396.382745
525.344647	11437.531163
525.707025	11386.610468
526.069345	11483.030097
526.431608	11400.889536
526.793815	11512.606547
527.155964	11303.055864
527.518057	11354.619306
527.880093	11305.251286
528.242072	11369.359640
528.603995	11278.986875
528.965860	11205.915350
529.327669	11246.184087
529.689421	11198.202384
530.051117	11164.809781
530.412755	11272.453539
530.774337	11163.385655
531.135862	11140.849177
531.497331	11165.639051
531.858743	11021.005827
532.220098	11190.312978
532.581396	11057.370190
532.942638	11038.932170
533.303824	11005.605102
533.664953	11018.074396
534.026025	10931.227918
534.387040	11030.959585
534.747999	11036.958558
535.108902	11096.446694
535.469748	10852.351504
535.830537	10956.148862
536.191270	10934.663464
536.551947	10957.250354
536.912567	10953.595517
537.273131	10877.574917
537.633638	10856.437359
537.994089	10841.838178
538.354483	10792.112236
538.714821	10945.527151
539.075103	10954.074427
539.435328	10917.034549
539.795497	10743.518034
540.155609	10900.723896
540.515665	10987.048614
540.875665	10727.378780
541.235609	10790.307503
541.595496	10790.504108
541.955328	10945.640577
542.315102	10822.351598
542.674821	10776.041038
543.034483	10768.993505
543.394090	10781.551019
543.753640	10708.439165
544.113134	10932.042064
544.472571	10785.994796
544.831953	10929.203894
545.191278	10736.379760
545.550548	10763.100396
545.909761	10901.495192
546.268918	10869.009997
546.628019	10954.455034
546.987064	10826.003913
547.346053	10744.506100
547.704986	10847.035607
548.063863	10828.085910
548.422684	10823.808491
548.781449	10735.961344
549.140158	10846.879332
549.498811	10715.259846
549.857408	10571.738196
550.215949	10803.452312
550.574434	10656.303552
550.932864	10757.827349
551.291237	10814.200052
551.649555	10763.297001
552.007817	10770.684812
552.366022	10741.541901
552.724173	10732.311549
553.082267	10706.473115
553.440305	10851.343273
553.798288	10650.942284
554.156215	10802.711262
554.514086	10785.536051
554.871902	10631.773297
555.229661	10674.600419
555.587365	10640.023145
555.945014	10541.607219
556.302606	10667.474748
556.660143	10556.304703
557.017625	10713.818076
557.375050	10607.427044
557.732421	10746.376368
558.089735	10654.481174
558.446994	10656.298510
558.804197	10690.427122
559.161345	10698.155211
559.518437	10543.185100
559.875474	10634.941662
560.232455	10663.890488
560.589381	10618.472212
560.946251	10614.570359
561.303065	10720.124559
561.659825	10659.570219
562.016528	10578.077447
562.373177	10456.472213
562.729770	10582.019629
563.086307	10494.905970
563.442789	10585.581204
563.799216	10468.303801
564.155587	10511.176294
564.511904	10466.070570
564.868164	10463.933121
565.224370	10469.707763
565.580520	10397.682277
565.936615	10407.333566
566.292654	10275.023442
566.648638	10400.049099
567.004567	10361.736329
567.360441	10342.930305
567.716260	10255.514177
568.072023	10343.202527
568.427732	10300.864397
568.783385	10206.723369
569.138982	10278.358165
569.494525	10291.513056
569.850013	10172.922433
570.205445	10254.034598
570.560823	10150.602724
570.916145	10066.153315
571.271412	10140.780036
571.626625	10085.092930
571.981782	10062.669878
572.336884	10028.805927
572.691931	10037.895127
573.046923	9983.183484
573.401860	9943.257546
573.756743	9876.182473
574.111570	9923.465976
574.466342	9904.095342
574.821059	9932.575341
575.175722	9825.599536
575.530330	9833.199075
575.884882	9826.204474
576.239380	9757.009596
576.593823	9734.793231
576.948211	9753.105223
577.302544	9628.371953
577.656823	9641.010126
578.011047	9643.142534
578.365216	9619.771745
578.719330	9538.727635
579.073389	9553.974605
579.427394	9498.990740
579.781344	9468.053178
580.135239	9426.090614
580.489080	9434.083363
580.842866	9338.644239
581.196597	9344.378551
581.550273	9387.054439
581.903895	9353.694603
582.257463	9420.114326
582.610975	9289.523236
582.964434	9322.562958
583.317837	9241.697809
583.671186	9232.033917
584.024481	9219.509170
584.377721	9137.149319
584.730906	9119.434705
585.084037	9147.760948
585.437113	9086.591587
585.790135	9103.865101
586.143103	9003.052107
586.496016	8977.964804
586.848874	9034.766005
587.201679	9029.835757
587.554428	8908.936285
587.907124	8949.444477
588.259765	8926.913039
588.612352	8931.626518
588.964884	8801.789080
589.317362	8819.377666
589.669786	8821.462183
590.022155	8871.117549
590.374470	8882.079538
590.726731	8817.535124
591.078937	8675.724946
591.431090	8781.548848
591.783188	8655.366246
592.135232	8654.410948
592.487222	8650.972881
592.839157	8705.848361
593.191038	8642.186150
593.542866	8579.895132
593.894639	8485.812078
594.246358	8532.092391
594.598022	8546.348774
594.949633	8456.893499
595.301190	8427.448119
595.652692	8452.966440
596.004141	8562.961896
596.355535	8342.343360
596.706876	8325.667223
597.058162	8254.135771
597.409395	8335.638625
597.760573	8395.887976
598.111698	8299.801063
598.462768	8282.913197
598.813785	8258.889579
599.164748	8221.159063
599.515657	8212.422743
599.866511	8122.896892
600.217312	8249.031602
600.568060	8109.280735
600.918753	8213.511632
601.269392	8182.193464
601.619978	8092.236594
601.970510	8158.598343
602.320988	8150.756829
602.671412	8209.582053
603.021783	8143.459758
603.372100	8113.540510
603.722363	8121.371943
604.072572	8094.797500
604.422728	8105.066331
604.772830	8036.209210
605.122878	8045.474851
605.472872	8044.297742
605.822813	8067.799601
606.172701	8013.539142
606.522534	8084.019513
606.872314	8088.163342
607.222041	8061.213333
607.571714	8113.200232
607.921333	8075.953667
608.270899	8074.179181
608.620411	8162.404415
608.969870	8073.112977
609.319276	8063.900268
609.668627	8078.605314
610.017926	8114.337013
610.367171	8162.200248
610.716362	8140.903893
611.065500	8133.732852
611.414585	8153.516860
611.763616	8150.103999
612.112594	8127.449054
612.461518	8142.822053
612.810389	8201.705250
613.159207	8142.207032
613.507971	8091.835822
613.856682	8208.752783
614.205340	8163.117738
614.553945	8242.561281
614.902496	8141.372721
615.250994	8197.700053
615.599439	8178.803288
615.947830	8190.261831
616.296169	8164.166298
616.644454	8181.371756
616.992686	8174.397320
617.340864	8235.491063
617.688990	8140.598904
618.037063	8226.893375
618.385082	8176.217176
618.733048	8266.118593
619.080961	8201.884211
619.428821	8214.363587
619.776628	8221.932880
620.124382	8170.215682
620.472083	8157.837129
620.819731	8182.218670
621.167326	8079.603463
621.514868	8088.511182
621.862357	7973.961043
622.209793	7989.402097
622.557176	7924.991274
622.904506	7896.871718
623.251783	7837.242430
623.599007	7778.414685
623.946179	7786.959441
624.293297	7746.864624
624.640363	7666.097777
624.987376	7645.406361
625.334336	7592.985923
625.681243	7540.545320
626.028097	7527.279524
626.374899	7508.264292
626.721647	7503.545772
627.068343	7430.050790
627.414987	7398.422590
627.761577	7359.031014
628.108115	7399.173722
628.454600	7293.012063
628.801032	7337.729619
629.147412	7300.735111
629.493739	7289.546270
629.840014	7231.187353
630.186236	7280.993953
630.532405	7166.287538
630.878521	7215.895012
631.224585	7173.687952
631.570597	7099.603155
631.916556	7133.026005
632.262462	7129.376210
632.608316	7087.884993
632.954117	7065.109060
633.299866	7055.430044
633.645562	7045.982922
633.991206	6968.512990
634.336797	6912.533497
634.682336	6867.437856
635.027823	6834.882084
635.373257	6825.545867
635.718639	6759.189159
636.063968	6767.391117
636.409245	6663.258522
636.754470	6658.073695
637.099642	6620.393591
637.444762	6564.270425
637.789829	6578.907415
638.134845	6517.317118
638.479808	6497.399519
638.824719	6507.227249
639.169577	6431.972904
639.514383	6453.435617
639.859137	6385.070009
640.203839	6394.852368
640.548489	6378.831581
