Dividing Wavelength (nm)	Counts (n)	Blue Motor Position (mm): 29.900000	Red Motor Position (mm): 0.000000	
326.493990	2131.291461
326.888308	2131.291461
327.282561	2131.291461
327.676750	2098.846595
328.070874	2098.322315
328.464933	2099.141503
328.858929	2106.171392
329.252859	2117.544235
329.646726	2128.604526
330.040528	2138.674231
330.434265	2157.238280
330.827938	2175.900632
331.221547	2194.046265
331.615091	2210.898842
332.008571	2230.760988
332.401986	2250.865110
332.795338	2269.892945
333.188625	2289.182920
333.581847	2306.259829
333.975006	2324.881851
334.368100	2346.952023
334.761129	2363.068592
335.154095	2381.373021
335.546996	2399.354817
335.939833	2425.160484
336.332606	2439.212700
336.725315	2452.032354
337.117960	2458.984105
337.510540	2467.599437
337.903056	2481.402117
338.295508	2487.867396
338.687896	2496.321411
339.080220	2504.046980
339.472480	2513.146262
339.864676	2516.549041
340.256807	2518.996521
340.648875	2521.093641
341.040879	2526.006246
341.432818	2524.929959
341.824694	2527.437933
342.216506	2528.690660
342.608253	2529.792152
342.999937	2529.804755
343.391557	2526.308715
343.783113	2526.197810
344.174605	2526.701925
344.566033	2526.258303
344.957397	2522.797551
345.348697	2523.064732
345.739934	2519.349402
346.131106	2520.178672
346.522215	2515.515605
346.913260	2512.362363
347.304241	2511.868330
347.695159	2510.071158
348.086012	2507.427073
348.476802	2508.042094
348.867528	2506.328102
349.258191	2505.264418
349.648789	2504.873729
350.039324	2501.334839
350.429796	2501.327277
350.820203	2497.823675
351.210548	2496.865856
351.600828	2497.727893
351.991045	2497.425424
352.381198	2497.009529
352.771288	2493.972234
353.161314	2496.233191
353.551276	2497.243942
353.941175	2496.472646
354.331010	2496.286123
354.720782	2495.010711
355.110490	2496.437358
355.500135	2492.971565
355.889717	2494.511637
356.279235	2494.877121
356.668689	2495.734117
357.058080	2495.320742
357.447408	2494.380567
357.836672	2493.263952
358.225873	2493.316884
358.615010	2493.110196
359.004084	2498.168994
359.393095	2497.556494
359.782043	2498.917606
360.170927	2497.533809
360.559748	2498.768892
360.948505	2500.177894
361.337199	2502.811897
361.725830	2499.325939
362.114398	2503.807525
362.502903	2503.189983
362.891344	2505.294665
363.279722	2503.593276
363.668037	2503.623523
364.056289	2505.975221
364.444478	2503.421877
364.832603	2506.081085
365.220665	2505.458503
365.608665	2504.538492
365.996601	2507.452279
366.384474	2508.321878
366.772284	2506.680983
367.160031	2506.738956
367.547715	2505.695437
367.935336	2506.345746
368.322893	2508.412619
368.710388	2510.787002
369.097820	2509.866992
369.485189	2509.688031
369.872495	2509.032681
370.259738	2508.606703
370.646918	2509.809018
371.034035	2510.156858
371.421090	2511.926303
371.808081	2511.344050
372.195010	2512.022085
372.581875	2509.572084
372.968678	2513.967970
373.355418	2512.775737
373.742096	2511.596107
374.128710	2511.046622
374.515262	2512.455624
374.901751	2513.317662
375.288177	2513.131139
375.674540	2511.807836
376.060841	2512.339678
376.447079	2513.915038
376.833254	2512.909328
377.219367	2509.390603
377.605417	2511.137362
377.991404	2508.447907
378.377329	2511.926303
378.763191	2508.165602
379.148991	2516.291942
379.534727	2512.753052
379.920402	2516.077693
380.306013	2515.286232
380.691563	2514.124246
381.077049	2517.557272
381.462474	2516.380163
381.847835	2517.403517
382.233134	2516.208763
382.618371	2517.216994
383.003545	2516.385204
383.388657	2519.016686
383.773706	2517.766480
384.158693	2517.771521
384.543618	2515.923938
384.928480	2519.908970
385.313280	2519.273785
385.698017	2520.355112
386.082692	2519.820750
386.467305	2518.499968
386.851856	2521.151615
387.236344	2516.566685
387.620770	2521.781759
388.005133	2520.239166
388.389435	2523.074815
388.773674	2521.133971
389.157851	2518.550379
389.541965	2519.873682
389.926018	2522.174969
390.310008	2522.379136
390.693936	2522.671522
391.077802	2518.827643
391.461606	2523.974661
391.845348	2523.163035
392.229027	2522.603467
392.612645	2521.075997
392.996200	2525.257634
393.379694	2522.870648
393.763125	2527.034641
394.146494	2523.818385
394.529801	2527.309384
394.913047	2526.785104
395.296230	2527.669827
395.679351	2525.081194
396.062410	2525.199661
396.445408	2527.281658
396.828343	2524.377953
397.211217	2520.710514
397.594028	2525.330731
397.976778	2522.487520
398.359466	2527.606812
398.742092	2524.027593
399.124656	2526.409538
399.507158	2528.057995
399.889598	2526.785104
400.271977	2529.043541
400.654294	2531.319622
401.036549	2526.984230
401.418742	2530.681916
401.800874	2529.530012
402.182944	2528.894827
402.564952	2529.996319
402.946898	2529.361134
403.328783	2527.591689
403.710606	2531.349869
404.092367	2533.744417
404.474067	2530.686957
404.855705	2531.894313
405.237282	2531.518748
405.618797	2530.107224
406.000250	2535.523944
406.381642	2531.586803
406.762972	2533.043697
407.144240	2532.179139
407.525447	2535.130734
407.906593	2531.982534
408.287677	2534.006557
408.668700	2535.471012
409.049661	2536.133924
409.430560	2533.212575
409.811399	2534.944212
410.192176	2535.508821
410.572891	2535.176105
410.953545	2533.562935
411.334138	2533.010929
411.714669	2535.667617
412.095139	2535.869263
412.475547	2537.875643
412.855894	2536.310364
413.236180	2537.116949
413.616405	2539.241795
413.996568	2536.295241
414.376670	2537.454706
414.756711	2537.285828
415.136691	2540.623071
415.516609	2536.272556
415.896466	2538.316743
416.276262	2539.282124
416.655997	2536.060827
417.035670	2536.711136
417.415283	2538.450334
417.794834	2536.917823
418.174324	2538.909079
418.553753	2540.741538
418.933121	2543.743546
419.312428	2541.306148
419.691674	2542.493339
420.070859	2543.052908
420.449983	2545.538196
420.829045	2545.308824
421.208047	2546.692621
421.586988	2545.336550
421.965867	2548.343598
422.344686	2548.832590
422.723444	2547.219421
423.102141	2548.772097
423.480777	2551.249824
423.859352	2553.447767
424.237866	2557.440361
424.616319	2557.674774
424.994712	2562.796587
425.373044	2565.203737
425.751314	2571.976528
426.129524	2570.650704
426.507673	2583.147725
426.885762	2589.764239
427.263789	2596.138778
427.641756	2597.336052
428.019662	2610.574122
428.397508	2616.595780
428.775292	2626.731020
429.153016	2640.029584
429.530679	2647.069555
429.908282	2659.092707
430.285824	2665.242915
430.663305	2686.352747
431.040726	2693.496062
431.418086	2702.174408
431.795385	2726.404714
432.172624	2738.286714
432.549802	2756.616349
432.926920	2771.986827
433.303977	2791.854014
433.680974	2809.576191
434.057910	2834.756754
434.434786	2854.996987
434.811601	2873.137579
435.188355	2917.217428
435.565050	2928.597833
435.941683	2953.100361
436.318257	3004.809997
436.694770	3027.837988
437.071222	3066.281827
437.447614	3082.166503
437.823946	3100.314657
438.200218	3154.267606
438.576429	3167.677075
438.952580	3223.825446
439.328670	3267.940584
439.704700	3285.012451
440.080670	3312.905155
440.456580	3418.356012
440.832429	3432.473763
441.208218	3436.463836
441.583947	3512.948222
441.959616	3556.723082
442.335224	3580.290476
442.710773	3663.746778
443.086261	3721.906570
443.461689	3697.593085
443.837057	3794.088331
444.212365	3899.266965
444.587612	3908.136875
444.962800	4013.348277
445.337927	4060.117581
445.712995	3955.974905
446.088002	4241.238677
446.462949	4221.852920
446.837837	4250.582456
447.212664	4369.241135
447.587431	4504.548225
447.962139	4829.382535
448.336786	5348.802863
448.711374	5280.959014
449.085901	4869.847877
449.460369	4892.772524
449.834776	4913.153909
450.209124	5191.425601
450.583412	5351.802349
450.957640	5476.762471
451.331808	5412.147481
451.705917	5186.817987
452.079965	5190.702196
452.453954	5387.377772
452.827883	5354.325447
453.201752	5473.236183
453.575562	5384.635384
453.949311	5580.504376
454.323001	5541.609353
454.696632	5644.680785
455.070202	5795.842303
455.443713	5953.075892
455.817164	6080.027269
456.190556	6190.642787
456.563888	6298.432739
456.937160	6375.196909
457.310373	6152.466129
457.683526	6216.703032
458.056619	6169.321227
458.429653	6201.408171
458.802628	6187.550039
459.175542	6305.598739
459.548398	6647.366285
459.921194	6815.254352
460.293930	6841.370049
460.666607	7329.366344
461.039224	7631.202910
461.411782	7784.159080
461.784280	7845.517484
462.156719	7787.203937
462.529099	7720.169193
462.901419	7376.375104
463.273680	7308.629558
463.645882	7353.503389
464.018024	7265.817559
464.390106	7433.153620
464.762130	7819.174934
465.134094	8275.502701
465.505999	9245.355166
465.877845	10412.949411
466.249631	11063.780017
466.621358	10739.711963
466.993026	10181.835193
467.364634	9959.086769
467.736184	9632.094845
468.107674	9331.306839
468.479105	9376.321822
468.850477	9156.915684
469.221790	8955.536711
469.593043	8647.224783
469.964238	8521.281636
470.335373	8541.007671
470.706449	8607.949153
471.077467	8603.286086
471.448425	9899.613756
471.819324	10954.283635
472.190164	10979.622995
472.560945	9752.094471
472.931667	8986.698603
473.302330	8859.023821
473.672934	8518.604784
474.043479	8875.682313
474.413965	8822.392276
474.784393	8704.572949
475.154761	8867.820634
475.525070	8956.376063
475.895321	8780.626317
476.265513	8965.404770
476.635645	9132.743351
477.005719	9133.134040
477.375734	9250.787009
477.745691	9481.876022
478.115588	9621.016910
478.485427	9861.111944
478.855207	10392.651205
479.224928	11204.559279
479.594591	11825.079947
479.964194	11639.333593
480.333739	11583.908627
480.703226	11497.606593
481.072653	11595.835997
481.442022	11831.933396
481.811333	12020.822910
482.180584	11822.206490
482.549777	11538.734847
482.918912	11359.005110
483.287988	11382.897658
483.657005	11400.927345
484.025964	11079.783160
484.394864	11210.051616
484.763706	11181.725373
485.132489	10940.170925
485.501213	10907.557180
485.869879	10975.920267
486.238487	10825.701444
486.607036	10934.330748
486.975527	10723.139169
487.343959	10911.834599
487.712333	10956.181629
488.080648	10889.567822
488.448905	10935.717065
488.817104	10873.279854
489.185244	11135.659309
489.553326	11295.128649
489.921350	11833.559168
490.289315	12887.369530
490.657222	13222.699522
491.025070	13124.371816
491.392861	13000.321623
491.760593	12631.399902
492.128267	12278.836726
492.495883	11949.142743
492.863440	11621.142589
493.230939	11279.483428
493.598380	11222.183153
493.965763	11089.777247
494.333088	10987.406536
494.700354	10901.606098
495.067563	10967.118413
495.434713	10802.638165
495.801805	10933.589698
496.168839	10851.733963
496.535815	10789.115270
496.902733	10791.739191
497.269593	10728.838194
497.636395	10821.691206
498.003139	10805.677981
498.369825	10679.765082
498.736453	10832.204533
499.103023	10767.007290
499.469535	10796.689604
499.835989	10777.752509
500.202385	10746.457026
500.568723	10596.865827
500.935003	10828.635396
501.301226	10628.461259
501.667390	10882.127079
502.033497	10982.337656
502.399546	10843.418579
502.765537	10751.929199
503.131470	10819.210959
503.497345	10998.446663
503.863163	10609.498959
504.228923	10913.722511
504.594625	10985.090126
504.960269	10729.488503
505.325856	10953.295569
505.691385	10744.322098
506.056856	10898.818340
506.422270	10927.247927
506.787625	10814.563015
507.152924	10932.861252
507.518164	10906.294371
507.883347	10831.723103
508.248472	10752.521534
508.613540	10993.201342
508.978550	10869.733403
509.343503	10845.465288
509.708398	10967.365429
510.073236	11077.897768
510.438016	11090.157854
510.802738	11030.054698
511.167403	11077.829713
511.532010	10986.940229
511.896561	11216.065713
512.261053	11280.499221
512.625488	11158.077320
512.989866	11129.042795
513.354186	11125.443411
513.718449	11016.350321
514.082655	11214.180321
514.446803	11109.029414
514.810894	11233.523229
515.174927	11103.408527
515.538904	11123.076589
515.902822	11279.490990
516.266684	11162.886581
516.630488	11101.888619
516.994235	11157.807618
517.357925	11222.566281
517.721558	11308.437295
518.085133	11327.689462
518.448651	11336.415699
518.812112	11220.007895
519.175516	11236.492468
519.538863	11351.045128
519.902152	11270.641244
520.265385	11431.209556
520.628560	11341.890392
520.991678	11317.428193
521.354739	11389.635160
521.717743	11314.733697
522.080690	11293.260902
522.443580	11434.844228
522.806413	11390.759338
523.169189	11419.904769
523.531908	11471.768159
523.894569	11296.204936
524.257174	11303.136522
524.619722	11417.195148
524.982213	11367.670853
525.344647	11418.740262
525.707025	11364.225224
526.069345	11463.573764
526.431608	11378.988243
526.793815	11485.580921
527.155964	11271.891451
527.518057	11329.579895
527.880093	11277.706422
528.242072	11346.278717
528.603995	11244.550753
528.965860	11173.606595
529.327669	11222.021836
529.689421	11176.626246
530.051117	11134.996397
530.412755	11249.239026
530.774337	11132.858948
531.135862	11120.976948
531.497331	11140.125771
531.858743	10999.149904
532.220098	11165.812971
532.581396	11034.624504
532.942638	11017.111535
533.303824	10979.103756
533.664953	10985.866464
534.026025	10911.748899
534.387040	11010.996616
534.747999	11008.544094
535.108902	11062.991076
535.469748	10824.143728
535.830537	10930.181878
536.191270	10906.395194
536.551947	10925.753225
536.912567	10924.402195
537.273131	10854.927534
537.633638	10836.902888
537.994089	10820.292286
538.354483	10771.544328
538.714821	10916.225444
539.075103	10924.195508
539.435328	10886.601103
539.795497	10718.897038
540.155609	10870.734072
540.515665	10954.981835
540.875665	10700.786693
541.235609	10769.240521
541.595496	10759.001938
541.955328	10917.095043
542.315102	10797.654985
542.674821	10753.796946
543.034483	10750.580690
543.394090	10755.470609
543.753640	10683.598879
544.113134	10911.595144
544.472571	10758.034036
544.831953	10904.224977
545.191278	10707.282220
545.550548	10733.967568
545.909761	10872.564010
546.268918	10846.528971
546.628019	10923.257853
546.987064	10791.587956
547.346053	10710.755575
547.704986	10817.577625
548.063863	10796.397217
548.422684	10794.151383
548.781449	10717.193128
549.140158	10814.807511
549.498811	10689.151710
549.857408	10550.875381
550.215949	10773.170101
550.574434	10629.411516
550.932864	10728.961702
551.291237	10787.146700
551.649555	10737.380429
552.007817	10742.411500
552.366022	10704.242404
552.724173	10698.795437
553.082267	10687.568788
553.440305	10818.048973
553.798288	10624.183840
554.156215	10776.837540
554.514086	10750.578170
554.871902	10606.723803
555.229661	10638.997270
555.587365	10614.303178
555.945014	10511.874494
556.302606	10635.407969
556.660143	10524.275732
557.017625	10683.596358
557.375050	10577.462426
557.732421	10712.628363
558.089735	10628.267174
558.446994	10627.349684
558.804197	10661.296814
559.161345	10669.523977
559.518437	10513.172591
559.875474	10608.679771
560.232455	10639.493824
560.589381	10583.393343
560.946251	10579.909906
561.303065	10685.126349
561.659825	10621.728798
562.016528	10552.168437
562.373177	10435.768194
562.729770	10552.710361
563.086307	10468.273554
563.442789	10555.321678
563.799216	10434.170148
564.155587	10484.289300
564.511904	10433.592936
564.868164	10432.526732
565.224370	10447.380492
565.580520	10367.944510
565.936615	10376.990861
566.292654	10244.859698
566.648638	10374.979441
567.004567	10334.728348
567.360441	10317.820318
567.716260	10229.708510
568.072023	10325.956740
568.427732	10273.546384
568.783385	10179.077682
569.138982	10256.671122
569.494525	10264.734447
569.850013	10147.807404
570.205445	10229.481658
570.560823	10120.620462
570.916145	10035.863542
571.271412	10109.124110
571.626625	10050.545903
571.981782	10035.309015
572.336884	10001.871042
572.691931	10008.419500
573.046923	9959.800092
573.401860	9910.154809
573.756743	9846.454789
574.111570	9891.779803
574.466342	9873.949242
574.821059	9904.105424
575.175722	9797.391759
575.530330	9805.331577
575.884882	9796.716245
576.239380	9720.284791
576.593823	9706.371206
576.948211	9724.804185
577.302544	9599.854146
577.656823	9615.441393
578.011047	9614.082802
578.365216	9590.328886
578.719330	9516.160910
579.073389	9528.859576
579.427394	9473.419487
579.781344	9454.028688
580.135239	9403.181090
580.489080	9414.543851
580.842866	9311.220362
581.196597	9319.215632
581.550273	9360.669040
581.903895	9321.779058
582.257463	9390.283298
582.610975	9268.841902
582.964434	9295.013052
583.317837	9220.439263
583.671186	9194.991519
584.024481	9194.966313
584.377721	9117.030074
584.730906	9098.531560
585.084037	9120.543759
585.437113	9060.977485
585.790135	9075.606913
586.143103	8977.264084
586.496016	8948.118653
586.848874	9004.743414
587.201679	9001.932970
587.554428	8887.438284
587.907124	8931.419831
588.259765	8899.748782
588.612352	8904.888238
588.964884	8782.431050
589.317362	8798.507289
589.669786	8788.795506
590.022155	8850.504271
590.374470	8859.931228
590.726731	8797.294892
591.078937	8647.401223
591.431090	8759.017411
591.783188	8626.866083
592.135232	8630.435220
592.487222	8625.930949
592.839157	8684.738529
593.191038	8612.987787
593.542866	8564.035662
593.894639	8460.392060
594.246358	8509.727312
594.598022	8527.782204
594.949633	8423.846215
595.301190	8398.128768
595.652692	8427.327132
596.004141	8538.550109
596.355535	8320.709248
596.706876	8297.686299
597.058162	8232.657935
597.409395	8305.976476
597.760573	8372.265129
598.111698	8281.383207
598.462768	8265.243953
598.813785	8232.652893
599.164748	8198.564611
599.515657	8187.194289
599.866511	8101.671114
600.217312	8228.987975
600.568060	8082.728978
600.918753	8183.935183
601.269392	8159.621698
601.619978	8066.814055
601.970510	8130.793859
602.320988	8127.552397
602.671412	8184.895522
603.021783	8121.129967
603.372100	8095.321780
603.722363	8097.381092
604.072572	8076.914007
604.422728	8080.170592
604.772830	8014.950665
605.122878	8023.119854
605.472872	8017.309925
605.822813	8046.379738
606.172701	7991.262283
606.522534	8071.565343
606.872314	8065.198366
607.222041	8038.031587
607.571714	8093.272551
607.921333	8046.427629
608.270899	8055.393321
608.620411	8146.008062
608.969870	8051.630100
609.319276	8037.706433
609.668627	8056.638486
610.017926	8092.103004
610.367171	8137.468347
610.716362	8112.169317
611.065500	8112.922969
611.414585	8132.273438
611.763616	8120.270451
612.112594	8103.974921
612.461518	8119.557127
612.810389	8183.431067
613.159207	8124.865462
613.507971	8069.553922
613.856682	8195.895320
614.205340	8141.269377
614.553945	8223.442705
614.902496	8123.776573
615.250994	8173.126949
615.599439	8157.804362
615.947830	8168.549581
616.296169	8141.770972
616.644454	8151.500399
616.992686	8155.808065
617.340864	8205.274387
617.688990	8111.904656
618.037063	8207.721867
618.385082	8155.263620
618.733048	8239.443328
619.080961	8171.612082
619.428821	8191.582613
619.776628	8203.429325
620.124382	8151.886047
620.472083	8135.081361
620.819731	8159.747727
621.167326	8056.000780
621.514868	8069.241371
621.862357	7953.357847
622.209793	7969.124056
622.557176	7905.260198
622.904506	7875.988738
623.251783	7809.440466
623.599007	7764.231399
623.946179	7768.019826
624.293297	7726.553815
624.640363	7638.056359
624.987376	7630.421532
625.334336	7574.885660
625.681243	7522.550922
626.028097	7510.101792
626.374899	7490.920202
626.721647	7475.048129
627.068343	7412.580671
627.414987	7385.865076
627.761577	7341.946544
628.108115	7380.944910
628.454600	7266.364524
628.801032	7320.826630
629.147412	7281.329189
629.493739	7276.930783
629.840014	7209.018879
630.186236	7268.232272
630.532405	7150.586864
630.878521	7199.629730
631.224585	7158.072978
631.570597	7081.830567
631.916556	7114.635876
632.262462	7107.865606
632.608316	7072.471665
632.954117	7047.281019
633.299866	7035.925820
633.645562	7027.774274
633.991206	6953.848274
634.336797	6893.167905
634.682336	6847.923549
635.027823	6815.002294
635.373257	6804.272198
635.718639	6739.445480
636.063968	6752.081132
636.409245	6649.198744
636.754470	6646.385780
637.099642	6605.549913
637.444762	6548.610081
637.789829	6559.831689
638.134845	6504.946127
638.479808	6486.213199
638.824719	6486.734958
639.169577	6416.799031
639.514383	6441.727537
639.859137	6367.166351
640.203839	6374.193719
640.548489	6363.105702
