Dividing Wavelength (nm)	Counts (n)	Blue Motor Position (mm): 29.700000	Red Motor Position (mm): 0.000000	
326.493990	2132.178704
326.888308	2132.178704
327.282561	2132.178704
327.676750	2098.289548
328.070874	2094.770822
328.464933	2101.770464
328.858929	2106.715836
329.252859	2117.244286
329.646726	2128.445730
330.040528	2142.382000
330.434265	2158.455719
330.827938	2176.359377
331.221547	2192.874197
331.615091	2210.790458
332.008571	2231.275186
332.401986	2251.487693
332.795338	2271.601896
333.188625	2288.716614
333.581847	2307.575570
333.975006	2325.264979
334.368100	2344.507063
334.761129	2364.971627
335.154095	2376.954450
335.546996	2400.947822
335.939833	2422.851635
336.332606	2440.233534
336.725315	2449.776438
337.117960	2458.517799
337.510540	2470.737556
337.903056	2480.741725
338.295508	2488.169866
338.687896	2495.436689
339.080220	2504.782988
339.472480	2509.589728
339.864676	2516.720440
340.256807	2517.216994
340.648875	2526.316277
341.040879	2522.966430
341.432818	2527.034641
341.824694	2526.830474
342.216506	2529.459436
342.608253	2530.906247
342.999937	2531.128058
343.391557	2527.022038
343.783113	2528.771319
344.174605	2527.700073
344.566033	2526.512882
344.957397	2523.286543
345.348697	2524.060360
345.739934	2521.393590
346.131106	2518.913342
346.522215	2516.183558
346.913260	2512.238855
347.304241	2515.790347
347.695159	2512.536283
348.086012	2509.078051
348.476802	2507.384223
348.867528	2505.909686
349.258191	2503.018584
349.648789	2504.520848
350.039324	2500.732421
350.429796	2501.733090
350.820203	2498.547081
351.210548	2498.778974
351.600828	2496.744868
351.991045	2496.386946
352.381198	2499.542709
352.771288	2498.163953
353.161314	2497.105311
353.551276	2495.552635
353.941175	2493.450474
354.331010	2492.772439
354.720782	2494.985506
355.110490	2495.882831
355.500135	2495.446771
355.889717	2494.189003
356.279235	2493.533653
356.668689	2497.019611
357.058080	2495.847543
357.447408	2496.412152
357.836672	2492.270844
358.225873	2495.285454
358.615010	2495.023314
359.004084	2497.175887
359.393095	2498.375682
359.782043	2497.944663
360.170927	2500.535816
360.559748	2501.448265
360.948505	2502.834582
361.337199	2501.619664
361.725830	2502.416166
362.114398	2502.728718
362.502903	2503.250477
362.891344	2507.774913
363.279722	2501.720487
363.668037	2504.316681
364.056289	2502.123779
364.444478	2504.067144
364.832603	2506.547392
365.220665	2507.338853
365.608665	2506.446569
365.996601	2505.438338
366.384474	2506.703668
366.772284	2506.338184
367.160031	2507.169974
367.547715	2508.372290
367.935336	2508.886487
368.322893	2509.075531
368.710388	2509.075531
369.097820	2511.500326
369.485189	2508.825993
369.872495	2507.273318
370.259738	2510.000582
370.646918	2510.025788
371.034035	2511.016375
371.421090	2513.242044
371.808081	2513.494102
372.195010	2512.120388
372.581875	2508.024450
372.968678	2512.427898
373.355418	2511.505367
373.742096	2513.879750
374.128710	2512.163237
374.515262	2513.065604
374.901751	2512.309431
375.288177	2515.119874
375.674540	2511.021416
376.060841	2515.555934
376.447079	2514.151973
376.833254	2514.482168
377.219367	2508.914214
377.605417	2513.330264
377.991404	2509.675428
378.377329	2513.123577
378.763191	2509.246930
379.148991	2517.385873
379.534727	2517.020389
379.920402	2519.251100
380.306013	2516.453259
380.691563	2518.772190
381.077049	2514.961078
381.462474	2516.702796
381.847835	2517.269926
382.233134	2515.190450
382.618371	2517.796727
383.003545	2515.961747
383.388657	2517.509381
383.773706	2522.883251
384.158693	2518.547859
384.543618	2518.535256
384.928480	2519.946779
385.313280	2521.159176
385.698017	2518.341171
386.082692	2520.284536
386.467305	2517.680780
386.851856	2520.849145
387.236344	2520.032478
387.620770	2523.846111
388.005133	2519.901408
388.389435	2522.101872
388.773674	2519.709845
389.157851	2522.399300
389.541965	2521.207067
389.926018	2522.061543
390.310008	2523.500792
390.693936	2522.777387
391.077802	2520.904598
391.461606	2523.457943
391.845348	2521.010462
392.229027	2524.912315
392.612645	2521.086080
392.996200	2523.684794
393.379694	2525.010618
393.763125	2524.488858
394.146494	2524.279651
394.529801	2526.485155
394.913047	2524.917357
395.296230	2524.330062
395.679351	2525.018180
396.062410	2526.364168
396.445408	2524.861904
396.828343	2528.176462
397.211217	2522.429547
397.594028	2524.430885
397.976778	2522.979033
398.359466	2526.638911
398.742092	2522.842922
399.124656	2528.388191
399.507158	2526.880886
399.889598	2529.512368
400.271977	2528.201668
400.654294	2527.861390
401.036549	2530.303829
401.418742	2529.840043
401.800874	2531.927081
402.182944	2530.628984
402.564952	2529.524971
402.946898	2528.791483
403.328783	2530.598737
403.710606	2529.766947
404.092367	2529.046062
404.474067	2531.823737
404.855705	2530.812986
405.237282	2530.097142
405.618797	2531.997657
406.000250	2533.893131
406.381642	2530.467667
406.762972	2534.848430
407.144240	2532.766433
407.525447	2532.383305
407.906593	2533.774664
408.287677	2530.835671
408.668700	2536.204500
409.049661	2535.168543
409.430560	2532.584952
409.811399	2534.677030
410.192176	2534.513193
410.572891	2536.675848
410.953545	2536.585107
411.334138	2535.745755
411.714669	2536.164171
412.095139	2534.913965
412.475547	2535.823893
412.855894	2534.056968
413.236180	2535.355066
413.616405	2539.035108
413.996568	2538.248688
414.376670	2537.605941
414.756711	2537.719367
415.136691	2541.127187
415.516609	2539.811446
415.896466	2539.798843
416.276262	2540.746580
416.655997	2535.029911
417.035670	2535.947401
417.415283	2538.072248
417.794834	2539.128369
418.174324	2538.775488
418.553753	2542.112732
418.933121	2542.790767
419.312428	2542.090047
419.691674	2541.202804
420.070859	2545.533155
420.449983	2541.596014
420.829045	2544.686241
421.208047	2545.515511
421.586988	2544.257743
421.965867	2548.978784
422.344686	2546.848896
422.723444	2548.371325
423.102141	2548.262940
423.480777	2553.127653
423.859352	2549.409803
424.237866	2554.990360
424.616319	2553.246121
424.994712	2558.347768
425.373044	2556.827860
425.751314	2561.301884
426.129524	2565.382698
426.507673	2571.220355
426.885762	2575.225551
427.263789	2580.700244
427.641756	2581.325347
428.019662	2589.577716
428.397508	2595.831268
428.775292	2602.510797
429.153016	2612.678804
429.530679	2618.745832
429.908282	2630.741258
430.285824	2637.514048
430.663305	2656.695639
431.040726	2657.585402
431.418086	2667.713080
431.795385	2687.517253
432.172624	2696.694674
432.549802	2711.684545
432.926920	2725.204919
433.303977	2740.426683
433.680974	2759.489807
434.057910	2778.547889
434.434786	2795.957514
434.811601	2813.316727
435.188355	2851.276615
435.565050	2858.825743
435.941683	2882.821636
436.318257	2926.510795
436.694770	2948.396965
437.071222	2980.307469
437.447614	2995.506548
437.823946	3007.564988
438.200218	3059.864438
438.576429	3073.155440
438.952580	3117.318468
439.328670	3159.326403
439.704700	3177.940864
440.080670	3205.216027
440.456580	3294.988895
440.832429	3310.644198
441.208218	3313.051349
441.583947	3383.405692
441.959616	3423.719799
442.335224	3443.821400
442.710773	3524.530273
443.086261	3578.682348
443.461689	3560.723237
443.837057	3647.869664
444.212365	3745.035384
444.587612	3753.189450
444.962800	3850.156044
445.337927	3894.966861
445.712995	3806.522337
446.088002	4065.655289
446.462949	4051.340932
446.837837	4079.034511
447.212664	4190.048281
447.587431	4318.015450
447.962139	4620.363693
448.336786	5091.202422
448.711374	5040.372467
449.085901	4668.587371
449.460369	4688.686452
449.834776	4711.351479
450.209124	4980.743179
450.583412	5132.169358
450.957640	5251.266618
451.331808	5193.328637
451.705917	4998.689687
452.079965	5004.078680
452.453954	5194.415005
452.827883	5167.601108
453.201752	5277.967089
453.575562	5207.630390
453.949311	5396.381273
454.323001	5367.755080
454.696632	5467.753929
455.070202	5615.747082
455.443713	5770.520588
455.817164	5893.393671
456.190556	6013.647876
456.563888	6118.461026
456.937160	6194.413570
457.310373	5986.707950
457.683526	6059.235030
458.056619	6021.365882
458.429653	6060.623868
458.802628	6042.279109
459.175542	6164.627913
459.548398	6494.946998
459.921194	6663.820611
460.293930	6699.965684
460.666607	7166.078330
461.039224	7460.653114
461.411782	7620.644214
461.784280	7682.675612
462.156719	7633.917572
462.529099	7577.958243
462.901419	7253.514623
463.273680	7196.731066
463.645882	7244.170844
464.018024	7156.981568
464.390106	7328.216961
464.762130	7719.145839
465.134094	8171.944798
465.505999	9119.674160
465.877845	10268.243090
466.249631	10910.463405
466.621358	10607.316139
466.993026	10074.188914
467.364634	9863.967758
467.736184	9535.440802
468.107674	9248.558819
468.479105	9304.661821
468.850477	9092.525026
469.221790	8891.398111
469.593043	8590.108510
469.964238	8476.579205
470.335373	8499.526537
470.706449	8569.722084
471.077467	8561.454591
471.448425	9854.127425
471.819324	10900.010573
472.190164	10934.398803
472.560945	9722.770079
472.931667	8958.526115
473.302330	8833.147578
473.672934	8497.381526
474.043479	8850.307666
474.413965	8797.390674
474.784393	8681.192077
475.154761	8838.927261
475.525070	8932.135675
475.895321	8775.343187
476.265513	8943.057335
476.635645	9112.803067
477.005719	9121.468810
477.375734	9233.090039
477.745691	9472.282707
478.115588	9604.837326
478.485427	9852.579791
478.855207	10386.924455
479.224928	11197.620131
479.594591	11815.670634
479.964194	11620.701488
480.333739	11575.479818
480.703226	11492.822538
481.072653	11580.442833
481.442022	11815.816827
481.811333	12006.954696
482.180584	11809.754840
482.549777	11528.740760
482.918912	11357.089471
483.287988	11376.959179
483.657005	11392.463248
484.025964	11077.025649
484.394864	11203.939217
484.763706	11175.565083
485.132489	10943.432551
485.501213	10901.192723
485.869879	10979.970834
486.238487	10826.137504
486.607036	10928.760273
486.975527	10720.583304
487.343959	10904.771942
487.712333	10949.391195
488.080648	10881.315453
488.448905	10923.842627
488.817104	10867.817764
489.185244	11130.635799
489.553326	11288.741507
489.921350	11825.079947
490.289315	12877.531718
490.657222	13212.145866
491.025070	13118.438378
491.392861	12990.435920
491.760593	12619.560752
492.128267	12275.388576
492.495883	11942.012031
492.863440	11613.646393
493.230939	11278.298757
493.598380	11216.884900
493.965763	11084.869684
494.333088	10983.199693
494.700354	10908.177242
495.067563	10964.948196
495.434713	10799.767228
495.801805	10928.795561
496.168839	10851.376041
496.535815	10784.600917
496.902733	10784.013623
497.269593	10720.976514
497.636395	10822.505353
498.003139	10808.921964
498.369825	10676.206027
498.736453	10837.893475
499.103023	10759.783317
499.469535	10787.789447
499.835989	10779.900041
500.202385	10742.605585
500.568723	10596.364232
500.935003	10812.284413
501.301226	10622.154775
501.667390	10883.551205
502.033497	10980.333797
502.399546	10834.931797
502.765537	10749.491801
503.131470	10818.893366
503.497345	10990.784109
503.863163	10606.547363
504.228923	10909.359392
504.594625	10980.921092
504.960269	10727.096475
505.325856	10951.362286
505.691385	10741.766233
506.056856	10891.911959
506.422270	10921.957236
506.787625	10804.853753
507.152924	10929.360170
507.518164	10908.056254
507.883347	10834.573875
508.248472	10747.540874
508.613540	10987.993831
508.978550	10862.123781
509.343503	10837.464977
509.708398	10953.855137
510.073236	11071.485421
510.438016	11080.693088
510.802738	11026.929182
511.167403	11078.578324
511.532010	10978.735752
511.896561	11206.719414
512.261053	11274.497727
512.625488	11145.484518
512.989866	11129.819132
513.354186	11118.229520
513.718449	11016.819148
514.082655	11210.749816
514.446803	11113.717687
514.810894	11231.678166
515.174927	11097.144894
515.538904	11119.578028
515.902822	11267.843404
516.266684	11157.837865
516.630488	11100.847621
516.994235	11161.044039
517.357925	11215.528830
517.721558	11306.657768
518.085133	11327.389513
518.448651	11331.780358
518.812112	11217.326001
519.175516	11226.770603
519.538863	11353.621157
519.902152	11270.192582
520.265385	11432.716861
520.628560	11329.884884
520.991678	11319.026239
521.354739	11376.203006
521.717743	11315.666310
522.080690	11295.249637
522.443580	11422.241343
522.806413	11379.789787
523.169189	11409.288099
523.531908	11466.147273
523.894569	11286.704881
524.257174	11292.222424
524.619722	11416.038204
524.982213	11357.621313
525.344647	11411.821278
525.707025	11356.575273
526.069345	11454.023298
526.431608	11375.426668
526.793815	11482.762916
527.155964	11272.788776
527.518057	11321.682927
527.880093	11268.576892
528.242072	11335.019300
528.603995	11242.637635
528.965860	11163.867085
529.327669	11218.782895
529.689421	11166.425471
530.051117	11138.900771
530.412755	11236.295863
530.774337	11127.560695
531.135862	11117.077616
531.497331	11141.179372
531.858743	10987.048614
532.220098	11157.545478
532.581396	11025.114367
532.942638	11010.527788
533.303824	10969.770059
533.664953	10990.504325
534.026025	10905.709597
534.387040	11000.979843
534.747999	11007.019145
535.108902	11058.355735
535.469748	10819.445372
535.830537	10921.773234
536.191270	10900.877651
536.551947	10925.939747
536.912567	10921.574108
537.273131	10846.614671
537.633638	10827.188585
537.994089	10816.629888
538.354483	10768.131467
538.714821	10915.890207
539.075103	10921.674931
539.435328	10885.711340
539.795497	10711.302540
540.155609	10868.967147
540.515665	10959.768410
540.875665	10693.398882
541.235609	10764.428740
541.595496	10748.518858
541.955328	10910.234033
542.315102	10793.029726
542.674821	10746.651111
543.034483	10748.370144
543.394090	10750.691596
543.753640	10680.768271
544.113134	10900.277754
544.472571	10756.824159
544.831953	10898.064687
545.191278	10711.509227
545.550548	10734.834646
545.909761	10870.857580
546.268918	10842.153250
546.628019	10926.678276
546.987064	10792.911259
547.346053	10708.413959
547.704986	10808.710235
548.063863	10797.508791
548.422684	10793.284304
548.781449	10703.582013
549.140158	10812.342387
549.498811	10690.038953
549.857408	10547.359176
550.215949	10762.230797
550.574434	10622.812646
550.932864	10726.720909
551.291237	10782.576894
551.649555	10728.719727
552.007817	10744.778322
552.366022	10705.094359
552.724173	10697.608246
553.082267	10678.063692
553.440305	10820.458644
553.798288	10621.000351
554.156215	10777.807962
554.514086	10747.853426
554.871902	10597.145611
555.229661	10640.713783
555.587365	10609.284710
555.945014	10505.441982
556.302606	10634.694646
556.660143	10522.954950
557.017625	10680.609475
557.375050	10579.252036
557.732421	10704.146622
558.089735	10627.248861
558.446994	10630.394541
558.804197	10656.885805
559.161345	10665.211270
559.518437	10513.439772
559.875474	10600.815571
560.232455	10630.331527
560.589381	10583.789074
560.946251	10577.611140
561.303065	10686.704230
561.659825	10622.731988
562.016528	10553.121215
562.373177	10429.403738
562.729770	10547.676768
563.086307	10459.688469
563.442789	10553.637933
563.799216	10433.902967
564.155587	10484.818621
564.511904	10433.620663
564.868164	10423.964332
565.224370	10436.272310
565.580520	10366.913594
565.936615	10370.969203
566.292654	10237.928112
566.648638	10375.324760
567.004567	10331.968316
567.360441	10311.977620
567.716260	10220.387417
568.072023	10317.623713
568.427732	10275.923288
568.783385	10175.004429
569.138982	10245.366334
569.494525	10264.742009
569.850013	10146.234564
570.205445	10226.086441
570.560823	10120.678435
570.916145	10038.757164
571.271412	10106.540519
571.626625	10051.183608
571.981782	10028.251400
572.336884	10004.126958
572.691931	10009.939408
573.046923	9957.135842
573.401860	9915.689996
573.756743	9844.942443
574.111570	9891.691583
574.466342	9876.852947
574.821059	9899.694415
575.175722	9794.387232
575.530330	9801.996853
575.884882	9799.733375
576.239380	9723.180933
576.593823	9697.891985
576.948211	9721.913083
577.302544	9597.348692
577.656823	9608.872770
578.011047	9616.321075
578.365216	9593.852652
578.719330	9510.303089
579.073389	9523.410089
579.427394	9471.292120
579.781344	9448.044839
580.135239	9394.958968
580.489080	9403.453312
580.842866	9310.290269
581.196597	9320.382659
581.550273	9357.903967
581.903895	9321.224532
582.257463	9386.598215
582.610975	9273.227706
582.964434	9293.442733
583.317837	9217.558244
583.671186	9194.071508
584.024481	9199.647024
584.377721	9114.648129
584.730906	9092.482176
585.084037	9114.915310
585.437113	9051.469869
585.790135	9077.671266
586.143103	8974.012540
586.496016	8947.503632
586.848874	9006.119649
587.201679	8997.204368
587.554428	8882.508036
587.907124	8925.783821
588.259765	8896.648472
588.612352	8903.690964
588.964884	8777.644474
589.317362	8793.035117
589.669786	8790.552348
590.022155	8840.157302
590.374470	8859.026341
590.726731	8795.517885
591.078937	8644.989031
591.431090	8758.606557
591.783188	8633.268348
592.135232	8622.197975
592.487222	8621.945917
592.839157	8676.874329
593.191038	8614.704299
593.542866	8554.898571
593.894639	8459.063716
594.246358	8508.502311
594.598022	8524.175259
594.949633	8423.407634
595.301190	8399.046258
595.652692	8428.506762
596.004141	8535.424593
596.355535	8315.408475
596.706876	8297.134292
597.058162	8227.084939
597.409395	8304.655694
597.760573	8372.295376
598.111698	8278.908001
598.462768	8262.415866
598.813785	8230.112152
599.164748	8196.175104
599.515657	8186.012138
599.866511	8095.750278
600.217312	8219.490441
600.568060	8086.782066
600.918753	8185.001387
601.269392	8157.751430
601.619978	8068.238181
601.970510	8129.475598
602.320988	8128.621122
602.671412	8183.617590
603.021783	8117.883464
603.372100	8094.532840
603.722363	8097.789425
604.072572	8074.224552
604.422728	8081.327537
604.772830	8015.169955
605.122878	8019.870831
605.472872	8021.052981
605.822813	8041.376393
606.172701	7986.412693
606.522534	8067.522337
606.872314	8066.236843
607.222041	8036.587297
607.571714	8091.974454
607.921333	8049.659009
608.270899	8054.785862
608.620411	8140.987072
608.969870	8044.638020
609.319276	8042.523256
609.668627	8058.387767
610.017926	8097.416380
610.367171	8139.036146
610.716362	8115.786344
611.065500	8108.605221
611.414585	8137.503635
611.763616	8121.346737
612.112594	8101.645908
612.461518	8117.885985
612.810389	8178.465531
613.159207	8118.765666
613.507971	8065.319353
613.856682	8189.142695
614.205340	8142.527145
614.553945	8220.259217
614.902496	8110.188143
615.250994	8173.542844
615.599439	8155.843353
615.947830	8169.119232
616.296169	8141.869274
616.644454	8157.065833
616.992686	8153.181624
617.340864	8216.652271
617.688990	8110.155376
618.037063	8202.395888
618.385082	8150.915625
618.733048	8238.311589
619.080961	8177.744646
619.428821	8196.497738
619.776628	8200.356741
620.124382	8151.523084
620.472083	8128.817727
620.819731	8161.572624
621.167326	8049.843011
621.514868	8067.867657
621.862357	7954.499668
622.209793	7965.244888
622.557176	7903.284066
622.904506	7870.579580
623.251783	7809.332082
623.599007	7759.424658
623.946179	7767.056965
624.293297	7720.030562
624.640363	7642.709344
624.987376	7625.357693
625.334336	7571.876091
625.681243	7525.557970
626.028097	7511.556165
626.374899	7489.964903
626.721647	7482.534242
627.068343	7413.556134
627.414987	7386.737196
627.761577	7342.790937
628.108115	7374.197326
628.454600	7271.357787
628.801032	7323.737896
629.147412	7284.172400
629.493739	7274.261492
629.840014	7209.008796
630.186236	7266.949298
630.532405	7150.186093
630.878521	7200.703495
631.224585	7156.790004
631.570597	7082.475835
631.916556	7111.230576
632.262462	7106.900225
632.608316	7070.830769
632.954117	7047.044085
633.299866	7037.591922
633.645562	7028.530448
633.991206	6952.308201
634.336797	6888.179683
634.682336	6849.612336
635.027823	6811.959958
635.373257	6806.109699
635.718639	6741.955975
636.063968	6754.286637
636.409245	6649.425596
636.754470	6648.087170
637.099642	6604.677794
637.444762	6548.491614
637.789829	6561.386885
638.134845	6507.597774
638.479808	6487.292006
638.824719	6492.285269
639.169577	6421.333549
639.514383	6441.316683
639.859137	6369.691969
640.203839	6378.294698
640.548489	6365.719540
