Dividing Wavelength (nm)	Counts (n)	Blue Motor Position (mm): 25.400000	Red Motor Position (mm): 0.000000	
326.493990	2131.999743
326.888308	2131.999743
327.282561	2131.999743
327.676750	2098.954980
328.070874	2099.519589
328.464933	2100.989086
328.858929	2106.191556
329.252859	2113.710437
329.646726	2130.563015
330.040528	2142.409726
330.434265	2157.455050
330.827938	2175.532628
331.221547	2193.181707
331.615091	2210.732484
332.008571	2230.125803
332.401986	2252.581623
332.795338	2271.024684
333.188625	2289.568569
333.581847	2306.058183
333.975006	2326.084167
334.368100	2345.308607
334.761129	2363.494569
335.154095	2379.969060
335.546996	2400.269787
335.939833	2422.642427
336.332606	2439.510128
336.725315	2450.247786
337.117960	2460.007460
337.510540	2467.707822
337.903056	2481.628968
338.295508	2485.901346
338.687896	2495.257728
339.080220	2504.926661
339.472480	2509.872033
339.864676	2515.311438
340.256807	2518.063908
340.648875	2520.226563
341.040879	2523.833508
341.432818	2526.414579
341.824694	2529.976154
342.216506	2527.614374
342.608253	2527.236287
342.999937	2524.347706
343.391557	2527.022038
343.783113	2526.414579
344.174605	2526.391894
344.566033	2522.235463
344.957397	2523.596574
345.348697	2520.692870
345.739934	2518.510050
346.131106	2518.673888
346.522215	2516.952333
346.913260	2514.898063
347.304241	2512.092661
347.695159	2511.122239
348.086012	2507.797598
348.476802	2506.305417
348.867528	2505.236692
349.258191	2503.084119
349.648789	2504.281393
350.039324	2499.704026
350.429796	2501.864160
350.820203	2498.446258
351.210548	2498.113542
351.600828	2497.743017
351.991045	2495.857625
352.381198	2496.646566
352.771288	2493.483242
353.161314	2496.467605
353.551276	2494.448623
353.941175	2494.698160
354.331010	2493.803355
354.720782	2496.452481
355.110490	2493.460557
355.500135	2495.444251
355.889717	2496.694457
356.279235	2493.286637
356.668689	2495.529950
357.058080	2496.187821
357.447408	2493.432830
357.836672	2488.248003
358.225873	2493.503406
358.615010	2493.563900
359.004084	2497.599344
359.393095	2498.423572
359.782043	2500.293841
360.170927	2498.045486
360.559748	2499.104128
360.948505	2498.426093
361.337199	2501.934736
361.725830	2499.958604
362.114398	2502.453975
362.502903	2498.925167
362.891344	2501.760816
363.279722	2500.802997
363.668037	2503.343739
364.056289	2503.353821
364.444478	2505.418173
364.832603	2503.026146
365.220665	2505.418173
365.608665	2505.219048
365.996601	2506.411281
366.384474	2504.644356
366.772284	2509.141066
367.160031	2505.705519
367.547715	2508.226096
367.935336	2505.745848
368.322893	2507.424553
368.710388	2506.988493
369.097820	2510.666015
369.485189	2510.411436
369.872495	2508.566374
370.259738	2509.630057
370.646918	2507.187618
371.034035	2507.313647
371.421090	2510.381189
371.808081	2509.509070
372.195010	2510.658453
372.581875	2509.073010
372.968678	2508.702485
373.355418	2509.551920
373.742096	2512.639626
374.128710	2510.890346
374.515262	2512.377486
374.901751	2512.574091
375.288177	2514.043588
375.674540	2511.069307
376.060841	2510.255161
376.447079	2510.623165
376.833254	2511.427229
377.219367	2508.712567
377.605417	2510.408916
377.991404	2507.169974
378.377329	2510.383710
378.763191	2507.316168
379.148991	2513.461334
379.534727	2512.029647
379.920402	2515.308917
380.306013	2513.879750
380.691563	2515.054339
381.077049	2517.958044
381.462474	2516.609535
381.847835	2513.254647
382.233134	2515.084586
382.618371	2516.433095
383.003545	2515.321520
383.388657	2513.393279
383.773706	2516.354957
384.158693	2518.724299
384.543618	2519.578775
384.928480	2519.767818
385.313280	2520.183713
385.698017	2517.214473
386.082692	2519.430061
386.467305	2519.253620
386.851856	2519.051974
387.236344	2519.949299
387.620770	2519.336799
388.005133	2521.885102
388.389435	2518.709176
388.773674	2517.743795
389.157851	2519.845956
389.541965	2522.686646
389.926018	2522.263189
390.310008	2519.845956
390.693936	2519.351923
391.077802	2517.839577
391.461606	2521.751512
391.845348	2520.045081
392.229027	2520.055164
392.612645	2519.306552
392.996200	2521.504495
393.379694	2522.996677
393.763125	2523.689836
394.146494	2524.297295
394.529801	2525.441637
394.913047	2521.486851
395.296230	2523.599095
395.679351	2525.502130
396.062410	2522.858045
396.445408	2525.532377
396.828343	2524.922398
397.211217	2519.024248
397.594028	2523.281502
397.976778	2520.813857
398.359466	2522.752181
398.742092	2520.511388
399.124656	2523.896523
399.507158	2525.252593
399.889598	2527.226205
400.271977	2523.780576
400.654294	2529.315763
401.036549	2524.977850
401.418742	2526.563293
401.800874	2529.421627
402.182944	2526.911133
402.564952	2527.755526
402.946898	2527.397604
403.328783	2527.775691
403.710606	2528.736031
404.092367	2527.195958
404.474067	2527.074970
404.855705	2530.747451
405.237282	2529.771988
405.618797	2526.190248
406.000250	2528.599919
406.381642	2530.654190
406.762972	2532.224509
407.144240	2528.872142
407.525447	2531.579241
407.906593	2529.565300
408.287677	2532.065713
408.668700	2528.955321
409.049661	2530.467667
409.430560	2529.570342
409.811399	2530.593696
410.192176	2530.422297
410.572891	2531.962369
410.953545	2528.287368
411.334138	2532.733666
411.714669	2529.663603
412.095139	2534.921526
412.475547	2531.173428
412.855894	2532.050589
413.236180	2530.679395
413.616405	2535.211393
413.996568	2534.437576
414.376670	2533.094108
414.756711	2534.545960
415.136691	2534.278779
415.516609	2534.898841
415.896466	2533.585621
416.276262	2537.311033
416.655997	2530.828109
417.035670	2530.102183
417.415283	2531.037317
417.794834	2530.502955
418.174324	2534.747607
418.553753	2536.149047
418.933121	2536.060827
419.312428	2536.045704
419.691674	2536.398584
420.070859	2533.331042
420.449983	2538.215920
420.829045	2536.212062
421.208047	2538.460416
421.586988	2534.987061
421.965867	2537.197607
422.344686	2538.087371
422.723444	2535.917154
423.102141	2536.920344
423.480777	2535.405477
423.859352	2541.280942
424.237866	2538.374717
424.616319	2536.196938
424.994712	2535.929757
425.373044	2538.140303
425.751314	2541.969059
426.129524	2535.783564
426.507673	2536.111239
426.885762	2541.412012
427.263789	2541.288504
427.641756	2539.181301
428.019662	2539.312371
428.397508	2539.413194
428.775292	2542.674821
429.153016	2541.971580
429.530679	2541.157434
429.908282	2542.891591
430.285824	2538.939326
430.663305	2539.249357
431.040726	2538.838503
431.418086	2539.657690
431.795385	2541.921168
432.172624	2541.865716
432.549802	2542.145500
432.926920	2540.307999
433.303977	2542.125335
433.680974	2541.061652
434.057910	2543.786395
434.434786	2541.865716
434.811601	2542.271529
435.188355	2544.555171
435.565050	2544.003165
435.941683	2544.592980
436.318257	2542.700027
436.694770	2542.455531
437.071222	2541.417053
437.447614	2540.996117
437.823946	2540.706250
438.200218	2545.702034
438.576429	2546.707744
438.952580	2545.064328
439.328670	2544.734132
439.704700	2545.623896
440.080670	2550.334854
440.456580	2548.441901
440.832429	2547.569781
441.208218	2546.080120
441.583947	2550.826367
441.959616	2549.029195
442.335224	2547.708413
442.710773	2549.883671
443.086261	2550.617159
443.461689	2549.349309
443.837057	2555.280226
444.212365	2551.290153
444.587612	2550.924669
444.962800	2554.826522
445.337927	2552.996583
445.712995	2555.955741
446.088002	2557.367264
446.462949	2557.362223
446.837837	2558.214178
447.212664	2559.391287
447.587431	2562.141237
447.962139	2567.308419
448.336786	2578.235120
448.711374	2575.911148
449.085901	2573.519121
449.460369	2576.115315
449.834776	2580.909452
450.209124	2586.865576
450.583412	2595.059971
450.957640	2599.123141
451.331808	2603.312340
451.705917	2603.521548
452.079965	2608.381220
452.453954	2616.129474
452.827883	2620.842952
453.201752	2629.183542
453.575562	2629.901906
453.949311	2645.975625
454.323001	2650.134577
454.696632	2658.981802
455.070202	2672.507218
455.443713	2686.398117
455.817164	2698.186855
456.190556	2711.666901
456.563888	2732.633060
456.937160	2737.671693
457.310373	2739.771333
457.683526	2752.477562
458.056619	2762.252359
458.429653	2775.777775
458.802628	2787.052315
459.175542	2809.495532
459.548398	2848.284691
459.921194	2877.805688
460.293930	2902.809811
460.666607	2969.963021
461.039224	3020.533356
461.411782	3058.384859
461.784280	3080.422263
462.156719	3091.359047
462.529099	3101.166612
462.901419	3092.251331
463.273680	3104.614761
463.645882	3127.418420
464.018024	3151.769714
464.390106	3196.676312
464.762130	3276.404681
465.134094	3393.041858
465.505999	3611.533027
465.877845	3859.635934
466.249631	3998.350844
466.621358	3972.799756
466.993026	3914.735746
467.364634	3916.742125
467.736184	3901.908530
468.107674	3899.496337
468.479105	3971.766319
468.850477	3963.193837
469.221790	3972.658603
469.593043	3957.083958
469.964238	3984.606138
470.335373	4043.234757
470.706449	4112.187659
471.077467	4162.735309
471.448425	4580.420111
471.819324	4955.497081
472.190164	5017.135269
472.560945	4725.179364
472.931667	4571.383843
473.302330	4582.391202
473.672934	4538.823030
474.043479	4721.529569
474.413965	4766.383235
474.784393	4798.838184
475.154761	4916.360083
475.525070	5016.459754
475.895321	5012.608313
476.265513	5149.064785
476.635645	5282.862050
477.005719	5366.318352
477.375734	5477.501000
477.745691	5657.508001
478.115588	5794.198887
478.485427	5985.412373
478.855207	6308.638555
479.224928	6790.010774
479.594591	7175.235586
479.964194	7191.326949
480.333739	7239.122129
480.703226	7324.713359
481.072653	7457.472146
481.442022	7695.265893
481.811333	7880.422433
482.180584	7872.175105
482.549777	7814.272412
482.918912	7795.037890
483.287988	7905.048470
483.657005	7999.257553
484.025964	7899.750217
484.394864	8066.924961
484.763706	8145.715675
485.132489	8066.609889
485.501213	8130.564487
485.869879	8251.559741
486.238487	8249.780214
486.607036	8389.432778
486.975527	8326.867018
487.343959	8520.838015
487.712333	8639.489132
488.080648	8661.773553
488.448905	8771.763968
488.817104	8793.201475
489.185244	9065.605264
489.553326	9254.424202
489.921350	9729.414320
490.289315	10580.971069
490.657222	10909.470298
491.025070	10922.438666
491.392861	10904.015769
491.760593	10704.214678
492.128267	10509.028763
492.495883	10321.092027
492.863440	10106.739644
493.230939	9900.909333
493.598380	9892.614114
493.965763	9837.181587
494.333088	9794.422520
494.700354	9791.665008
495.067563	9884.328978
495.434713	9788.423547
495.801805	9944.280900
496.168839	9919.269215
496.535815	9907.971989
496.902733	9949.490933
497.269593	9931.017624
497.636395	10053.265605
498.003139	10081.455737
498.369825	9995.312500
498.736453	10166.106793
499.103023	10137.528492
499.469535	10197.072080
499.835989	10215.631088
500.202385	10211.870387
500.568723	10099.377039
500.935003	10333.198358
501.301226	10180.227065
501.667390	10443.314802
502.033497	10556.879395
502.399546	10452.129259
502.765537	10383.435976
503.131470	10475.782353
503.497345	10663.567854
503.863163	10304.708277
504.228923	10623.137800
504.594625	10700.597650
504.960269	10479.835441
505.325856	10702.966992
505.691385	10522.710454
506.056856	10682.081492
506.422270	10711.947808
506.787625	10611.462488
507.152924	10742.386295
507.518164	10737.130892
507.883347	10668.629173
508.248472	10604.646848
508.613540	10836.890285
508.978550	10730.053112
509.343503	10714.085257
509.708398	10837.800213
510.073236	10953.237595
510.438016	10972.598147
510.802738	10921.080075
511.167403	10983.479477
511.532010	10883.909127
511.896561	11111.297933
512.261053	11195.265912
512.625488	11064.644575
512.989866	11050.529344
513.354186	11047.176977
513.718449	10949.572677
514.082655	11143.848663
514.446803	11044.621112
514.810894	11175.595330
515.174927	11039.055678
515.538904	11059.900849
515.902822	11219.027391
516.266684	11103.095976
516.630488	11041.296471
516.994235	11104.988929
517.357925	11172.184989
517.721558	11260.695048
518.085133	11277.214909
518.448651	11285.411825
518.812112	11173.062150
519.175516	11185.533965
519.538863	11306.204064
519.902152	11222.561240
520.265385	11389.385623
520.628560	11302.428240
520.991678	11275.097624
521.354739	11349.663852
521.717743	11278.873449
522.080690	11260.014492
522.443580	11393.930223
522.806413	11352.892711
523.169189	11383.114428
523.531908	11438.136102
523.894569	11259.449883
524.257174	11275.304312
524.619722	11389.436035
524.982213	11335.283960
525.344647	11384.145344
525.707025	11330.570481
526.069345	11432.207705
526.431608	11350.266269
526.793815	11465.123919
527.155964	11249.932184
527.518057	11303.343209
527.880093	11250.262380
528.242072	11325.811632
528.603995	11227.002496
528.965860	11154.765282
529.327669	11198.703979
529.689421	11148.438634
530.051117	11117.286824
530.412755	11225.913607
530.774337	11117.493511
531.135862	11097.081879
531.497331	11126.083637
531.858743	10977.747685
532.220098	11146.843109
532.581396	11010.986533
532.942638	10997.463638
533.303824	10964.703700
533.664953	10971.834412
534.026025	10888.496577
534.387040	10986.446196
534.747999	10983.030815
535.108902	11044.011132
535.469748	10804.478187
535.830537	10908.348641
536.191270	10885.726463
536.551947	10909.941646
536.912567	10910.954918
537.273131	10833.888278
537.633638	10814.205093
537.994089	10803.865686
538.354483	10754.976576
538.714821	10900.151725
539.075103	10903.884699
539.435328	10872.735410
539.795497	10705.127127
540.155609	10855.076248
540.515665	10943.833323
540.875665	10684.670124
541.235609	10748.967521
541.595496	10742.499721
541.955328	10902.183310
542.315102	10782.740731
542.674821	10731.971271
543.034483	10730.216949
543.394090	10737.539225
543.753640	10663.797227
544.113134	10887.256453
544.472571	10751.150341
544.831953	10881.375947
545.191278	10689.192039
545.550548	10721.858716
545.909761	10854.113387
546.268918	10833.361477
546.628019	10909.697150
546.987064	10779.053127
547.346053	10696.116064
547.704986	10802.176900
548.063863	10782.418097
548.422684	10777.137489
548.781449	10701.603360
549.140158	10800.483072
549.498811	10677.950266
549.857408	10530.514160
550.215949	10763.309604
550.574434	10611.732190
550.932864	10708.371109
551.291237	10767.024934
551.649555	10719.012985
552.007817	10730.375746
552.366022	10693.436691
552.724173	10688.246823
553.082267	10672.437764
553.440305	10802.151694
553.798288	10604.737589
554.156215	10761.283060
554.514086	10737.985367
554.871902	10587.499363
555.229661	10629.091403
555.587365	10603.378998
555.945014	10495.664664
556.302606	10621.761565
556.660143	10517.815494
557.017625	10673.677888
557.375050	10566.487834
557.732421	10700.471621
558.089735	10616.054979
558.446994	10615.795360
558.804197	10648.449434
559.161345	10653.430094
559.518437	10499.921918
559.875474	10585.198077
560.232455	10621.668304
560.589381	10574.520913
560.946251	10569.903216
561.303065	10670.925418
561.659825	10616.072623
562.016528	10536.419872
562.373177	10420.274208
562.729770	10533.760663
563.086307	10459.282656
563.442789	10537.889368
563.799216	10419.540720
564.155587	10470.330345
564.511904	10426.714282
564.868164	10417.700699
565.224370	10427.099930
565.580520	10354.741728
565.936615	10363.959478
566.292654	10226.646009
566.648638	10358.051246
567.004567	10313.706736
567.360441	10295.702255
567.716260	10210.226971
568.072023	10304.186517
568.427732	10260.159600
568.783385	10167.987143
569.138982	10237.499613
569.494525	10258.543910
569.850013	10125.878385
570.205445	10213.302075
570.560823	10110.018915
570.916145	10026.136636
571.271412	10092.374877
571.626625	10039.283965
571.981782	10017.909472
572.336884	9991.604732
572.691931	9993.553138
573.046923	9945.568915
573.401860	9893.692921
573.756743	9833.735958
574.111570	9878.677844
574.466342	9861.527839
574.821059	9887.217559
575.175722	9783.934399
575.530330	9793.033682
575.884882	9788.461355
576.239380	9712.869253
576.593823	9692.510553
576.948211	9705.418428
577.302544	9586.457279
577.656823	9605.233057
578.011047	9599.813817
578.365216	9575.583511
578.719330	9497.652313
579.073389	9512.052369
579.427394	9462.424730
579.781344	9439.298437
580.135239	9392.776149
580.489080	9392.755984
580.842866	9295.065984
581.196597	9302.801635
581.550273	9342.097429
581.903895	9309.387902
582.257463	9377.934992
582.610975	9255.376980
582.964434	9281.228017
583.317837	9207.193632
583.671186	9185.173872
584.024481	9178.176750
584.377721	9103.050955
584.730906	9074.696985
585.084037	9110.605124
585.437113	9043.976193
585.790135	9058.613184
586.143103	8965.752609
586.496016	8935.724976
586.848874	9000.113114
587.201679	8988.009303
587.554428	8875.412612
587.907124	8925.118389
588.259765	8889.253100
588.612352	8892.292915
588.964884	8769.853371
589.317362	8783.504815
589.669786	8777.556254
590.022155	8828.834871
590.374470	8848.513015
590.726731	8781.392572
591.078937	8631.466136
591.431090	8746.074248
591.783188	8619.390052
592.135232	8611.311603
592.487222	8613.285215
592.839157	8668.006940
593.191038	8603.417156
593.542866	8543.664359
593.894639	8443.156355
594.246358	8502.281528
594.598022	8518.786265
594.949633	8408.926920
595.301190	8385.752736
595.652692	8417.645596
596.004141	8526.789097
596.355535	8303.539078
596.706876	8285.305225
597.058162	8218.865338
597.409395	8295.032131
597.760573	8360.259621
598.111698	8262.312522
598.462768	8249.737364
598.813785	8217.098413
599.164748	8184.824946
599.515657	8173.449583
599.866511	8089.534536
600.217312	8215.346612
600.568060	8071.804798
600.918753	8175.390427
601.269392	8143.905901
601.619978	8060.447078
601.970510	8117.210470
602.320988	8116.892878
602.671412	8175.849172
603.021783	8110.079758
603.372100	8081.887105
603.722363	8084.397600
604.072572	8060.106800
604.422728	8069.279180
604.772830	8000.149837
605.122878	8012.740119
605.472872	8005.511104
605.822813	8033.262656
606.172701	7983.786252
606.522534	8053.205461
606.872314	8054.937097
607.222041	8022.164556
607.571714	8076.540962
607.921333	8040.849592
608.270899	8037.051083
608.620411	8125.724979
608.969870	8038.036629
609.319276	8030.038838
609.668627	8050.838639
610.017926	8082.610511
610.367171	8122.407900
610.716362	8105.915765
611.065500	8098.835465
611.414585	8124.242880
611.763616	8110.475489
612.112594	8091.172911
612.461518	8108.408616
612.810389	8169.194849
613.159207	8106.319058
613.507971	8053.195378
613.856682	8174.868668
614.205340	8131.804611
614.553945	8209.894604
614.902496	8103.362421
615.250994	8156.047520
615.599439	8141.032443
615.947830	8152.543918
616.296169	8124.457129
616.644454	8141.160992
616.992686	8141.675190
617.340864	8197.853808
617.688990	8103.422915
618.037063	8192.832819
618.385082	8141.914645
618.733048	8225.854898
619.080961	8161.103797
619.428821	8181.013834
619.776628	8183.678084
620.124382	8132.838047
620.472083	8117.507898
620.819731	8148.528639
621.167326	8042.639202
621.514868	8052.615646
621.862357	7942.037936
622.209793	7957.935215
622.557176	7893.668065
622.904506	7868.011112
623.251783	7796.421687
623.599007	7755.764781
623.946179	7753.972651
624.293297	7709.439097
624.640363	7627.265769
624.987376	7612.916125
625.334336	7561.241777
625.681243	7512.145980
626.028097	7496.974628
626.374899	7476.542831
626.721647	7465.036397
627.068343	7405.586070
627.414987	7369.614917
627.761577	7325.618247
628.108115	7361.987651
628.454600	7263.130624
628.801032	7312.120557
629.147412	7269.295955
629.493739	7258.470077
629.840014	7190.759819
630.186236	7253.857422
630.532405	7134.878629
630.878521	7189.673451
631.224585	7147.637789
631.570597	7071.415543
631.916556	7102.610203
632.262462	7096.739780
632.608316	7058.003553
632.954117	7035.537651
633.299866	7023.804366
633.645562	7016.126688
633.991206	6941.338651
634.336797	6881.684157
634.682336	6837.581622
635.027823	6806.258413
635.373257	6798.550488
635.718639	6729.101033
636.063968	6737.456745
636.409245	6641.722713
636.754470	6632.862885
637.099642	6592.878973
637.444762	6533.395878
637.789829	6550.437499
638.134845	6492.192007
638.479808	6473.116281
638.824719	6476.559389
639.169577	6411.410038
639.514383	6430.765548
639.859137	6358.369537
640.203839	6369.606269
640.548489	6353.653538
640.893086	6328.755279
641.237632	6293.623478
