Dividing Wavelength (nm)	Counts (n)	Blue Motor Position (mm): 38.100000	Red Motor Position (mm): 0.000000	
326.493990	2131.782974
326.888308	2131.782974
327.282561	2131.782974
327.676750	2097.107397
328.070874	2095.138827
328.464933	2099.542274
328.858929	2104.843048
329.252859	2113.365118
329.646726	2126.058744
330.040528	2140.083234
330.434265	2155.952786
330.827938	2174.592452
331.221547	2191.084587
331.615091	2210.689634
332.008571	2230.198900
332.401986	2247.243041
332.795338	2268.720877
333.188625	2289.440019
333.581847	2304.518110
333.975006	2326.633652
334.368100	2343.254337
334.761129	2361.790659
335.154095	2379.137270
335.546996	2396.685526
335.939833	2425.253745
336.332606	2441.045159
336.725315	2451.639144
337.117960	2461.295474
337.510540	2470.994654
337.903056	2480.431694
338.295508	2488.817654
338.687896	2494.930053
339.080220	2505.539161
339.472480	2511.898577
339.864676	2515.954185
340.256807	2519.306552
340.648875	2520.826460
341.040879	2524.998015
341.432818	2527.858870
341.824694	2527.788294
342.216506	2532.264838
342.608253	2527.937008
342.999937	2527.967255
343.391557	2530.089580
343.783113	2528.743592
344.174605	2526.722090
344.566033	2522.709331
344.957397	2522.832839
345.348697	2521.091121
345.739934	2521.496934
346.131106	2519.452746
346.522215	2517.685821
346.913260	2512.347239
347.304241	2513.151303
347.695159	2512.664832
348.086012	2508.021929
348.476802	2508.954543
348.867528	2503.724346
349.258191	2505.115704
349.648789	2505.196363
350.039324	2504.719974
350.429796	2501.879283
350.820203	2497.319560
351.210548	2499.870384
351.600828	2498.277379
351.991045	2500.066989
352.381198	2497.866525
352.771288	2496.086998
353.161314	2495.013232
353.551276	2496.875938
353.941175	2497.342245
354.331010	2496.744868
354.720782	2495.232522
355.110490	2496.845691
355.500135	2494.216730
355.889717	2495.416524
356.279235	2496.928870
356.668689	2499.444406
357.058080	2495.605568
357.447408	2496.165136
357.836672	2493.977275
358.225873	2496.528099
358.615010	2495.928201
359.004084	2499.822493
359.393095	2498.882317
359.782043	2500.946670
360.170927	2501.770899
360.559748	2501.228975
360.948505	2503.268121
361.337199	2501.065137
361.725830	2505.042607
362.114398	2501.977586
362.502903	2504.989675
362.891344	2503.802484
363.279722	2502.816938
363.668037	2507.225427
364.056289	2504.941784
364.444478	2505.259377
364.832603	2506.862464
365.220665	2506.623009
365.608665	2505.219048
365.996601	2506.484377
366.384474	2506.086126
366.772284	2509.209121
367.160031	2511.104595
367.547715	2506.963287
367.935336	2508.019409
368.322893	2511.278515
368.710388	2510.613082
369.097820	2515.129956
369.485189	2511.772548
369.872495	2508.029491
370.259738	2510.466889
370.646918	2511.911180
371.034035	2514.605676
371.421090	2513.070645
371.808081	2513.042919
372.195010	2512.392610
372.581875	2513.957888
372.968678	2511.233144
373.355418	2515.984432
373.742096	2512.069976
374.128710	2515.434946
374.515262	2515.036695
374.901751	2517.953003
375.288177	2515.865965
375.674540	2516.107940
376.060841	2515.586181
376.447079	2516.150790
376.833254	2515.618948
377.219367	2511.255830
377.605417	2516.738084
377.991404	2512.954698
378.377329	2511.913700
378.763191	2515.893691
379.148991	2517.993332
379.534727	2517.907632
379.920402	2520.282016
380.306013	2522.157325
380.691563	2520.264372
381.077049	2519.482993
381.462474	2522.205216
381.847835	2521.738909
382.233134	2522.510206
382.618371	2524.703108
383.003545	2522.290915
383.388657	2522.512726
383.773706	2526.568334
384.158693	2522.646317
384.543618	2524.718231
384.928480	2526.901051
385.313280	2523.702438
385.698017	2525.970958
386.082692	2527.173273
386.467305	2525.398787
386.851856	2528.408356
387.236344	2524.743437
387.620770	2528.836854
388.005133	2527.281658
388.389435	2530.812986
388.773674	2526.888448
389.157851	2527.793335
389.541965	2529.134282
389.926018	2530.238294
390.310008	2527.868952
390.693936	2531.246525
391.077802	2534.039324
391.461606	2533.318439
391.845348	2534.956814
392.229027	2536.229706
392.612645	2539.645088
392.996200	2537.013605
393.379694	2541.149872
393.763125	2548.704041
394.146494	2551.335523
394.529801	2557.689898
394.913047	2567.134499
395.296230	2568.399829
395.679351	2582.089082
396.062410	2591.238777
396.445408	2605.018771
396.828343	2613.863475
397.211217	2628.268572
397.594028	2637.549336
397.976778	2655.442912
398.359466	2675.458813
398.742092	2695.394056
399.124656	2706.035932
399.507158	2737.286045
399.889598	2758.443767
400.271977	2789.139353
400.654294	2806.745583
401.036549	2833.330108
401.418742	2853.414065
401.800874	2900.659758
402.182944	2930.034562
402.564952	2976.846717
402.946898	3005.702281
403.328783	3034.910727
403.710606	3049.162068
404.092367	3134.281951
404.474067	3158.149294
404.855705	3198.239070
405.237282	3207.550081
405.618797	3287.207874
406.000250	3337.430369
406.381642	3409.115577
406.762972	3433.056016
407.144240	3477.294662
407.525447	3518.453162
407.906593	3584.368769
408.287677	3647.264725
408.668700	3653.672032
409.049661	3720.807598
409.430560	3785.856127
409.811399	3785.276394
410.192176	3923.527518
410.572891	3925.047426
410.953545	4030.891492
411.334138	3993.718023
411.714669	4075.994695
412.095139	4042.229047
412.475547	4177.957073
412.855894	4201.642934
413.236180	4245.851333
413.616405	4245.049790
413.996568	4344.955377
414.376670	4332.216381
414.756711	4323.827901
415.136691	4381.657497
415.516609	4473.905571
415.896466	4533.126526
416.276262	4587.865895
416.655997	4596.324951
417.035670	4779.134834
417.415283	4886.471082
417.794834	4859.722719
418.174324	4844.311912
418.553753	4780.092653
418.933121	4967.628617
419.312428	5046.250453
419.691674	5014.720556
420.070859	5144.588241
420.449983	5080.802521
420.829045	5202.480852
421.208047	5123.634685
421.586988	5213.178180
421.965867	5230.620572
422.344686	5369.632910
422.723444	5236.861521
423.102141	5071.289864
423.480777	5368.251634
423.859352	5149.304240
424.237866	5408.911060
424.616319	5402.786058
424.994712	5520.255025
425.373044	5407.650772
425.751314	5548.341814
426.129524	5359.515314
426.507673	5551.454727
426.885762	5639.291791
427.263789	5574.472635
427.641756	5455.456034
428.019662	5580.237194
428.397508	5584.025622
428.775292	5531.784144
429.153016	5633.350791
429.530679	5564.392848
429.908282	5652.146733
430.285824	5521.984141
430.663305	5797.281553
431.040726	5533.362025
431.418086	5534.909660
431.795385	5638.308766
432.172624	5650.465509
432.549802	5643.218850
432.926920	5659.383310
433.303977	5666.042674
433.680974	5706.772677
434.057910	5725.462754
434.434786	5729.868723
434.811601	5702.921235
435.188355	5937.251710
435.565050	5811.827802
435.941683	5788.484739
436.318257	6007.742164
436.694770	5990.478733
437.071222	6022.152302
437.447614	5956.466068
437.823946	5866.690679
438.200218	6022.505183
438.576429	5890.202621
438.952580	5986.216437
439.328670	6032.169075
439.704700	5939.941165
440.080670	5927.247540
440.456580	6197.632347
440.832429	6084.586993
441.208218	5930.264671
441.583947	6079.475263
441.959616	6086.109421
442.335224	6014.595613
442.710773	6150.343803
443.086261	6175.594943
443.461689	5966.971832
443.837057	6119.023115
444.212365	6276.523884
444.587612	6167.211504
444.962800	6319.613147
445.337927	6297.167409
445.712995	5912.207258
446.088002	6488.113714
446.462949	6320.281100
446.837837	6248.366519
447.212664	6421.724238
447.587431	6563.042904
447.962139	7109.067921
448.336786	8022.958537
448.711374	7769.499404
449.085901	6845.952458
449.460369	6768.795078
449.834776	6705.573968
450.209124	7090.261897
450.583412	7241.872078
450.957640	7388.204172
451.331808	7155.232288
451.705917	6705.324430
452.079965	6636.043853
452.453954	6845.287026
452.827883	6719.414455
453.201752	6812.295194
453.575562	6615.652386
453.949311	6818.667213
454.323001	6708.611263
454.696632	6778.274968
455.070202	6915.500217
455.443713	7070.835811
455.817164	7170.375914
456.190556	7254.154850
456.563888	7334.962025
456.937160	7375.427367
457.310373	7029.155551
457.683526	7053.930301
458.056619	6945.873168
458.429653	6930.482526
458.802628	6867.851230
459.175542	6979.454815
459.548398	7330.054462
459.921194	7493.718042
460.293930	7496.266345
460.666607	8026.338631
461.039224	8334.292637
461.411782	8450.377808
461.784280	8471.885890
462.156719	8365.333542
462.529099	8242.072289
462.901419	7830.152047
463.273680	7723.181283
463.645882	7736.913386
464.018024	7609.319262
464.390106	7771.286493
464.762130	8156.501223
465.134094	8630.175601
465.505999	9649.880036
465.877845	10866.244924
466.249631	11513.675271
466.621358	11126.106323
466.993026	10501.015848
467.364634	10249.999154
467.736184	9885.667404
468.107674	9553.997290
468.479105	9583.452752
468.850477	9351.456331
469.221790	9126.194892
469.593043	8793.962689
469.964238	8657.919591
470.335373	8662.665837
470.706449	8729.670333
471.077467	8714.657777
471.448425	10013.269090
471.819324	11089.620972
472.190164	11103.126223
472.560945	9862.208395
472.931667	9072.022653
473.302330	8935.775388
473.672934	8586.574661
474.043479	8943.478271
474.413965	8884.101040
474.784393	8765.255838
475.154761	8923.222915
475.525070	9012.761369
475.895321	8831.332762
476.265513	9013.938478
476.635645	9183.212863
477.005719	9178.680865
477.375734	9296.527919
477.745691	9533.099187
478.115588	9665.626080
478.485427	9909.885107
478.855207	10442.248597
479.224928	11263.374421
479.594591	11886.206458
479.964194	11697.372397
480.333739	11644.052113
480.703226	11554.453165
481.072653	11640.979529
481.442022	11882.889379
481.811333	12065.210270
482.180584	11876.519881
482.549777	11585.526837
482.918912	11412.368244
483.287988	11431.295256
483.657005	11447.860487
484.025964	11127.386776
484.394864	11253.584500
484.763706	11229.855789
485.132489	10989.591876
485.501213	10958.966867
485.869879	11027.670232
486.238487	10873.093332
486.607036	10979.270114
486.975527	10758.394479
487.343959	10952.920003
487.712333	10992.863585
488.080648	10931.185068
488.448905	10967.982970
488.817104	10915.751575
489.185244	11186.685868
489.553326	11334.371511
489.921350	11872.328162
490.289315	12926.025097
490.657222	13267.515380
491.025070	13180.074046
491.392861	13060.465109
491.760593	12674.486644
492.128267	12329.381855
492.495883	11996.343067
492.863440	11662.522900
493.230939	11319.966414
493.598380	11256.364697
493.965763	11130.081272
494.333088	11027.461024
494.700354	10944.342479
495.067563	11004.634679
495.434713	10839.156284
495.801805	10961.956271
496.168839	10888.907431
496.535815	10818.336318
496.902733	10826.671866
497.269593	10752.181257
497.636395	10860.709737
498.003139	10847.078457
498.369825	10711.463857
498.736453	10873.509227
499.103023	10795.993925
499.469535	10830.392238
499.835989	10817.098715
500.202385	10777.616398
500.568723	10631.732968
500.935003	10849.916627
501.301226	10655.154168
501.667390	10922.499160
502.033497	11014.301092
502.399546	10873.040399
502.765537	10786.062852
503.131470	10858.476506
503.497345	11031.448577
503.863163	10639.995419
504.228923	10944.856677
504.594625	11013.353355
504.960269	10763.927145
505.325856	10983.514765
505.691385	10779.436255
506.056856	10929.297156
506.422270	10953.908069
506.787625	10847.872439
507.152924	10959.455859
507.518164	10946.580752
507.883347	10862.249810
508.248472	10779.658066
508.613540	11014.147337
508.978550	10900.844883
509.343503	10874.154494
509.708398	10997.768628
510.073236	11107.181831
510.438016	11113.296751
510.802738	11062.628113
511.167403	11116.109714
511.532010	11014.527944
511.896561	11242.821637
512.261053	11311.895527
512.625488	11181.095229
512.989866	11164.406489
513.354186	11147.148099
513.718449	11054.199304
514.082655	11252.566187
514.446803	11142.346400
514.810894	11271.790627
515.174927	11130.643361
515.538904	11151.019705
515.902822	11304.122068
516.266684	11194.592918
516.630488	11140.561831
516.994235	11191.956395
517.357925	11254.557443
517.721558	11340.125988
518.085133	11356.703823
518.448651	11368.306038
518.812112	11248.482853
519.175516	11267.170410
519.538863	11385.236754
519.902152	11302.198867
520.265385	11462.920934
520.628560	11370.904753
520.991678	11346.538336
521.354739	11415.544171
521.717743	11355.889677
522.080690	11328.798516
522.443580	11469.464352
522.806413	11415.576938
523.169189	11453.055396
523.531908	11501.687407
523.894569	11330.005872
524.257174	11332.818836
524.619722	11453.322577
524.982213	11393.032898
525.344647	11443.026021
525.707025	11397.131356
526.069345	11487.914975
526.431608	11407.647203
526.793815	11522.283042
527.155964	11305.702469
527.518057	11359.738597
527.880093	11313.077677
528.242072	11379.504962
528.603995	11284.511979
528.965860	11201.022910
529.327669	11252.616599
529.689421	11207.636904
530.051117	11178.587255
530.412755	11282.369489
530.774337	11171.539722
531.135862	11153.686475
531.497331	11172.749598
531.858743	11029.225428
532.220098	11194.068638
532.581396	11063.245655
532.942638	11045.982223
533.303824	11011.016780
533.664953	11034.075018
534.026025	10942.013466
534.387040	11037.001408
534.747999	11034.359843
535.108902	11098.251427
535.469748	10853.389982
535.830537	10959.899480
536.191270	10935.533063
536.551947	10965.086828
536.912567	10966.460542
537.273131	10886.253264
537.633638	10869.057888
537.994089	10852.185146
538.354483	10807.018928
538.714821	10950.104518
539.075103	10952.836824
539.435328	10915.292830
539.795497	10751.210834
540.155609	10904.895451
540.515665	10992.876188
540.875665	10729.632175
541.235609	10796.964347
541.595496	10795.658688
541.955328	10941.678230
542.315102	10834.974647
542.674821	10783.882553
543.034483	10788.782554
543.394090	10784.482450
543.753640	10716.562984
544.113134	10930.532238
544.472571	10791.411516
544.831953	10939.739906
545.191278	10740.871428
545.550548	10766.800603
545.909761	10907.980637
546.268918	10880.793694
546.628019	10960.234717
546.987064	10825.146917
547.346053	10749.428787
547.704986	10847.065854
548.063863	10835.027579
548.422684	10827.470889
548.781449	10742.141799
549.140158	10850.685403
549.498811	10725.495909
549.857408	10586.992727
550.215949	10807.447426
550.574434	10663.305714
550.932864	10766.198185
551.291237	10824.244551
551.649555	10767.476117
552.007817	10782.183684
552.366022	10740.473177
552.724173	10743.394525
553.082267	10721.538603
553.440305	10862.703513
553.798288	10655.980918
554.156215	10816.244240
554.514086	10786.708119
554.871902	10640.567590
555.229661	10672.266365
555.587365	10653.989662
555.945014	10545.816583
556.302606	10671.210243
556.660143	10565.172093
557.017625	10719.323016
557.375050	10615.744948
557.732421	10751.941802
558.089735	10661.299335
558.446994	10666.988277
558.804197	10698.520694
559.161345	10707.521675
559.518437	10553.736235
559.875474	10635.402928
560.232455	10672.246201
560.589381	10625.663418
560.946251	10615.762592
561.303065	10725.662267
561.659825	10658.713223
562.016528	10588.502553
562.373177	10467.719027
562.729770	10591.799468
563.086307	10497.928142
563.442789	10591.817112
563.799216	10469.107865
564.155587	10523.310351
564.511904	10480.500873
564.868164	10461.105033
565.224370	10481.327622
565.580520	10400.061702
565.936615	10409.110573
566.292654	10274.491600
566.648638	10410.335573
567.004567	10369.839984
567.360441	10344.344349
567.716260	10260.535166
568.072023	10360.314724
568.427732	10309.406632
568.783385	10218.686027
569.138982	10287.255802
569.494525	10300.604777
569.850013	10176.363020
570.205445	10259.249672
570.560823	10156.878961
570.916145	10079.136807
571.271412	10141.258945
571.626625	10086.416233
571.981782	10064.053674
572.336884	10040.040138
572.691931	10045.040963
573.046923	9993.240586
573.401860	9943.885169
573.756743	9881.079954
574.111570	9925.545452
574.466342	9908.806300
574.821059	9941.629253
575.175722	9831.795114
575.530330	9838.560342
575.884882	9832.647069
576.239380	9755.613197
576.593823	9736.003108
576.948211	9752.487681
577.302544	9634.759095
577.656823	9653.086210
578.011047	9648.760900
578.365216	9622.713258
578.719330	9547.801712
579.073389	9559.487106
579.427394	9503.873097
579.781344	9483.968101
580.135239	9431.522457
580.489080	9442.507131
580.842866	9346.863840
581.196597	9348.396351
581.550273	9390.966374
581.903895	9360.013690
582.257463	9421.379656
582.610975	9302.632756
582.964434	9323.674532
583.317837	9255.273636
583.671186	9230.728258
584.024481	9227.922856
584.377721	9147.829004
584.730906	9124.095252
585.084037	9156.230087
585.437113	9083.619827
585.790135	9106.511707
586.143103	9005.897838
586.496016	8984.172985
586.848874	9043.880412
587.201679	9030.546560
587.554428	8913.397706
587.907124	8965.263617
588.259765	8936.019884
588.612352	8932.244060
588.964884	8811.349629
589.317362	8823.944952
589.669786	8825.696752
590.022155	8876.567036
590.374470	8888.343171
590.726731	8823.337492
591.078937	8676.345008
591.431090	8793.221639
591.783188	8660.314139
592.135232	8651.524887
592.487222	8652.109661
592.839157	8707.572436
593.191038	8639.151375
593.542866	8582.292201
593.894639	8487.558838
594.246358	8538.948360
594.598022	8553.678612
594.949633	8455.771842
595.301190	8428.826875
595.652692	8457.458108
596.004141	8568.610509
596.355535	8347.200512
596.706876	8323.189496
597.058162	8263.948377
597.409395	8339.981579
597.760573	8399.499962
598.111698	8302.853481
598.462768	8290.636245
598.813785	8259.267665
599.164748	8227.626863
599.515657	8211.250675
599.866511	8131.524827
600.217312	8253.457735
600.568060	8109.978935
600.918753	8218.222591
601.269392	8186.720420
601.619978	8101.706402
601.970510	8158.416862
602.320988	8158.915936
602.671412	8211.356539
603.021783	8153.050554
603.372100	8117.502857
603.722363	8122.647355
604.072572	8101.260260
604.422728	8107.498687
604.772830	8041.724233
605.122878	8050.067342
605.472872	8041.252885
605.822813	8072.427380
606.172701	8012.619131
606.522534	8092.218950
606.872314	8083.447342
607.222041	8061.795587
607.571714	8118.349771
607.921333	8074.854696
608.270899	8083.671674
608.620411	8167.299375
608.969870	8072.185405
609.319276	8067.691216
609.668627	8088.034792
610.017926	8119.557127
610.367171	8170.006475
610.716362	8147.475037
611.065500	8130.584652
611.414585	8163.725197
611.763616	8149.869586
612.112594	8130.264538
612.461518	8151.074421
612.810389	8208.208338
613.159207	8146.176940
613.507971	8094.351358
613.856682	8210.514666
614.205340	8169.336001
614.553945	8250.125533
614.902496	8147.830439
615.250994	8193.682254
615.599439	8184.250255
615.947830	8191.035648
616.296169	8166.603696
616.644454	8182.314452
616.992686	8180.895367
617.340864	8238.160354
617.688990	8141.176116
618.037063	8232.466371
618.385082	8179.030140
618.733048	8266.027853
619.080961	8200.802883
619.428821	8223.241059
619.776628	8224.811379
620.124382	8177.232969
620.472083	8163.959611
620.819731	8184.179679
621.167326	8081.080521
621.514868	8091.059485
621.862357	7979.546641
622.209793	7993.452664
622.557176	7934.335053
622.904506	7901.320536
623.251783	7827.104669
623.599007	7782.555993
623.946179	7788.938094
624.293297	7750.960561
624.640363	7667.320257
624.987376	7644.877040
625.334336	7598.165709
625.681243	7544.031278
626.028097	7533.351594
626.374899	7513.081114
626.721647	7503.959146
627.068343	7434.673528
627.414987	7408.162100
627.761577	7363.913372
628.108115	7400.285297
628.454600	7293.697660
628.801032	7341.273550
629.147412	7307.691903
629.493739	7289.712628
629.840014	7226.884728
630.186236	7289.684902
630.532405	7174.113929
630.878521	7220.616053
631.224585	7180.201123
631.570597	7103.217662
631.916556	7136.431304
632.262462	7134.094730
632.608316	7095.076199
632.954117	7073.401758
633.299866	7056.695374
633.645562	7049.257152
633.991206	6968.064328
634.336797	6913.211533
634.682336	6870.848196
635.027823	6839.013310
635.373257	6831.265056
635.718639	6760.709067
636.063968	6773.309431
636.409245	6663.190467
636.754470	6665.995869
637.099642	6628.993799
637.444762	6566.586835
637.789829	6578.912457
638.134845	6521.569332
638.479808	6507.063411
638.824719	6509.732702
639.169577	6437.152690
639.514383	6457.408046
639.859137	6385.372478
640.203839	6393.342542
640.548489	6381.450460
