Dividing Wavelength (nm)	Counts (n)	Blue Motor Position (mm): 18.500000	Red Motor Position (mm): 0.000000	
326.493990	2137.103912
326.888308	2137.103912
327.282561	2137.103912
327.676750	2102.640063
328.070874	2099.698550
328.464933	2106.390682
328.858929	2111.073914
329.252859	2120.684874
329.646726	2131.687192
330.040528	2144.774027
330.434265	2161.223312
330.827938	2177.332319
331.221547	2197.839733
331.615091	2216.428988
332.008571	2235.265259
332.401986	2254.398959
332.795338	2273.688934
333.188625	2293.818261
333.581847	2312.160500
333.975006	2332.244457
334.368100	2349.071828
334.761129	2366.559591
335.154095	2382.161962
335.546996	2401.431772
335.939833	2420.855338
336.332606	2437.627257
336.725315	2450.943465
337.117960	2459.299178
337.510540	2469.348718
337.903056	2480.051087
338.295508	2487.048209
338.687896	2494.982985
339.080220	2504.528410
339.472480	2509.156189
339.864676	2515.039216
340.256807	2517.093486
340.648875	2521.126409
341.040879	2524.083046
341.432818	2525.958355
341.824694	2525.885258
342.216506	2526.565814
342.608253	2527.480783
342.999937	2528.957841
343.391557	2527.316946
343.783113	2525.648324
344.174605	2524.319980
344.566033	2525.378622
344.957397	2520.897036
345.348697	2522.858045
345.739934	2518.646161
346.131106	2518.260513
346.522215	2516.715399
346.913260	2513.814215
347.304241	2513.297497
347.695159	2509.302383
348.086012	2508.304234
348.476802	2505.556805
348.867528	2506.922958
349.258191	2503.152175
349.648789	2502.882473
350.039324	2499.693943
350.429796	2502.453975
350.820203	2498.746206
351.210548	2495.996257
351.600828	2494.264621
351.991045	2497.054899
352.381198	2495.398880
352.771288	2494.947697
353.161314	2494.178921
353.551276	2496.830568
353.941175	2493.929384
354.331010	2495.499703
354.720782	2493.092552
355.110490	2494.441061
355.500135	2493.029538
355.889717	2496.618839
356.279235	2492.913591
356.668689	2496.097080
357.058080	2497.425424
357.447408	2491.439054
357.836672	2492.906030
358.225873	2495.600526
358.615010	2490.304794
359.004084	2497.173366
359.393095	2496.432317
359.782043	2499.512462
360.170927	2499.351145
360.559748	2497.526247
360.948505	2501.402894
361.337199	2499.346104
361.725830	2502.396002
362.114398	2501.198728
362.502903	2502.005312
362.891344	2504.576301
363.279722	2505.314830
363.668037	2503.762154
364.056289	2503.099243
364.444478	2503.237874
364.832603	2504.067144
365.220665	2504.598986
365.608665	2506.749038
365.996601	2505.239213
366.384474	2505.846672
366.772284	2504.092350
367.160031	2505.972700
367.547715	2505.284583
367.935336	2505.095540
368.322893	2503.832731
368.710388	2507.858092
369.097820	2509.662825
369.485189	2506.738956
369.872495	2508.089985
370.259738	2510.671056
370.646918	2507.779954
371.034035	2508.964625
371.421090	2510.734070
371.808081	2509.534276
372.195010	2510.224914
372.581875	2510.000582
372.968678	2511.341529
373.355418	2508.465551
373.742096	2512.594256
374.128710	2511.596108
374.515262	2510.492095
374.901751	2510.774399
375.288177	2513.509225
375.674540	2513.441170
376.060841	2513.148783
376.447079	2512.874040
376.833254	2512.422857
377.219367	2508.072341
377.605417	2510.933196
377.991404	2510.794564
378.377329	2510.983607
378.763191	2506.123935
379.148991	2518.331089
379.534727	2515.830677
379.920402	2515.140039
380.306013	2515.414782
380.691563	2515.979391
381.077049	2515.689524
381.462474	2518.063908
381.847835	2515.303876
382.233134	2514.903104
382.618371	2513.985614
383.003545	2514.658608
383.388657	2516.901922
383.773706	2516.002076
384.158693	2518.928466
384.543618	2518.348733
384.928480	2520.607170
385.313280	2517.148938
385.698017	2518.131963
386.082692	2518.928466
386.467305	2518.893178
386.851856	2520.105575
387.236344	2521.519619
387.620770	2520.556758
388.005133	2520.362674
388.389435	2519.934176
388.773674	2518.336130
389.157851	2519.672036
389.541965	2520.234125
389.926018	2518.673887
390.310008	2522.275792
390.693936	2520.501306
391.077802	2521.035668
391.461606	2521.635565
391.845348	2519.193126
392.229027	2521.302849
392.612645	2519.094824
392.996200	2520.042561
393.379694	2517.771521
393.763125	2522.225380
394.146494	2522.104393
394.529801	2524.745957
394.913047	2523.752850
395.296230	2522.101872
395.679351	2521.070956
396.062410	2523.379805
396.445408	2519.664474
396.828343	2522.374094
397.211217	2519.762777
397.594028	2522.961389
397.976778	2520.009793
398.359466	2524.211595
398.742092	2519.238497
399.124656	2525.360978
399.507158	2524.138498
399.889598	2525.119003
400.271977	2525.948272
400.654294	2526.681760
401.036549	2526.429703
401.418742	2527.339631
401.800874	2525.146729
402.182944	2523.425175
402.564952	2525.068591
402.946898	2527.188396
403.328783	2525.008097
403.710606	2526.563293
404.092367	2525.799558
404.474067	2527.463139
404.855705	2527.137985
405.237282	2527.516071
405.618797	2526.578417
406.000250	2529.509848
406.381642	2524.740916
406.762972	2529.406504
407.144240	2528.584796
407.525447	2529.310722
407.906593	2527.445495
408.287677	2530.873480
408.668700	2526.850639
409.049661	2530.223171
409.430560	2527.780732
409.811399	2529.318284
410.192176	2527.082532
410.572891	2530.114786
410.953545	2529.598068
411.334138	2532.721063
411.714669	2529.449354
412.095139	2530.782739
412.475547	2528.186545
412.855894	2528.093283
413.236180	2528.743592
413.616405	2532.693336
413.996568	2529.517409
414.376670	2531.342307
414.756711	2533.005888
415.136691	2532.363141
415.516609	2531.599406
415.896466	2533.434386
416.276262	2533.562935
416.655997	2528.431041
417.035670	2528.022707
417.415283	2528.869621
417.794834	2528.378109
418.174324	2530.535722
418.553753	2532.887421
418.933121	2532.514375
419.312428	2533.958666
419.691674	2532.345497
420.070859	2533.129396
420.449983	2533.986392
420.829045	2533.449509
421.208047	2533.527647
421.586988	2534.316588
421.965867	2535.493697
422.344686	2535.385313
422.723444	2534.069571
423.102141	2531.274252
423.480777	2531.317101
423.859352	2534.601413
424.237866	2537.590817
424.616319	2534.510672
424.994712	2535.496218
425.373044	2534.820703
425.751314	2537.883204
426.129524	2532.632842
426.507673	2535.203831
426.885762	2535.665097
427.263789	2536.217103
427.641756	2533.215096
428.019662	2535.294572
428.397508	2536.385982
428.775292	2534.992103
429.153016	2535.362627
429.530679	2538.089892
429.908282	2535.909592
430.285824	2536.348173
430.663305	2536.459078
431.040726	2536.880015
431.418086	2538.226003
431.795385	2536.597710
432.172624	2535.168543
432.549802	2536.335570
432.926920	2537.729449
433.303977	2539.181301
433.680974	2537.517721
434.057910	2539.743390
434.434786	2535.418080
434.811601	2535.171063
435.188355	2537.984027
435.565050	2536.990920
435.941683	2538.042001
436.318257	2537.880684
436.694770	2534.538399
437.071222	2536.650642
437.447614	2534.114942
437.823946	2537.706764
438.200218	2536.643080
438.576429	2538.742721
438.952580	2537.472350
439.328670	2539.549306
439.704700	2539.811446
440.080670	2538.944367
440.456580	2538.929244
440.832429	2538.205838
441.208218	2538.127700
441.583947	2539.980324
441.959616	2538.334388
442.335224	2540.018133
442.710773	2539.352701
443.086261	2540.875129
443.461689	2539.067875
443.837057	2540.650798
444.212365	2539.670293
444.587612	2542.216076
444.962800	2538.939326
445.337927	2541.971580
445.712995	2537.656352
446.088002	2539.781199
446.462949	2543.234389
446.837837	2541.991745
447.212664	2539.720705
447.587431	2542.604245
447.962139	2540.434028
448.336786	2542.838658
448.711374	2543.791437
449.085901	2542.725233
449.460369	2538.699871
449.834776	2541.475026
450.209124	2540.134079
450.583412	2545.883515
450.957640	2540.814635
451.331808	2542.450490
451.705917	2542.044677
452.079965	2544.640871
452.453954	2543.907383
452.827883	2543.289842
453.201752	2540.350849
453.575562	2543.562064
453.949311	2543.476364
454.323001	2542.949564
454.696632	2544.812270
455.070202	2542.168185
455.443713	2543.836807
455.817164	2539.138452
456.190556	2542.148020
456.563888	2541.449821
456.937160	2538.258770
457.310373	2544.842517
457.683526	2545.192877
458.056619	2547.282436
458.429653	2543.478885
458.802628	2546.201108
459.175542	2543.494008
459.548398	2543.320089
459.921194	2542.700027
460.293930	2547.627755
460.666607	2543.347815
461.039224	2545.328988
461.411782	2545.696993
461.784280	2548.184802
462.156719	2546.412837
462.529099	2546.183464
462.901419	2547.592467
463.273680	2544.096426
463.645882	2546.775800
464.018024	2547.196736
464.390106	2547.068187
464.762130	2547.836962
465.134094	2546.743032
465.505999	2550.609597
465.877845	2545.331509
466.249631	2549.014072
466.621358	2548.411654
466.993026	2549.296377
467.364634	2552.636141
467.736184	2547.539534
468.107674	2544.832435
468.479105	2551.005328
468.850477	2549.712272
469.221790	2548.411654
469.593043	2549.518187
469.964238	2548.956099
470.335373	2549.346788
470.706449	2552.217725
471.077467	2547.529452
471.448425	2550.186140
471.819324	2552.807540
472.190164	2551.879968
472.560945	2549.581202
472.931667	2549.757642
473.302330	2551.756460
473.672934	2549.702189
474.043479	2550.627241
474.413965	2553.967006
474.784393	2545.797816
475.154761	2551.320400
475.525070	2546.143135
475.895321	2546.609442
476.265513	2546.228834
476.635645	2551.209494
477.005719	2550.279402
477.375734	2551.428785
477.745691	2550.259237
478.115588	2551.973229
478.485427	2552.132026
478.855207	2552.726882
479.224928	2553.510781
479.594591	2553.563713
479.964194	2554.408107
480.333739	2553.026830
480.703226	2553.460370
481.072653	2555.799465
481.442022	2554.919784
481.811333	2553.016748
482.180584	2556.905998
482.549777	2556.870710
482.918912	2554.113199
483.287988	2555.807027
483.657005	2552.053888
484.025964	2553.667057
484.394864	2555.890206
484.763706	2557.568910
485.132489	2553.848538
485.501213	2558.509085
485.869879	2556.447253
486.238487	2556.016235
486.607036	2557.626883
486.975527	2554.818961
487.343959	2559.262738
487.712333	2557.422717
488.080648	2556.628735
488.448905	2558.521688
488.817104	2558.181410
489.185244	2559.051009
489.553326	2556.790052
489.921350	2562.060578
490.289315	2560.717111
490.657222	2561.748027
491.025070	2564.230795
491.392861	2562.025290
491.760593	2561.957234
492.128267	2564.291289
492.495883	2562.526885
492.863440	2563.830023
493.230939	2562.599982
493.598380	2561.226267
493.965763	2558.544373
494.333088	2560.860783
494.700354	2560.613767
495.067563	2560.931360
495.434713	2559.076215
495.801805	2566.574931
496.168839	2562.705846
496.535815	2565.332287
496.902733	2565.612071
497.269593	2569.599624
497.636395	2567.855384
498.003139	2566.524520
498.369825	2569.075344
498.736453	2570.597772
499.103023	2571.979048
499.469535	2573.481312
499.835989	2572.594069
500.202385	2575.016343
500.568723	2575.815366
500.935003	2579.455079
501.301226	2579.334092
501.667390	2581.146387
502.033497	2588.075452
502.399546	2588.430854
502.765537	2588.161152
503.131470	2592.793972
503.497345	2595.397728
503.863163	2595.178438
504.228923	2601.396702
504.594625	2607.945160
504.960269	2606.659666
505.325856	2612.872888
505.691385	2616.094186
506.056856	2618.299690
506.422270	2622.897223
506.787625	2627.595578
507.152924	2634.315436
507.518164	2643.404637
507.883347	2645.264822
508.248472	2649.693476
508.613540	2656.783859
508.978550	2661.855260
509.343503	2667.992864
509.708398	2677.994514
510.073236	2686.042716
510.438016	2691.666123
510.802738	2700.054603
511.167403	2710.663711
511.532010	2716.657643
511.896561	2727.002091
512.261053	2738.448031
512.625488	2744.283166
512.989866	2752.391862
513.354186	2764.581372
513.718449	2770.353493
514.082655	2790.631535
514.446803	2796.703604
514.810894	2814.836635
515.174927	2824.684529
515.538904	2834.812207
515.902822	2857.275588
516.266684	2860.443954
516.630488	2879.411295
516.994235	2895.810168
517.357925	2918.399579
517.721558	2931.882145
518.085133	2951.988787
518.448651	2968.468319
518.812112	2983.793427
519.175516	3001.613905
519.538863	3028.072401
519.902152	3037.907693
520.265385	3072.187539
520.628560	3082.070721
520.991678	3106.109463
521.354739	3130.526292
521.717743	3146.731081
522.080690	3163.850839
522.443580	3202.987837
522.806413	3225.748647
523.169189	3248.035588
523.531908	3278.340484
523.894569	3293.186682
524.257174	3320.136691
524.619722	3361.426261
524.982213	3377.401678
525.344647	3420.944644
525.707025	3439.702778
526.069345	3481.062924
526.431608	3509.923530
526.793815	3547.810322
527.155964	3561.635686
527.518057	3593.029472
527.880093	3622.928555
528.242072	3661.614370
528.603995	3690.590922
528.965860	3717.941702
529.327669	3760.844442
529.689421	3789.740336
530.051117	3814.096671
530.412755	3879.460272
530.774337	3894.545924
531.135862	3935.953962
531.497331	3969.517964
531.858743	3993.251717
532.220098	4057.662539
532.581396	4074.857915
532.942638	4112.001137
533.303824	4148.592352
533.664953	4202.021021
534.026025	4223.831573
534.387040	4286.430101
534.747999	4328.732943
535.108902	4385.884505
535.469748	4377.685068
535.830537	4444.029173
536.191270	4484.123990
536.551947	4536.216753
536.912567	4580.808280
537.273131	4605.073874
537.633638	4641.642404
537.994089	4692.089230
538.354483	4724.153489
538.714821	4801.910767
539.075103	4852.607131
539.435328	4893.062390
539.795497	4888.663983
540.155609	4987.263912
540.515665	5053.726484
540.875665	5031.898288
541.235609	5102.381180
541.595496	5147.759127
541.955328	5252.930199
542.315102	5259.040077
542.674821	5293.461076
543.034483	5340.774825
543.394090	5396.202312
543.753640	5424.281538
544.113134	5557.587290
544.472571	5551.532864
544.831953	5661.566129
545.191278	5646.286392
545.550548	5700.199012
545.909761	5799.945803
546.268918	5848.194686
546.628019	5930.846924
546.987064	5935.532676
547.346053	5946.857628
547.704986	6052.726900
548.063863	6090.618733
548.422684	6128.205576
548.781449	6157.678682
549.140158	6249.641931
549.498811	6245.243525
549.857408	6227.133179
550.215949	6387.913220
550.574434	6371.688266
550.932864	6471.452701
551.291237	6539.266302
551.649555	6587.374033
552.007817	6630.773327
552.366022	6661.211814
552.724173	6714.970678
553.082267	6746.213229
553.440305	6884.797069
553.798288	6815.201420
554.156215	6960.840354
554.514086	6999.843762
554.871902	6961.722556
555.229661	7033.768206
555.587365	7064.254584
555.945014	7053.219498
556.302606	7185.214550
556.660143	7159.602968
557.017625	7312.889333
557.375050	7296.084647
557.732421	7419.003101
558.089735	7423.202382
558.446994	7465.371634
558.804197	7544.041360
559.161345	7590.477949
559.518437	7537.835700
559.875474	7659.781212
560.232455	7719.977630
560.589381	7728.834937
560.946251	7793.717108
561.303065	7880.054429
561.659825	7904.486381
562.016528	7901.267604
562.373177	7851.690377
562.729770	7996.646235
563.086307	7976.010272
563.442789	8070.206752
563.799216	8045.878143
564.155587	8118.541335
564.511904	8137.375086
564.868164	8166.533120
565.224370	8214.040953
565.580520	8213.972898
565.936615	8234.843275
566.292654	8196.376750
566.648638	8322.145977
567.004567	8338.214655
567.360441	8355.800720
567.716260	8332.397163
568.072023	8430.056916
568.427732	8440.908000
568.783385	8392.318839
569.138982	8493.900609
569.494525	8530.496866
569.850013	8475.790264
570.205445	8576.633506
570.560823	8518.680401
570.916145	8491.654775
571.271412	8577.561078
571.626625	8563.125734
571.981782	8578.513856
572.336884	8588.074404
572.691931	8611.762786
573.046923	8612.569371
573.401860	8599.288451
573.756743	8580.731964
574.111570	8651.996235
574.466342	8657.949838
574.821059	8704.698978
575.175722	8645.798136
575.530330	8682.427160
575.884882	8701.855767
576.239380	8669.063061
576.593823	8671.074482
576.948211	8707.532106
577.302544	8624.968089
577.656823	8671.016508
578.011047	8685.739198
578.365216	8693.888223
578.719330	8636.913103
579.073389	8681.305503
579.427394	8653.400196
579.781344	8649.188312
580.135239	8631.249366
580.489080	8651.850042
580.842866	8587.159435
581.196597	8607.132486
581.550273	8663.366557
581.903895	8649.556317
582.257463	8723.114313
582.610975	8636.252712
582.964434	8669.415942
583.317837	8616.534238
583.671186	8611.571222
584.024481	8622.485320
584.377721	8565.711846
584.730906	8560.620280
585.084037	8601.972865
585.437113	8557.174652
585.790135	8592.994570
586.143103	8508.099019
586.496016	8501.190118
586.848874	8568.855005
587.201679	8567.735869
587.554428	8475.616344
587.907124	8526.957976
588.259765	8506.833689
588.612352	8520.056636
588.964884	8411.361797
589.317362	8443.698279
589.669786	8441.671735
590.022155	8495.801124
590.374470	8522.607460
590.726731	8473.577198
591.078937	8344.480809
591.431090	8464.319118
591.783188	8355.145370
592.135232	8358.820371
592.487222	8364.015280
592.839157	8415.268692
593.191038	8361.880352
593.542866	8312.424112
593.894639	8228.672903
594.246358	8290.134650
594.598022	8309.533010
594.949633	8218.487251
595.301190	8198.897327
595.652692	8233.530054
596.004141	8349.940379
596.355535	8134.378120
596.706876	8120.126778
597.058162	8067.499652
597.409395	8140.369531
597.760573	8212.130356
598.111698	8123.834547
598.462768	8108.126311
598.813785	8088.753157
599.164748	8065.556287
599.515657	8053.056747
599.866511	7973.313254
600.217312	8098.502748
600.568060	7965.413766
600.918753	8070.902431
601.269392	8044.814460
601.619978	7966.023746
601.970510	8028.188735
602.320988	8029.461626
602.671412	8084.117816
603.021783	8025.973147
603.372100	7999.698654
603.722363	8009.072679
604.072572	7985.291036
604.422728	7994.944846
604.772830	7933.399919
605.122878	7942.809232
605.472872	7941.649767
605.822813	7969.202193
606.172701	7917.515243
606.522534	7987.799010
606.872314	7995.842171
607.222041	7964.362686
607.571714	8028.201337
607.921333	7979.886919
608.270899	7991.567272
608.620411	8082.413906
608.969870	7987.864545
609.319276	7980.358267
609.668627	8002.947677
610.017926	8036.272225
610.367171	8083.414575
610.716362	8060.409269
611.065500	8057.432468
611.414585	8081.516581
611.763616	8068.543171
612.112594	8051.584730
612.461518	8072.661794
612.810389	8125.649362
613.159207	8072.429901
613.507971	8021.801593
613.856682	8138.516907
614.205340	8094.558046
614.553945	8171.420518
614.902496	8074.426198
615.250994	8128.253118
615.599439	8111.337526
615.947830	8118.654761
616.296169	8097.187007
616.644454	8115.110830
616.992686	8110.987166
617.340864	8171.123090
617.688990	8070.950322
618.037063	8167.904313
618.385082	8111.208977
618.733048	8200.018984
619.080961	8139.252916
619.428821	8160.279568
619.776628	8161.456678
620.124382	8107.428111
620.472083	8096.889579
620.819731	8124.948642
621.167326	8022.633383
621.514868	8028.276955
621.862357	7919.277126
622.209793	7933.457892
622.557176	7875.126701
622.904506	7841.242585
623.251783	7783.307125
623.599007	7735.607727
623.946179	7738.259374
624.293297	7693.872014
624.640363	7617.304449
624.987376	7596.492046
625.334336	7547.655868
625.681243	7500.024526
626.028097	7480.003583
626.374899	7465.691747
626.721647	7458.127496
627.068343	7389.212402
627.414987	7360.223247
627.761577	7318.913512
628.108115	7354.209151
628.454600	7253.045796
628.801032	7295.404091
629.147412	7260.347907
629.493739	7249.085969
629.840014	7188.667741
630.186236	7244.501040
630.532405	7131.526262
630.878521	7181.017790
631.224585	7137.966336
631.570597	7062.603606
631.916556	7092.510252
632.262462	7085.263593
632.608316	7052.382667
632.954117	7030.017588
633.299866	7016.824888
633.645562	7008.436408
633.991206	6925.390960
634.336797	6876.204422
634.682336	6830.213976
635.027823	6797.035622
635.373257	6794.978831
635.718639	6722.895372
636.063968	6737.585294
636.409245	6632.376414
636.754470	6627.972966
637.099642	6588.145330
637.444762	6538.779831
637.789829	6542.573299
638.134845	6488.302757
638.479808	6473.937989
638.824719	6471.606456
639.169577	6403.339150
639.514383	6426.800680
639.859137	6352.204206
640.203839	6366.178285
640.548489	6350.505337
640.893086	6325.453323
641.237632	6297.936185
641.582125	6316.774977
641.926566	6285.529906
642.270955	6301.096989
642.615292	6292.577439
642.959576	6308.799872
643.303809	6296.670856
643.647990	6305.676877
643.992118	6298.851155
644.336195	6249.016828
