Dividing Wavelength (nm)	Counts (n)	Blue Motor Position (mm): 24.300000	Red Motor Position (mm): 0.000000	
326.493990	2136.594755
326.888308	2136.594755
327.282561	2136.594755
327.676750	2099.428848
328.070874	2100.568149
328.464933	2103.411360
328.858929	2110.995776
329.252859	2119.843001
329.646726	2132.105608
330.040528	2144.816877
330.434265	2160.119300
330.827938	2177.907011
331.221547	2194.943590
331.615091	2214.972095
332.008571	2232.051524
332.401986	2254.608167
332.795338	2272.368152
333.188625	2292.628549
333.581847	2312.417598
333.975006	2331.934426
334.368100	2347.516632
334.761129	2366.206710
335.154095	2381.975439
335.546996	2402.261042
335.939833	2423.005390
336.332606	2440.152875
336.725315	2454.862962
337.117960	2462.757409
337.510540	2471.256794
337.903056	2483.506798
338.295508	2489.165493
338.687896	2498.975579
339.080220	2507.714419
339.472480	2511.616272
339.864676	2517.852179
340.256807	2521.247397
340.648875	2523.528519
341.040879	2524.642614
341.432818	2527.737882
341.824694	2530.197965
342.216506	2532.395908
342.608253	2531.143182
342.999937	2532.368182
343.391557	2528.743592
343.783113	2530.843233
344.174605	2526.704446
344.566033	2527.841226
344.957397	2523.997346
345.348697	2522.222860
345.739934	2519.908970
346.131106	2518.545338
346.522215	2519.251100
346.913260	2516.717920
347.304241	2516.022241
347.695159	2511.502846
348.086012	2512.866478
348.476802	2505.420694
348.867528	2509.569564
349.258191	2505.418173
349.648789	2507.278359
350.039324	2502.668224
350.429796	2505.887001
350.820203	2498.355517
351.210548	2498.388284
351.600828	2495.172028
351.991045	2501.755775
352.381198	2495.363592
352.771288	2498.307626
353.161314	2496.923829
353.551276	2497.962307
353.941175	2497.589262
354.331010	2495.943325
354.720782	2496.901144
355.110490	2497.853922
355.500135	2497.553973
355.889717	2495.257728
356.279235	2497.306957
356.668689	2498.264776
357.058080	2498.894920
357.447408	2494.798983
357.836672	2492.500217
358.225873	2496.029024
358.615010	2491.136585
359.004084	2498.834427
359.393095	2498.486587
359.782043	2498.910044
360.170927	2502.234685
360.559748	2501.644870
360.948505	2504.132679
361.337199	2503.336177
361.725830	2503.500014
362.114398	2503.691578
362.502903	2504.256188
362.891344	2505.244254
363.279722	2504.034377
363.668037	2505.662669
364.056289	2504.024294
364.444478	2508.740294
364.832603	2504.709891
365.220665	2509.758607
365.608665	2506.645694
365.996601	2509.453617
366.384474	2507.684172
366.772284	2508.979749
367.160031	2506.630571
367.547715	2511.712054
367.935336	2511.399502
368.322893	2509.304903
368.710388	2510.562671
369.097820	2510.880264
369.485189	2509.546878
369.872495	2512.155676
370.259738	2511.437311
370.646918	2509.453617
371.034035	2512.836231
371.421090	2513.826818
371.808081	2510.792043
372.195010	2512.390089
372.581875	2513.176509
372.968678	2513.310100
373.355418	2513.675583
373.742096	2514.968639
374.128710	2511.636437
374.515262	2513.463855
374.901751	2514.983763
375.288177	2515.455111
375.674540	2513.161386
376.060841	2513.146262
376.447079	2514.068793
376.833254	2514.333454
377.219367	2509.960253
377.605417	2514.709020
377.991404	2509.309944
378.377329	2510.998731
378.763191	2510.184584
379.148991	2519.677077
379.534727	2516.241531
379.920402	2518.167252
380.306013	2517.509381
380.691563	2516.475944
381.077049	2518.469721
381.462474	2515.835718
381.847835	2518.484844
382.233134	2519.117509
382.618371	2517.012827
383.003545	2521.161697
383.388657	2516.780934
383.773706	2516.677591
384.158693	2518.857890
384.543618	2521.723786
384.928480	2519.356964
385.313280	2520.433250
385.698017	2519.094824
386.082692	2519.896367
386.467305	2521.829650
386.851856	2520.859228
387.236344	2520.428209
387.620770	2521.930473
388.005133	2523.571368
388.389435	2525.212264
388.773674	2519.150277
389.157851	2520.211439
389.541965	2524.806451
389.926018	2522.648837
390.310008	2522.328724
390.693936	2525.252593
391.077802	2524.435926
391.461606	2522.714372
391.845348	2521.522139
392.229027	2523.725124
392.612645	2523.258817
392.996200	2523.750329
393.379694	2523.967099
393.763125	2523.336955
394.146494	2524.708149
394.529801	2527.206040
394.913047	2524.529188
395.296230	2526.228057
395.679351	2526.407018
396.062410	2527.145547
396.445408	2526.313756
396.828343	2528.930115
397.211217	2519.525842
397.594028	2523.341996
397.976778	2524.158663
398.359466	2524.907274
398.742092	2521.156656
399.124656	2527.511030
399.507158	2527.016997
399.889598	2529.648479
400.271977	2528.153777
400.654294	2531.551515
401.036549	2529.504807
401.418742	2528.441123
401.800874	2528.315094
402.182944	2529.340969
402.564952	2530.235774
402.946898	2528.993129
403.328783	2528.105886
403.710606	2529.582944
404.092367	2529.431710
404.474067	2528.708304
404.855705	2530.906247
405.237282	2530.686957
405.618797	2531.493542
406.000250	2533.313398
406.381642	2528.373068
406.762972	2530.480270
407.144240	2533.121834
407.525447	2532.509334
407.906593	2529.542615
408.287677	2532.804242
408.668700	2530.213089
409.049661	2530.626463
409.430560	2533.227699
409.811399	2532.892462
410.192176	2531.853984
410.572891	2533.308357
410.953545	2534.475384
411.334138	2534.785415
411.714669	2534.127545
412.095139	2533.429345
412.475547	2534.515713
412.855894	2532.834489
413.236180	2533.595703
413.616405	2535.539068
413.996568	2533.888090
414.376670	2533.701567
414.756711	2534.671989
415.136691	2535.221475
415.516609	2535.413039
415.896466	2536.126362
416.276262	2536.370858
416.655997	2530.820548
417.035670	2531.770805
417.415283	2537.742052
417.794834	2532.171577
418.174324	2534.301464
418.553753	2535.380271
418.933121	2540.711292
419.312428	2537.197607
419.691674	2538.410005
420.070859	2535.581918
420.449983	2537.396733
420.829045	2535.183666
421.208047	2536.514531
421.586988	2537.545447
421.965867	2538.291538
422.344686	2539.350180
422.723444	2539.400592
423.102141	2536.396064
423.480777	2537.124511
423.859352	2539.040149
424.237866	2539.574511
424.616319	2539.314892
424.994712	2537.822710
425.373044	2539.798843
425.751314	2538.689789
426.129524	2537.706764
426.507673	2541.870757
426.885762	2539.140972
427.263789	2542.783206
427.641756	2541.303627
428.019662	2543.176416
428.397508	2538.898997
428.775292	2541.817825
429.153016	2540.640715
429.530679	2543.262115
429.908282	2542.286652
430.285824	2542.115253
430.663305	2543.204142
431.040726	2541.018802
431.418086	2542.581560
431.795385	2542.483257
432.172624	2542.745397
432.549802	2540.693648
432.926920	2542.135417
433.303977	2542.518545
433.680974	2540.849923
434.057910	2543.282280
434.434786	2543.171375
434.811601	2545.651622
435.188355	2543.259595
435.565050	2544.895449
435.941683	2542.568957
436.318257	2543.153731
436.694770	2540.915458
437.071222	2543.534338
437.447614	2539.703061
437.823946	2541.888401
438.200218	2542.929399
438.576429	2546.087682
438.952580	2546.077600
439.328670	2546.919472
439.704700	2544.111550
440.080670	2548.333516
440.456580	2545.054246
440.832429	2547.353012
441.208218	2546.967363
441.583947	2549.775286
441.959616	2545.535676
442.335224	2547.751263
442.710773	2545.457538
443.086261	2550.095399
443.461689	2547.544576
443.837057	2549.079607
444.212365	2548.381407
444.587612	2551.882488
444.962800	2546.198587
445.337927	2550.271840
445.712995	2551.083466
446.088002	2549.835780
446.462949	2551.065822
446.837837	2552.706717
447.212664	2551.166645
447.587431	2549.797971
447.962139	2554.357695
448.336786	2554.587068
448.711374	2554.251831
449.085901	2556.520350
449.460369	2551.287632
449.834776	2556.855587
450.209124	2554.612273
450.583412	2558.856925
450.957640	2555.928014
451.331808	2558.221739
451.705917	2555.779300
452.079965	2561.246432
452.453954	2561.490928
452.827883	2560.732234
453.201752	2561.206103
453.575562	2563.179714
453.949311	2566.287586
454.323001	2565.042421
454.696632	2568.919068
455.070202	2567.873028
455.443713	2570.887638
455.817164	2574.106415
456.190556	2577.957857
456.563888	2581.481623
456.937160	2581.774010
457.310373	2586.313569
457.683526	2591.629466
458.056619	2595.385126
458.429653	2598.752616
458.802628	2601.701691
459.175542	2609.961622
459.548398	2621.762963
459.921194	2628.359313
460.293930	2637.647639
460.666607	2657.265289
461.039224	2672.524862
461.411782	2683.759073
461.784280	2690.816688
462.156719	2697.072760
462.529099	2703.782536
462.901419	2701.178780
463.273680	2708.352342
463.645882	2716.614793
464.018024	2726.654251
464.390106	2741.381982
464.762130	2768.982299
465.134094	2814.511480
465.505999	2890.902605
465.877845	2982.477685
466.249631	3030.217412
466.621358	3017.395238
466.993026	3008.227899
467.364634	3006.581963
467.736184	3008.653877
468.107674	3016.092099
468.479105	3050.840773
468.850477	3049.088972
469.221790	3056.945610
469.593043	3059.249417
469.964238	3077.647108
470.335373	3105.554936
470.706449	3140.306130
471.077467	3169.804442
471.448425	3343.668797
471.819324	3506.825741
472.190164	3534.854556
472.560945	3429.930501
472.931667	3377.537789
473.302330	3392.782238
473.672934	3385.674211
474.043479	3473.513796
474.413965	3504.882376
474.784393	3534.191645
475.154761	3595.749174
475.525070	3655.242351
475.895321	3670.872449
476.265513	3747.064448
476.635645	3822.084379
477.005719	3882.878174
477.375734	3954.018937
477.745691	4057.786048
478.115588	4145.214779
478.485427	4261.289867
478.855207	4449.322385
479.224928	4736.274944
479.594591	4963.136949
479.964194	4986.787523
480.333739	5028.596332
480.703226	5096.246096
481.072653	5203.970513
481.442022	5375.717583
481.811333	5507.929404
482.180584	5531.403537
482.549777	5537.626842
482.918912	5558.245161
483.287988	5656.202342
483.657005	5737.687553
484.025964	5712.660744
484.394864	5844.552452
484.763706	5925.059679
485.132489	5909.124592
485.501213	5978.319470
485.869879	6081.247228
486.238487	6120.298527
486.607036	6230.288942
486.975527	6238.967288
487.343959	6399.679273
487.712333	6512.996849
488.080648	6554.349434
488.448905	6672.279667
488.817104	6721.756071
489.185244	6934.172650
489.553326	7115.344158
489.921350	7476.376473
490.289315	8118.995039
490.657222	8385.614104
491.025070	8451.287736
491.392861	8478.222621
491.760593	8381.646716
492.128267	8291.765463
492.495883	8199.116617
492.863440	8089.592509
493.230939	7975.559088
493.598380	8017.400665
493.965763	8029.945577
494.333088	8025.698405
494.700354	8068.006288
495.067563	8168.204262
495.434713	8149.645254
495.801805	8300.320302
496.168839	8329.415321
496.535815	8363.914457
496.902733	8419.886388
497.269593	8449.430071
497.636395	8579.849762
498.003139	8654.693252
498.369825	8611.546017
498.736453	8800.826220
499.103023	8800.702712
499.469535	8894.949603
499.835989	8946.117315
500.202385	8981.677614
500.568723	8919.094210
500.935003	9142.142582
501.301226	9066.333711
501.667390	9319.155138
502.033497	9449.355539
502.399546	9391.911591
502.765537	9371.936019
503.131470	9483.156475
503.497345	9676.635960
503.863163	9406.503211
504.228923	9714.752124
504.594625	9820.177775
504.960269	9647.921548
505.325856	9883.444255
505.691385	9741.997040
506.056856	9919.080172
506.422270	9988.201953
506.787625	9924.582591
507.152924	10069.883769
507.518164	10090.459238
507.883347	10056.688548
508.248472	10018.252271
508.613540	10263.232183
508.978550	10188.429022
509.343503	10195.330362
509.708398	10339.588020
510.073236	10471.857815
510.438016	10511.309885
510.802738	10486.719136
511.167403	10557.688500
511.532010	10495.092493
511.896561	10735.762218
512.261053	10826.699593
512.625488	10723.406350
512.989866	10725.208563
513.354186	10740.304298
513.718449	10667.381487
514.082655	10868.122754
514.446803	10789.029571
514.810894	10924.689541
515.174927	10814.759620
515.538904	10849.246153
515.902822	11014.364106
516.266684	10916.709395
516.630488	10874.179700
516.994235	10939.863414
517.357925	11016.960301
517.721558	11112.202820
518.085133	11139.104938
518.448651	11159.193936
518.812112	11057.458410
519.175516	11080.370454
519.538863	11205.607839
519.902152	11129.239400
520.265385	11301.586367
520.628560	11220.469161
520.991678	11202.182375
521.354739	11272.791297
521.717743	11211.311905
522.080690	11204.178672
522.443580	11337.567603
522.806413	11300.273147
523.169189	11332.833959
523.531908	11394.540203
523.894569	11218.571166
524.257174	11230.362425
524.619722	11345.590599
524.982213	11300.031171
525.344647	11360.192301
525.707025	11309.238839
526.069345	11402.227963
526.431608	11328.342291
526.793815	11436.167531
527.155964	11227.430994
527.518057	11282.061978
527.880093	11230.430481
528.242072	11301.793055
528.603995	11222.364635
528.965860	11142.616101
529.327669	11184.707215
529.689421	11145.020732
530.051117	11118.945363
530.412755	11222.372196
530.774337	11103.615215
531.135862	11089.706671
531.497331	11120.036773
531.858743	10973.543363
532.220098	11141.307922
532.581396	11007.727427
532.942638	10991.343677
533.303824	10961.217742
533.664953	10977.031842
534.026025	10887.533717
534.387040	10989.226393
534.747999	10997.995480
535.108902	11043.615402
535.469748	10807.616305
535.830537	10918.199056
536.191270	10888.907431
536.551947	10916.119580
536.912567	10915.496997
537.273131	10846.904537
537.633638	10826.626496
537.994089	10808.624536
538.354483	10762.845818
538.714821	10898.316745
539.075103	10913.654455
539.435328	10881.270083
539.795497	10709.734741
540.155609	10868.657116
540.515665	10951.556371
540.875665	10686.631133
541.235609	10755.589077
541.595496	10762.697103
541.955328	10908.015925
542.315102	10794.915118
542.674821	10745.962993
543.034483	10749.557336
543.394090	10749.098591
543.753640	10674.648310
544.113134	10901.631303
544.472571	10755.243758
544.831953	10903.617518
545.191278	10703.266941
545.550548	10733.985212
545.909761	10869.912363
546.268918	10844.154588
546.628019	10919.698799
546.987064	10799.076590
547.346053	10709.772550
547.704986	10812.475977
548.063863	10800.803185
548.422684	10792.855806
548.781449	10706.054699
549.140158	10808.017077
549.498811	10686.946205
549.857408	10542.083608
550.215949	10772.481983
550.574434	10631.639706
550.932864	10726.395755
551.291237	10777.959197
551.649555	10728.737371
552.007817	10745.332849
552.366022	10701.497496
552.724173	10705.873217
553.082267	10685.975783
553.440305	10829.739408
553.798288	10622.250557
554.156215	10779.279979
554.514086	10753.065979
554.871902	10601.070149
555.229661	10639.692950
555.587365	10615.896183
555.945014	10508.065902
556.302606	10640.353341
556.660143	10533.740499
557.017625	10683.853457
557.375050	10578.261449
557.732421	10716.205062
558.089735	10629.560230
558.446994	10627.589139
558.804197	10668.475417
559.161345	10666.060705
559.518437	10522.753304
559.875474	10605.062743
560.232455	10636.645572
560.589381	10585.492984
560.946251	10584.530124
561.303065	10688.400578
561.659825	10624.629982
562.016528	10556.259333
562.373177	10434.767525
562.729770	10551.066944
563.086307	10470.973092
563.442789	10557.083562
563.799216	10437.260376
564.155587	10478.330656
564.511904	10443.985275
564.868164	10431.006824
565.224370	10444.267580
565.580520	10372.426096
565.936615	10372.915088
566.292654	10246.659390
566.648638	10375.390295
567.004567	10332.840436
567.360441	10315.244288
567.716260	10227.860927
568.072023	10317.351490
568.427732	10272.598647
568.783385	10179.612044
569.138982	10249.505121
569.494525	10267.083625
569.850013	10149.526438
570.205445	10226.840094
570.560823	10119.574422
570.916145	10044.771261
571.271412	10116.267425
571.626625	10060.330782
571.981782	10031.944045
572.336884	10005.798100
572.691931	10009.152988
573.046923	9961.980391
573.401860	9916.176467
573.756743	9850.144914
574.111570	9892.165452
574.466342	9879.784378
574.821059	9906.802442
575.175722	9797.023755
575.530330	9810.115632
575.884882	9795.161049
576.239380	9725.910718
576.593823	9703.217964
576.948211	9720.254544
577.302544	9600.116286
577.656823	9617.866188
578.011047	9621.132856
578.365216	9595.478424
578.719330	9517.456486
579.073389	9532.529536
579.427394	9480.933327
579.781344	9458.623700
580.135239	9401.774608
580.489080	9409.994210
580.842866	9310.081061
581.196597	9317.327720
581.550273	9356.920942
581.903895	9328.786262
582.257463	9393.565089
582.610975	9274.256101
582.964434	9292.293350
583.317837	9216.514725
583.671186	9198.482518
584.024481	9195.661992
584.377721	9115.681566
584.730906	9091.408410
585.084037	9125.499213
585.437113	9056.190909
585.790135	9076.584897
586.143103	8979.504877
586.496016	8951.753325
586.848874	9009.832458
587.201679	8999.084718
587.554428	8886.165393
587.907124	8934.343700
588.259765	8903.050738
588.612352	8903.549812
588.964884	8780.870812
589.317362	8792.231053
589.669786	8797.415879
590.022155	8844.512859
590.374470	8857.881999
590.726731	8800.503586
591.078937	8648.023806
591.431090	8761.222915
591.783188	8638.740521
592.135232	8631.871949
592.487222	8622.157645
592.839157	8679.067231
593.191038	8614.742108
593.542866	8558.903767
593.894639	8459.315773
594.246358	8512.441973
594.598022	8532.160446
594.949633	8429.056247
595.301190	8408.016992
595.652692	8429.436854
596.004141	8540.470788
596.355535	8315.027868
596.706876	8302.921537
597.058162	8234.019046
597.409395	8308.096281
597.760573	8372.134059
598.111698	8282.283053
598.462768	8268.044314
598.813785	8226.895896
599.164748	8195.242491
599.515657	8190.728138
599.866511	8100.478881
600.217312	8227.142912
600.568060	8084.707631
600.918753	8187.756377
601.269392	8159.200761
601.619978	8068.515445
601.970510	8138.544633
602.320988	8125.825802
602.671412	8188.661264
603.021783	8124.825133
603.372100	8092.256759
603.722363	8100.977955
604.072572	8071.724139
604.422728	8085.408351
604.772830	8016.725151
605.122878	8023.576079
605.472872	8021.839401
605.822813	8045.787403
606.172701	7985.167528
606.522534	8066.569559
606.872314	8063.360865
607.222041	8036.304992
607.571714	8091.929084
607.921333	8046.911580
608.270899	8054.034730
608.620411	8144.871282
608.969870	8049.792599
609.319276	8043.060138
609.668627	8062.962614
610.017926	8097.265145
610.367171	8131.481977
610.716362	8115.251982
611.065500	8107.793595
611.414585	8138.733677
611.763616	8129.024414
612.112594	8107.533976
612.461518	8118.964792
612.810389	8182.342178
613.159207	8119.252138
613.507971	8070.126093
613.856682	8190.952469
614.205340	8143.177454
614.553945	8223.669557
614.902496	8118.248948
615.250994	8177.747166
615.599439	8153.405955
615.947830	8164.093201
616.296169	8140.757700
616.644454	8155.969382
616.992686	8152.090214
617.340864	8211.454842
617.688990	8113.963967
618.037063	8205.007206
618.385082	8152.375039
618.733048	8243.277125
619.080961	8177.787496
619.428821	8198.378088
619.776628	8198.748613
620.124382	8149.269688
620.472083	8136.838203
620.819731	8158.626070
621.167326	8051.665388
621.514868	8065.256339
621.862357	7953.378012
622.209793	7965.784291
622.557176	7904.050321
622.904506	7876.145014
623.251783	7808.868295
623.599007	7759.908609
623.946179	7766.540247
624.293297	7723.781180
624.640363	7644.612380
624.987376	7622.738813
625.334336	7566.809732
625.681243	7523.433123
626.028097	7509.814446
626.374899	7487.870304
626.721647	7480.858059
627.068343	7408.799806
627.414987	7384.786269
627.761577	7341.346647
628.108115	7379.682101
628.454600	7274.924403
628.801032	7325.666137
629.147412	7281.233407
629.493739	7270.919207
629.840014	7208.698765
630.186236	7262.971828
630.532405	7146.659806
630.878521	7198.228289
631.224585	7155.474263
631.570597	7080.230001
631.916556	7118.580579
632.262462	7110.774352
632.608316	7069.020995
632.954117	7049.544497
633.299866	7035.489760
633.645562	7030.839296
633.991206	6948.050947
634.336797	6896.598410
634.682336	6849.879517
635.027823	6818.889024
635.373257	6809.169679
635.718639	6740.627631
636.063968	6753.462408
636.409245	6647.504916
636.754470	6645.753115
637.099642	6604.473627
637.444762	6550.084618
637.789829	6557.903448
638.134845	6498.334653
638.479808	6488.665720
638.824719	6490.016750
639.169577	6415.662251
639.514383	6440.379028
639.859137	6368.731629
640.203839	6376.734461
640.548489	6360.607810
640.893086	6338.262895
641.237632	6314.619884
641.582125	6327.469785
