Dividing Wavelength (nm)	Counts (n)	Blue Motor Position (mm): 2.500000	Red Motor Position (mm): 0.000000	
326.493990	2141.865282
326.888308	2141.865282
327.282561	2141.865282
327.676750	2111.779675
328.070874	2110.539552
328.464933	2113.738164
328.858929	2119.139760
329.252859	2127.913888
329.646726	2139.306896
330.040528	2151.350213
330.434265	2169.687410
330.827938	2188.879082
331.221547	2204.889787
331.615091	2224.313353
332.008571	2246.862434
332.401986	2261.958169
332.795338	2281.296035
333.188625	2305.034829
333.581847	2321.327838
333.975006	2336.960456
334.368100	2358.587006
334.761129	2376.649460
335.154095	2393.134033
335.546996	2409.122053
335.939833	2422.221491
336.332606	2438.920313
336.725315	2451.694597
337.117960	2459.430247
337.510540	2467.070116
337.903056	2481.127374
338.295508	2485.918990
338.687896	2496.255876
339.080220	2506.086126
339.472480	2509.493946
339.864676	2513.567199
340.256807	2519.921573
340.648875	2521.827129
341.040879	2525.464322
341.432818	2527.032121
341.824694	2528.443644
342.216506	2529.973634
342.608253	2529.489683
342.999937	2528.521782
343.391557	2528.683098
343.783113	2528.390712
344.174605	2526.709487
344.566033	2522.885772
344.957397	2525.509692
345.348697	2521.696059
345.739934	2521.166738
346.131106	2518.636079
346.522215	2515.825636
346.913260	2514.146931
347.304241	2514.111643
347.695159	2511.235665
348.086012	2509.831704
348.476802	2508.614265
348.867528	2507.739625
349.258191	2505.773575
349.648789	2503.537823
350.039324	2502.834582
350.429796	2501.523882
350.820203	2498.473984
351.210548	2501.221413
351.600828	2499.426762
351.991045	2498.098418
352.381198	2493.979795
352.771288	2493.952069
353.161314	2494.882162
353.551276	2496.916268
353.941175	2495.313181
354.331010	2494.715804
354.720782	2495.045999
355.110490	2494.778818
355.500135	2492.691781
355.889717	2496.719663
356.279235	2494.925012
356.668689	2495.688747
357.058080	2496.059271
357.447408	2494.945176
357.836672	2493.384939
358.225873	2493.490803
358.615010	2493.843684
359.004084	2497.584220
359.393095	2496.689416
359.782043	2497.422903
360.170927	2499.056237
360.559748	2498.680671
360.948505	2499.673779
361.337199	2498.229488
361.725830	2501.627226
362.114398	2502.653101
362.502903	2504.283914
362.891344	2502.776609
363.279722	2502.297699
363.668037	2504.394819
364.056289	2503.736949
364.444478	2504.697288
364.832603	2503.628564
365.220665	2507.684172
365.608665	2506.587721
365.996601	2506.743997
366.384474	2509.456138
366.772284	2507.921106
367.160031	2506.822135
367.547715	2507.742145
367.935336	2511.228103
368.322893	2508.861282
368.710388	2506.360869
369.097820	2510.131652
369.485189	2509.418329
369.872495	2509.239368
370.259738	2511.238186
370.646918	2511.593587
371.034035	2509.980418
371.421090	2511.588546
371.808081	2510.592918
372.195010	2514.220028
372.581875	2508.823473
372.968678	2511.321365
373.355418	2512.410254
373.742096	2510.691220
374.128710	2513.731036
374.515262	2514.330933
374.901751	2513.063083
375.288177	2512.382528
375.674540	2513.305059
376.060841	2514.956037
376.447079	2513.473937
376.833254	2517.776562
377.219367	2507.066631
377.605417	2511.197856
377.991404	2510.466889
378.377329	2510.943278
378.763191	2508.505880
379.148991	2515.341685
379.534727	2512.904287
379.920402	2515.568537
380.306013	2514.126767
380.691563	2515.984432
381.077049	2514.489730
381.462474	2516.657426
381.847835	2514.910666
382.233134	2520.418127
382.618371	2515.959226
383.003545	2516.130625
383.388657	2517.025430
383.773706	2517.005266
384.158693	2517.993332
384.543618	2520.292098
384.928480	2518.396624
385.313280	2520.783610
385.698017	2515.223218
386.082692	2518.678929
386.467305	2519.316635
386.851856	2518.565503
387.236344	2518.535256
387.620770	2519.982067
388.005133	2516.735564
388.389435	2519.160359
388.773674	2520.587005
389.157851	2517.582478
389.541965	2519.750174
389.926018	2519.130112
390.310008	2520.571882
390.693936	2521.030627
391.077802	2519.409896
391.461606	2521.010462
391.845348	2522.825278
392.229027	2521.219670
392.612645	2521.799403
392.996200	2524.196472
393.379694	2520.869310
393.763125	2524.032634
394.146494	2520.962571
394.529801	2522.931142
394.913047	2522.401821
395.296230	2524.619928
395.679351	2524.118334
396.062410	2523.778056
396.445408	2522.789990
396.828343	2525.038344
397.211217	2517.763959
397.594028	2520.118178
397.976778	2518.459638
398.359466	2522.033817
398.742092	2517.572395
399.124656	2524.599764
399.507158	2525.106400
399.889598	2526.807789
400.271977	2524.367871
400.654294	2526.258303
401.036549	2525.403828
401.418742	2526.263345
401.800874	2526.507841
402.182944	2526.535567
402.564952	2525.923067
402.946898	2526.777542
403.328783	2525.555063
403.710606	2527.072450
404.092367	2526.936339
404.474067	2527.977337
404.855705	2525.890299
405.237282	2528.393232
405.618797	2527.765608
406.000250	2524.841739
406.381642	2525.930628
406.762972	2528.909950
407.144240	2529.666123
407.525447	2528.859539
407.906593	2528.993129
408.287677	2529.540095
408.668700	2529.580424
409.049661	2529.678726
409.430560	2528.529343
409.811399	2527.579086
410.192176	2526.129754
410.572891	2528.781401
410.953545	2529.093952
411.334138	2530.414735
411.714669	2530.182842
412.095139	2530.573531
412.475547	2527.329549
412.855894	2529.769467
413.236180	2531.155784
413.616405	2530.281144
413.996568	2529.645959
414.376670	2532.423635
414.756711	2529.517409
415.136691	2532.418593
415.516609	2532.322812
415.896466	2531.274252
416.276262	2532.239633
416.655997	2529.766947
417.035670	2528.869621
417.415283	2529.071267
417.794834	2528.453726
418.174324	2529.903058
418.553753	2534.369520
418.933121	2534.172915
419.312428	2534.382123
419.691674	2533.724252
420.070859	2533.583100
420.449983	2532.728624
420.829045	2532.963038
421.208047	2534.616537
421.586988	2531.957328
421.965867	2532.713501
422.344686	2533.852802
422.723444	2535.213913
423.102141	2535.929757
423.480777	2534.465302
423.859352	2534.122503
424.237866	2535.360107
424.616319	2535.874304
424.994712	2535.589479
425.373044	2534.646783
425.751314	2533.968748
426.129524	2536.484284
426.507673	2534.248532
426.885762	2537.585776
427.263789	2536.287679
427.641756	2533.636032
428.019662	2537.812628
428.397508	2535.670138
428.775292	2534.792977
429.153016	2535.786084
429.530679	2537.686599
429.908282	2536.925385
430.285824	2535.370189
430.663305	2534.432534
431.040726	2535.181146
431.418086	2534.102339
431.795385	2535.707946
432.172624	2537.200128
432.549802	2536.779192
432.926920	2538.525951
433.303977	2538.790612
433.680974	2538.319264
434.057910	2538.422608
434.434786	2536.363296
434.811601	2539.057793
435.188355	2535.486136
435.565050	2538.538554
435.941683	2539.947557
436.318257	2538.830941
436.694770	2533.676361
437.071222	2537.104346
437.447614	2532.589993
437.823946	2534.430014
438.200218	2535.816331
438.576429	2542.221117
438.952580	2540.612989
439.328670	2539.929913
439.704700	2541.172557
440.080670	2539.486291
440.456580	2538.510828
440.832429	2538.997299
441.208218	2538.513348
441.583947	2538.243647
441.959616	2535.410518
442.335224	2541.848072
442.710773	2539.251878
443.086261	2539.216589
443.461689	2537.396733
443.837057	2540.527289
444.212365	2539.645088
444.587612	2540.224820
444.962800	2541.863195
445.337927	2541.311189
445.712995	2539.481250
446.088002	2539.811446
446.462949	2541.888401
446.837837	2538.914120
447.212664	2543.678011
447.587431	2541.593493
447.962139	2541.659028
448.336786	2544.766900
448.711374	2543.073072
449.085901	2542.125335
449.460369	2540.746580
449.834776	2540.418905
450.209124	2540.426466
450.583412	2540.905376
450.957640	2541.280942
451.331808	2543.786395
451.705917	2538.372196
452.079965	2542.329502
452.453954	2542.601724
452.827883	2543.045346
453.201752	2542.631971
453.575562	2543.400747
453.949311	2541.953936
454.323001	2541.638864
454.696632	2543.047866
455.070202	2543.385624
455.443713	2541.835469
455.817164	2541.691796
456.190556	2540.592824
456.563888	2543.095757
456.937160	2538.173071
457.310373	2544.343443
457.683526	2540.930582
458.056619	2542.755479
458.429653	2540.504604
458.802628	2543.718340
459.175542	2544.925696
459.548398	2544.308155
459.921194	2548.003321
460.293930	2546.937117
460.666607	2544.149358
461.039224	2547.113557
461.411782	2545.510470
461.784280	2546.622044
462.156719	2544.499719
462.529099	2546.589277
462.901419	2543.826725
463.273680	2547.320244
463.645882	2544.351005
464.018024	2542.868905
464.390106	2546.226314
464.762130	2543.267157
465.134094	2544.361087
465.505999	2543.720860
465.877845	2543.773792
466.249631	2545.722198
466.621358	2544.262784
466.993026	2547.169010
467.364634	2548.552806
467.736184	2545.316386
468.107674	2543.110881
468.479105	2544.678680
468.850477	2544.615665
469.221790	2546.233876
469.593043	2544.013247
469.964238	2547.095913
470.335373	2543.279759
470.706449	2547.542055
471.077467	2544.812270
471.448425	2545.563402
471.819324	2545.414688
472.190164	2547.153886
472.560945	2546.483413
472.931667	2545.142466
473.302330	2546.639688
473.672934	2546.201108
474.043479	2545.633978
474.413965	2546.170861
474.784393	2542.992414
475.154761	2545.512991
475.525070	2541.979142
475.895321	2543.554502
476.265513	2541.462423
476.635645	2547.922662
477.005719	2546.044832
477.375734	2548.094061
477.745691	2543.988042
478.115588	2548.635985
478.485427	2547.289997
478.855207	2550.546583
479.224928	2546.856458
479.594591	2545.505429
479.964194	2546.019627
480.333739	2547.065666
480.703226	2547.060625
481.072653	2548.913249
481.442022	2546.881664
481.811333	2545.581046
482.180584	2547.292518
482.549777	2549.997097
482.918912	2545.528114
483.287988	2547.809236
483.657005	2548.255378
484.025964	2547.368135
484.394864	2550.297046
484.763706	2547.552137
485.132489	2547.123639
485.501213	2550.861655
485.869879	2548.467107
486.238487	2547.274874
486.607036	2544.817311
486.975527	2548.348640
487.343959	2547.879812
487.712333	2547.360573
488.080648	2545.686910
488.448905	2548.663712
488.817104	2550.418033
489.185244	2548.998948
489.553326	2547.912580
489.921350	2546.138094
490.289315	2549.682025
490.657222	2550.717982
491.025070	2546.107847
491.392861	2549.127498
491.760593	2549.067004
492.128267	2550.102961
492.495883	2548.855276
492.863440	2549.046839
493.230939	2548.487271
493.598380	2548.777138
493.965763	2544.489636
494.333088	2545.465100
494.700354	2542.863864
495.067563	2549.041798
495.434713	2546.327137
495.801805	2548.235214
496.168839	2550.133208
496.535815	2547.458876
496.902733	2548.436860
497.269593	2548.918290
497.636395	2548.948537
498.003139	2548.605738
498.369825	2547.831921
498.736453	2551.950544
499.103023	2548.872920
499.469535	2550.546583
499.835989	2546.964843
500.202385	2547.927703
500.568723	2551.459032
500.935003	2549.588763
501.301226	2550.181099
501.667390	2547.932744
502.033497	2549.608928
502.399546	2548.819988
502.765537	2547.985677
503.131470	2550.476007
503.497345	2549.225800
503.863163	2548.633465
504.228923	2550.433157
504.594625	2552.484906
504.960269	2548.101623
505.325856	2549.200595
505.691385	2550.528939
506.056856	2549.162786
506.422270	2549.853424
506.787625	2550.589432
507.152924	2549.755122
507.518164	2550.680173
507.883347	2551.297715
508.248472	2549.077086
508.613540	2550.249155
508.978550	2551.078424
509.343503	2550.869217
509.708398	2552.923487
510.073236	2550.586912
510.438016	2551.464073
510.802738	2549.566078
511.167403	2548.580533
511.532010	2549.707231
511.896561	2551.713610
512.261053	2549.989535
512.625488	2545.134904
512.989866	2546.576674
513.354186	2549.278733
513.718449	2545.666746
514.082655	2550.297046
514.446803	2551.128836
514.810894	2548.394010
515.174927	2554.350133
515.538904	2553.233518
515.902822	2548.114226
516.266684	2552.126984
516.630488	2549.969371
516.994235	2552.666388
517.357925	2549.929041
517.721558	2551.053219
518.085133	2551.955585
518.448651	2551.872406
518.812112	2550.995245
519.175516	2550.944834
519.538863	2553.452808
519.902152	2548.787220
520.265385	2552.313507
520.628560	2552.094217
520.991678	2547.975594
521.354739	2552.492468
521.717743	2553.402396
522.080690	2550.733105
522.443580	2551.953065
522.806413	2552.628579
523.169189	2548.394010
523.531908	2549.984494
523.894569	2551.769062
524.257174	2553.964485
524.619722	2552.615976
524.982213	2552.316028
525.344647	2551.055739
525.707025	2551.958106
526.069345	2550.546583
526.431608	2555.071018
526.793815	2551.300235
527.155964	2550.533980
527.518057	2551.174206
527.880093	2550.113043
528.242072	2552.903322
528.603995	2551.663198
528.965860	2551.378373
529.327669	2554.738302
529.689421	2549.087169
530.051117	2549.397200
530.412755	2551.786707
530.774337	2552.691594
531.135862	2548.832590
531.497331	2550.594474
531.858743	2545.805378
532.220098	2548.575492
532.581396	2547.658002
532.942638	2548.235214
533.303824	2552.754608
533.664953	2550.065153
534.026025	2552.709238
534.387040	2551.466593
534.747999	2551.612787
535.108902	2552.444577
535.469748	2550.481048
535.830537	2552.237890
536.191270	2553.954403
536.551947	2552.079093
536.912567	2556.454815
537.273131	2551.564896
537.633638	2553.853580
537.994089	2553.127653
538.354483	2551.517005
538.714821	2551.363250
539.075103	2551.111192
539.435328	2550.407951
539.795497	2553.510781
540.155609	2552.628579
540.515665	2552.343754
540.875665	2553.006666
541.235609	2552.063970
541.595496	2552.565565
541.955328	2549.969371
542.315102	2553.155380
542.674821	2554.710576
543.034483	2553.246121
543.394090	2549.959288
543.753640	2554.836605
544.113134	2551.007848
544.472571	2554.342572
544.831953	2549.571119
545.191278	2554.186296
545.550548	2552.830225
545.909761	2551.297715
546.268918	2549.853424
546.628019	2554.634958
546.987064	2555.280226
547.346053	2553.646892
547.704986	2551.983312
548.063863	2552.210163
548.422684	2553.389793
548.781449	2551.665719
549.140158	2552.341233
549.498811	2551.958106
549.857408	2552.217725
550.215949	2552.731923
550.574434	2547.947868
550.932864	2549.951727
551.291237	2548.746891
551.649555	2552.376522
552.007817	2554.771070
552.366022	2551.960626
552.724173	2549.072045
553.082267	2554.939948
553.440305	2551.640513
553.798288	2553.447767
554.156215	2552.661347
554.514086	2551.998435
554.871902	2552.391645
555.229661	2553.336861
555.587365	2553.394835
555.945014	2552.260575
556.302606	2552.401727
556.660143	2555.078580
557.017625	2551.973229
557.375050	2555.774259
557.732421	2552.837787
558.089735	2551.940462
558.446994	2552.101779
558.804197	2555.242417
559.161345	2551.658157
559.518437	2553.266285
559.875474	2553.808209
560.232455	2553.719989
560.589381	2554.118240
560.946251	2556.603529
561.303065	2551.804351
561.659825	2554.181255
562.016528	2553.409958
562.373177	2553.238559
562.729770	2553.094886
563.086307	2552.820143
563.442789	2553.127653
563.799216	2552.870555
564.155587	2551.133877
564.511904	2551.948023
564.868164	2553.324258
565.224370	2554.524053
565.580520	2551.814433
565.936615	2551.128836
566.292654	2551.390976
566.648638	2554.634958
567.004567	2552.749567
567.360441	2553.238559
567.716260	2553.316697
568.072023	2554.559341
568.427732	2549.281253
568.783385	2551.683363
569.138982	2547.627755
569.494525	2551.033054
569.850013	2547.428629
570.205445	2552.893240
570.560823	2553.815771
570.916145	2551.085986
571.271412	2550.763352
571.626625	2555.141594
571.981782	2552.353836
572.336884	2553.914073
572.691931	2553.838456
573.046923	2554.219063
573.401860	2551.683363
573.756743	2552.126984
574.111570	2552.379042
574.466342	2551.622869
574.821059	2550.760832
575.175722	2553.316697
575.530330	2552.600853
575.884882	2550.405430
576.239380	2553.248641
576.593823	2555.224773
576.948211	2553.006666
577.302544	2552.540359
577.656823	2551.877447
578.011047	2554.012376
578.365216	2553.667057
578.719330	2556.074208
579.073389	2554.803837
579.427394	2551.620348
579.781344	2553.054557
580.135239	2553.702345
580.489080	2550.448280
580.842866	2551.176727
581.196597	2554.239228
581.550273	2552.857952
581.903895	2551.882488
582.257463	2555.844835
582.610975	2553.641851
582.964434	2554.095555
583.317837	2553.460370
583.671186	2550.826367
584.024481	2554.546738
584.377721	2552.963816
584.730906	2553.581357
585.084037	2554.753426
585.437113	2551.867365
585.790135	2556.210319
586.143103	2551.471634
586.496016	2553.311656
586.848874	2551.993394
587.201679	2553.102448
587.554428	2550.415513
587.907124	2552.847869
588.259765	2548.063814
588.612352	2557.082439
588.964884	2555.338199
589.317362	2553.334341
589.669786	2552.361398
590.022155	2554.950031
590.374470	2553.004145
590.726731	2554.897098
591.078937	2550.672612
591.431090	2557.117727
591.783188	2552.918446
592.135232	2555.565051
592.487222	2553.558672
592.839157	2553.984650
593.191038	2553.523384
593.542866	2553.992211
593.894639	2553.631769
594.246358	2553.725030
594.598022	2552.827705
594.949633	2554.370298
595.301190	2554.022458
595.652692	2553.518343
596.004141	2552.253013
596.355535	2556.442212
596.706876	2552.714279
597.058162	2552.540359
597.409395	2551.794268
597.760573	2552.149670
598.111698	2556.205278
598.462768	2553.455328
598.813785	2554.829043
599.164748	2555.985988
599.515657	2552.832746
599.866511	2554.738302
600.217312	2553.914073
600.568060	2553.064639
600.918753	2554.297201
601.269392	2551.509443
601.619978	2553.193188
601.970510	2554.266954
602.320988	2553.147818
602.671412	2551.154042
603.021783	2553.556152
603.372100	2553.046995
603.722363	2552.830225
604.072572	2554.075390
604.422728	2555.096224
604.772830	2551.983312
605.122878	2549.770245
605.472872	2548.167158
605.822813	2551.186809
606.172701	2550.443239
606.522534	2554.224104
606.872314	2551.406099
607.222041	2553.256203
607.571714	2554.271995
607.921333	2553.823333
608.270899	2552.048847
608.620411	2552.363919
608.969870	2557.841132
609.319276	2555.847356
609.668627	2556.051523
610.017926	2559.630742
610.367171	2561.266596
610.716362	2561.349775
611.065500	2558.657799
611.414585	2556.558159
611.763616	2555.164280
612.112594	2555.045813
612.461518	2555.617983
612.810389	2557.090000
613.159207	2556.911039
613.507971	2551.605225
613.856682	2555.383570
614.205340	2554.067829
614.553945	2554.491286
614.902496	2555.663354
615.250994	2553.472973
615.599439	2555.872562
615.947830	2555.615463
616.296169	2552.449618
616.644454	2556.439692
616.992686	2551.597663
617.340864	2553.861141
617.688990	2553.495658
618.037063	2553.858621
618.385082	2552.537838
618.733048	2555.870041
619.080961	2552.860472
619.428821	2553.228477
619.776628	2553.140256
620.124382	2554.445915
620.472083	2553.112530
620.819731	2553.107489
621.167326	2553.586398
621.514868	2552.258054
621.862357	2550.334854
622.209793	2554.471121
622.557176	2555.877603
622.904506	2549.437529
623.251783	2551.242262
623.599007	2553.790565
623.946179	2549.371994
624.293297	2553.392314
624.640363	2555.028168
624.987376	2552.714279
625.334336	2550.435677
625.681243	2552.762170
626.028097	2554.834084
626.374899	2555.204609
626.721647	2554.161090
627.068343	2553.057077
627.414987	2554.279557
627.761577	2554.521533
628.108115	2553.546069
628.454600	2553.810730
628.801032	2552.232849
629.147412	2551.879968
629.493739	2553.984650
629.840014	2556.023796
630.186236	2553.687222
630.532405	2553.505740
630.878521	2552.368960
631.224585	2554.231666
631.570597	2553.974567
631.916556	2556.507747
632.262462	2554.445915
632.608316	2554.766028
632.954117	2553.846018
633.299866	2555.237376
633.645562	2553.644372
633.991206	2556.434650
634.336797	2554.909701
634.682336	2555.408776
635.027823	2552.273178
635.373257	2554.486244
635.718639	2552.633620
636.063968	2554.206460
636.409245	2552.497509
636.754470	2552.066491
637.099642	2552.021120
637.444762	2554.307283
637.789829	2554.778631
638.134845	2553.954403
638.479808	2549.432488
638.824719	2551.650595
639.169577	2552.033723
639.514383	2552.663867
639.859137	2552.137067
640.203839	2554.831563
640.548489	2550.042467
640.893086	2550.430636
641.237632	2550.029864
641.582125	2549.767724
641.926566	2550.410472
642.270955	2554.277037
642.615292	2552.807540
642.959576	2552.376522
643.303809	2550.307128
643.647990	2554.506409
643.992118	2555.494475
644.336195	2555.121430
