Dividing Wavelength (nm)	Counts (n)	Blue Motor Position (mm): 31.600000	Red Motor Position (mm): 0.000000	
326.493990	2130.626029
326.888308	2130.626029
327.282561	2130.626029
327.676750	2096.378950
328.070874	2094.889289
328.464933	2099.494383
328.858929	2105.977307
329.252859	2115.920983
329.646726	2126.225102
330.040528	2138.875877
330.434265	2159.471511
330.827938	2175.915755
331.221547	2195.258663
331.615091	2210.218287
332.008571	2232.724518
332.401986	2252.344689
332.795338	2270.760024
333.188625	2289.374484
333.581847	2308.283852
333.975006	2327.707418
334.368100	2343.153513
334.761129	2361.722604
335.154095	2376.412526
335.546996	2400.763820
335.939833	2424.749630
336.332606	2440.934254
336.725315	2451.729885
337.117960	2459.095011
337.510540	2469.933492
337.903056	2481.039153
338.295508	2488.689104
338.687896	2496.651607
339.080220	2506.335663
339.472480	2512.380007
339.864676	2515.931500
340.256807	2520.629855
340.648875	2522.416944
341.040879	2524.337624
341.432818	2526.956503
341.824694	2530.475229
342.216506	2527.823582
342.608253	2527.813499
342.999937	2531.712832
343.391557	2531.160826
343.783113	2526.417100
344.174605	2527.437933
344.566033	2526.422141
344.957397	2524.221677
345.348697	2524.055319
345.739934	2521.343178
346.131106	2521.562469
346.522215	2515.853362
346.913260	2515.513084
347.304241	2512.279184
347.695159	2509.859430
348.086012	2510.673576
348.476802	2509.015037
348.867528	2510.698782
349.258191	2506.209635
349.648789	2504.533451
350.039324	2503.794922
350.429796	2499.401556
350.820203	2499.724190
351.210548	2495.189672
351.600828	2498.418531
351.991045	2496.505413
352.381198	2497.644714
352.771288	2496.465084
353.161314	2495.194713
353.551276	2497.238901
353.941175	2494.408293
354.331010	2494.012563
354.720782	2497.743017
355.110490	2493.203458
355.500135	2494.859477
355.889717	2495.983654
356.279235	2495.471977
356.668689	2496.964158
357.058080	2494.728407
357.447408	2496.603716
357.836672	2493.367295
358.225873	2495.890393
358.615010	2493.780670
359.004084	2497.853922
359.393095	2497.654797
359.782043	2501.586897
360.170927	2498.668068
360.559748	2500.772750
360.948505	2502.156547
361.337199	2502.078409
361.725830	2500.513131
362.114398	2500.853409
362.502903	2503.149654
362.891344	2502.799294
363.279722	2502.343070
363.668037	2504.173008
364.056289	2503.724346
364.444478	2505.075375
364.832603	2502.837103
365.220665	2507.774913
365.608665	2505.347597
365.996601	2505.360200
366.384474	2508.586539
366.772284	2507.447238
367.160031	2506.154182
367.547715	2506.723832
367.935336	2506.325581
368.322893	2511.011334
368.710388	2509.569564
369.097820	2511.843124
369.485189	2509.395644
369.872495	2510.834893
370.259738	2510.144255
370.646918	2510.925634
371.034035	2508.959584
371.421090	2512.644667
371.808081	2511.137363
372.195010	2509.945130
372.581875	2513.224400
372.968678	2516.246572
373.355418	2513.035357
373.742096	2509.972856
374.128710	2514.537621
374.515262	2511.671725
374.901751	2511.533093
375.288177	2514.973681
375.674540	2513.778927
376.060841	2512.916890
376.447079	2516.294463
376.833254	2514.464524
377.219367	2510.043432
377.605417	2513.451252
377.991404	2512.765655
378.377329	2512.374966
378.763191	2512.259019
379.148991	2516.627179
379.534727	2518.787313
379.920402	2515.913856
380.306013	2516.155831
380.691563	2517.343023
381.077049	2515.959226
381.462474	2520.977695
381.847835	2515.349247
382.233134	2516.342354
382.618371	2518.545338
383.003545	2518.240348
383.388657	2518.971316
383.773706	2517.443846
384.158693	2517.864782
384.543618	2519.924094
384.928480	2516.725482
385.313280	2520.491223
385.698017	2520.178672
386.082692	2520.466018
386.467305	2521.045750
386.851856	2522.323683
387.236344	2521.194464
387.620770	2523.445340
388.005133	2522.618590
388.389435	2523.042047
388.773674	2520.458456
389.157851	2522.490041
389.541965	2521.005421
389.926018	2522.837881
390.310008	2524.083046
390.693936	2524.503982
391.077802	2524.803931
391.461606	2523.457942
391.845348	2523.735206
392.229027	2523.190761
392.612645	2525.847449
392.996200	2524.907274
393.379694	2524.698066
393.763125	2526.202851
394.146494	2525.791997
394.529801	2524.231760
394.913047	2527.014477
395.296230	2525.610515
395.679351	2526.885927
396.062410	2528.259642
396.445408	2526.890968
396.828343	2529.517409
397.211217	2522.187572
397.594028	2527.027079
397.976778	2526.384332
398.359466	2528.279806
398.742092	2523.732685
399.124656	2529.288037
399.507158	2526.525485
399.889598	2530.689478
400.271977	2531.246525
400.654294	2531.223840
401.036549	2531.359951
401.418742	2532.063192
401.800874	2532.645445
402.182944	2532.990764
402.564952	2532.622760
402.946898	2532.940353
403.328783	2532.146371
403.710606	2529.761905
404.092367	2534.024201
404.474067	2533.048738
404.855705	2533.245343
405.237282	2534.571166
405.618797	2536.201979
406.000250	2534.364479
406.381642	2535.087884
406.762972	2537.300951
407.144240	2534.765251
407.525447	2535.982689
407.906593	2536.885056
408.287677	2536.012936
408.668700	2534.780374
409.049661	2537.031249
409.430560	2535.080323
409.811399	2538.392361
410.192176	2540.696168
410.572891	2538.641898
410.953545	2541.865716
411.334138	2541.051569
411.714669	2540.643236
412.095139	2542.493339
412.475547	2543.105840
412.855894	2540.479398
413.236180	2542.667259
413.616405	2545.674308
413.996568	2544.141797
414.376670	2545.177754
414.756711	2546.662374
415.136691	2548.041129
415.516609	2548.920811
415.896466	2549.878630
416.276262	2554.582026
416.655997	2552.767211
417.035670	2552.842828
417.415283	2562.373130
417.794834	2563.719118
418.174324	2571.464851
418.553753	2573.937537
418.933121	2583.906418
419.312428	2594.258428
419.691674	2599.438213
420.070859	2608.081272
420.449983	2615.332971
420.829045	2628.656741
421.208047	2635.275776
421.586988	2648.428146
421.965867	2660.421051
422.344686	2682.602128
422.723444	2687.978519
423.102141	2691.335927
423.480777	2723.344734
423.859352	2722.084445
424.237866	2757.228849
424.616319	2772.874070
424.994712	2801.530509
425.373044	2815.313024
425.751314	2849.746625
426.129524	2848.556913
426.507673	2890.552245
426.885762	2923.975095
427.263789	2944.948816
427.641756	2953.019703
428.019662	2998.516116
428.397508	3029.055426
428.775292	3055.818912
429.153016	3103.818258
429.530679	3120.461628
429.908282	3167.679595
430.285824	3175.795853
430.663305	3267.842281
431.040726	3249.963829
431.418086	3283.946247
431.795385	3348.767924
432.172624	3392.144532
432.549802	3430.096859
432.926920	3477.413129
433.303977	3517.502905
433.680974	3575.811411
434.057910	3628.597333
434.434786	3675.346473
434.811601	3710.924416
435.188355	3839.607430
435.565050	3841.344107
435.941683	3883.430180
436.318257	4021.799771
436.694770	4066.219898
437.071222	4138.424345
437.447614	4156.882529
437.823946	4161.850587
438.200218	4290.478148
438.576429	4274.974079
438.952580	4383.265625
439.328670	4457.274805
439.704700	4454.880257
440.080670	4499.159232
440.456580	4713.539340
440.832429	4696.316238
441.208218	4654.275535
441.583947	4795.251403
441.959616	4850.003375
442.335224	4850.638560
442.710773	4990.031505
443.086261	5065.512702
443.461689	4958.325168
443.837057	5111.944249
444.212365	5270.402838
444.587612	5238.580554
444.962800	5392.678545
445.337927	5422.484367
445.712995	5168.321993
446.088002	5654.894162
446.462949	5567.493157
446.837837	5553.282145
447.212664	5721.742383
447.587431	5884.937136
447.962139	6372.373863
448.336786	7174.542427
448.711374	6998.394430
449.085901	6261.793633
449.460369	6238.614407
449.834776	6211.669440
450.209124	6591.190187
450.583412	6759.688233
450.957640	6908.074597
451.331808	6731.251085
451.705917	6355.637232
452.079965	6308.048740
452.453954	6531.205497
452.827883	6439.799296
453.201752	6549.948507
453.575562	6377.089862
453.949311	6590.255053
454.323001	6505.488051
454.696632	6583.767088
455.070202	6735.830973
455.443713	6899.204687
455.817164	7013.225504
456.190556	7104.059535
456.563888	7189.048348
456.937160	7246.610763
457.310373	6921.592451
457.683526	6954.102852
458.056619	6856.370003
458.429653	6856.370002
458.802628	6797.789274
459.175542	6910.736326
459.548398	7266.109946
459.921194	7428.067096
460.293930	7434.010616
460.666607	7965.514589
461.039224	8271.474819
461.411782	8399.066423
461.784280	8423.493334
462.156719	8322.151018
462.529099	8210.076086
462.901419	7805.863768
463.273680	7695.691871
463.645882	7711.384983
464.018024	7584.599964
464.390106	7746.572237
464.762130	8137.619582
465.134094	8602.366075
465.505999	9617.364594
465.877845	10834.485655
466.249631	11479.917185
466.621358	11107.627973
466.993026	10483.132355
467.364634	10232.955013
467.736184	9864.514723
468.107674	9541.152430
468.479105	9571.157378
468.850477	9336.917643
469.221790	9108.742417
469.593043	8783.472048
469.964238	8649.173189
470.335373	8662.282709
470.706449	8721.012152
471.077467	8703.766364
471.448425	10007.824644
471.819324	11075.586399
472.190164	11094.195819
472.560945	9852.436118
472.931667	9064.392867
473.302330	8933.723638
473.672934	8584.938807
474.043479	8937.501983
474.413965	8881.615752
474.784393	8761.734593
475.154761	8916.011544
475.525070	9001.063371
475.895321	8831.390736
476.265513	9009.015792
476.635645	9176.230865
477.005719	9176.931585
477.375734	9288.376373
477.745691	9529.666161
478.115588	9661.593157
478.485427	9908.609695
478.855207	10438.046796
479.224928	11255.568194
479.594591	11866.107378
479.964194	11687.348063
480.333739	11629.392437
480.703226	11549.041486
481.072653	11639.026082
481.442022	11871.559386
481.811333	12063.430742
482.180584	11869.482430
482.549777	11577.612226
482.918912	11403.561348
483.287988	11421.747310
483.657005	11439.252717
484.025964	11116.160126
484.394864	11252.888821
484.763706	11217.215096
485.132489	10974.481018
485.501213	10943.694691
485.869879	11015.339570
486.238487	10858.060611
486.607036	10970.054885
486.975527	10749.020453
487.343959	10945.759044
487.712333	10985.498459
488.080648	10920.034036
488.448905	10958.906373
488.817104	10904.739175
489.185244	11168.023517
489.553326	11326.015799
489.921350	11861.189732
490.289315	12918.113007
490.657222	13262.955656
491.025070	13163.105522
491.392861	13042.463148
491.760593	12658.745641
492.128267	12311.168166
492.495883	11988.700678
492.863440	11654.578042
493.230939	11311.444344
493.598380	11247.514951
493.965763	11120.374531
494.333088	11018.601196
494.700354	10941.779053
495.067563	11000.417754
495.434713	10835.942548
495.801805	10960.181785
496.168839	10879.770340
496.535815	10829.568009
496.902733	10819.178191
497.269593	10750.668910
497.636395	10852.850578
498.003139	10843.206851
498.369825	10714.728004
498.736453	10859.973729
499.103023	10793.702720
499.469535	10825.590539
499.835989	10811.886162
500.202385	10783.620413
500.568723	10623.435228
500.935003	10850.307316
501.301226	10651.995886
501.667390	10909.303940
502.033497	11006.983857
502.399546	10872.193486
502.765537	10773.102045
503.131470	10850.239261
503.497345	11023.342401
503.863163	10637.195058
504.228923	10948.022522
504.594625	11011.057109
504.960269	10754.285938
505.325856	10979.489404
505.691385	10771.511561
506.056856	10924.525704
506.422270	10950.391864
506.787625	10839.216778
507.152924	10956.559716
507.518164	10933.231776
507.883347	10851.335712
508.248472	10780.250401
508.613540	11012.617347
508.978550	10893.134439
509.343503	10867.664009
509.708398	10984.659107
510.073236	11098.163207
510.438016	11100.318300
510.802738	11054.882380
511.167403	11112.719538
511.532010	11007.344300
511.896561	11242.037737
512.261053	11311.078860
512.625488	11171.010400
512.989866	11157.358956
513.354186	11149.978707
513.718449	11046.196472
514.082655	11241.405073
514.446803	11132.637137
514.810894	11258.219841
515.174927	11123.419388
515.538904	11147.397636
515.902822	11301.147787
516.266684	11188.598986
516.630488	11122.617844
516.994235	11187.855416
517.357925	11246.657955
517.721558	11339.183293
518.085133	11347.400373
518.448651	11366.939886
518.812112	11247.242729
519.175516	11256.969635
519.538863	11378.408511
519.902152	11298.397838
520.265385	11462.802467
520.628560	11365.886285
520.991678	11344.095897
521.354739	11409.104097
521.717743	11344.521875
522.080690	11317.294603
522.443580	11459.999586
522.806413	11414.178018
523.169189	11441.017121
523.531908	11498.519042
523.894569	11323.230561
524.257174	11327.843217
524.619722	11439.938314
524.982213	11391.265974
525.344647	11441.594333
525.707025	11392.657332
526.069345	11488.958494
526.431608	11407.420351
526.793815	11512.921619
527.155964	11299.985801
527.518057	11356.126611
527.880093	11307.023252
528.242072	11373.238807
528.603995	11279.823706
528.965860	11196.034688
529.327669	11247.373799
529.689421	11202.169772
530.051117	11174.531646
530.412755	11269.726275
530.774337	11168.099134
531.135862	11145.005608
531.497331	11165.717189
531.858743	11016.655311
532.220098	11184.586228
532.581396	11055.257946
532.942638	11036.477128
533.303824	11007.946718
533.664953	11018.197904
534.026025	10932.684811
534.387040	11033.064267
534.747999	11030.329441
535.108902	11090.578791
535.469748	10844.318425
535.830537	10954.066865
536.191270	10938.114134
536.551947	10950.611154
536.912567	10952.554519
537.273131	10876.826306
537.633638	10857.097750
537.994089	10844.658703
538.354483	10793.014603
538.714821	10947.830958
539.075103	10946.472367
539.435328	10906.511140
539.795497	10742.040976
540.155609	10894.893801
540.515665	10988.906279
540.875665	10721.203366
541.235609	10791.862699
541.595496	10787.335743
541.955328	10938.638414
542.315102	10822.396968
542.674821	10767.009811
543.034483	10776.449371
543.394090	10777.210585
543.753640	10710.390091
544.113134	10930.794378
544.472571	10784.570670
544.831953	10924.019068
545.191278	10732.669471
545.550548	10764.925293
545.909761	10903.481407
546.268918	10870.590399
546.628019	10956.809253
546.987064	10817.184415
547.346053	10737.829092
547.704986	10841.439927
548.063863	10824.458800
548.422684	10822.356639
548.781449	10739.041489
549.140158	10840.784577
549.498811	10712.608199
549.857408	10569.807434
550.215949	10796.004007
550.574434	10655.139045
550.932864	10755.614282
551.291237	10815.883797
551.649555	10757.240054
552.007817	10774.110276
552.366022	10729.274253
552.724173	10728.311393
553.082267	10711.118538
553.440305	10851.315547
553.798288	10639.778649
554.156215	10805.904833
554.514086	10777.399629
554.871902	10626.517894
555.229661	10667.683956
555.587365	10642.518516
555.945014	10537.891889
556.302606	10665.052474
556.660143	10547.704495
557.017625	10716.018539
557.375050	10607.759761
557.732421	10742.787066
558.089735	10658.587194
558.446994	10653.278859
558.804197	10691.400065
559.161345	10694.971722
559.518437	10542.920440
559.875474	10632.968050
560.232455	10661.816053
560.589381	10606.786818
560.946251	10614.272931
561.303065	10718.294620
561.659825	10653.540999
562.016528	10577.502755
562.373177	10457.825763
562.729770	10576.731459
563.086307	10493.900260
563.442789	10580.126676
563.799216	10460.311052
564.155587	10510.034473
564.511904	10466.005035
564.868164	10453.470206
565.224370	10469.619542
565.580520	10393.795547
565.936615	10399.408872
566.292654	10269.150498
566.648638	10398.072966
567.004567	10358.585608
567.360441	10342.267393
567.716260	10255.410833
568.072023	10345.244195
568.427732	10297.660743
568.783385	10204.739675
569.138982	10279.807497
569.494525	10289.884764
569.850013	10170.442185
570.205445	10251.970246
570.560823	10150.643053
570.916145	10067.824457
571.271412	10138.907247
571.626625	10075.063554
571.981782	10055.239217
572.336884	10037.360765
572.691931	10037.108707
573.046923	9980.622578
573.401860	9939.774108
573.756743	9872.278100
574.111570	9918.805429
574.466342	9901.322707
574.821059	9928.739023
575.175722	9821.589298
575.530330	9833.756123
575.884882	9818.980501
576.239380	9751.363504
576.593823	9729.011028
576.948211	9745.813194
577.302544	9625.047312
577.656823	9638.295464
578.011047	9637.970310
578.365216	9612.799829
578.719330	9539.551863
579.073389	9548.101660
579.427394	9503.469805
579.781344	9473.938726
580.135239	9425.210932
580.489080	9436.001522
580.842866	9335.770781
581.196597	9341.283283
581.550273	9380.755517
581.903895	9344.759158
582.257463	9414.206094
582.610975	9289.152711
582.964434	9322.562958
583.317837	9236.845698
583.671186	9222.007062
584.024481	9214.072286
584.377721	9140.847006
584.730906	9113.317265
585.084037	9143.014702
585.437113	9080.897604
585.790135	9106.922561
586.143103	9000.337445
586.496016	8975.504721
586.848874	9030.602012
587.201679	9018.178089
587.554428	8905.694823
587.907124	8953.943706
588.259765	8919.628572
588.612352	8924.606712
588.964884	8802.951066
589.317362	8810.212848
589.669786	8814.311307
590.022155	8868.849029
590.374470	8885.159683
590.726731	8818.893715
591.078937	8666.013163
591.431090	8783.386348
591.783188	8661.569386
592.135232	8648.472468
592.487222	8650.350298
592.839157	8703.937764
593.191038	8633.923698
593.542866	8578.367662
593.894639	8479.107343
594.246358	8533.209006
594.598022	8553.388745
594.949633	8444.562837
595.301190	8423.183303
595.652692	8453.029454
596.004141	8561.094149
596.355535	8336.059562
596.706876	8316.351171
597.058162	8251.726099
597.409395	8329.957245
597.760573	8390.430927
598.111698	8303.526475
598.462768	8284.622148
598.813785	8249.439936
599.164748	8219.099751
599.515657	8212.720171
599.866511	8122.778425
600.217312	8247.821725
600.568060	8106.571115
600.918753	8205.864202
601.269392	8183.194133
601.619978	8091.172911
601.970510	8156.458374
602.320988	8151.470152
602.671412	8207.489974
603.021783	8141.954974
603.372100	8116.303063
603.722363	8119.211808
604.072572	8097.239939
604.422728	8104.968028
604.772830	8029.789301
605.122878	8041.656177
605.472872	8038.316413
605.822813	8067.517296
606.172701	8015.953854
606.522534	8087.266017
606.872314	8090.015966
607.222041	8056.671254
607.571714	8108.194367
607.921333	8070.375631
608.270899	8076.737567
608.620411	8162.764857
608.969870	8073.604490
609.319276	8066.604847
609.668627	8079.323679
610.017926	8114.352136
610.367171	8160.259404
610.716362	8140.152762
611.065500	8128.905947
611.414585	8158.958786
611.763616	8149.897312
612.112594	8126.529043
612.461518	8136.404664
612.810389	8200.092081
613.159207	8140.316599
613.507971	8090.280627
613.856682	8215.258392
614.205340	8162.500197
614.553945	8242.412567
614.902496	8138.317782
615.250994	8194.952624
615.599439	8173.202566
615.947830	8190.022376
616.296169	8160.418200
616.644454	8176.895211
616.992686	8173.298348
617.340864	8233.116680
617.688990	8136.250908
618.037063	8227.873880
618.385082	8176.285232
618.733048	8260.323787
619.080961	8196.185187
619.428821	8218.618321
619.776628	8220.380204
620.124382	8172.834562
620.472083	8155.624063
620.819731	8184.661109
621.167326	8075.875529
621.514868	8084.571520
621.862357	7977.366342
622.209793	7986.871438
622.557176	7926.899351
622.904506	7896.778457
623.251783	7833.438879
623.599007	7782.077083
623.946179	7788.716283
624.293297	7744.046619
624.640363	7660.151736
624.987376	7643.407544
625.334336	7592.086077
625.681243	7546.133439
626.028097	7530.523506
626.374899	7507.412337
626.721647	7501.080647
627.068343	7433.143538
627.414987	7407.549599
627.761577	7361.289451
628.108115	7395.927219
628.454600	7292.031559
628.801032	7346.823860
629.147412	7299.069010
629.493739	7291.159439
629.840014	7226.431024
630.186236	7283.575023
630.532405	7169.644947
630.878521	7217.228398
631.224585	7173.133425
631.570597	7101.372600
631.916556	7130.139944
632.262462	7122.006043
632.608316	7087.345589
632.954117	7069.331026
633.299866	7052.299488
633.645562	7045.604836
633.991206	6965.495860
634.336797	6910.867396
634.682336	6868.148658
635.027823	6837.737898
635.373257	6830.042577
635.718639	6758.168326
636.063968	6769.367249
636.409245	6668.960067
636.754470	6659.891031
637.099642	6622.190762
637.444762	6569.440128
637.789829	6574.660243
638.134845	6516.490369
638.479808	6504.058884
638.824719	6500.935889
639.169577	6437.770231
639.514383	6455.588189
639.859137	6386.058075
640.203839	6392.493108
640.548489	6377.530963
