Dividing Wavelength (nm)	Counts (n)	Blue Motor Position (mm): 13.300000	Red Motor Position (mm): 0.000000	
326.493990	2136.574591
326.888308	2136.574591
327.282561	2136.574591
327.676750	2107.736670
328.070874	2102.604775
328.464933	2106.705754
328.858929	2111.792278
329.252859	2121.589761
329.646726	2134.409415
330.040528	2147.841569
330.434265	2163.479229
330.827938	2182.940603
331.221547	2199.662110
331.615091	2220.048537
332.008571	2237.730384
332.401986	2256.178486
332.795338	2277.295880
333.188625	2295.600309
333.581847	2312.687300
333.975006	2332.846874
334.368100	2351.894874
334.761129	2370.219468
335.154095	2383.888557
335.546996	2404.544685
335.939833	2424.779877
336.332606	2438.585076
336.725315	2451.994546
337.117960	2457.945628
337.510540	2468.000209
337.903056	2480.852631
338.295508	2487.252376
338.687896	2496.404590
339.080220	2503.827689
339.472480	2509.980418
339.864676	2515.891171
340.256807	2516.879237
340.648875	2522.419465
341.040879	2523.405010
341.432818	2523.727644
341.824694	2527.561442
342.216506	2526.916174
342.608253	2530.218130
342.999937	2528.052954
343.391557	2527.753006
343.783113	2525.779394
344.174605	2524.866945
344.566033	2525.789476
344.957397	2520.087931
345.348697	2522.298477
345.739934	2519.432581
346.131106	2516.246572
346.522215	2514.918228
346.913260	2514.595594
347.304241	2510.618124
347.695159	2511.606190
348.086012	2507.265756
348.476802	2508.652074
348.867528	2505.922289
349.258191	2506.605365
349.648789	2504.009171
350.039324	2502.794253
350.429796	2503.220230
350.820203	2499.300733
351.210548	2495.822337
351.600828	2495.076246
351.991045	2497.241422
352.381198	2495.681185
352.771288	2496.167656
353.161314	2494.315032
353.551276	2496.132368
353.941175	2495.822337
354.331010	2495.219919
354.720782	2495.093890
355.110490	2495.905516
355.500135	2492.585916
355.889717	2494.163798
356.279235	2494.625063
356.668689	2497.715290
357.058080	2497.831237
357.447408	2493.175731
357.836672	2490.244300
358.225873	2493.838643
358.615010	2492.575834
359.004084	2498.267297
359.393095	2498.214365
359.782043	2496.868377
360.170927	2495.076246
360.559748	2497.122955
360.948505	2500.311485
361.337199	2500.535816
361.725830	2501.024808
362.114398	2502.164109
362.502903	2500.303923
362.891344	2505.173678
363.279722	2502.902638
363.668037	2502.794253
364.056289	2500.641680
364.444478	2504.205776
364.832603	2505.120745
365.220665	2504.846003
365.608665	2504.251146
365.996601	2505.990344
366.384474	2505.972700
366.772284	2504.112515
367.160031	2506.754079
367.547715	2508.011847
367.935336	2506.295334
368.322893	2507.578308
368.710388	2507.006137
369.097820	2509.100736
369.485189	2505.030005
369.872495	2509.874553
370.259738	2507.560664
370.646918	2507.810201
371.034035	2509.743483
371.421090	2510.676097
371.808081	2510.270284
372.195010	2509.521673
372.581875	2509.425891
372.968678	2510.330778
373.355418	2508.314316
373.742096	2512.894205
374.128710	2510.671056
374.515262	2514.303207
374.901751	2515.432426
375.288177	2511.510408
375.674540	2510.275325
376.060841	2511.979235
376.447079	2512.989987
376.833254	2511.838083
377.219367	2507.351456
377.605417	2509.670387
377.991404	2507.724501
378.377329	2509.219203
378.763191	2505.768534
379.148991	2513.254647
379.534727	2513.625172
379.920402	2514.179699
380.306013	2513.857065
380.691563	2513.418485
381.077049	2517.108609
381.462474	2516.216325
381.847835	2517.499299
382.233134	2515.404699
382.618371	2515.916376
383.003545	2515.843280
383.388657	2513.960409
383.773706	2518.986439
384.158693	2515.969308
384.543618	2516.659947
384.928480	2518.885616
385.313280	2516.826305
385.698017	2517.330420
386.082692	2518.230266
386.467305	2518.313445
386.851856	2516.768331
387.236344	2518.999042
387.620770	2520.471059
388.005133	2519.160359
388.389435	2517.705986
388.773674	2518.341171
389.157851	2518.121881
389.541965	2520.057684
389.926018	2520.551717
390.310008	2522.737057
390.693936	2522.174969
391.077802	2519.813188
391.461606	2523.044568
391.845348	2519.546007
392.229027	2520.728158
392.612645	2519.724968
392.996200	2520.307221
393.379694	2523.430216
393.763125	2522.215298
394.146494	2522.069105
394.529801	2520.874351
394.913047	2522.669002
395.296230	2524.325021
395.679351	2523.316790
396.062410	2521.353261
396.445408	2522.822757
396.828343	2525.303005
397.211217	2522.681605
397.594028	2519.916532
397.976778	2519.994670
398.359466	2519.999711
398.742092	2516.143228
399.124656	2523.490710
399.507158	2524.173786
399.889598	2525.507172
400.271977	2525.035824
400.654294	2525.832326
401.036549	2523.735206
401.418742	2526.273427
401.800874	2526.036493
402.182944	2524.458612
402.564952	2523.100021
402.946898	2526.434744
403.328783	2526.283509
403.710606	2525.681091
404.092367	2528.176463
404.474067	2528.047913
404.855705	2526.449867
405.237282	2522.477438
405.618797	2526.049096
406.000250	2528.776360
406.381642	2527.745444
406.762972	2528.708304
407.144240	2527.954652
407.525447	2529.048582
407.906593	2528.839374
408.287677	2527.269055
408.668700	2528.378109
409.049661	2527.805938
409.430560	2526.613705
409.811399	2530.429858
410.192176	2528.005063
410.572891	2529.658562
410.953545	2527.329549
411.334138	2530.019004
411.714669	2529.741741
412.095139	2529.187214
412.475547	2528.317615
412.855894	2533.628470
413.236180	2531.977493
413.616405	2530.671834
413.996568	2530.833151
414.376670	2532.773995
414.756711	2527.967255
415.136691	2530.555887
415.516609	2531.818696
415.896466	2534.482946
416.276262	2532.544622
416.655997	2529.116638
417.035670	2526.626308
417.415283	2527.327028
417.794834	2524.599764
418.174324	2529.988757
418.553753	2534.084695
418.933121	2536.300282
419.312428	2530.830630
419.691674	2531.886752
420.070859	2531.029756
420.449983	2535.395395
420.829045	2532.642925
421.208047	2534.319108
421.586988	2532.118645
421.965867	2532.761392
422.344686	2531.014632
422.723444	2532.847092
423.102141	2531.493542
423.480777	2534.989582
423.859352	2533.661238
424.237866	2537.099305
424.616319	2534.961856
424.994712	2531.859025
425.373044	2535.571835
425.751314	2533.890610
426.129524	2534.561084
426.507673	2533.315919
426.885762	2533.494880
427.263789	2534.556043
427.641756	2533.371372
428.019662	2535.801208
428.397508	2534.745086
428.775292	2535.092926
429.153016	2538.770447
429.530679	2535.264325
429.908282	2531.264169
430.285824	2536.504449
430.663305	2533.630991
431.040726	2534.760209
431.418086	2536.887576
431.795385	2538.193235
432.172624	2533.867925
432.549802	2536.048224
432.926920	2534.523275
433.303977	2538.122659
433.680974	2539.511497
434.057910	2536.847247
434.434786	2534.132586
434.811601	2537.013605
435.188355	2537.628626
435.565050	2538.841023
435.941683	2540.580222
436.318257	2536.328008
436.694770	2533.590662
437.071222	2536.610313
437.447614	2534.046886
437.823946	2535.639891
438.200218	2536.675848
438.576429	2537.673996
438.952580	2540.701209
439.328670	2538.188194
439.704700	2539.698020
440.080670	2537.424459
440.456580	2539.108205
440.832429	2537.941177
441.208218	2537.091743
441.583947	2541.245654
441.959616	2536.698533
442.335224	2538.835982
442.710773	2536.600231
443.086261	2538.263811
443.461689	2537.968904
443.837057	2537.978986
444.212365	2539.090561
444.587612	2540.277752
444.962800	2539.629964
445.337927	2541.454862
445.712995	2536.237268
446.088002	2538.087371
446.462949	2540.852444
446.837837	2540.073586
447.212664	2539.340098
447.587431	2542.863864
447.962139	2538.450334
448.336786	2540.640715
448.711374	2541.308668
449.085901	2541.515356
449.460369	2542.329502
449.834776	2540.907897
450.209124	2540.532331
450.583412	2545.016437
450.957640	2541.031405
451.331808	2540.149203
451.705917	2543.342774
452.079965	2539.761034
452.453954	2540.242464
452.827883	2541.618699
453.201752	2543.985521
453.575562	2540.247505
453.949311	2542.740356
454.323001	2542.158103
454.696632	2541.137269
455.070202	2541.084337
455.443713	2543.103319
455.817164	2543.186498
456.190556	2539.219110
456.563888	2538.962011
456.937160	2539.009902
457.310373	2538.311702
457.683526	2541.517876
458.056619	2537.835313
458.429653	2541.790098
458.802628	2544.910573
459.175542	2539.629964
459.548398	2542.818494
459.921194	2541.044008
460.293930	2544.829914
460.666607	2541.747249
461.039224	2543.035263
461.411782	2544.083823
461.784280	2542.016950
462.156719	2544.913093
462.529099	2544.403937
462.901419	2544.882846
463.273680	2547.176571
463.645882	2543.430994
464.018024	2547.121119
464.390106	2545.540717
464.762130	2545.785213
465.134094	2543.597352
465.505999	2547.224462
465.877845	2546.624565
466.249631	2545.782692
466.621358	2545.197918
466.993026	2548.625903
467.364634	2546.972405
467.736184	2546.105326
468.107674	2548.424257
468.479105	2543.768751
468.850477	2545.195398
469.221790	2544.275387
469.593043	2546.382590
469.964238	2546.813608
470.335373	2544.842517
470.706449	2544.650953
471.077467	2544.676159
471.448425	2548.439380
471.819324	2547.269833
472.190164	2543.156251
472.560945	2547.353012
472.931667	2544.114070
473.302330	2548.026006
473.672934	2544.290511
474.043479	2547.978115
474.413965	2543.572146
474.784393	2544.068700
475.154761	2543.005017
475.525070	2543.599873
475.895321	2543.801519
476.265513	2541.689275
476.635645	2546.864020
477.005719	2546.178423
477.375734	2545.656663
477.745691	2545.855789
478.115588	2547.461397
478.485427	2548.845193
478.855207	2547.045501
479.224928	2548.535162
479.594591	2548.386448
479.964194	2548.446942
480.333739	2548.719164
480.703226	2549.550955
481.072653	2548.227652
481.442022	2548.691438
481.811333	2548.608259
482.180584	2546.163299
482.549777	2551.315359
482.918912	2545.061807
483.287988	2550.609597
483.657005	2548.598177
484.025964	2547.965512
484.394864	2548.832590
484.763706	2552.076573
485.132489	2551.143959
485.501213	2550.097920
485.869879	2549.140101
486.238487	2548.240255
486.607036	2549.112374
486.975527	2549.553475
487.343959	2549.281253
487.712333	2552.195040
488.080648	2549.850903
488.448905	2550.584391
488.817104	2547.204298
489.185244	2549.666901
489.553326	2548.683876
489.921350	2550.052550
490.289315	2552.086655
490.657222	2550.876778
491.025070	2553.049516
491.392861	2550.995245
491.760593	2551.262427
492.128267	2551.327962
492.495883	2546.566592
492.863440	2551.035575
493.230939	2550.206305
493.598380	2548.651109
493.965763	2548.744370
494.333088	2550.823846
494.700354	2546.198588
495.067563	2551.358208
495.434713	2544.061138
495.801805	2551.002807
496.168839	2549.487940
496.535815	2550.201264
496.902733	2550.753270
497.269593	2553.467931
497.636395	2551.741336
498.003139	2550.980122
498.369825	2552.507592
498.736453	2553.006666
499.103023	2550.196223
499.469535	2549.404761
499.835989	2547.831921
500.202385	2553.745195
500.568723	2551.028013
500.935003	2552.215205
501.301226	2552.736964
501.667390	2553.165462
502.033497	2552.963816
502.399546	2553.478014
502.765537	2550.191181
503.131470	2551.764021
503.497345	2549.540872
503.863163	2553.702345
504.228923	2551.670760
504.594625	2553.798127
504.960269	2552.666388
505.325856	2553.684701
505.691385	2553.936759
506.056856	2553.989691
506.422270	2550.876778
506.787625	2552.058929
507.152924	2551.275029
507.518164	2554.400545
507.883347	2553.321738
508.248472	2551.141439
508.613540	2551.907694
508.978550	2552.505071
509.343503	2553.898950
509.708398	2555.134033
510.073236	2555.262582
510.438016	2556.152346
510.802738	2553.359547
511.167403	2555.265103
511.532010	2554.362736
511.896561	2556.250648
512.261053	2558.398180
512.625488	2553.851059
512.989866	2554.077911
513.354186	2550.932231
513.718449	2551.582540
514.082655	2554.874413
514.446803	2556.560679
514.810894	2556.517829
515.174927	2555.615463
515.538904	2557.432799
515.902822	2558.004970
516.266684	2555.786862
516.630488	2557.742830
516.994235	2557.140412
517.357925	2559.449260
517.721558	2558.894733
518.085133	2555.859959
518.448651	2558.466235
518.812112	2557.669733
519.175516	2558.584703
519.538863	2558.602347
519.902152	2558.267110
520.265385	2561.251473
520.628560	2560.046637
520.991678	2562.342883
521.354739	2561.813562
521.717743	2559.902964
522.080690	2564.056875
522.443580	2562.174004
522.806413	2560.200392
523.169189	2563.451937
523.531908	2564.334138
523.894569	2562.549570
524.257174	2565.937225
524.619722	2564.261042
524.982213	2566.443861
525.344647	2565.430589
525.707025	2562.894889
526.069345	2567.626012
526.431608	2563.008315
526.793815	2566.864798
527.155964	2567.013512
527.518057	2568.019222
527.880093	2566.191804
528.242072	2566.668193
528.603995	2566.317833
528.965860	2567.467216
529.327669	2567.053841
529.689421	2567.351269
530.051117	2568.472926
530.412755	2569.478636
530.774337	2570.832186
531.135862	2571.427042
531.497331	2567.452092
531.858743	2564.399673
532.220098	2569.435786
532.581396	2566.307750
532.942638	2568.248594
533.303824	2567.865467
533.664953	2569.279510
534.026025	2571.974007
534.387040	2572.836044
534.747999	2572.820921
535.108902	2570.728842
535.469748	2569.022412
535.830537	2573.597259
536.191270	2571.520303
536.551947	2573.637588
536.912567	2572.420149
537.273131	2575.185222
537.633638	2573.897207
537.994089	2573.259501
538.354483	2571.321178
538.714821	2577.156313
539.075103	2574.280335
539.435328	2573.115828
539.795497	2575.313772
540.155609	2575.712023
540.515665	2574.708833
540.875665	2575.437280
541.235609	2574.807136
541.595496	2574.751683
541.955328	2576.881570
542.315102	2575.843093
542.674821	2575.734708
543.034483	2579.321489
543.394090	2577.604976
543.753640	2578.025912
544.113134	2577.799060
544.472571	2576.596745
544.831953	2579.313927
545.191278	2579.029102
545.550548	2576.808474
545.909761	2576.102712
546.268918	2579.213104
546.628019	2579.520614
546.987064	2579.092116
547.346053	2578.146900
547.704986	2577.700758
548.063863	2581.453897
548.422684	2582.063877
548.781449	2581.189236
549.140158	2580.972467
549.498811	2581.058166
549.857408	2580.231417
550.215949	2577.070614
550.574434	2577.728484
550.932864	2580.899370
551.291237	2578.320820
551.649555	2583.775348
552.007817	2583.470358
552.366022	2585.537232
552.724173	2585.559917
553.082267	2584.453383
553.440305	2584.670153
553.798288	2581.252251
554.156215	2586.371543
554.514086	2585.764083
554.871902	2583.843404
555.229661	2585.121336
555.587365	2586.903384
555.945014	2587.238621
556.302606	2587.120154
556.660143	2586.646285
557.017625	2588.438416
557.375050	2589.229877
557.732421	2591.016966
558.089735	2590.664085
558.446994	2590.979157
558.804197	2593.368664
559.161345	2592.786411
559.518437	2590.444795
559.875474	2594.565938
560.232455	2595.425455
560.589381	2595.654827
560.946251	2598.946701
561.303065	2597.741865
561.659825	2599.312184
562.016528	2598.556011
562.373177	2597.842688
562.729770	2598.538367
563.086307	2602.495673
563.442789	2600.948039
563.799216	2603.965169
564.155587	2601.439551
564.511904	2604.512135
564.868164	2603.655138
565.224370	2607.952722
565.580520	2608.716457
565.936615	2609.686879
566.292654	2609.734770
566.648638	2612.439349
567.004567	2612.562857
567.360441	2615.244751
567.716260	2620.283384
568.072023	2618.478651
568.427732	2613.603856
568.783385	2618.581995
569.138982	2621.110134
569.494525	2624.275978
569.850013	2620.762294
570.205445	2628.795373
570.560823	2630.849643
570.916145	2633.884417
571.271412	2637.627474
571.626625	2641.683082
571.981782	2639.298617
572.336884	2646.222642
572.691931	2645.206849
573.046923	2650.003507
573.401860	2652.266985
573.756743	2654.931235
574.111570	2656.947696
574.466342	2662.442554
574.821059	2662.583706
575.175722	2664.612771
575.530330	2669.608554
575.884882	2671.234326
576.239380	2674.138031
576.593823	2674.445541
576.948211	2678.632220
577.302544	2678.430573
577.656823	2683.398631
578.011047	2689.261492
578.365216	2692.722245
578.719330	2695.414221
579.073389	2698.968234
579.427394	2699.124510
579.781344	2705.279759
580.135239	2710.446942
580.489080	2715.256202
580.842866	2716.428271
581.196597	2723.226267
581.550273	2729.018552
581.903895	2737.641446
582.257463	2739.451220
582.610975	2746.027405
582.964434	2751.499578
583.317837	2757.422934
583.671186	2761.801176
584.024481	2764.687236
584.377721	2768.558842
584.730906	2777.466561
585.084037	2782.159876
585.437113	2786.210443
585.790135	2794.803089
586.143103	2796.882565
586.496016	2805.202990
586.848874	2811.534679
587.201679	2819.255206
587.554428	2820.903663
587.907124	2831.918585
588.259765	2837.448730
588.612352	2850.800226
588.964884	2851.725278
589.317362	2864.323122
589.669786	2874.440717
590.022155	2882.438508
590.374470	2895.200189
590.726731	2897.327556
591.078937	2899.601116
591.431090	2914.870771
591.783188	2914.664084
592.135232	2926.813265
592.487222	2932.235026
592.839157	2949.009465
593.191038	2949.435443
593.542866	2956.288891
593.894639	2961.388018
594.246358	2974.600883
594.598022	2989.656288
594.949633	2991.491268
595.301190	2996.640807
595.652692	3009.042046
596.004141	3031.432330
596.355535	3022.970754
596.706876	3034.058772
597.058162	3037.940460
597.409395	3051.382697
597.760573	3070.715522
598.111698	3073.500759
598.462768	3087.797472
598.813785	3088.828388
599.164748	3103.586365
599.515657	3108.047787
599.866511	3121.653861
600.217312	3136.225316
600.568060	3139.181953
600.918753	3164.289419
601.269392	3173.998682
601.619978	3179.523786
601.970510	3202.327446
602.320988	3210.836913
602.671412	3233.131416
603.021783	3237.731469
603.372100	3248.396030
603.722363	3267.363372
604.072572	3272.863270
604.422728	3292.299439
604.772830	3297.207002
605.122878	3308.252170
605.472872	3321.674243
605.822813	3340.167715
606.172701	3347.469827
606.522534	3376.348077
606.872314	3389.082031
607.222041	3406.196748
607.571714	3424.775921
607.921333	3440.131276
608.270899	3457.576188
608.620411	3484.816063
608.969870	3492.425685
609.319276	3502.949094
609.668627	3527.771735
610.017926	3550.895508
610.367171	3581.402050
610.716362	3589.054522
611.065500	3608.132769
611.414585	3632.259731
611.763616	3640.544867
612.112594	3658.183865
612.461518	3680.208666
612.810389	3707.869477
613.159207	3713.616392
613.507971	3722.665263
613.856682	3769.671503
614.205340	3776.986217
614.553945	3812.014674
614.902496	3812.627174
615.250994	3840.615661
615.599439	3856.928834
615.947830	3885.917990
616.296169	3898.939290
616.644454	3919.882764
616.992686	3941.746248
617.340864	3976.149602
617.688990	3978.027432
618.037063	4017.771889
618.385082	4030.314280
618.733048	4076.619798
619.080961	4073.617791
619.428821	4098.967233
619.776628	4123.273157
620.124382	4130.103920
620.472083	4146.152433
620.819731	4170.087832
621.167326	4166.806041
621.514868	4183.172147
621.862357	4168.089014
622.209793	4188.926624
622.557176	4192.203374
622.904506	4198.373746
623.251783	4194.015669
623.599007	4200.770815
623.946179	4219.831418
624.293297	4226.442891
624.640363	4215.324626
624.987376	4228.943303
625.334336	4228.963468
625.681243	4238.148450
626.028097	4247.557764
626.374899	4254.529679
626.721647	4277.691261
627.068343	4266.058798
627.414987	4273.665899
627.761577	4280.206797
628.108115	4307.323163
628.454600	4288.602838
628.801032	4335.183100
629.147412	4327.964168
629.493739	4346.939071
629.840014	4340.367927
630.186236	4380.205645
630.532405	4352.837221
630.878521	4391.659146
631.224585	4390.565216
631.570597	4376.384450
631.916556	4413.033639
632.262462	4425.790278
632.608316	4427.889919
632.954117	4436.442237
633.299866	4441.208647
633.645562	4458.257830
633.991206	4444.591262
634.336797	4429.818160
634.682336	4429.924025
635.027823	4435.146660
635.373257	4442.239563
635.718639	4431.680867
636.063968	4453.466213
636.409245	4416.562446
636.754470	4433.757822
637.099642	4428.446967
637.444762	4422.601749
637.789829	4440.747382
638.134845	4430.760856
638.479808	4437.725210
638.824719	4456.248930
639.169577	4433.044499
639.514383	4457.841935
639.859137	4441.949697
640.203839	4457.035350
640.548489	4465.693532
640.893086	4463.132626
641.237632	4467.243687
641.582125	4487.471316
641.926566	4490.959795
642.270955	4510.983258
642.615292	4522.406512
642.959576	4544.726221
643.303809	4549.774937
643.647990	4570.688163
643.992118	4580.289041
644.336195	4557.344229
