Dividing Wavelength (nm)	Counts (n)	Blue Motor Position (mm): 45.800000	Red Motor Position (mm): 0.000000	
326.493990	2128.886831
326.888308	2128.886831
327.282561	2128.886831
327.676750	2100.348859
328.070874	2095.285020
328.464933	2100.285845
328.858929	2106.912441
329.252859	2114.723709
329.646726	2128.153343
330.040528	2136.758593
330.434265	2156.696356
330.827938	2175.333502
331.221547	2190.782118
331.615091	2209.862885
332.008571	2229.551112
332.401986	2248.145408
332.795338	2267.679879
333.188625	2285.969185
333.581847	2308.399799
333.975006	2324.327324
334.368100	2342.079748
334.761129	2361.329394
335.154095	2378.857486
335.546996	2400.635270
335.939833	2426.277099
336.332606	2439.797474
336.725315	2452.967488
337.117960	2459.800772
337.510540	2470.987093
337.903056	2481.941520
338.295508	2489.442757
338.687896	2496.381905
339.080220	2506.991013
339.472480	2510.963443
339.864676	2517.242200
340.256807	2520.155987
340.648875	2524.282171
341.040879	2526.772501
341.432818	2528.032790
341.824694	2530.712163
342.216506	2529.779549
342.608253	2531.642256
342.999937	2532.073274
343.391557	2530.959179
343.783113	2529.545136
344.174605	2527.601771
344.566033	2524.234280
344.957397	2525.076153
345.348697	2522.149763
345.739934	2522.215298
346.131106	2521.413755
346.522215	2518.381501
346.913260	2517.421161
347.304241	2514.131808
347.695159	2511.270953
348.086012	2512.067455
348.476802	2509.894718
348.867528	2509.206601
349.258191	2505.917248
349.648789	2507.865654
350.039324	2503.404233
350.429796	2502.884994
350.820203	2500.742503
351.210548	2501.607061
351.600828	2498.012718
351.991045	2498.955414
352.381198	2498.219406
352.771288	2500.074550
353.161314	2497.523727
353.551276	2499.038593
353.941175	2497.964827
354.331010	2495.403921
354.720782	2497.385095
355.110490	2500.162771
355.500135	2499.651093
355.889717	2500.031701
356.279235	2499.729231
356.668689	2499.489777
357.058080	2498.761330
357.447408	2497.748058
357.836672	2497.029693
358.225873	2499.043634
358.615010	2495.603047
359.004084	2502.204438
359.393095	2499.419200
359.782043	2504.533451
360.170927	2503.252998
360.559748	2504.498163
360.948505	2505.781137
361.337199	2506.053359
361.725830	2507.338853
362.114398	2508.440345
362.502903	2509.231806
362.891344	2507.870695
363.279722	2508.674759
363.668037	2510.610562
364.056289	2508.702485
364.444478	2510.202228
364.832603	2510.418998
365.220665	2511.361694
365.608665	2510.015706
365.996601	2512.576612
366.384474	2512.662312
366.772284	2515.515605
367.160031	2513.330264
367.547715	2514.449401
367.935336	2514.832528
368.322893	2513.385717
368.710388	2515.198012
369.097820	2519.717406
369.485189	2513.728516
369.872495	2519.188085
370.259738	2514.827487
370.646918	2518.774711
371.034035	2518.628517
371.421090	2518.593229
371.808081	2520.866789
372.195010	2521.154135
372.581875	2521.368384
372.968678	2525.769312
373.355418	2526.001205
373.742096	2531.927081
374.128710	2533.220137
374.515262	2540.655839
374.901751	2540.000489
375.288177	2549.366953
375.674540	2558.826678
376.060841	2564.835733
376.447079	2573.955181
376.833254	2584.009762
377.219367	2589.638210
377.605417	2607.441045
377.991404	2618.864300
378.377329	2633.723101
378.763191	2644.750625
379.148991	2669.608554
379.534727	2686.748477
379.920402	2707.306303
380.306013	2724.022769
380.691563	2758.715990
381.077049	2779.165430
381.462474	2795.917184
381.847835	2830.983451
382.233134	2854.994466
382.618371	2868.910572
383.003545	2921.797317
383.388657	2936.958587
383.773706	2974.915955
384.158693	2997.170128
384.543618	3033.587424
384.928480	3072.726942
385.313280	3118.782924
385.698017	3135.446458
386.082692	3188.965867
386.467305	3210.388251
386.851856	3249.038777
387.236344	3278.791667
387.620770	3322.790858
388.005133	3359.850901
388.389435	3397.979668
388.773674	3419.812905
389.157851	3470.657983
389.541965	3499.954648
389.926018	3481.720795
390.310008	3560.146025
390.693936	3587.416147
391.077802	3635.753251
391.461606	3639.241729
391.845348	3702.248590
392.229027	3712.189746
392.612645	3731.661203
392.996200	3815.019202
393.379694	3860.689535
393.763125	3929.382818
394.146494	3901.774939
394.529801	3970.992502
394.913047	4020.816746
395.296230	3995.265658
395.679351	4049.964697
396.062410	4076.569387
396.445408	4062.764187
396.828343	4097.349023
397.211217	4123.260554
397.594028	4047.842372
397.976778	4116.583546
398.359466	4143.578924
398.742092	4172.701670
399.124656	4095.370370
399.507158	4176.414480
399.889598	4200.985064
400.271977	4264.080145
400.654294	4236.391608
401.036549	4243.950818
401.418742	4217.635995
401.800874	4319.046366
402.182944	4336.559335
402.564952	4405.144233
402.946898	4391.487747
403.328783	4386.058424
403.710606	4300.000887
404.092367	4495.259899
404.474067	4456.584167
404.855705	4469.585302
405.237282	4392.133015
405.618797	4504.548225
406.000250	4538.727248
406.381642	4615.698106
406.762972	4581.922375
407.144240	4593.327985
407.525447	4589.829425
407.906593	4648.989886
408.287677	4690.493705
408.668700	4619.821769
409.049661	4676.847302
409.430560	4713.413311
409.811399	4638.456395
410.192176	4800.963030
410.572891	4745.820369
410.953545	4841.466181
411.334138	4722.179878
411.714669	4790.391730
412.095139	4684.729146
412.475547	4830.000076
412.855894	4807.088032
413.236180	4819.312830
413.616405	4772.682157
413.996568	4858.701886
414.376670	4800.365653
414.756711	4757.714971
415.136691	4789.960712
415.516609	4864.673132
415.896466	4904.752826
416.276262	4940.860090
416.655997	4919.478036
417.035670	5100.818423
417.415283	5195.398030
417.794834	5133.177589
418.174324	5088.704530
418.553753	4995.599459
418.933121	5182.177604
419.312428	5248.594806
419.691674	5186.908727
420.070859	5312.199044
420.449983	5223.807453
420.829045	5342.211554
421.208047	5249.459364
421.586988	5319.299510
421.965867	5325.439635
422.344686	5466.649916
422.723444	5319.226413
423.102141	5138.342251
423.480777	5436.304690
423.859352	5200.552610
424.237866	5461.664215
424.616319	5456.915448
424.994712	5563.122477
425.373044	5440.241832
425.751314	5583.471095
426.129524	5384.174118
426.507673	5581.409263
426.885762	5661.913969
427.263789	5595.897539
427.641756	5475.499662
428.019662	5594.639771
428.397508	5604.407007
428.775292	5551.177463
429.153016	5650.352083
429.530679	5576.683181
429.908282	5666.849259
430.285824	5536.563158
430.663305	5802.385721
431.040726	5542.383170
431.418086	5544.170259
431.795385	5647.279499
432.172624	5664.502602
432.549802	5652.875180
432.926920	5666.491337
433.303977	5677.407955
433.680974	5709.210074
434.057910	5728.250513
434.434786	5731.789403
434.811601	5704.851997
435.188355	5939.172389
435.565050	5812.072298
435.941683	5794.226613
436.318257	6010.587895
436.694770	5991.461758
437.071222	6030.727305
437.447614	5963.440504
437.823946	5872.891299
438.200218	6028.859558
438.576429	5892.554319
438.952580	5989.369679
439.328670	6035.571854
439.704700	5943.535508
440.080670	5931.497233
440.456580	6200.853644
440.832429	6083.949287
441.208218	5928.664104
441.583947	6081.426189
441.959616	6085.212096
442.335224	6018.588207
442.710773	6160.015257
443.086261	6181.046951
443.461689	5975.340148
443.837057	6123.471933
444.212365	6275.465242
444.587612	6170.687380
444.962800	6321.233878
445.337927	6305.268543
445.712995	5914.934522
446.088002	6494.062276
446.462949	6320.470143
446.837837	6253.952118
447.212664	6425.154744
447.587431	6571.756539
447.962139	7116.077646
448.336786	8041.714150
448.711374	7781.522556
449.085901	6857.761361
449.460369	6777.100379
449.834776	6708.003804
450.209124	7103.401664
450.583412	7250.651248
450.957640	7397.774802
451.331808	7161.697567
451.705917	6708.681839
452.079965	6637.541076
452.453954	6850.320618
452.827883	6725.012657
453.201752	6816.973385
453.575562	6617.789835
453.949311	6817.076729
454.323001	6712.253496
454.696632	6780.888806
455.070202	6921.962976
455.443713	7075.501398
455.817164	7181.622728
456.190556	7260.347907
456.563888	7339.625093
456.937160	7376.745629
457.310373	7034.509256
457.683526	7057.247380
458.056619	6951.181503
458.429653	6937.918228
458.802628	6877.888168
459.175542	6983.112172
459.548398	7341.150042
459.921194	7495.469843
460.293930	7502.288004
460.666607	8026.363837
461.039224	8339.114501
461.411782	8460.308881
461.784280	8482.071542
462.156719	8369.694140
462.529099	8251.879854
462.901419	7837.791916
463.273680	7736.013540
463.645882	7747.293122
464.018024	7610.929910
464.390106	7777.408975
464.762130	8168.622678
465.134094	8639.090881
465.505999	9663.559207
465.877845	10882.916020
466.249631	11529.224710
466.621358	11143.941925
466.993026	10515.514207
467.364634	10261.883675
467.736184	9898.250124
468.107674	9562.287467
468.479105	9590.238145
468.850477	9359.582671
469.221790	9130.419379
469.593043	8801.345459
469.964238	8658.678284
470.335373	8675.477930
470.706449	8737.864729
471.077467	8722.239673
471.448425	10023.459783
471.819324	11102.145718
472.190164	11119.010898
472.560945	9872.623419
472.931667	9085.545548
473.302330	8942.596069
473.672934	8592.205630
474.043479	8950.104868
474.413965	8896.416579
474.784393	8781.324516
475.154761	8928.359851
475.525070	9020.237400
475.895321	8851.189867
476.265513	9024.411475
476.635645	9197.562507
477.005719	9190.522536
477.375734	9308.120052
477.745691	9538.783087
478.115588	9671.970372
478.485427	9921.381459
478.855207	10456.651174
479.224928	11267.798034
479.594591	11906.350909
479.964194	11714.850077
480.333739	11660.894608
480.703226	11568.283570
481.072653	11663.342088
481.442022	11893.899259
481.811333	12087.945873
482.180584	11885.624205
482.549777	11595.215935
482.918912	11423.254615
483.287988	11450.222268
483.657005	11457.045470
484.025964	11136.554114
484.394864	11268.478589
484.763706	11234.728064
485.132489	10997.002373
485.501213	10966.064811
485.869879	11042.163549
486.238487	10877.174146
486.607036	10986.700775
486.975527	10769.800089
487.343959	10955.969901
487.712333	11006.890596
488.080648	10937.063053
488.448905	10985.175826
488.817104	10919.408933
489.185244	11187.845334
489.553326	11341.756802
489.921350	11882.070192
490.289315	12945.504116
490.657222	13281.640693
491.025070	13189.579141
491.392861	13066.658166
491.760593	12684.503417
492.128267	12339.791837
492.495883	11999.554282
492.863440	11673.525219
493.230939	11335.893940
493.598380	11266.676377
493.965763	11135.840791
494.333088	11035.443691
494.700354	10952.665424
495.067563	11016.398212
495.434713	10843.897489
495.801805	10973.729886
496.168839	10900.292877
496.535815	10831.324851
496.902733	10832.086066
497.269593	10771.705645
497.636395	10867.376663
498.003139	10856.197904
498.369825	10725.291742
498.736453	10883.485670
499.103023	10803.928701
499.469535	10833.701755
499.835989	10826.510549
500.202385	10789.384972
500.568723	10642.130347
500.935003	10867.270799
501.301226	10668.949286
501.667390	10934.655902
502.033497	11025.618482
502.399546	10889.111598
502.765537	10791.832452
503.131470	10865.352640
503.497345	11042.639938
503.863163	10649.087140
504.228923	10966.861314
504.594625	11021.520024
504.960269	10770.100038
505.325856	10994.169244
505.691385	10782.007243
506.056856	10936.127919
506.422270	10966.470624
506.787625	10855.098933
507.152924	10972.709052
507.518164	10955.712802
507.883347	10873.980575
508.248472	10791.557709
508.613540	11023.755776
508.978550	10912.003478
509.343503	10884.226720
509.708398	11009.096101
510.073236	11117.322112
510.438016	11121.909562
510.802738	11069.988198
511.167403	11123.076589
511.532010	11022.225786
511.896561	11250.458985
512.261053	11326.706437
512.625488	11198.930831
512.989866	11182.267297
513.354186	11159.168730
513.718449	11062.406303
514.082655	11259.631364
514.446803	11151.014664
514.810894	11275.715166
515.174927	11143.115176
515.538904	11165.202991
515.902822	11316.999695
516.266684	11201.244721
516.630488	11143.523509
516.994235	11201.108609
517.357925	11258.663463
517.721558	11351.216527
518.085133	11361.724812
518.448651	11374.645289
518.812112	11262.809812
519.175516	11275.621904
519.538863	11391.414688
519.902152	11304.432099
520.265385	11472.151287
520.628560	11382.837164
520.991678	11361.979390
521.354739	11424.983731
521.717743	11354.957063
522.080690	11338.716986
522.443580	11477.187400
522.806413	11426.826273
523.169189	11459.974380
523.531908	11519.986796
523.894569	11334.810092
524.257174	11338.386790
524.619722	11456.992538
524.982213	11409.925805
525.344647	11458.658639
525.707025	11415.251784
526.069345	11506.786535
526.431608	11422.881570
526.793815	11529.628003
527.155964	11316.775364
527.518057	11373.400124
527.880093	11320.957001
528.242072	11392.574153
528.603995	11294.233844
528.965860	11209.381143
529.327669	11266.381469
529.689421	11215.183511
530.051117	11184.099756
530.412755	11291.688062
530.774337	11177.198417
531.135862	11160.310551
531.497331	11188.886332
531.858743	11033.830522
532.220098	11202.663805
532.581396	11073.963148
532.942638	11055.666280
533.303824	11018.545743
533.664953	11031.753567
534.026025	10945.514548
534.387040	11043.025587
534.747999	11052.092102
535.108902	11105.908940
535.469748	10868.468073
535.830537	10967.068001
536.191270	10952.093253
536.551947	10974.924639
536.912567	10969.984308
537.273131	10892.317772
537.633638	10868.667198
537.994089	10865.264420
538.354483	10812.004629
538.714821	10958.334202
539.075103	10967.448608
539.435328	10930.297825
539.795497	10759.110322
540.155609	10912.295864
540.515665	11005.519402
540.875665	10736.324307
541.235609	10803.888372
541.595496	10804.503392
541.955328	10956.602566
542.315102	10843.521923
542.674821	10791.025868
543.034483	10789.954622
543.394090	10795.910746
543.753640	10721.853675
544.113134	10949.981010
544.472571	10804.722682
544.831953	10941.549680
545.191278	10744.717828
545.550548	10776.459453
545.909761	10913.104970
546.268918	10890.175281
546.628019	10971.980605
546.987064	10834.034472
547.346053	10752.718139
547.704986	10855.729077
548.063863	10847.869918
548.422684	10836.083701
548.781449	10753.335681
549.140158	10856.712102
549.498811	10732.697197
549.857408	10591.363408
550.215949	10817.917903
550.574434	10666.211939
550.932864	10772.000553
551.291237	10831.637403
551.649555	10774.329566
552.007817	10782.423138
552.366022	10751.646894
552.724173	10748.377706
553.082267	10721.735208
553.440305	10868.447908
553.798288	10663.812350
554.156215	10820.453603
554.514086	10801.196395
554.871902	10642.027004
555.229661	10681.337922
555.587365	10654.042594
555.945014	10549.504187
556.302606	10684.947388
556.660143	10574.462939
557.017625	10728.366846
557.375050	10621.532193
557.732421	10760.242062
558.089735	10669.564307
558.446994	10668.798051
558.804197	10712.101563
559.161345	10711.486542
559.518437	10554.280680
559.875474	10652.590742
560.232455	10679.898672
560.589381	10630.961671
560.946251	10619.233427
561.303065	10723.464324
561.659825	10662.736064
562.016528	10592.716958
562.373177	10476.760337
562.729770	10593.987328
563.086307	10510.246201
563.442789	10598.448749
563.799216	10480.052210
564.155587	10532.240755
564.511904	10477.781170
564.868164	10468.286157
565.224370	10485.572274
565.580520	10409.183669
565.936615	10416.095091
566.292654	10283.928640
566.648638	10425.113716
567.004567	10373.842660
567.360441	10359.261123
567.716260	10270.529253
568.072023	10365.892761
568.427732	10314.568773
568.783385	10222.270288
569.138982	10292.654878
569.494525	10306.709615
569.850013	10182.127580
570.205445	10263.920301
570.560823	10157.287294
570.916145	10082.068237
571.271412	10147.797322
571.626625	10096.352347
571.981782	10067.910157
572.336884	10045.046004
572.691931	10053.734432
573.046923	9995.294856
573.401860	9952.555954
573.756743	9884.785202
574.111570	9935.642883
574.466342	9916.463813
574.821059	9947.106467
575.175722	9835.505403
575.530330	9849.595428
575.884882	9838.184776
576.239380	9767.802707
576.593823	9742.785981
576.948211	9762.355740
577.302544	9644.906938
577.656823	9654.162496
578.011047	9653.270212
578.365216	9624.412127
578.719330	9553.760356
579.073389	9562.226973
579.427394	9511.288634
579.781344	9487.897681
580.135239	9438.670813
580.489080	9447.868398
580.842866	9345.152368
581.196597	9355.025468
581.550273	9392.698011
581.903895	9363.923105
582.257463	9427.454246
582.610975	9311.694230
582.964434	9331.523609
583.317837	9260.420654
583.671186	9238.864681
584.024481	9234.854443
584.377721	9152.418974
584.730906	9131.823340
585.084037	9160.257969
585.437113	9096.197506
585.790135	9113.907080
586.143103	9013.419239
586.496016	8981.362542
586.848874	9043.335967
587.201679	9032.663844
587.554428	8917.780989
587.907124	8965.966858
588.259765	8934.731869
588.612352	8941.282848
588.964884	8816.335330
589.317362	8832.761930
589.669786	8827.834202
590.022155	8876.975369
590.374470	8898.405314
590.726731	8832.963576
591.078937	8679.420112
591.431090	8798.038462
591.783188	8666.338318
592.135232	8659.013521
592.487222	8661.829006
592.839157	8712.457314
593.191038	8647.789392
593.542866	8587.005680
593.894639	8492.912543
594.246358	8548.261892
594.598022	8557.797234
594.949633	8462.532029
595.301190	8433.152185
595.652692	8458.337789
596.004141	8571.904903
596.355535	8350.227725
596.706876	8327.441709
597.058162	8264.712111
597.409395	8343.197836
597.760573	8401.924757
598.111698	8310.485788
598.462768	8298.397101
598.813785	8261.213551
599.164748	8230.956545
599.515657	8219.792910
599.866511	8133.805949
600.217312	8259.701204
600.568060	8112.887681
600.918753	8223.742654
601.269392	8193.349537
601.619978	8101.545085
601.970510	8166.356679
602.320988	8161.018097
602.671412	8217.844504
603.021783	8156.869228
603.372100	8126.806307
603.722363	8130.645145
604.072572	8105.709078
604.422728	8115.015048
604.772830	8041.986373
605.122878	8049.585912
605.472872	8046.175572
605.822813	8076.145231
606.172701	8018.963423
606.522534	8096.463602
606.872314	8093.537212
607.222041	8065.072337
607.571714	8122.980071
607.921333	8078.827125
608.270899	8081.592198
608.620411	8175.685334
608.969870	8073.417967
609.319276	8072.107267
609.668627	8093.237263
610.017926	8126.100545
610.367171	8177.704317
610.716362	8151.762539
611.065500	8138.572360
611.414585	8166.848192
611.763616	8152.299422
612.112594	8136.119838
612.461518	8153.975605
612.810389	8212.125315
613.159207	8146.537383
613.507971	8105.378882
613.856682	8219.986994
614.205340	8171.546547
614.553945	8255.242304
614.902496	8151.961664
615.250994	8204.482926
615.599439	8184.504833
615.947830	8195.106380
616.296169	8179.927465
616.644454	8187.897530
616.992686	8185.197992
617.340864	8243.476251
617.688990	8146.219790
618.037063	8243.360304
618.385082	8184.986263
618.733048	8269.423070
619.080961	8212.102630
619.428821	8228.118376
619.776628	8231.536278
620.124382	8180.882764
620.472083	8164.090681
620.819731	8199.630815
621.167326	8087.457580
621.514868	8094.991585
621.862357	7980.862382
622.209793	7993.717325
622.557176	7935.345804
622.904506	7901.305413
623.251783	7841.030857
623.599007	7795.557129
623.946179	7794.460678
624.293297	7759.142354
624.640363	7669.840834
624.987376	7657.124523
625.334336	7600.086388
625.681243	7554.181641
626.028097	7532.867643
626.374899	7518.404573
626.721647	7503.775144
627.068343	7437.617562
627.414987	7419.108965
627.761577	7368.528548
628.108115	7406.972387
628.454600	7298.809390
628.801032	7347.857297
629.147412	7310.348592
629.493739	7298.912734
629.840014	7234.111222
630.186236	7288.195241
630.532405	7178.212387
630.878521	7225.712660
631.224585	7183.561052
631.570597	7107.626151
631.916556	7143.839280
632.262462	7137.079093
632.608316	7095.590397
632.954117	7072.564926
633.299866	7062.454892
633.645562	7055.621608
633.991206	6969.561550
634.336797	6915.888385
634.682336	6874.195523
635.027823	6839.847621
635.373257	6837.374935
635.718639	6760.353666
636.063968	6776.291274
636.409245	6672.176323
636.754470	6671.402506
637.099642	6628.978676
637.444762	6571.005407
637.789829	6582.085863
638.134845	6520.566142
638.479808	6506.213977
638.824719	6512.036510
639.169577	6436.025992
639.514383	6461.861905
639.859137	6390.668210
640.203839	6401.970477
640.548489	6387.865329
