Dividing Wavelength (nm)	Counts (n)	Blue Motor Position (mm): 43.100000	Red Motor Position (mm): 0.000000	
326.493990	2128.881790
326.888308	2128.881790
327.282561	2128.881790
327.676750	2096.666296
328.070874	2097.044383
328.464933	2098.239136
328.858929	2102.788778
329.252859	2115.671446
329.646726	2125.917591
330.040528	2139.490898
330.434265	2154.644607
330.827938	2174.105981
331.221547	2188.148115
331.615091	2210.929089
332.008571	2229.241081
332.401986	2249.322517
332.795338	2268.604930
333.188625	2287.201747
333.581847	2308.331743
333.975006	2326.056440
334.368100	2345.086796
334.761129	2362.592203
335.154095	2377.529142
335.546996	2398.762482
335.939833	2420.880544
336.332606	2437.975097
336.725315	2452.254165
337.117960	2461.111472
337.510540	2470.435086
337.903056	2481.729792
338.295508	2488.689104
338.687896	2497.243942
339.080220	2505.236692
339.472480	2510.519821
339.864676	2515.767662
340.256807	2519.150277
340.648875	2522.003570
341.040879	2525.744106
341.432818	2528.451205
341.824694	2530.762574
342.216506	2531.216278
342.608253	2528.332738
342.999937	2532.189221
343.391557	2528.418438
343.783113	2526.709487
344.174605	2526.986750
344.566033	2525.222346
344.957397	2525.373581
345.348697	2521.570030
345.739934	2518.230266
346.131106	2518.787313
346.522215	2517.748836
346.913260	2515.134998
347.304241	2514.159534
347.695159	2509.637619
348.086012	2508.964625
348.476802	2508.273987
348.867528	2506.355828
349.258191	2503.779798
349.648789	2505.594614
350.039324	2497.831237
350.429796	2503.817607
350.820203	2500.727380
351.210548	2499.683861
351.600828	2499.071361
351.991045	2500.049345
352.381198	2498.441217
352.771288	2494.514158
353.161314	2496.051710
353.551276	2496.908706
353.941175	2496.452481
354.331010	2496.369302
354.720782	2495.585403
355.110490	2499.192348
355.500135	2495.164467
355.889717	2498.663027
356.279235	2496.616319
356.668689	2498.436175
357.058080	2495.913078
357.447408	2495.356030
357.836672	2494.304950
358.225873	2495.146823
358.615010	2495.668582
359.004084	2498.418531
359.393095	2502.733759
359.782043	2501.206289
360.170927	2498.726042
360.559748	2502.481701
360.948505	2503.081599
361.337199	2501.092863
361.725830	2507.666528
362.114398	2506.910355
362.502903	2505.350118
362.891344	2504.793070
363.279722	2505.955056
363.668037	2506.872546
364.056289	2504.122597
364.444478	2509.322547
364.832603	2508.694923
365.220665	2509.143586
365.608665	2508.329440
365.996601	2508.851199
366.384474	2511.596107
366.772284	2513.872188
367.160031	2512.304390
367.547715	2511.124760
367.935336	2514.114164
368.322893	2513.536952
368.710388	2511.795233
369.097820	2517.406037
369.485189	2513.237003
369.872495	2515.472755
370.259738	2515.659278
370.646918	2515.331602
371.034035	2514.373783
371.421090	2517.456449
371.808081	2517.635410
372.195010	2518.762108
372.581875	2514.527538
372.968678	2518.076511
373.355418	2519.036851
373.742096	2517.612725
374.128710	2517.814371
374.515262	2521.469207
374.901751	2518.346212
375.288177	2517.554751
375.674540	2521.257479
376.060841	2522.656399
376.447079	2522.598426
376.833254	2522.248066
377.219367	2518.999042
377.605417	2521.812006
377.991404	2518.845287
378.377329	2523.004239
378.763191	2525.156811
379.148991	2530.530681
379.534727	2533.774664
379.920402	2541.248174
380.306013	2542.949564
380.691563	2547.978115
381.077049	2559.081256
381.462474	2563.116700
381.847835	2575.890984
382.233134	2587.669640
382.618371	2592.176431
383.003545	2611.053032
383.388657	2622.990484
383.773706	2640.911786
384.158693	2653.562562
384.543618	2671.957732
384.928480	2692.155115
385.313280	2716.796275
385.698017	2732.423852
386.082692	2763.484921
386.467305	2781.582663
386.851856	2811.141469
387.236344	2832.299192
387.620770	2868.643390
388.005133	2897.612381
388.389435	2932.000612
388.773674	2957.229066
389.157851	2995.940087
389.541965	3029.967875
389.926018	3035.901313
390.310008	3096.710232
390.693936	3132.693988
391.077802	3179.533869
391.461606	3203.547405
391.845348	3266.660131
392.229027	3289.158800
392.612645	3326.856549
392.996200	3399.207189
393.379694	3454.375056
393.763125	3521.737474
394.146494	3530.796427
394.529801	3602.789146
394.913047	3667.688960
395.296230	3669.329856
395.679351	3737.675299
396.062410	3779.030405
396.445408	3787.928041
396.828343	3838.276565
397.211217	3882.250550
397.594028	3838.853777
397.976778	3916.308586
398.359466	3961.207622
398.742092	4003.681864
399.124656	3950.250674
399.507158	4038.438099
399.889598	4074.507555
400.271977	4146.240654
400.654294	4133.589878
401.036549	4154.644257
401.418742	4133.105927
401.800874	4241.110128
402.182944	4274.323770
402.564952	4339.682330
402.946898	4335.062112
403.328783	4338.109490
403.710606	4260.679887
404.092367	4456.531235
404.474067	4428.852779
404.855705	4437.485755
405.237282	4371.350858
405.618797	4480.827076
406.000250	4515.608517
406.381642	4601.575313
406.762972	4564.747164
407.144240	4576.513217
407.525447	4580.009257
407.906593	4639.494872
408.287677	4680.597920
408.668700	4612.318012
409.049661	4661.484385
409.430560	4703.681364
409.811399	4632.495230
410.192176	4791.886432
410.572891	4734.160180
410.953545	4834.930325
411.334138	4716.629567
411.714669	4786.515083
412.095139	4681.515410
412.475547	4823.408767
412.855894	4805.542918
413.236180	4814.914423
413.616405	4770.837095
413.996568	4854.772306
414.376670	4795.427843
414.756711	4753.858488
415.136691	4783.954177
415.516609	4861.368656
415.896466	4898.156476
416.276262	4936.249955
416.655997	4914.762037
417.035670	5097.171148
417.415283	5188.269839
417.794834	5131.279595
418.174324	5081.122634
418.553753	4994.581146
418.933121	5173.584958
419.312428	5243.044496
419.691674	5183.785732
420.070859	5310.222912
420.449983	5219.860229
420.829045	5335.322817
421.208047	5239.117437
421.586988	5313.033355
421.965867	5325.926106
422.344686	5457.580880
422.723444	5315.294313
423.102141	5132.151714
423.480777	5431.329072
423.859352	5199.932548
424.237866	5460.522393
424.616319	5452.519562
424.994712	5557.572167
425.373044	5437.887613
425.751314	5578.452626
426.129524	5385.071444
426.507673	5572.372994
426.885762	5657.830634
427.263789	5590.291776
427.641756	5471.643179
428.019662	5594.954843
428.397508	5603.860041
428.775292	5550.970776
429.153016	5648.708667
429.530679	5573.580351
429.908282	5657.518083
430.285824	5530.241551
430.663305	5804.359333
431.040726	5538.531729
431.418086	5538.657757
431.795385	5644.159025
432.172624	5655.841899
432.549802	5652.620602
432.926920	5664.681562
433.303977	5666.584598
433.680974	5709.706628
434.057910	5730.279577
434.434786	5731.139094
434.811601	5700.030133
435.188355	5934.617707
435.565050	5807.010980
435.941683	5792.636129
436.318257	6004.651937
436.694770	5989.735163
437.071222	6025.812180
437.447614	5956.234175
437.823946	5869.463314
438.200218	6022.749679
438.576429	5885.426128
438.952580	5986.334904
439.328670	6028.811667
439.704700	5937.095434
440.080670	5926.539258
440.456580	6194.743766
440.832429	6073.897226
441.208218	5926.814001
441.583947	6080.206230
441.959616	6083.477939
442.335224	6005.398028
442.710773	6145.436240
443.086261	6173.313821
443.461689	5972.330579
443.837057	6116.479852
444.212365	6275.006497
444.587612	6166.326782
444.962800	6318.393187
445.337927	6298.586494
445.712995	5913.376805
446.088002	6488.247305
446.462949	6317.793290
446.837837	6245.082208
447.212664	6422.074599
447.587431	6565.182874
447.962139	7106.103723
448.336786	8029.345679
448.711374	7770.553006
449.085901	6843.472210
449.460369	6766.390448
449.834776	6699.454007
450.209124	7094.609892
450.583412	7245.728561
450.957640	7390.616364
451.331808	7151.751371
451.705917	6706.607404
452.079965	6629.903728
452.453954	6838.509194
452.827883	6719.628704
453.201752	6815.952552
453.575562	6615.145750
453.949311	6814.435164
454.323001	6703.209666
454.696632	6778.673219
455.070202	6917.110865
455.443713	7072.333033
455.817164	7174.837335
456.190556	7249.005311
456.563888	7329.520100
456.937160	7370.151800
457.310373	7028.248143
457.683526	7055.886269
458.056619	6945.237983
458.429653	6931.009326
458.802628	6868.259564
459.175542	6975.747046
459.548398	7332.040677
459.921194	7494.441448
460.293930	7493.652507
460.666607	8027.256121
461.039224	8329.957245
461.411782	8454.075494
461.784280	8473.403278
462.156719	8369.598358
462.529099	8239.808811
462.901419	7831.964342
463.273680	7723.811427
463.645882	7739.083603
464.018024	7609.420085
464.390106	7773.968387
464.762130	8162.517841
465.134094	8632.789439
465.505999	9653.391200
465.877845	10873.027797
466.249631	11515.447237
466.621358	11130.348453
466.993026	10507.161015
467.364634	10241.139327
467.736184	9881.964677
468.107674	9552.527793
468.479105	9590.535573
468.850477	9352.187298
469.221790	9121.131053
469.593043	8794.340776
469.964238	8653.276688
470.335373	8669.592382
470.706449	8727.863080
471.077467	8705.233340
471.448425	10016.077013
471.819324	11087.133162
472.190164	11111.643252
472.560945	9859.299649
472.931667	9079.171009
473.302330	8940.698075
473.672934	8587.923170
474.043479	8943.654711
474.413965	8880.849496
474.784393	8767.821786
475.154761	8925.181403
475.525070	9013.038632
475.895321	8836.711674
476.265513	9020.479375
476.635645	9185.357874
477.005719	9185.761166
477.375734	9301.579155
477.745691	9542.405157
478.115588	9668.877624
478.485427	9912.826621
478.855207	10455.070772
479.224928	11264.985070
479.594591	11895.562840
479.964194	11702.489168
480.333739	11642.338120
480.703226	11552.845037
481.072653	11641.692853
481.442022	11889.891542
481.811333	12073.490365
482.180584	11882.458360
482.549777	11586.940881
482.918912	11411.140723
483.287988	11432.951275
483.657005	11445.037441
484.025964	11129.988011
484.394864	11260.480799
484.763706	11227.922507
485.132489	10993.879378
485.501213	10948.151071
485.869879	11025.605879
486.238487	10868.226098
486.607036	10980.905968
486.975527	10758.986814
487.343959	10948.390526
487.712333	10992.906435
488.080648	10926.826990
488.448905	10979.343211
488.817104	10909.999619
489.185244	11179.570280
489.553326	11333.398569
489.921350	11869.225332
490.289315	12935.187395
490.657222	13265.420780
491.025070	13178.249148
491.392861	13060.392012
491.760593	12676.177951
492.128267	12321.797439
492.495883	11996.597645
492.863440	11655.447641
493.230939	11321.415746
493.598380	11256.967115
493.965763	11129.894750
494.333088	11023.629747
494.700354	10944.907089
495.067563	11000.349699
495.434713	10840.225008
495.801805	10959.385282
496.168839	10883.795701
496.535815	10821.335805
496.902733	10828.126239
497.269593	10762.702145
497.636395	10858.226969
498.003139	10845.089722
498.369825	10720.966432
498.736453	10869.897240
499.103023	10793.526280
499.469535	10825.588018
499.835989	10813.343056
500.202385	10775.325194
500.568723	10626.369180
500.935003	10854.730929
501.301226	10660.548203
501.667390	10916.878273
502.033497	11015.175732
502.399546	10875.276151
502.765537	10780.958683
503.131470	10856.182781
503.497345	11033.182734
503.863163	10637.071550
504.228923	10946.570669
504.594625	11006.658703
504.960269	10760.839438
505.325856	10984.396967
505.691385	10770.526015
506.056856	10928.178020
506.422270	10952.108377
506.787625	10841.218116
507.152924	10967.047836
507.518164	10938.590523
507.883347	10863.744512
508.248472	10785.021853
508.613540	11016.516679
508.978550	10899.206508
509.343503	10871.838084
509.708398	10990.640436
510.073236	11107.199475
510.438016	11111.802048
510.802738	11065.846890
511.167403	11118.214396
511.532010	11018.467606
511.896561	11236.961296
512.261053	11312.686988
512.625488	11180.318891
512.989866	11164.782055
513.354186	11155.581949
513.718449	11050.955322
514.082655	11242.930022
514.446803	11148.370578
514.810894	11266.288208
515.174927	11131.495316
515.538904	11152.879891
515.902822	11305.168107
516.266684	11192.112670
516.630488	11135.253496
516.994235	11191.379183
517.357925	11252.992165
517.721558	11342.903664
518.085133	11353.560663
518.448651	11364.121881
518.812112	11239.859959
519.175516	11266.847776
519.538863	11383.517720
519.902152	11302.027468
520.265385	11461.743825
520.628560	11373.750485
520.991678	11347.985147
521.354739	11407.412789
521.717743	11343.122954
522.080690	11327.024030
522.443580	11456.160747
522.806413	11418.047103
523.169189	11446.746392
523.531908	11505.624549
523.894569	11324.042187
524.257174	11331.024185
524.619722	11449.254366
524.982213	11395.891232
525.344647	11450.837289
525.707025	11402.192675
526.069345	11489.931437
526.431608	11415.171125
526.793815	11510.660661
527.155964	11306.889661
527.518057	11359.879750
527.880093	11304.575772
528.242072	11381.201310
528.603995	11281.630960
528.965860	11201.900071
529.327669	11257.524162
529.689421	11200.055008
530.051117	11177.664723
530.412755	11277.121648
530.774337	11175.711276
531.135862	11147.201031
531.497331	11179.252687
531.858743	11025.827690
532.220098	11183.283089
532.581396	11061.617362
532.942638	11044.817717
533.303824	11006.457057
533.664953	11023.912052
534.026025	10932.631879
534.387040	11033.190295
534.747999	11036.978722
535.108902	11093.303534
535.469748	10857.269150
535.830537	10962.082300
536.191270	10934.252610
536.551947	10957.578029
536.912567	10958.286311
537.273131	10883.107584
537.633638	10863.842814
537.994089	10857.009530
538.354483	10811.891203
538.714821	10945.973293
539.075103	10951.765578
539.435328	10916.643860
539.795497	10749.958108
540.155609	10902.132898
540.515665	10992.427525
540.875665	10727.837525
541.235609	10794.710951
541.595496	10793.596856
541.955328	10940.594382
542.315102	10831.811323
542.674821	10781.853488
543.034483	10782.876842
543.394090	10783.764085
543.753640	10714.775895
544.113134	10928.694738
544.472571	10792.233224
544.831953	10932.533577
545.191278	10737.100645
545.550548	10768.333113
545.909761	10906.879145
546.268918	10878.673889
546.628019	10958.273708
546.987064	10826.787813
547.346053	10746.704043
547.704986	10846.274393
548.063863	10830.412403
548.422684	10824.274798
548.781449	10741.166335
549.140158	10844.575524
549.498811	10723.791999
549.857408	10581.699516
550.215949	10804.909205
550.574434	10661.024592
550.932864	10760.191650
551.291237	10812.589403
551.649555	10765.086610
552.007817	10783.479260
552.366022	10738.454195
552.724173	10737.324976
553.082267	10719.323016
553.440305	10861.276867
553.798288	10653.520835
554.156215	10811.543364
554.514086	10793.911928
554.871902	10634.099789
555.229661	10674.701242
555.587365	10649.487912
555.945014	10541.340038
556.302606	10675.830461
556.660143	10556.362677
557.017625	10713.462674
557.375050	10611.243198
557.732421	10746.031049
558.089735	10663.081383
558.446994	10655.194498
558.804197	10696.864675
559.161345	10701.842815
559.518437	10554.061390
559.875474	10636.655654
560.232455	10667.636065
560.589381	10612.939546
560.946251	10608.919226
561.303065	10721.193284
561.659825	10658.425877
562.016528	10591.562533
562.373177	10462.738367
562.729770	10579.841851
563.086307	10496.055353
563.442789	10591.338202
563.799216	10470.806734
564.155587	10517.036635
564.511904	10465.828595
564.868164	10470.463936
565.224370	10479.091870
565.580520	10397.883923
565.936615	10406.761395
566.292654	10277.574266
566.648638	10408.924050
567.004567	10365.912925
567.360441	10350.212252
567.716260	10259.698334
568.072023	10354.446821
568.427732	10307.372526
568.783385	10209.642197
569.138982	10283.984093
569.494525	10298.961361
569.850013	10172.463688
570.205445	10252.612993
570.560823	10154.721347
570.916145	10071.965765
571.271412	10139.343307
571.626625	10087.832797
571.981782	10060.877747
572.336884	10036.407987
572.691931	10039.372185
573.046923	9980.617537
573.401860	9945.374830
573.756743	9877.699861
574.111570	9921.250389
574.466342	9910.212782
574.821059	9934.223798
575.175722	9827.926028
575.530330	9840.652421
575.884882	9831.361574
576.239380	9760.520760
576.593823	9732.817099
576.948211	9749.846117
577.302544	9627.673753
577.656823	9643.767637
578.011047	9644.342328
578.365216	9621.810891
578.719330	9543.713336
579.073389	9558.249503
579.427394	9507.492646
579.781344	9480.850147
580.135239	9433.072612
580.489080	9437.181152
580.842866	9343.768572
581.196597	9349.737298
581.550273	9393.149194
581.903895	9358.506385
582.257463	9419.350591
582.610975	9296.883320
582.964434	9326.449688
583.317837	9246.431453
583.671186	9232.074246
584.024481	9223.345488
584.377721	9146.845979
584.730906	9119.270867
585.084037	9146.369590
585.437113	9088.164427
585.790135	9113.471020
586.143103	9006.389350
586.496016	8980.929003
586.848874	9037.422693
587.201679	9029.805510
587.554428	8912.407119
587.907124	8959.471332
588.259765	8930.502341
588.612352	8936.783619
588.964884	8807.949370
589.317362	8823.317328
589.669786	8818.296339
590.022155	8867.218216
590.374470	8886.621617
590.726731	8825.638779
591.078937	8672.314606
591.431090	8788.117471
591.783188	8665.559459
592.135232	8657.791041
592.487222	8652.260896
592.839157	8705.566056
593.191038	8641.044328
593.542866	8582.244310
593.894639	8487.949527
594.246358	8537.546919
594.598022	8554.074342
594.949633	8451.408723
595.301190	8429.391484
595.652692	8456.031462
596.004141	8566.374757
596.355535	8343.812856
596.706876	8327.335845
597.058162	8250.357426
597.409395	8332.860950
597.760573	8400.175477
598.111698	8309.412023
598.462768	8289.418806
598.813785	8252.961182
599.164748	8226.396822
599.515657	8214.668577
599.866511	8128.638766
600.217312	8253.818178
600.568060	8115.536807
600.918753	8218.875420
601.269392	8183.289915
601.619978	8093.068385
601.970510	8156.297057
602.320988	8154.802355
602.671412	8211.885860
603.021783	8148.271540
603.372100	8114.112681
603.722363	8122.753219
604.072572	8097.827234
604.422728	8109.018595
604.772830	8039.186012
605.122878	8041.565436
605.472872	8043.498719
605.822813	8072.613903
606.172701	8014.731374
606.522534	8089.012776
606.872314	8093.685926
607.222041	8056.126809
607.571714	8115.483875
607.921333	8073.773368
608.270899	8083.054132
608.620411	8170.369438
608.969870	8074.700941
609.319276	8059.625370
609.668627	8084.979853
610.017926	8114.034543
610.367171	8162.795104
610.716362	8143.913462
611.065500	8132.205382
611.414585	8159.641862
611.763616	8145.897156
612.112594	8128.389229
612.461518	8145.566961
612.810389	8209.708082
613.159207	8144.604100
613.507971	8093.229702
613.856682	8214.262764
614.205340	8170.150147
614.553945	8247.398268
614.902496	8150.862693
615.250994	8199.996299
615.599439	8179.050305
615.947830	8198.536885
616.296169	8166.016401
616.644454	8184.822426
616.992686	8175.730705
617.340864	8236.138851
617.688990	8143.200139
618.037063	8230.654076
618.385082	8180.776900
618.733048	8266.789067
619.080961	8200.407153
619.428821	8225.784321
619.776628	8225.716266
620.124382	8177.689193
620.472083	8159.127665
620.819731	8190.445833
621.167326	8079.573216
621.514868	8091.215761
621.862357	7982.220973
622.209793	7995.320412
622.557176	7927.428672
622.904506	7896.234012
623.251783	7833.811925
623.599007	7791.602343
623.946179	7793.182745
624.293297	7744.764983
624.640363	7669.737490
624.987376	7646.180178
625.334336	7596.955832
625.681243	7538.354939
626.028097	7533.560802
626.374899	7507.326637
626.721647	7501.105853
627.068343	7437.985566
627.414987	7406.753097
627.761577	7358.665531
628.108115	7401.359063
628.454600	7292.182794
628.801032	7343.630289
629.147412	7302.108826
629.493739	7289.392515
629.840014	7229.780871
630.186236	7286.483769
630.532405	7174.323137
630.878521	7221.231074
631.224585	7179.749939
631.570597	7100.203052
631.916556	7137.754607
632.262462	7130.238247
632.608316	7088.615960
632.954117	7065.391364
633.299866	7056.919705
633.645562	7051.192955
633.991206	6973.400389
634.336797	6907.031078
634.682336	6871.546396
635.027823	6835.136663
635.373257	6831.491908
635.718639	6756.187152
636.063968	6774.478979
636.409245	6664.972514
636.754470	6661.037894
637.099642	6620.464167
637.444762	6566.541465
637.789829	6576.006231
638.134845	6519.386512
638.479808	6504.535273
638.824719	6505.198184
639.169577	6437.649243
639.514383	6457.143385
639.859137	6381.175717
640.203839	6391.837758
640.548489	6374.324789
