Dividing Wavelength (nm)	Counts (n)	Blue Motor Position (mm): 0.400000	Red Motor Position (mm): 0.000000	
326.493990	2144.428708
326.888308	2144.428708
327.282561	2144.428708
327.676750	2112.808071
328.070874	2108.336567
328.464933	2114.527104
328.858929	2119.220418
329.252859	2128.995216
329.646726	2141.114150
330.040528	2153.583444
330.434265	2171.920641
330.827938	2191.177848
331.221547	2207.601928
331.615091	2222.755636
332.008571	2242.791702
332.401986	2266.245670
332.795338	2284.184616
333.188625	2303.267904
333.581847	2321.864721
333.975006	2340.340550
334.368100	2358.055164
334.761129	2380.150542
335.154095	2393.872562
335.546996	2410.778072
335.939833	2428.011256
336.332606	2438.146496
336.725315	2448.932045
337.117960	2464.504169
337.510540	2468.259828
337.903056	2481.891108
338.295508	2487.068373
338.687896	2497.334683
339.080220	2505.881960
339.472480	2514.678773
339.864676	2515.427384
340.256807	2522.210257
340.648875	2520.801254
341.040879	2524.196472
341.432818	2523.861235
341.824694	2527.899199
342.216506	2526.096987
342.608253	2528.710825
342.999937	2529.106555
343.391557	2528.733510
343.783113	2528.567152
344.174605	2525.736544
344.566033	2525.502130
344.957397	2524.204033
345.348697	2524.224198
345.739934	2521.817047
346.131106	2517.398476
346.522215	2516.236490
346.913260	2514.683814
347.304241	2514.333454
347.695159	2510.111488
348.086012	2509.304903
348.476802	2509.042763
348.867528	2506.733915
349.258191	2506.091168
349.648789	2502.532113
350.039324	2503.550426
350.429796	2502.045642
350.820203	2500.775271
351.210548	2499.590600
351.600828	2498.635301
351.991045	2498.905003
352.381198	2499.598161
352.771288	2498.650424
353.161314	2496.379385
353.551276	2498.368120
353.941175	2496.938953
354.331010	2495.194713
354.720782	2498.839468
355.110490	2496.896103
355.500135	2495.325783
355.889717	2496.767553
356.279235	2495.845022
356.668689	2498.789056
357.058080	2497.450630
357.447408	2493.193375
357.836672	2494.264621
358.225873	2496.981802
358.615010	2493.705052
359.004084	2498.332832
359.393095	2497.627070
359.782043	2500.303923
360.170927	2499.094046
360.559748	2501.723008
360.948505	2500.651763
361.337199	2502.932885
361.725830	2502.706033
362.114398	2503.502535
362.502903	2501.967504
362.891344	2501.919613
363.279722	2504.432628
363.668037	2504.760303
364.056289	2504.959428
364.444478	2503.799963
364.832603	2503.056393
365.220665	2505.881960
365.608665	2507.437156
365.996601	2505.826507
366.384474	2507.038904
366.772284	2507.293483
367.160031	2508.541168
367.547715	2508.558812
367.935336	2509.511590
368.322893	2509.032681
368.710388	2505.095540
369.097820	2510.582836
369.485189	2509.259533
369.872495	2510.406395
370.259738	2508.578977
370.646918	2510.613083
371.034035	2511.701972
371.421090	2512.470748
371.808081	2509.836745
372.195010	2512.349760
372.581875	2511.467558
372.968678	2512.977384
373.355418	2513.811695
373.742096	2513.670542
374.128710	2513.410923
374.515262	2513.234483
374.901751	2512.468227
375.288177	2514.661129
375.674540	2514.494771
376.060841	2513.930162
376.447079	2514.179699
376.833254	2514.257837
377.219367	2507.298524
377.605417	2512.296828
377.991404	2512.208608
378.377329	2514.298166
378.763191	2513.058042
379.148991	2514.116684
379.534727	2514.386386
379.920402	2516.241531
380.306013	2517.527025
380.691563	2516.511233
381.077049	2516.039885
381.462474	2518.988960
381.847835	2519.326717
382.233134	2515.939062
382.618371	2518.137005
383.003545	2516.733043
383.388657	2516.233969
383.773706	2515.087107
384.158693	2515.132477
384.543618	2521.539783
384.928480	2515.750018
385.313280	2521.670853
385.698017	2517.847138
386.082692	2519.843435
386.467305	2515.119874
386.851856	2519.500637
387.236344	2517.148938
387.620770	2521.829650
388.005133	2516.062570
388.389435	2518.850328
388.773674	2520.967612
389.157851	2520.292098
389.541965	2521.837212
389.926018	2520.793693
390.310008	2522.091790
390.693936	2523.021883
391.077802	2520.869310
391.461606	2520.614732
391.845348	2522.545494
392.229027	2521.358302
392.612645	2521.431399
392.996200	2522.479959
393.379694	2522.656399
393.763125	2522.346368
394.146494	2522.570699
394.529801	2523.687315
394.913047	2524.546832
395.296230	2525.789476
395.679351	2522.777387
396.062410	2524.151101
396.445408	2523.959537
396.828343	2523.190761
397.211217	2520.768487
397.594028	2523.258817
397.976778	2517.993332
398.359466	2524.456091
398.742092	2518.994001
399.124656	2526.061698
399.507158	2525.507172
399.889598	2526.142357
400.271977	2526.568334
400.654294	2529.580424
401.036549	2526.228057
401.418742	2526.641431
401.800874	2527.188396
402.182944	2527.692512
402.564952	2526.112110
402.946898	2528.499096
403.328783	2527.546318
403.710606	2528.236956
404.092367	2526.906092
404.474067	2527.858870
404.855705	2528.063037
405.237282	2527.720238
405.618797	2529.247708
406.000250	2527.417769
406.381642	2528.501617
406.762972	2528.937677
407.144240	2530.134951
407.525447	2527.747964
407.906593	2528.685619
408.287677	2528.032790
408.668700	2531.811134
409.049661	2528.622605
409.430560	2527.997502
409.811399	2530.933974
410.192176	2530.949097
410.572891	2528.060516
410.953545	2530.528161
411.334138	2529.414066
411.714669	2533.265507
412.095139	2530.868439
412.475547	2532.191742
412.855894	2530.583613
413.236180	2531.115455
413.616405	2532.219468
413.996568	2531.579241
414.376670	2530.069416
414.756711	2530.956659
415.136691	2532.925229
415.516609	2534.268697
415.896466	2532.864736
416.276262	2534.354397
416.655997	2531.289375
417.035670	2528.748633
417.415283	2531.347348
417.794834	2529.847605
418.174324	2531.571680
418.553753	2532.053110
418.933121	2537.104346
419.312428	2534.563604
419.691674	2531.745599
420.070859	2534.598892
420.449983	2530.944056
420.829045	2533.230219
421.208047	2533.058820
421.586988	2534.404808
421.965867	2535.465971
422.344686	2533.449509
422.723444	2535.697864
423.102141	2532.834489
423.480777	2536.154088
423.859352	2537.152237
424.237866	2536.791794
424.616319	2538.107536
424.994712	2532.615198
425.373044	2535.667617
425.751314	2537.986548
426.129524	2534.208203
426.507673	2537.273225
426.885762	2535.846578
427.263789	2536.116280
427.641756	2536.948070
428.019662	2534.525796
428.397508	2537.091743
428.775292	2537.812628
429.153016	2539.534182
429.530679	2535.289531
429.908282	2537.628626
430.285824	2535.592000
430.663305	2539.231713
431.040726	2537.447144
431.418086	2536.612833
431.795385	2537.305992
432.172624	2536.096115
432.549802	2539.975283
432.926920	2539.025026
433.303977	2537.459747
433.680974	2536.753986
434.057910	2539.088040
434.434786	2539.249357
434.811601	2540.381096
435.188355	2538.798174
435.565050	2537.149716
435.941683	2539.841693
436.318257	2539.188863
436.694770	2532.975641
437.071222	2537.835313
437.447614	2537.386651
437.823946	2536.872453
438.200218	2539.347659
438.576429	2539.738349
438.952580	2541.220448
439.328670	2541.553164
439.704700	2537.900848
440.080670	2540.837320
440.456580	2539.420756
440.832429	2539.819007
441.208218	2540.933102
441.583947	2541.318751
441.959616	2539.924872
442.335224	2540.638195
442.710773	2538.916641
443.086261	2540.728936
443.461689	2542.004347
443.837057	2541.742208
444.212365	2541.739687
444.587612	2541.918648
444.962800	2541.502753
445.337927	2543.488967
445.712995	2540.250026
446.088002	2540.494522
446.462949	2540.751621
446.837837	2544.298073
447.212664	2540.789429
447.587431	2544.116591
447.962139	2543.758669
448.336786	2544.124153
448.711374	2540.393699
449.085901	2542.387475
449.460369	2543.252033
449.834776	2543.728422
450.209124	2541.774975
450.583412	2542.952084
450.957640	2542.952084
451.331808	2541.928730
451.705917	2544.376210
452.079965	2543.622558
452.453954	2541.096940
452.827883	2541.643905
453.201752	2541.641384
453.575562	2543.126004
453.949311	2544.991231
454.323001	2540.519728
454.696632	2543.362938
455.070202	2544.098947
455.443713	2541.354039
455.817164	2542.266487
456.190556	2539.566950
456.563888	2539.922351
456.937160	2540.643236
457.310373	2545.122301
457.683526	2544.678680
458.056619	2544.252702
458.429653	2545.397044
458.802628	2544.988711
459.175542	2546.286808
459.548398	2546.243958
459.921194	2542.851261
460.293930	2545.081972
460.666607	2546.322096
461.039224	2546.246478
461.411782	2543.252033
461.784280	2546.067518
462.156719	2545.712116
462.529099	2546.425439
462.901419	2545.268495
463.273680	2545.530635
463.645882	2545.941489
464.018024	2541.989224
464.390106	2544.824873
464.762130	2548.167158
465.134094	2545.208001
465.505999	2546.629606
465.877845	2545.649102
466.249631	2544.255223
466.621358	2546.248999
466.993026	2547.499205
467.364634	2552.394166
467.736184	2547.466438
468.107674	2547.002652
468.479105	2548.106664
468.850477	2547.589946
469.221790	2548.759494
469.593043	2545.112219
469.964238	2547.186654
470.335373	2546.372507
470.706449	2545.724719
471.077467	2545.225645
471.448425	2547.542055
471.819324	2547.083310
472.190164	2546.516180
472.560945	2549.644216
472.931667	2548.986346
473.302330	2546.133052
473.672934	2546.014585
474.043479	2547.605069
474.413965	2548.353681
474.784393	2542.715150
475.154761	2546.095244
475.525070	2542.815973
475.895321	2543.819163
476.265513	2541.596014
476.635645	2551.360729
477.005719	2548.668753
477.375734	2545.765048
477.745691	2547.325285
478.115588	2547.360573
478.485427	2545.749925
478.855207	2549.929041
479.224928	2546.221273
479.594591	2546.790923
479.964194	2550.125646
480.333739	2545.591128
480.703226	2548.439380
481.072653	2549.505584
481.442022	2545.334030
481.811333	2547.229503
482.180584	2549.044319
482.549777	2546.259081
482.918912	2546.995090
483.287988	2547.332847
483.657005	2548.104144
484.025964	2548.862837
484.394864	2546.284287
484.763706	2549.573640
485.132489	2548.207487
485.501213	2547.688248
485.869879	2546.601880
486.238487	2547.625234
486.607036	2549.165307
486.975527	2548.860317
487.343959	2548.928372
487.712333	2547.786551
488.080648	2548.192364
488.448905	2549.674463
488.817104	2546.306972
489.185244	2547.567261
489.553326	2548.560368
489.921350	2550.460883
490.289315	2548.149514
490.657222	2552.963816
491.025070	2549.283774
491.392861	2551.572458
491.760593	2551.106151
492.128267	2548.714123
492.495883	2548.232693
492.863440	2548.018444
493.230939	2548.635985
493.598380	2551.839639
493.965763	2546.223793
494.333088	2548.628424
494.700354	2548.358722
495.067563	2548.756973
495.434713	2544.555171
495.801805	2552.938610
496.168839	2548.391489
496.535815	2553.641851
496.902733	2550.942313
497.269593	2552.089176
497.636395	2545.777651
498.003139	2552.310987
498.369825	2549.571119
498.736453	2552.126984
499.103023	2551.098589
499.469535	2552.558003
499.835989	2549.253527
500.202385	2551.433826
500.568723	2549.989535
500.935003	2550.201264
501.301226	2550.070194
501.667390	2551.330482
502.033497	2550.163455
502.399546	2552.888199
502.765537	2550.362581
503.131470	2553.230997
503.497345	2553.021789
503.863163	2551.829556
504.228923	2551.632951
504.594625	2552.933569
504.960269	2552.084135
505.325856	2549.455173
505.691385	2550.798640
506.056856	2552.333672
506.422270	2549.187992
506.787625	2550.029864
507.152924	2553.493137
507.518164	2548.320913
507.883347	2550.763352
508.248472	2548.951058
508.613540	2552.772252
508.978550	2550.420554
509.343503	2552.661347
509.708398	2554.806358
510.073236	2553.034392
510.438016	2549.871068
510.802738	2550.314690
511.167403	2552.953734
511.532010	2550.987684
511.896561	2550.586912
512.261053	2549.568599
512.625488	2547.640358
512.989866	2543.481406
513.354186	2548.666232
513.718449	2547.791592
514.082655	2550.125646
514.446803	2549.503064
514.810894	2551.330482
515.174927	2550.037426
515.538904	2548.449463
515.902822	2551.874927
516.266684	2552.215205
516.630488	2551.040616
516.994235	2550.168496
517.357925	2552.598332
517.721558	2552.933569
518.085133	2553.029351
518.448651	2550.176058
518.812112	2554.488765
519.175516	2551.942982
519.538863	2550.508774
519.902152	2550.339895
520.265385	2551.038095
520.628560	2552.880637
520.991678	2554.551779
521.354739	2552.341233
521.717743	2552.966337
522.080690	2552.381563
522.443580	2551.756460
522.806413	2550.954916
523.169189	2553.306614
523.531908	2552.835267
523.894569	2550.329813
524.257174	2551.902653
524.619722	2551.282591
524.982213	2555.176882
525.344647	2550.793599
525.707025	2552.313507
526.069345	2554.178734
526.431608	2553.432643
526.793815	2552.152190
527.155964	2550.846531
527.518057	2552.623538
527.880093	2552.023641
528.242072	2552.419371
528.603995	2554.405586
528.965860	2552.550441
529.327669	2552.626059
529.689421	2552.437015
530.051117	2549.530790
530.412755	2549.674463
530.774337	2552.699155
531.135862	2550.705379
531.497331	2551.922818
531.858743	2547.713454
532.220098	2550.211346
532.581396	2548.187323
532.942638	2547.791592
533.303824	2553.425082
533.664953	2552.782334
534.026025	2554.151008
534.387040	2551.189330
534.747999	2552.189999
535.108902	2552.063970
535.469748	2553.558672
535.830537	2555.786862
536.191270	2551.630431
536.551947	2553.104968
536.912567	2549.934082
537.273131	2553.576316
537.633638	2552.696635
537.994089	2553.248641
538.354483	2551.007848
538.714821	2554.735782
539.075103	2553.092365
539.435328	2553.162942
539.795497	2554.564382
540.155609	2555.784342
540.515665	2552.754608
540.875665	2555.509599
541.235609	2553.745195
541.595496	2553.961964
541.955328	2551.637992
542.315102	2555.151677
542.674821	2555.343241
543.034483	2556.333827
543.394090	2553.026830
543.753640	2554.329969
544.113134	2552.744526
544.472571	2552.694114
544.831953	2551.015410
545.191278	2554.090514
545.550548	2554.513971
545.909761	2551.874927
546.268918	2553.276367
546.628019	2553.246121
546.987064	2555.093703
547.346053	2554.718137
547.704986	2554.145967
548.063863	2554.786193
548.422684	2551.902653
548.781449	2552.162272
549.140158	2551.557334
549.498811	2555.267623
549.857408	2551.484237
550.215949	2551.166645
550.574434	2550.213867
550.932864	2551.874927
551.291237	2550.085317
551.649555	2552.905843
552.007817	2553.389793
552.366022	2553.762839
552.724173	2554.284598
553.082267	2556.197716
553.440305	2553.157900
553.798288	2553.931717
554.156215	2552.116902
554.514086	2551.834597
554.871902	2554.289639
555.229661	2552.895760
555.587365	2551.648075
555.945014	2554.332489
556.302606	2552.862993
556.660143	2553.432643
557.017625	2551.234700
557.375050	2554.395504
557.732421	2552.484906
558.089735	2556.290978
558.446994	2555.600339
558.804197	2553.568754
559.161345	2554.052705
559.518437	2553.173024
559.875474	2553.286450
560.232455	2554.692932
560.589381	2555.620504
560.946251	2558.894733
561.303065	2550.007179
561.659825	2553.944320
562.016528	2553.195709
562.373177	2555.272664
562.729770	2554.035061
563.086307	2556.038920
563.442789	2552.285781
563.799216	2552.868034
564.155587	2549.994576
564.511904	2554.478683
564.868164	2550.997766
565.224370	2553.223435
565.580520	2556.066646
565.936615	2553.838456
566.292654	2552.920966
566.648638	2555.406255
567.004567	2552.633620
567.360441	2552.802499
567.716260	2552.517674
568.072023	2554.650082
568.427732	2547.655481
568.783385	2552.318548
569.138982	2548.451983
569.494525	2550.266799
569.850013	2547.887374
570.205445	2554.208981
570.560823	2551.443908
570.916145	2554.211502
571.271412	2556.139743
571.626625	2553.150339
571.981782	2552.915925
572.336884	2556.056564
572.691931	2553.339382
573.046923	2552.968857
573.401860	2553.364588
573.756743	2552.096737
574.111570	2551.368291
574.466342	2552.769732
574.821059	2553.011707
575.175722	2554.405586
575.530330	2556.520350
575.884882	2555.118909
576.239380	2555.048333
576.593823	2557.843653
576.948211	2553.513302
577.302544	2553.173024
577.656823	2554.473642
578.011047	2555.507078
578.365216	2554.400545
578.719330	2551.149001
579.073389	2557.861297
579.427394	2551.637992
579.781344	2552.825184
580.135239	2554.294681
580.489080	2555.922973
580.842866	2554.430792
581.196597	2556.485062
581.550273	2552.363919
581.903895	2552.560524
582.257463	2552.971378
582.610975	2554.420709
582.964434	2555.428940
583.317837	2556.575803
583.671186	2553.258723
584.024481	2555.403734
584.377721	2555.817109
584.730906	2553.588919
585.084037	2552.416851
585.437113	2555.706204
585.790135	2554.637479
586.143103	2553.568754
586.496016	2553.402396
586.848874	2549.558517
587.201679	2554.176213
587.554428	2552.555483
587.907124	2552.217725
588.259765	2550.218908
588.612352	2552.258054
588.964884	2557.475649
589.317362	2555.128992
589.669786	2554.887016
590.022155	2555.426420
590.374470	2552.709238
590.726731	2556.127140
591.078937	2554.690411
591.431090	2554.874413
591.783188	2552.931048
592.135232	2554.687891
592.487222	2553.911553
592.839157	2556.674105
593.191038	2554.498847
593.542866	2552.316028
593.894639	2553.437684
594.246358	2558.803993
594.598022	2553.155380
594.949633	2553.649413
595.301190	2554.024979
595.652692	2554.405586
596.004141	2553.777962
596.355535	2554.392983
596.706876	2554.312325
597.058162	2556.303580
597.409395	2556.064126
597.760573	2551.622869
598.111698	2553.944320
598.462768	2552.996583
598.813785	2554.665205
599.164748	2557.647048
599.515657	2553.561193
599.866511	2554.375339
600.217312	2555.184444
600.568060	2553.861141
600.918753	2558.937583
601.269392	2556.729558
601.619978	2553.520863
601.970510	2556.706873
602.320988	2553.498178
602.671412	2555.083621
603.021783	2553.808209
603.372100	2554.650082
603.722363	2553.266285
604.072572	2556.515309
604.422728	2556.074208
604.772830	2550.430636
605.122878	2549.656819
605.472872	2551.305276
605.822813	2549.689587
606.172701	2552.222766
606.522534	2552.394166
606.872314	2554.440874
607.222041	2552.684032
607.571714	2555.040771
607.921333	2554.824002
608.270899	2553.951882
608.620411	2556.076728
608.969870	2556.437171
609.319276	2557.006821
609.668627	2561.876576
610.017926	2561.516133
610.367171	2564.737431
610.716362	2558.693087
611.065500	2558.781308
611.414585	2557.274002
611.763616	2555.169321
612.112594	2556.285936
612.461518	2556.870710
612.810389	2555.832232
613.159207	2557.528581
613.507971	2554.801317
613.856682	2557.362223
614.205340	2557.321893
614.553945	2560.323901
614.902496	2555.207129
615.250994	2556.061605
615.599439	2554.327448
615.947830	2554.879454
616.296169	2553.165462
616.644454	2557.120247
616.992686	2556.243087
617.340864	2554.566903
617.688990	2553.992211
618.037063	2556.457336
618.385082	2552.928528
618.733048	2556.885834
619.080961	2553.846018
619.428821	2556.474980
619.776628	2555.839794
620.124382	2556.333827
620.472083	2555.701162
620.819731	2554.390462
621.167326	2553.614125
621.514868	2553.180586
621.862357	2553.793086
622.209793	2551.300235
622.557176	2556.890875
622.904506	2554.675288
623.251783	2553.110009
623.599007	2553.178065
623.946179	2549.198074
624.293297	2551.509443
624.640363	2554.496327
624.987376	2552.487427
625.334336	2556.860628
625.681243	2555.852397
626.028097	2554.740823
626.374899	2555.068498
626.721647	2553.868703
627.068343	2555.071018
627.414987	2554.239228
627.761577	2552.610935
628.108115	2554.672767
628.454600	2552.525236
628.801032	2553.694783
629.147412	2556.106975
629.493739	2559.597974
629.840014	2555.416337
630.186236	2555.809547
630.532405	2554.024979
630.878521	2552.396686
631.224585	2551.758980
631.570597	2554.879454
631.916556	2554.960113
632.262462	2554.521532
632.608316	2553.770401
632.954117	2553.160421
633.299866	2554.766028
633.645562	2554.987839
633.991206	2554.476162
634.336797	2554.385421
634.682336	2555.413817
635.027823	2554.415668
635.373257	2553.810730
635.718639	2552.260575
636.063968	2552.895760
636.409245	2554.151008
636.754470	2555.993549
637.099642	2555.149156
637.444762	2553.730071
637.789829	2553.021789
638.134845	2556.220401
638.479808	2551.706048
638.824719	2555.055895
639.169577	2554.072870
639.514383	2550.498692
639.859137	2552.799978
640.203839	2554.524053
640.548489	2553.954403
640.893086	2551.577499
641.237632	2549.676984
641.582125	2553.077242
641.926566	2548.850234
642.270955	2555.822150
642.615292	2553.682180
642.959576	2553.167983
643.303809	2552.953734
643.647990	2551.965667
643.992118	2551.859803
644.336195	2553.750236
