Dividing Wavelength (nm)	Counts (n)	Blue Motor Position (mm): 8.300000	Red Motor Position (mm): 0.000000	
326.493990	2140.383182
326.888308	2140.383182
327.282561	2140.383182
327.676750	2105.818511
328.070874	2104.616196
328.464933	2110.282453
328.858929	2114.572475
329.252859	2125.352982
329.646726	2137.277832
330.040528	2150.634369
330.434265	2165.231030
330.827938	2181.491271
331.221547	2201.824765
331.615091	2219.448639
332.008571	2240.621485
332.401986	2258.179824
332.795338	2278.893925
333.188625	2299.295475
333.581847	2315.134780
333.975006	2336.330312
334.368100	2353.860924
334.761129	2371.683924
335.154095	2388.057591
335.546996	2405.003430
335.939833	2422.375246
336.332606	2435.898141
336.725315	2449.312652
337.117960	2458.364043
337.510540	2464.829323
337.903056	2476.681076
338.295508	2486.982674
338.687896	2492.933756
339.080220	2501.922133
339.472480	2509.317506
339.864676	2512.453104
340.256807	2516.997704
340.648875	2519.359484
341.040879	2521.045750
341.432818	2524.856863
341.824694	2527.195958
342.216506	2525.008097
342.608253	2526.437264
342.999937	2529.197296
343.391557	2526.291071
343.783113	2523.455422
344.174605	2526.636390
344.566033	2522.807634
344.957397	2521.146573
345.348697	2517.398476
345.739934	2518.021058
346.131106	2514.668691
346.522215	2513.206756
346.913260	2511.316323
347.304241	2511.089472
347.695159	2509.713237
348.086012	2507.437156
348.476802	2505.599655
348.867528	2504.281393
349.258191	2504.188132
349.648789	2502.864829
350.039324	2497.528768
350.429796	2497.904334
350.820203	2497.654797
351.210548	2498.801659
351.600828	2493.954590
351.991045	2492.711945
352.381198	2494.153715
352.771288	2492.462408
353.161314	2495.305619
353.551276	2494.403252
353.941175	2493.493324
354.331010	2494.229333
354.720782	2489.906543
355.110490	2491.406286
355.500135	2491.686070
355.889717	2495.517347
356.279235	2493.843684
356.668689	2493.871411
357.058080	2496.268479
357.447408	2491.421410
357.836672	2491.965854
358.225873	2492.298571
358.615010	2491.925525
359.004084	2494.536843
359.393095	2494.667913
359.782043	2497.248984
360.170927	2499.633449
360.559748	2499.411639
360.948505	2498.743686
361.337199	2497.498521
361.725830	2499.542709
362.114398	2500.399705
362.502903	2497.591782
362.891344	2499.567914
363.279722	2501.662514
363.668037	2503.714263
364.056289	2500.132524
364.444478	2503.966321
364.832603	2503.706702
365.220665	2502.995899
365.608665	2504.646877
365.996601	2506.650736
366.384474	2505.307268
366.772284	2505.486229
367.160031	2506.824655
367.547715	2504.793070
367.935336	2503.734428
368.322893	2506.098729
368.710388	2506.496980
369.097820	2510.625685
369.485189	2506.373472
369.872495	2508.263905
370.259738	2506.824655
370.646918	2506.207114
371.034035	2506.837258
371.421090	2510.948319
371.808081	2504.795591
372.195010	2506.731394
372.581875	2507.525376
372.968678	2508.190808
373.355418	2507.139727
373.742096	2508.518483
374.128710	2508.810870
374.515262	2509.259533
374.901751	2511.167609
375.288177	2510.915552
375.674540	2510.935716
376.060841	2508.795747
376.447079	2510.834893
376.833254	2510.489574
377.219367	2506.396157
377.605417	2510.383710
377.991404	2504.236023
378.377329	2509.952691
378.763191	2509.173833
379.148991	2512.037208
379.534727	2511.613752
379.920402	2512.289266
380.306013	2512.884122
380.691563	2514.865296
381.077049	2512.304390
381.462474	2511.172651
381.847835	2512.143073
382.233134	2513.171468
382.618371	2512.959740
383.003545	2515.417302
383.388657	2513.703310
383.773706	2514.237672
384.158693	2514.106602
384.543618	2514.872858
384.928480	2514.028464
385.313280	2515.871006
385.698017	2515.455111
386.082692	2515.608866
386.467305	2514.005779
386.851856	2519.389731
387.236344	2516.735564
387.620770	2518.331089
388.005133	2516.037364
388.389435	2517.935358
388.773674	2515.313958
389.157851	2513.589884
389.541965	2519.437622
389.926018	2518.699093
390.310008	2517.799247
390.693936	2519.634227
391.077802	2517.711027
391.461606	2517.096006
391.845348	2519.172962
392.229027	2517.317817
392.612645	2517.930317
392.996200	2518.741943
393.379694	2520.150946
393.763125	2520.904598
394.146494	2519.062056
394.529801	2521.663292
394.913047	2519.498116
395.296230	2522.182531
395.679351	2520.725637
396.062410	2521.287726
396.445408	2521.423837
396.828343	2520.506347
397.211217	2518.260513
397.594028	2519.263703
397.976778	2517.673218
398.359466	2522.979033
398.742092	2516.604494
399.124656	2521.196985
399.507158	2522.225380
399.889598	2525.706297
400.271977	2522.439629
400.654294	2526.066740
401.036549	2524.299815
401.418742	2522.716893
401.800874	2522.154804
402.182944	2525.870135
402.564952	2522.560617
402.946898	2524.448529
403.328783	2521.675895
403.710606	2527.125382
404.092367	2522.270751
404.474067	2524.695546
404.855705	2523.362161
405.237282	2526.901051
405.618797	2522.868128
406.000250	2525.227387
406.381642	2525.350896
406.762972	2524.720752
407.144240	2525.857532
407.525447	2527.347193
407.906593	2524.602284
408.287677	2526.548170
408.668700	2524.909795
409.049661	2527.140505
409.430560	2525.981040
409.811399	2527.861390
410.192176	2525.623118
410.572891	2528.327697
410.953545	2523.979702
411.334138	2528.274765
411.714669	2526.933818
412.095139	2527.022038
412.475547	2529.474560
412.855894	2527.952131
413.236180	2529.451874
413.616405	2528.065557
413.996568	2529.835002
414.376670	2527.311905
414.756711	2529.547656
415.136691	2528.095804
415.516609	2526.681760
415.896466	2531.738038
416.276262	2529.582944
416.655997	2525.723941
417.035670	2526.311236
417.415283	2525.797038
417.794834	2527.455578
418.174324	2528.015146
418.553753	2530.790301
418.933121	2529.013294
419.312428	2532.065713
419.691674	2530.538243
420.070859	2528.937677
420.449983	2529.542615
420.829045	2531.405322
421.208047	2530.381967
421.586988	2532.005219
421.965867	2529.245187
422.344686	2533.257946
422.723444	2531.533871
423.102141	2532.353058
423.480777	2534.142668
423.859352	2530.472708
424.237866	2530.480270
424.616319	2529.887934
424.994712	2532.801721
425.373044	2532.199303
425.751314	2534.167874
426.129524	2530.823068
426.507673	2533.114273
426.885762	2532.249715
427.263789	2533.739376
427.641756	2532.975641
428.019662	2531.496062
428.397508	2533.567977
428.775292	2533.313398
429.153016	2534.717360
429.530679	2536.665766
429.908282	2531.669982
430.285824	2533.394057
430.663305	2532.668131
431.040726	2532.552184
431.418086	2533.898172
431.795385	2535.103008
432.172624	2533.560415
432.549802	2534.165353
432.926920	2536.602751
433.303977	2535.226516
433.680974	2534.031763
434.057910	2532.549663
434.434786	2534.432534
434.811601	2534.109901
435.188355	2533.378933
435.565050	2536.191897
435.941683	2534.235929
436.318257	2532.239632
436.694770	2528.814168
437.071222	2532.756351
437.447614	2528.884745
437.823946	2532.708460
438.200218	2536.320447
438.576429	2535.748276
438.952580	2537.263142
439.328670	2535.362627
439.704700	2535.508821
440.080670	2538.019315
440.456580	2536.138965
440.832429	2539.234233
441.208218	2535.395395
441.583947	2538.389840
441.959616	2537.921013
442.335224	2537.192566
442.710773	2541.187681
443.086261	2538.329346
443.461689	2535.990251
443.837057	2535.377751
444.212365	2538.377237
444.587612	2535.171063
444.962800	2540.255067
445.337927	2539.100643
445.712995	2538.450334
446.088002	2538.687268
446.462949	2537.132072
446.837837	2539.428318
447.212664	2533.777184
447.587431	2536.244829
447.962139	2539.907227
448.336786	2541.255736
448.711374	2539.546785
449.085901	2538.906558
449.460369	2538.732639
449.834776	2538.853626
450.209124	2538.667104
450.583412	2539.624923
450.957640	2541.104502
451.331808	2540.313040
451.705917	2539.151054
452.079965	2538.399922
452.453954	2540.265149
452.827883	2539.035108
453.201752	2538.495704
453.575562	2539.065355
453.949311	2539.256919
454.323001	2539.143493
454.696632	2541.994265
455.070202	2539.829090
455.443713	2539.924872
455.817164	2540.449152
456.190556	2536.809438
456.563888	2535.163502
456.937160	2534.934129
457.310373	2540.885211
457.683526	2541.152392
458.056619	2538.248688
458.429653	2541.384286
458.802628	2539.481250
459.175542	2541.248174
459.548398	2538.833462
459.921194	2541.044008
460.293930	2540.486960
460.666607	2540.169368
461.039224	2540.635674
461.411782	2539.849254
461.784280	2540.681045
462.156719	2540.514687
462.529099	2543.007537
462.901419	2540.242464
463.273680	2543.753628
463.645882	2541.825387
464.018024	2542.064841
464.390106	2540.479398
464.762130	2544.852599
465.134094	2540.585263
465.505999	2543.209183
465.877845	2541.558205
466.249631	2543.199101
466.621358	2541.543082
466.993026	2546.425439
467.364634	2545.777651
467.736184	2543.332692
468.107674	2544.088865
468.479105	2545.954092
468.850477	2543.065510
469.221790	2543.468803
469.593043	2542.513504
469.964238	2543.269677
470.335373	2541.512835
470.706449	2544.116591
471.077467	2542.279090
471.448425	2545.054246
471.819324	2544.434184
472.190164	2543.678011
472.560945	2544.721529
472.931667	2542.992414
473.302330	2543.602393
473.672934	2544.252702
474.043479	2540.870088
474.413965	2544.812270
474.784393	2540.597866
475.154761	2542.629451
475.525070	2538.480581
475.895321	2540.101312
476.265513	2538.490663
476.635645	2543.735984
477.005719	2544.088865
477.375734	2543.741025
477.745691	2544.716488
478.115588	2544.308155
478.485427	2545.394523
478.855207	2547.209339
479.224928	2544.706406
479.594591	2541.686755
479.964194	2544.895449
480.333739	2544.373690
480.703226	2544.320758
481.072653	2544.033412
481.442022	2543.867054
481.811333	2546.911911
482.180584	2545.011396
482.549777	2546.690100
482.918912	2544.930737
483.287988	2545.696993
483.657005	2546.942158
484.025964	2545.654143
484.394864	2545.570964
484.763706	2546.924514
485.132489	2543.589790
485.501213	2547.796633
485.869879	2544.640871
486.238487	2546.032229
486.607036	2543.993083
486.975527	2549.177909
487.343959	2546.009544
487.712333	2545.195398
488.080648	2544.179605
488.448905	2547.128680
488.817104	2543.249512
489.185244	2546.165820
489.553326	2544.106509
489.921350	2546.725388
490.289315	2545.192877
490.657222	2545.873433
491.025070	2546.806047
491.392861	2546.362425
491.760593	2548.560368
492.128267	2548.048691
492.495883	2546.221273
492.863440	2544.540048
493.230939	2546.884184
493.598380	2546.894267
493.965763	2539.990407
494.333088	2543.481406
494.700354	2543.042825
495.067563	2545.878474
495.434713	2541.873277
495.801805	2545.734801
496.168839	2543.229348
496.535815	2544.713968
496.902733	2546.644730
497.269593	2546.977446
497.636395	2543.824204
498.003139	2549.016592
498.369825	2545.500388
498.736453	2548.416695
499.103023	2544.356046
499.469535	2550.264278
499.835989	2547.612631
500.202385	2550.171017
500.568723	2545.490305
500.935003	2547.857127
501.301226	2546.836293
501.667390	2544.857641
502.033497	2549.389638
502.399546	2549.266130
502.765537	2546.034750
503.131470	2550.778476
503.497345	2549.553475
503.863163	2548.278063
504.228923	2549.480379
504.594625	2548.199926
504.960269	2546.203629
505.325856	2549.011551
505.691385	2547.781510
506.056856	2548.552806
506.422270	2548.010882
506.787625	2546.861499
507.152924	2546.763197
507.518164	2547.879812
507.883347	2551.290153
508.248472	2549.319062
508.613540	2548.212528
508.978550	2543.758669
509.343503	2548.446942
509.708398	2549.687066
510.073236	2547.990718
510.438016	2548.298228
510.802738	2547.831921
511.167403	2548.693959
511.532010	2547.899977
511.896561	2547.048022
512.261053	2549.530790
512.625488	2545.497867
512.989866	2542.624409
513.354186	2541.502753
513.718449	2544.073741
514.082655	2547.652960
514.446803	2549.172868
514.810894	2547.574822
515.174927	2549.195553
515.538904	2551.368291
515.902822	2549.319062
516.266684	2547.330327
516.630488	2548.313352
516.994235	2549.271171
517.357925	2549.276212
517.721558	2546.692621
518.085133	2551.179247
518.448651	2550.473486
518.812112	2546.543907
519.175516	2549.964329
519.538863	2550.541542
519.902152	2548.840152
520.265385	2549.109854
520.628560	2548.673794
520.991678	2547.509287
521.354739	2551.123795
521.717743	2547.539534
522.080690	2550.564227
522.443580	2547.847045
522.806413	2550.246634
523.169189	2550.788558
523.531908	2545.452497
523.894569	2549.316541
524.257174	2547.844524
524.619722	2546.997610
524.982213	2550.307128
525.344647	2549.941644
525.707025	2549.707231
526.069345	2548.845193
526.431608	2550.836449
526.793815	2550.927190
527.155964	2550.949875
527.518057	2548.094061
527.880093	2550.397869
528.242072	2550.433157
528.603995	2551.138918
528.965860	2548.772097
529.327669	2550.024823
529.689421	2550.228990
530.051117	2550.390307
530.412755	2548.172199
530.774337	2548.867878
531.135862	2548.663712
531.497331	2548.671273
531.858743	2544.903011
532.220098	2550.546583
532.581396	2548.230173
532.942638	2545.558361
533.303824	2547.718495
533.664953	2550.085317
534.026025	2550.269319
534.387040	2547.710934
534.747999	2552.482386
535.108902	2551.688404
535.469748	2550.486089
535.830537	2553.636810
536.191270	2550.050029
536.551947	2550.586912
536.912567	2550.775955
537.273131	2553.016748
537.633638	2551.935421
537.994089	2554.115720
538.354483	2551.799309
538.714821	2554.730740
539.075103	2553.135215
539.435328	2552.996583
539.795497	2552.565565
540.155609	2552.721841
540.515665	2551.769062
540.875665	2553.283929
541.235609	2553.783003
541.595496	2553.556152
541.955328	2554.909701
542.315102	2554.692932
542.674821	2555.156718
543.034483	2554.264434
543.394090	2554.889537
543.753640	2555.209650
544.113134	2556.727037
544.472571	2553.117571
544.831953	2555.272664
545.191278	2556.018755
545.550548	2554.753426
545.909761	2552.530277
546.268918	2553.341902
546.628019	2558.090669
546.987064	2552.585729
547.346053	2553.916594
547.704986	2555.353323
548.063863	2556.888354
548.422684	2555.086142
548.781449	2553.619166
549.140158	2555.176883
549.498811	2557.122768
549.857408	2555.217212
550.215949	2554.415668
550.574434	2553.069680
550.932864	2556.268292
551.291237	2550.884340
551.649555	2556.608570
552.007817	2554.072870
552.366022	2556.265772
552.724173	2555.091183
553.082267	2553.861141
553.440305	2556.265772
553.798288	2556.923642
554.156215	2555.693601
554.514086	2554.791234
554.871902	2554.806358
555.229661	2557.609239
555.587365	2556.177552
555.945014	2556.900957
556.302606	2554.423230
556.660143	2558.002449
557.017625	2555.786862
557.375050	2556.732078
557.732421	2554.755946
558.089735	2556.359033
558.446994	2554.574465
558.804197	2557.107644
559.161345	2558.191492
559.518437	2557.730227
559.875474	2556.190154
560.232455	2556.154866
560.589381	2555.980947
560.946251	2560.558314
561.303065	2556.273333
561.659825	2555.338199
562.016528	2557.793241
562.373177	2553.709907
562.729770	2552.321069
563.086307	2556.752243
563.442789	2556.590926
563.799216	2558.408262
564.155587	2555.406255
564.511904	2559.746688
564.868164	2558.425906
565.224370	2555.149156
565.580520	2555.673436
565.936615	2557.137891
566.292654	2556.061605
566.648638	2557.778118
567.004567	2555.928014
567.360441	2557.473128
567.716260	2557.311811
568.072023	2556.137222
568.427732	2551.917777
568.783385	2555.660833
569.138982	2551.627910
569.494525	2554.067829
569.850013	2549.656819
570.205445	2554.753426
570.560823	2556.583364
570.916145	2555.418858
571.271412	2556.180072
571.626625	2558.645196
571.981782	2556.721996
572.336884	2554.181255
572.691931	2556.452294
573.046923	2557.931873
573.401860	2553.571275
573.756743	2556.159907
574.111570	2554.750905
574.466342	2556.583364
574.821059	2557.699980
575.175722	2556.348951
575.530330	2555.192006
575.884882	2555.025648
576.239380	2554.771070
576.593823	2558.700649
576.948211	2553.992211
577.302544	2553.412479
577.656823	2554.831563
578.011047	2555.280226
578.365216	2554.478683
578.719330	2554.140925
579.073389	2556.227963
579.427394	2556.263251
579.781344	2550.917107
580.135239	2554.844166
580.489080	2552.835267
580.842866	2556.142263
581.196597	2557.301729
581.550273	2553.667057
581.903895	2556.142263
582.257463	2555.101265
582.610975	2552.550441
582.964434	2552.109340
583.317837	2555.491955
583.671186	2554.551779
584.024481	2556.651420
584.377721	2556.112017
584.730906	2556.903478
585.084037	2554.274516
585.437113	2555.807027
585.790135	2553.835936
586.143103	2552.777293
586.496016	2556.797613
586.848874	2549.941644
587.201679	2550.854093
587.554428	2550.236552
587.907124	2551.441387
588.259765	2549.331665
588.612352	2553.271326
588.964884	2553.699824
589.317362	2555.139074
589.669786	2553.717468
590.022155	2556.427089
590.374470	2552.439536
590.726731	2553.188147
591.078937	2554.052705
591.431090	2551.448949
591.783188	2553.132695
592.135232	2554.065308
592.487222	2554.128322
592.839157	2554.057746
593.191038	2553.034392
593.542866	2554.254351
593.894639	2553.949362
594.246358	2552.242931
594.598022	2551.784186
594.949633	2554.153528
595.301190	2551.128836
595.652692	2553.407438
596.004141	2554.685370
596.355535	2555.128992
596.706876	2551.680842
597.058162	2553.162942
597.409395	2553.014227
597.760573	2554.967675
598.111698	2553.074721
598.462768	2552.794937
598.813785	2552.109340
599.164748	2555.212171
599.515657	2550.833928
599.866511	2552.046326
600.217312	2553.074721
600.568060	2554.420709
600.918753	2553.377191
601.269392	2550.798640
601.619978	2552.938610
601.970510	2551.408620
602.320988	2553.183106
602.671412	2555.111347
603.021783	2554.604712
603.372100	2555.184444
603.722363	2554.284598
604.072572	2552.399207
604.422728	2553.326779
604.772830	2547.471479
605.122878	2549.364432
605.472872	2550.874258
605.822813	2547.524411
606.172701	2552.525236
606.522534	2553.722510
606.872314	2551.993394
607.222041	2554.362736
607.571714	2555.484393
607.921333	2555.224773
608.270899	2553.956923
608.620411	2552.905843
608.969870	2556.079249
609.319276	2554.473642
609.668627	2558.816596
610.017926	2559.393808
610.367171	2561.339693
610.716362	2559.958417
611.065500	2561.531257
611.414585	2557.226112
611.763616	2557.591595
612.112594	2556.049002
612.461518	2556.114537
612.810389	2557.276523
613.159207	2555.796944
613.507971	2554.703014
613.856682	2555.643189
614.205340	2554.942469
614.553945	2553.135215
614.902496	2553.815771
615.250994	2556.205278
615.599439	2553.520863
615.947830	2555.096224
616.296169	2555.595298
616.644454	2553.926676
616.992686	2555.544887
617.340864	2555.751574
617.688990	2555.106306
618.037063	2557.276523
618.385082	2553.815771
618.733048	2553.667057
619.080961	2554.967675
619.428821	2555.756615
619.776628	2552.515153
620.124382	2557.178221
620.472083	2556.129661
620.819731	2556.459856
621.167326	2553.052036
621.514868	2554.191337
621.862357	2555.318035
622.209793	2554.297201
622.557176	2558.362892
622.904506	2554.889537
623.251783	2550.549103
623.599007	2554.135884
623.946179	2549.755122
624.293297	2555.126471
624.640363	2554.120761
624.987376	2555.522202
625.334336	2556.777449
625.681243	2556.986657
626.028097	2554.992880
626.374899	2558.635114
626.721647	2556.606050
627.068343	2555.164280
627.414987	2555.076059
627.761577	2553.664536
628.108115	2554.191337
628.454600	2555.282747
628.801032	2558.246945
629.147412	2557.712583
629.493739	2554.229146
629.840014	2560.432285
630.186236	2554.395504
630.532405	2554.897098
630.878521	2555.433981
631.224585	2554.506409
631.570597	2553.926676
631.916556	2558.163766
632.262462	2556.409445
632.608316	2556.278375
632.954117	2556.099414
633.299866	2557.531101
633.645562	2556.898437
633.991206	2556.376677
634.336797	2556.432130
634.682336	2557.503375
635.027823	2557.090000
635.373257	2557.460525
635.718639	2557.009342
636.063968	2557.392470
636.409245	2553.334341
636.754470	2556.936245
637.099642	2553.203271
637.444762	2559.290464
637.789829	2553.697304
638.134845	2556.175031
638.479808	2554.914742
638.824719	2555.955741
639.169577	2556.981616
639.514383	2555.307952
639.859137	2556.744681
640.203839	2557.883982
640.548489	2557.289126
640.893086	2555.096224
641.237632	2552.275698
641.582125	2555.295350
641.926566	2553.142777
642.270955	2558.632593
642.615292	2556.664023
642.959576	2557.231153
643.303809	2557.402552
643.647990	2557.609239
643.992118	2557.077397
644.336195	2557.349620
