Dividing Wavelength (nm)	Counts (n)	Blue Motor Position (mm): 45.300000	Red Motor Position (mm): 0.000000	
326.493990	2127.750051
326.888308	2127.750051
327.282561	2127.750051
327.676750	2096.830134
328.070874	2093.475246
328.464933	2099.149064
328.858929	2105.594180
329.252859	2114.842176
329.646726	2126.220061
330.040528	2138.311268
330.434265	2153.507826
330.827938	2172.444921
331.221547	2190.799762
331.615091	2208.201825
332.008571	2230.579507
332.401986	2250.963413
332.795338	2267.228695
333.188625	2286.246448
333.581847	2306.113636
333.975006	2323.266162
334.368100	2341.731908
334.761129	2356.537777
335.154095	2379.056611
335.546996	2399.478325
335.939833	2423.653179
336.332606	2437.687751
336.725315	2452.609566
337.117960	2461.361009
337.510540	2467.919551
337.903056	2479.519246
338.295508	2485.203147
338.687896	2496.636483
339.080220	2503.638646
339.472480	2512.513597
339.864676	2516.594412
340.256807	2519.324196
340.648875	2522.190092
341.040879	2526.003725
341.432818	2525.421472
341.824694	2527.909281
342.216506	2528.506658
342.608253	2530.190403
342.999937	2531.049920
343.391557	2531.281813
343.783113	2527.367357
344.174605	2524.665299
344.566033	2525.988602
344.957397	2522.560617
345.348697	2520.251769
345.739934	2522.149763
346.131106	2520.511388
346.522215	2518.691532
346.913260	2515.311438
347.304241	2514.157014
347.695159	2510.814729
348.086012	2509.861951
348.476802	2506.406240
348.867528	2506.454131
349.258191	2501.750734
349.648789	2502.985817
350.039324	2502.249808
350.429796	2502.486743
350.820203	2501.397853
351.210548	2498.163953
351.600828	2497.266628
351.991045	2498.030363
352.381198	2497.614467
352.771288	2494.960300
353.161314	2498.456340
353.551276	2495.857625
353.941175	2496.482728
354.331010	2494.809065
354.720782	2494.390649
355.110490	2497.319560
355.500135	2498.277379
355.889717	2496.129848
356.279235	2497.682523
356.668689	2498.259735
357.058080	2498.342914
357.447408	2496.838130
357.836672	2495.839981
358.225873	2493.463077
358.615010	2494.478870
359.004084	2500.099756
359.393095	2497.518685
359.782043	2503.126969
360.170927	2503.066475
360.559748	2500.543378
360.948505	2504.752741
361.337199	2504.659480
361.725830	2503.091681
362.114398	2505.748369
362.502903	2503.895745
362.891344	2506.847341
363.279722	2510.590397
363.668037	2509.556961
364.056289	2506.033194
364.444478	2508.659635
364.832603	2510.615603
365.220665	2509.478823
365.608665	2510.146776
365.996601	2511.873371
366.384474	2507.727022
366.772284	2509.002434
367.160031	2511.149965
367.547715	2511.124760
367.935336	2513.547034
368.322893	2516.168434
368.710388	2516.233969
369.097820	2517.038033
369.485189	2514.540141
369.872495	2515.893691
370.259738	2515.805471
370.646918	2515.003928
371.034035	2519.540966
371.421090	2518.681449
371.808081	2517.111130
372.195010	2521.227232
372.581875	2517.096006
372.968678	2519.684639
373.355418	2520.516429
373.742096	2523.765453
374.128710	2523.823426
374.515262	2528.126051
374.901751	2529.628315
375.288177	2536.401105
375.674540	2540.028215
376.060841	2546.942158
376.447079	2550.528939
376.833254	2561.710218
377.219367	2563.681309
377.605417	2577.801581
377.991404	2590.664085
378.377329	2600.834613
378.763191	2610.856427
379.148991	2631.951135
379.534727	2649.517036
379.920402	2665.794921
380.306013	2678.556602
380.691563	2706.542568
381.077049	2726.021586
381.462474	2743.786612
381.847835	2771.949018
382.233134	2794.805610
382.618371	2809.954277
383.003545	2854.903726
383.388657	2874.022302
383.773706	2906.205028
384.158693	2930.705035
384.543618	2964.402628
384.928480	3000.325891
385.313280	3048.259702
385.698017	3062.609346
386.082692	3117.338633
386.467305	3140.641367
386.851856	3183.317255
387.236344	3213.060062
387.620770	3253.217894
388.005133	3294.550314
388.389435	3329.974502
388.773674	3357.418544
389.157851	3407.729259
389.541965	3440.421142
389.926018	3427.029317
390.310008	3502.586131
390.693936	3530.287271
391.077802	3585.966815
391.461606	3589.732557
391.845348	3658.667815
392.229027	3669.103004
392.612645	3689.940613
392.996200	3778.604427
393.379694	3822.926252
393.763125	3893.721696
394.146494	3874.903068
394.529801	3941.403449
394.913047	3994.743898
395.296230	3971.549549
395.679351	4030.977192
396.062410	4060.152869
396.445408	4050.844379
396.828343	4085.295624
397.211217	4111.106332
397.594028	4039.078326
397.976778	4105.873614
398.359466	4136.753202
398.742092	4165.301256
399.124656	4092.995987
399.507158	4171.670754
399.889598	4199.729817
400.271977	4262.156945
400.654294	4235.317842
401.036549	4244.918720
401.418742	4217.709092
401.800874	4317.150893
402.182944	4343.435469
402.564952	4402.542997
402.946898	4390.209815
403.328783	4387.248137
403.710606	4302.380312
404.092367	4490.314527
404.474067	4458.633396
404.855705	4467.447853
405.237282	4395.825660
405.618797	4504.243235
406.000250	4540.733627
406.381642	4619.577273
406.762972	4584.039659
407.144240	4591.097275
407.525447	4589.337912
407.906593	4652.382582
408.287677	4692.933624
408.668700	4625.440135
409.049661	4676.393598
409.430560	4717.264753
409.811399	4643.593330
410.192176	4802.767763
410.572891	4742.946911
410.953545	4843.681768
411.334138	4721.516966
411.714669	4794.102020
412.095139	4688.383982
412.475547	4832.412268
412.855894	4814.133044
413.236180	4823.794416
413.616405	4774.363382
413.996568	4858.681721
414.376670	4803.728103
414.756711	4757.205815
415.136691	4788.793685
415.516609	4868.244790
415.896466	4905.236777
416.276262	4939.947642
416.655997	4917.302778
417.035670	5100.092496
417.415283	5192.035581
417.794834	5135.960306
418.174324	5093.047484
418.553753	5000.514584
418.933121	5186.165157
419.312428	5248.093212
419.691674	5187.193553
420.070859	5312.168798
420.449983	5227.646292
420.829045	5341.833467
421.208047	5250.187811
421.586988	5319.501156
421.965867	5333.702086
422.344686	5468.573116
422.723444	5319.417977
423.102141	5138.269154
423.480777	5438.963899
423.859352	5207.617787
424.237866	5466.291994
424.616319	5453.232885
424.994712	5562.235234
425.373044	5443.715187
425.751314	5585.487556
426.129524	5388.562443
426.507673	5581.910857
426.885762	5665.790616
427.263789	5596.270584
427.641756	5480.954190
428.019662	5605.072439
428.397508	5610.768943
428.775292	5555.260798
429.153016	5655.032794
429.530679	5583.758440
429.908282	5666.836656
430.285824	5539.567686
430.663305	5809.912164
431.040726	5547.772164
431.418086	5545.115476
431.795385	5651.493904
432.172624	5666.844217
432.549802	5659.295090
432.926920	5668.094424
433.303977	5677.344941
433.680974	5713.797524
434.057910	5730.153548
434.434786	5742.509416
434.811601	5707.914498
435.188355	5941.430826
435.565050	5821.068237
435.941683	5801.251461
436.318257	6016.987640
436.694770	5995.177088
437.071222	6032.244692
437.447614	5964.242048
437.823946	5878.308018
438.200218	6031.937182
438.576429	5895.440380
438.952580	5997.891749
439.328670	6041.563265
439.704700	5953.297703
440.080670	5932.913797
440.456580	6207.147525
440.832429	6088.032621
441.208218	5931.875319
441.583947	6087.152940
441.959616	6092.821718
442.335224	6019.331777
442.710773	6154.873280
443.086261	6184.779925
443.461689	5975.801413
443.837057	6125.347242
444.212365	6281.746520
444.587612	6174.264078
444.962800	6329.851730
445.337927	6312.621066
445.712995	5918.914513
446.088002	6497.346587
446.462949	6327.681513
446.837837	6259.817500
447.212664	6432.797133
447.587431	6575.986067
447.962139	7120.483614
448.336786	8048.648257
448.711374	7780.418544
449.085901	6855.883531
449.460369	6777.755729
449.834776	6710.456325
450.209124	7104.054494
450.583412	7251.818275
450.957640	7401.026346
451.331808	7164.167733
451.705917	6718.774229
452.079965	6638.382948
452.453954	6857.552153
452.827883	6735.352063
453.201752	6823.206772
453.575562	6624.431555
453.949311	6827.350600
454.323001	6720.878911
454.696632	6787.875845
455.070202	6929.328102
455.443713	7080.580361
455.817164	7185.063316
456.190556	7266.278825
456.563888	7342.611976
456.937160	7384.221660
457.310373	7041.287087
457.683526	7063.717701
458.056619	6959.915303
458.429653	6943.135822
458.802628	6880.325566
459.175542	6988.498645
459.548398	7344.338571
459.921194	7505.630289
460.293930	7503.432346
460.666607	8032.471195
461.039224	8343.172630
461.411782	8473.549471
461.784280	8488.070515
462.156719	8378.319554
462.529099	8257.115093
462.901419	7845.840118
463.273680	7740.429591
463.645882	7747.356136
464.018024	7618.952907
464.390106	7787.695449
464.762130	8172.000251
465.134094	8649.997417
465.505999	9669.190176
465.877845	10889.192256
466.249631	11535.402644
466.621358	11156.769141
466.993026	10521.724908
467.364634	10272.601168
467.736184	9905.925281
468.107674	9580.082740
468.479105	9608.489642
468.850477	9365.868990
469.221790	9146.230958
469.593043	8817.474631
469.964238	8676.314761
470.335373	8689.154580
470.706449	8742.341274
471.077467	8723.941062
471.448425	10031.243324
471.819324	11109.556214
472.190164	11131.815429
472.560945	9879.975942
472.931667	9097.152805
473.302330	8958.828584
473.672934	8602.613092
474.043479	8960.787073
474.413965	8905.324298
474.784393	8782.662943
475.154761	8947.632182
475.525070	9037.132827
475.895321	8854.426288
476.265513	9034.599647
476.635645	9201.653403
477.005719	9199.921767
477.375734	9314.131628
477.745691	9553.256240
478.115588	9690.292446
478.485427	9936.825033
478.855207	10467.073760
479.224928	11284.307812
479.594591	11914.411714
479.964194	11723.793084
480.333739	11662.374186
480.703226	11580.042062
481.072653	11673.381546
481.442022	11906.270251
481.811333	12098.779313
482.180584	11900.891339
482.549777	11613.490118
482.918912	11445.102976
483.287988	11454.305603
483.657005	11468.188940
484.025964	11147.652214
484.394864	11286.737649
484.763706	11248.636608
485.132489	11011.125165
485.501213	10972.373815
485.869879	11047.580269
486.238487	10888.305013
486.607036	10998.245017
486.975527	10783.247367
487.343959	10975.552263
487.712333	11020.070692
488.080648	10946.205186
488.448905	10995.114460
488.817104	10934.761767
489.185244	11199.966788
489.553326	11348.766526
489.921350	11893.823642
490.289315	12956.680354
490.657222	13296.370944
491.025070	13204.127911
491.392861	13074.660998
491.760593	12699.523535
492.128267	12351.131913
492.495883	12014.798731
492.863440	11680.817248
493.230939	11342.886020
493.598380	11288.451641
493.965763	11146.454940
494.333088	11041.223374
494.700354	10972.141922
495.067563	11024.514470
495.434713	10860.888698
495.801805	10985.256484
496.168839	10908.136913
496.535815	10845.208189
496.902733	10845.888745
497.269593	10783.149065
497.636395	10880.513910
498.003139	10861.753256
498.369825	10733.017310
498.736453	10890.192925
499.103023	10822.825466
499.469535	10843.892448
499.835989	10828.771507
500.202385	10798.486775
500.568723	10655.940588
500.935003	10866.000428
501.301226	10681.353045
501.667390	10934.552559
502.033497	11036.749350
502.399546	10888.957843
502.765537	10798.874944
503.131470	10878.129444
503.497345	11048.467512
503.863163	10662.103399
504.228923	10969.291150
504.594625	11034.664833
504.960269	10777.341655
505.325856	11004.664926
505.691385	10795.638523
506.056856	10945.539753
506.422270	10970.969854
506.787625	10858.816784
507.152924	10985.465692
507.518164	10964.963319
507.883347	10887.001875
508.248472	10797.768411
508.613540	11038.002077
508.978550	10923.993862
509.343503	10902.153063
509.708398	11018.966680
510.073236	11129.123453
510.438016	11134.154525
510.802738	11076.443395
511.167403	11137.763991
511.532010	11035.768846
511.896561	11266.862900
512.261053	11329.400934
512.625488	11199.195492
512.989866	11187.038749
513.354186	11179.166987
513.718449	11077.658313
514.082655	11265.088413
514.446803	11166.932107
514.810894	11278.344127
515.174927	11148.214303
515.538904	11178.488952
515.902822	11335.805720
516.266684	11207.982223
516.630488	11157.300982
516.994235	11210.820392
517.357925	11275.384970
517.721558	11367.988446
518.085133	11375.207378
518.448651	11388.508462
518.812112	11273.968406
519.175516	11280.282451
519.538863	11412.448902
519.902152	11323.056642
520.265385	11485.258287
520.628560	11391.941488
520.991678	11372.008766
521.354739	11441.249014
521.717743	11369.525998
522.080690	11353.966476
522.443580	11484.393729
522.806413	11441.138109
523.169189	11477.023562
523.531908	11527.770338
523.894569	11344.640342
524.257174	11350.959428
524.619722	11472.904940
524.982213	11424.207393
525.344647	11471.591719
525.707025	11419.163719
526.069345	11517.317505
526.431608	11434.143508
526.793815	11539.652337
527.155964	11336.022489
527.518057	11374.113448
527.880093	11325.947743
528.242072	11391.896118
528.603995	11303.340689
528.965860	11225.447300
529.327669	11279.354879
529.689421	11224.716333
530.051117	11194.038391
530.412755	11293.795264
530.774337	11193.743484
531.135862	11167.600060
531.497331	11195.825480
531.858743	11045.137830
532.220098	11208.481297
532.581396	11084.743655
532.942638	11062.648278
533.303824	11034.674915
533.664953	11047.464322
534.026025	10961.933586
534.387040	11053.443131
534.747999	11060.236086
535.108902	11120.130035
535.469748	10872.180883
535.830537	10982.335135
536.191270	10957.313368
536.551947	10978.120731
536.912567	10981.982255
537.273131	10908.222612
537.633638	10880.234126
537.994089	10868.422702
538.354483	10822.275980
538.714821	10971.027827
539.075103	10976.081584
539.435328	10937.423496
539.795497	10767.755901
540.155609	10924.646691
540.515665	11009.416214
540.875665	10748.286965
541.235609	10819.523510
541.595496	10811.283744
541.955328	10965.701848
542.315102	10850.695485
542.674821	10803.099431
543.034483	10800.999790
543.394090	10808.417848
543.753640	10735.878165
544.113134	10950.981679
544.472571	10808.294340
544.831953	10953.414036
545.191278	10761.320868
545.550548	10785.480598
545.909761	10930.212125
546.268918	10893.716692
546.628019	10978.526544
546.987064	10839.776346
547.346053	10770.029462
547.704986	10868.634431
548.063863	10854.123470
548.422684	10849.626760
548.781449	10767.264389
549.140158	10868.263906
549.498811	10739.447302
549.857408	10594.125960
550.215949	10830.326703
550.574434	10679.984372
550.932864	10778.009608
551.291237	10839.572179
551.649555	10789.649633
552.007817	10793.677514
552.366022	10759.085117
552.724173	10749.479198
553.082267	10739.399411
553.440305	10878.812521
553.798288	10676.198465
554.156215	10830.858545
554.514086	10806.741665
554.871902	10654.980249
555.229661	10694.044150
555.587365	10672.813330
555.945014	10561.207225
556.302606	10688.846720
556.660143	10580.638353
557.017625	10748.435679
557.375050	10636.688422
557.732421	10762.964285
558.089735	10675.507827
558.446994	10682.378920
558.804197	10719.063396
559.161345	10718.652542
559.518437	10567.463297
559.875474	10654.977728
560.232455	10684.907058
560.589381	10637.220264
560.946251	10633.935952
561.303065	10743.576007
561.659825	10680.816162
562.016528	10609.841757
562.373177	10490.018571
562.729770	10607.152302
563.086307	10521.465289
563.442789	10610.625657
563.799216	10486.323406
564.155587	10530.940138
564.511904	10494.248099
564.868164	10486.305762
565.224370	10499.425364
565.580520	10422.396534
565.936615	10426.832749
566.292654	10296.861721
566.648638	10426.263099
567.004567	10387.748683
567.360441	10367.009376
567.716260	10282.197004
568.072023	10380.028156
568.427732	10330.894550
568.783385	10238.376774
569.138982	10307.637187
569.494525	10320.159413
569.850013	10200.641217
570.205445	10278.214493
570.560823	10173.953349
570.916145	10085.130738
571.271412	10162.071349
571.626625	10106.059089
571.981782	10078.443648
572.336884	10053.641171
572.691931	10061.419671
573.046923	10005.901444
573.401860	9962.529877
573.756743	9896.705011
574.111570	9943.938102
574.466342	9924.912787
574.821059	9953.082755
575.175722	9844.803811
575.530330	9852.511735
575.884882	9847.452937
576.239380	9771.404611
576.593823	9750.546837
576.948211	9762.703580
577.302544	9649.804419
577.656823	9669.263272
578.011047	9664.690946
578.365216	9639.031473
578.719330	9563.187313
579.073389	9569.410618
579.427394	9520.299697
579.781344	9497.954782
580.135239	9456.503895
580.489080	9460.249472
580.842866	9358.645017
581.196597	9371.930978
581.550273	9396.458712
581.903895	9372.097336
582.257463	9444.516031
582.610975	9321.317793
582.964434	9347.030198
583.317837	9263.094987
583.671186	9253.675591
584.024481	9242.950536
584.377721	9164.679061
584.730906	9135.868866
585.084037	9166.559411
585.437113	9104.107077
585.790135	9124.919480
586.143103	9021.472483
586.496016	8996.831323
586.848874	9056.495899
587.201679	9044.775216
587.554428	8932.354965
587.907124	8973.742838
588.259765	8945.744270
588.612352	8943.437942
588.964884	8828.993667
589.317362	8842.990431
589.669786	8838.148402
590.022155	8889.487513
590.374470	8900.552846
590.726731	8839.670831
591.078937	8695.113224
591.431090	8806.190008
591.783188	8676.859206
592.135232	8673.085902
592.487222	8665.496445
592.839157	8719.308242
593.191038	8654.262234
593.542866	8598.645704
593.894639	8501.041404
594.246358	8555.115340
594.598022	8567.345180
594.949633	8468.722566
595.301190	8442.949667
595.652692	8471.021333
596.004141	8582.319927
596.355535	8360.983026
596.706876	8337.511414
597.058162	8268.298892
597.409395	8347.424843
597.760573	8412.259123
598.111698	8315.915111
598.462768	8303.350035
598.813785	8274.502032
599.164748	8237.288234
599.515657	8224.962613
599.866511	8138.400961
600.217312	8266.242102
600.568060	8127.396122
600.918753	8228.705670
601.269392	8197.979837
601.619978	8101.426618
601.970510	8173.714243
602.320988	8167.304416
602.671412	8227.858756
603.021783	8160.408118
603.372100	8140.024212
603.722363	8139.850292
604.072572	8113.865665
604.422728	8127.343190
604.772830	8056.330976
605.122878	8063.333139
605.472872	8052.116571
605.822813	8084.203516
606.172701	8027.356944
606.522534	8098.853109
606.872314	8104.143800
607.222041	8070.189108
607.571714	8126.823951
607.921333	8086.643434
608.270899	8094.409332
608.620411	8179.350253
608.969870	8088.203671
609.319276	8079.459790
609.668627	8100.506607
610.017926	8127.015515
610.367171	8179.146087
610.716362	8148.387486
611.065500	8140.306517
611.414585	8169.668717
611.763616	8159.588930
612.112594	8142.635530
612.461518	8162.018766
612.810389	8222.046306
613.159207	8160.027511
613.507971	8104.209335
613.856682	8225.194506
614.205340	8182.543824
614.553945	8259.524764
614.902496	8156.372674
615.250994	8212.057259
615.599439	8196.172584
615.947830	8205.382772
616.296169	8177.545520
616.644454	8194.609826
616.992686	8191.534722
617.340864	8246.919359
617.688990	8157.448960
618.037063	8246.891633
618.385082	8190.897016
618.733048	8282.572919
619.080961	8214.277888
619.428821	8235.617092
619.776628	8231.795897
620.124382	8186.523815
620.472083	8172.569901
620.819731	8198.670475
621.167326	8089.874814
621.514868	8105.053728
621.862357	7988.154411
622.209793	8003.993717
622.557176	7941.430477
622.904506	7905.792040
623.251783	7844.831887
623.599007	7797.999568
623.946179	7804.285887
624.293297	7754.433916
624.640363	7680.470107
624.987376	7659.834144
625.334336	7610.259437
625.681243	7551.719038
626.028097	7546.561937
626.374899	7522.765171
626.721647	7511.261258
627.068343	7447.215918
627.414987	7415.161742
627.761577	7370.663477
628.108115	7405.936430
628.454600	7306.708878
628.801032	7354.776280
629.147412	7316.418141
629.493739	7301.357694
629.840014	7241.672953
630.186236	7299.568084
630.532405	7178.950917
630.878521	7230.413536
631.224585	7185.015425
631.570597	7112.924404
631.916556	7140.587736
632.262462	7144.177037
632.608316	7101.778413
632.954117	7083.393325
633.299866	7062.742238
633.645562	7055.006587
633.991206	6977.929866
634.336797	6922.867863
634.682336	6880.318004
635.027823	6844.435071
635.373257	6840.508012
635.718639	6767.691065
636.063968	6781.171111
636.409245	6679.052457
636.754470	6673.789493
637.099642	6630.359952
637.444762	6573.674698
637.789829	6587.691626
638.134845	6523.719384
638.479808	6512.704463
638.824719	6514.317632
639.169577	6444.850532
639.514383	6466.668646
639.859137	6395.091823
640.203839	6402.754377
640.548489	6385.319546
