Dividing Wavelength (nm)	Counts (n)	Blue Motor Position (mm): 34.900000	Red Motor Position (mm): 0.000000	
326.493990	2131.954373
326.888308	2131.954373
327.282561	2131.954373
327.676750	2097.004053
328.070874	2095.761409
328.464933	2099.764085
328.858929	2107.345981
329.252859	2116.883844
329.646726	2125.932715
330.040528	2142.200518
330.434265	2156.537560
330.827938	2176.891218
331.221547	2192.672551
331.615091	2211.317258
332.008571	2230.703015
332.401986	2251.298649
332.795338	2269.093922
333.188625	2289.724844
333.581847	2306.360652
333.975006	2326.263128
334.368100	2342.906497
334.761129	2362.912316
335.154095	2378.872609
335.546996	2396.740979
335.939833	2425.780546
336.332606	2440.372165
336.725315	2454.353806
337.117960	2460.481328
337.510540	2470.641774
337.903056	2482.012096
338.295508	2486.730616
338.687896	2497.125475
339.080220	2504.828358
339.472480	2510.880264
339.864676	2516.584329
340.256807	2521.587674
340.648875	2519.863600
341.040879	2527.657224
341.432818	2526.893489
341.824694	2528.264683
342.216506	2531.125538
342.608253	2529.537574
342.999937	2533.177287
343.391557	2527.947090
343.783113	2527.216123
344.174605	2524.408200
344.566033	2525.335772
344.957397	2526.170083
345.348697	2522.666481
345.739934	2520.972654
346.131106	2516.707838
346.522215	2518.134484
346.913260	2516.513753
347.304241	2513.456293
347.695159	2512.511077
348.086012	2510.164420
348.476802	2508.115191
348.867528	2508.092506
349.258191	2504.243585
349.648789	2506.040756
350.039324	2503.363903
350.429796	2500.682009
350.820203	2500.256032
351.210548	2499.346104
351.600828	2498.342914
351.991045	2497.687564
352.381198	2499.744355
352.771288	2498.847029
353.161314	2497.498521
353.551276	2496.356699
353.941175	2497.284272
354.331010	2497.853922
354.720782	2497.468274
355.110490	2495.582882
355.500135	2497.506082
355.889717	2498.335352
356.279235	2499.577997
356.668689	2496.649086
357.058080	2497.753099
357.447408	2494.506596
357.836672	2495.242604
358.225873	2494.234374
358.615010	2492.996770
359.004084	2499.734272
359.393095	2498.660507
359.782043	2499.953563
360.170927	2499.656135
360.559748	2503.736949
360.948505	2501.097905
361.337199	2502.433810
361.725830	2500.429952
362.114398	2505.781137
362.502903	2502.680827
362.891344	2502.174191
363.279722	2504.719974
363.668037	2506.368431
364.056289	2505.171157
364.444478	2505.085457
364.832603	2504.578821
365.220665	2507.016219
365.608665	2506.650736
365.996601	2508.236178
366.384474	2508.523524
366.772284	2508.130314
367.160031	2506.822135
367.547715	2508.165602
367.935336	2509.446055
368.322893	2509.229286
368.710388	2511.459996
369.097820	2511.613752
369.485189	2509.002434
369.872495	2510.272805
370.259738	2511.381858
370.646918	2510.136693
371.034035	2509.924965
371.421090	2513.030316
371.808081	2513.300018
372.195010	2511.732219
372.581875	2512.730367
372.968678	2513.738598
373.355418	2514.809843
373.742096	2516.407889
374.128710	2514.010820
374.515262	2514.948475
374.901751	2514.870337
375.288177	2514.177178
375.674540	2513.496623
376.060841	2515.480317
376.447079	2515.616428
376.833254	2515.558454
377.219367	2512.503515
377.605417	2515.066942
377.991404	2514.003258
378.377329	2510.779441
378.763191	2513.030316
379.148991	2516.559123
379.534727	2517.658095
379.920402	2517.002745
380.306013	2517.307735
380.691563	2519.208250
381.077049	2520.367715
381.462474	2517.118692
381.847835	2517.610204
382.233134	2518.905781
382.618371	2518.968795
383.003545	2518.683970
383.388657	2521.207067
383.773706	2521.196985
384.158693	2523.440298
384.543618	2521.403672
384.928480	2523.432737
385.313280	2522.643796
385.698017	2521.073477
386.082692	2522.421985
386.467305	2521.915349
386.851856	2522.074146
387.236344	2521.766635
387.620770	2525.481966
388.005133	2525.565145
388.389435	2523.339475
388.773674	2525.998684
389.157851	2522.318642
389.541965	2526.633869
389.926018	2525.383663
390.310008	2527.937008
390.693936	2528.168901
391.077802	2526.142357
391.461606	2529.943387
391.845348	2527.369878
392.229027	2528.874662
392.612645	2526.951462
392.996200	2530.971782
393.379694	2529.628315
393.763125	2530.311391
394.146494	2531.579241
394.529801	2530.873480
394.913047	2532.542102
395.296230	2529.391381
395.679351	2530.200486
396.062410	2533.262987
396.445408	2533.207534
396.828343	2531.904396
397.211217	2528.090763
397.594028	2529.333407
397.976778	2528.771319
398.359466	2532.957997
398.742092	2530.450023
399.124656	2535.178625
399.507158	2534.377082
399.889598	2536.678368
400.271977	2535.818852
400.654294	2537.590817
401.036549	2537.724408
401.418742	2540.733977
401.800874	2541.701878
402.182944	2540.108874
402.564952	2542.276570
402.946898	2543.957795
403.328783	2544.746735
403.710606	2546.952240
404.092367	2555.010524
404.474067	2556.525391
404.855705	2560.190310
405.237282	2561.606874
405.618797	2570.988462
406.000250	2575.840572
406.381642	2585.292736
406.762972	2596.408480
407.144240	2608.396344
407.525447	2614.019751
407.906593	2629.271762
408.287677	2642.585449
408.668700	2651.777993
409.049661	2668.648214
409.430560	2690.047912
409.811399	2699.497555
410.192176	2729.212637
410.572891	2743.370717
410.953545	2770.875253
411.334138	2781.706172
411.714669	2809.329174
412.095139	2818.163796
412.475547	2858.674509
412.855894	2884.686863
413.236180	2909.007909
413.616405	2930.591609
413.996568	2972.334884
414.376670	2993.172493
414.756711	3012.268384
415.136691	3048.947819
415.516609	3100.178545
415.896466	3145.672438
416.276262	3188.086186
416.655997	3211.935885
417.035670	3304.889721
417.415283	3373.893035
417.794834	3397.344482
418.174324	3418.235024
418.553753	3429.280192
418.933121	3536.739948
419.312428	3605.513889
419.691674	3635.423055
420.070859	3730.237077
420.449983	3737.045155
420.829045	3835.612315
421.208047	3837.137264
421.586988	3926.728651
421.965867	3979.139007
422.344686	4098.410186
422.723444	4064.498344
423.102141	4007.394674
423.480777	4218.651788
423.859352	4138.724293
424.237866	4340.967824
424.616319	4380.855954
424.994712	4498.650075
425.373044	4466.101865
425.751314	4606.555973
426.129524	4524.627141
426.507673	4699.282957
426.885762	4798.906239
427.263789	4801.202485
427.641756	4747.773816
428.019662	4883.471595
428.397508	4922.810239
428.775292	4928.879788
429.153016	5044.435637
429.530679	5021.803377
429.908282	5124.221979
430.285824	5045.771543
430.663305	5312.625022
431.040726	5115.959528
431.418086	5148.545547
431.795385	5266.775728
432.172624	5307.835926
432.549802	5326.710006
432.926920	5364.795923
433.303977	5392.786930
433.680974	5453.028718
434.057910	5483.588193
434.434786	5512.799159
434.811601	5505.532336
435.188355	5743.547894
435.565050	5637.701307
435.941683	5633.307942
436.318257	5856.701633
436.694770	5852.724163
437.071222	5897.759311
437.447614	5842.460373
437.823946	5767.821050
438.200218	5933.400268
438.576429	5814.522299
438.952580	5917.313946
439.328670	5971.050126
439.704700	5885.602568
440.080670	5877.612339
440.456580	6149.229708
440.832429	6045.760026
441.208218	5892.186315
441.583947	6046.402773
441.959616	6057.442900
442.335224	5988.878166
442.710773	6131.492409
443.086261	6157.754300
443.461689	5954.099246
443.837057	6101.321103
444.212365	6262.622902
444.587612	6157.391337
444.962800	6315.428989
445.337927	6289.396471
445.712995	5903.342388
446.088002	6479.405121
446.462949	6309.568648
446.837837	6243.902578
447.212664	6418.051758
447.587431	6560.691206
447.962139	7103.484843
448.336786	8027.258642
448.711374	7767.369517
449.085901	6844.288877
449.460369	6767.401199
449.834776	6700.295879
450.209124	7096.303720
450.583412	7246.015907
450.957640	7389.716518
451.331808	7153.011659
451.705917	6706.211673
452.079965	6633.084696
452.453954	6839.199833
452.827883	6719.361523
453.201752	6816.819630
453.575562	6611.165759
453.949311	6815.735782
454.323001	6709.934566
454.696632	6784.347038
455.070202	6919.235712
455.443713	7076.849907
455.817164	7178.489651
456.190556	7256.377998
456.563888	7336.471851
456.937160	7374.434260
457.310373	7033.876591
457.683526	7060.249387
458.056619	6947.897192
458.429653	6933.938237
458.802628	6871.977415
459.175542	6982.993705
459.548398	7337.177612
459.921194	7496.258784
460.293930	7496.568815
460.666607	8026.358796
461.039224	8334.179211
461.411782	8456.031462
461.784280	8474.182136
462.156719	8373.217907
462.529099	8244.547496
462.901419	7835.256215
463.273680	7734.234013
463.645882	7747.028461
464.018024	7615.661033
464.390106	7774.538038
464.762130	8163.127820
465.134094	8625.469683
465.505999	9647.694696
465.877845	10868.775583
466.249631	11518.189625
466.621358	11132.453135
466.993026	10507.644966
467.364634	10255.708261
467.736184	9889.042457
468.107674	9556.873268
468.479105	9596.519422
468.850477	9355.716106
469.221790	9127.674471
469.593043	8801.748751
469.964238	8657.271803
470.335373	8671.818052
470.706449	8731.643945
471.077467	8708.749545
471.448425	10021.085399
471.819324	11087.808677
472.190164	11110.085536
472.560945	9860.638075
472.931667	9070.585924
473.302330	8941.998692
473.672934	8588.906195
474.043479	8950.422460
474.413965	8890.221001
474.784393	8768.580479
475.154761	8929.216847
475.525070	9014.117439
475.895321	8836.905758
476.265513	9023.317545
476.635645	9186.633286
477.005719	9185.327627
477.375734	9301.906830
477.745691	9544.282986
478.115588	9669.530454
478.485427	9912.067927
478.855207	10450.526172
479.224928	11263.538259
479.594591	11887.058413
479.964194	11706.476721
480.333739	11639.487348
480.703226	11555.063144
481.072653	11644.984726
481.442022	11879.108514
481.811333	12069.691855
482.180584	11882.380223
482.549777	11589.279976
482.918912	11415.236660
483.287988	11435.678539
483.657005	11443.726741
484.025964	11131.767538
484.394864	11261.526838
484.763706	11226.778165
485.132489	10992.374593
485.501213	10955.410333
485.869879	11030.533607
486.238487	10865.697959
486.607036	10977.157870
486.975527	10757.464386
487.343959	10949.723911
487.712333	11002.179637
488.080648	10935.162538
488.448905	10974.722993
488.817104	10916.099415
489.185244	11176.590958
489.553326	11338.462408
489.921350	11870.614169
490.289315	12924.916044
490.657222	13273.012758
491.025070	13178.097913
491.392861	13049.742575
491.760593	12672.190398
492.128267	12327.380517
492.495883	12003.546876
492.863440	11662.696820
493.230939	11330.986377
493.598380	11262.847621
493.965763	11126.343257
494.333088	11027.032526
494.700354	10945.489342
495.067563	11014.381750
495.434713	10840.295585
495.801805	10969.059257
496.168839	10890.039170
496.535815	10831.801240
496.902733	10830.155304
497.269593	10762.593760
497.636395	10863.530263
498.003139	10849.639363
498.369825	10717.661956
498.736453	10878.802438
499.103023	10803.490120
499.469535	10826.828142
499.835989	10818.651391
500.202385	10785.954467
500.568723	10637.343772
500.935003	10855.930723
501.301226	10660.754890
501.667390	10918.768706
502.033497	11021.676300
502.399546	10880.249249
502.765537	10791.575353
503.131470	10867.449760
503.497345	11026.644357
503.863163	10643.582200
504.228923	10949.963366
504.594625	11016.332677
504.960269	10762.848338
505.325856	10986.962915
505.691385	10777.195462
506.056856	10928.833370
506.422270	10956.922679
506.787625	10838.488331
507.152924	10958.215735
507.518164	10945.590165
507.883347	10865.148473
508.248472	10784.280804
508.613540	11017.640856
508.978550	10900.854966
509.343503	10878.142047
509.708398	10996.387352
510.073236	11105.815678
510.438016	11113.311874
510.802738	11060.790613
511.167403	11111.880186
511.532010	11010.207675
511.896561	11243.214847
512.261053	11313.927112
512.625488	11186.796774
512.989866	11163.189050
513.354186	11151.296968
513.718449	11057.685262
514.082655	11255.293452
514.446803	11144.937553
514.810894	11266.900708
515.174927	11131.187806
515.538904	11158.210911
515.902822	11308.313787
516.266684	11196.443022
516.630488	11134.862807
516.994235	11194.350943
517.357925	11256.336970
517.721558	11343.296874
518.085133	11359.305058
518.448651	11368.759742
518.812112	11255.452248
519.175516	11257.929975
519.538863	11384.188194
519.902152	11302.912191
520.265385	11465.002931
520.628560	11377.967410
520.991678	11352.807011
521.354739	11414.384705
521.717743	11349.832730
522.080690	11337.134064
522.443580	11457.955398
522.806413	11414.203224
523.169189	11443.204982
523.531908	11508.586227
523.894569	11324.689975
524.257174	11332.430667
524.619722	11450.025663
524.982213	11399.790565
525.344647	11452.488267
525.707025	11400.546738
526.069345	11492.799853
526.431608	11414.785477
526.793815	11525.738752
527.155964	11314.358131
527.518057	11363.312776
527.880093	11311.429220
528.242072	11378.164015
528.603995	11286.714963
528.965860	11209.839888
529.327669	11258.570202
529.689421	11211.072450
530.051117	11181.127996
530.412755	11279.939653
530.774337	11168.988898
531.135862	11145.224898
531.497331	11176.880824
531.858743	11028.186950
532.220098	11190.680983
532.581396	11071.258569
532.942638	11047.681092
533.303824	11007.256079
533.664953	11022.553461
534.026025	10942.641090
534.387040	11037.737416
534.747999	11039.642972
535.108902	11096.517270
535.469748	10862.620334
535.830537	10966.788217
536.191270	10942.923395
536.551947	10963.382918
536.912567	10960.340581
537.273131	10892.529500
537.633638	10864.165448
537.994089	10850.188849
538.354483	10802.986005
538.714821	10953.227513
539.075103	10958.556013
539.435328	10921.627040
539.795497	10746.512479
540.155609	10910.307129
540.515665	10996.314255
540.875665	10726.360467
541.235609	10799.641199
541.595496	10792.392020
541.955328	10942.452047
542.315102	10837.031437
542.674821	10780.426842
543.034483	10782.221492
543.394090	10785.062183
543.753640	10719.413757
544.113134	10936.258989
544.472571	10793.967381
544.831953	10932.387383
545.191278	10737.433361
545.550548	10766.001580
545.909761	10910.022304
546.268918	10884.473736
546.628019	10965.487599
546.987064	10830.760242
547.346053	10752.234189
547.704986	10851.802018
548.063863	10838.838691
548.422684	10828.022896
548.781449	10742.887889
549.140158	10851.418891
549.498811	10718.781092
549.857408	10581.727242
550.215949	10809.262242
550.574434	10663.560293
550.932864	10765.381518
551.291237	10818.069137
551.649555	10768.570048
552.007817	10775.824268
552.366022	10742.025852
552.724173	10731.769625
553.082267	10721.498274
553.440305	10856.772596
553.798288	10665.092803
554.156215	10811.419855
554.514086	10791.640888
554.871902	10641.099432
555.229661	10676.372385
555.587365	10648.144444
555.945014	10548.909331
556.302606	10667.832670
556.660143	10565.189737
557.017625	10727.940868
557.375050	10620.677717
557.732421	10747.230843
558.089735	10666.569861
558.446994	10661.894191
558.804197	10703.887003
559.161345	10706.553773
559.518437	10552.322192
559.875474	10637.462239
560.232455	10675.885914
560.589381	10621.141503
560.946251	10615.704619
561.303065	10730.716023
561.659825	10658.277163
562.016528	10590.473644
562.373177	10469.014604
562.729770	10588.709240
563.086307	10498.172638
563.442789	10595.809705
563.799216	10467.807247
564.155587	10522.778510
564.511904	10470.232043
564.868164	10469.871600
565.224370	10482.030863
565.580520	10400.752340
565.936615	10411.691643
566.292654	10280.772878
566.648638	10407.129399
567.004567	10367.579027
567.360441	10352.107726
567.716260	10262.536504
568.072023	10354.587973
568.427732	10307.271703
568.783385	10215.706705
569.138982	10290.136821
569.494525	10307.261621
569.850013	10184.249905
570.205445	10263.017934
570.560823	10163.319035
570.916145	10081.851468
571.271412	10144.903700
571.626625	10090.146687
571.981782	10063.040402
572.336884	10035.513182
572.691931	10048.539523
573.046923	9986.248506
573.401860	9945.347104
573.756743	9881.886539
574.111570	9927.090565
574.466342	9910.399305
574.821059	9942.120766
575.175722	9831.553138
575.530330	9838.393984
575.884882	9832.649589
576.239380	9756.134956
576.593823	9740.746834
576.948211	9756.472713
577.302544	9631.951172
577.656823	9651.581425
578.011047	9649.406168
578.365216	9625.460687
578.719330	9551.058297
579.073389	9566.285102
579.427394	9503.437037
579.781344	9480.779571
580.135239	9435.429351
580.489080	9442.098798
580.842866	9343.329991
581.196597	9349.354170
581.550273	9388.420592
581.903895	9357.062094
582.257463	9424.903422
582.610975	9294.876941
582.964434	9329.595368
583.317837	9243.497501
583.671186	9231.237415
584.024481	9229.241118
584.377721	9146.972008
584.730906	9115.883212
585.084037	9158.969954
585.437113	9093.175334
585.790135	9110.441286
586.143103	9004.365327
586.496016	8988.273964
586.848874	9043.157006
587.201679	9028.139409
587.554428	8918.582533
587.907124	8965.089698
588.259765	8934.631046
588.612352	8936.430738
588.964884	8817.862799
589.317362	8829.308739
589.669786	8829.747320
590.022155	8875.594093
590.374470	8888.461638
590.726731	8831.751178
591.078937	8683.952109
591.431090	8795.114593
591.783188	8670.083895
592.135232	8660.109972
592.487222	8658.148963
592.839157	8714.493940
593.191038	8644.799988
593.542866	8593.541536
593.894639	8490.591092
594.246358	8542.633443
594.598022	8557.504847
594.949633	8455.159342
595.301190	8434.573790
595.652692	8461.657389
596.004141	8566.836023
596.355535	8343.086930
596.706876	8331.393974
597.058162	8260.401925
597.409395	8335.429418
597.760573	8400.735045
598.111698	8308.809605
598.462768	8298.991958
598.813785	8259.489476
599.164748	8227.273982
599.515657	8219.830719
599.866511	8133.037173
600.217312	8259.842357
600.568060	8115.372970
600.918753	8217.489103
601.269392	8187.554731
601.619978	8101.850075
601.970510	8167.140579
602.320988	8159.593971
602.671412	8219.563538
603.021783	8151.008886
603.372100	8124.273127
603.722363	8124.595761
604.072572	8097.418900
604.422728	8115.516643
604.772830	8041.222638
605.122878	8054.347282
605.472872	8044.920324
605.822813	8076.087258
606.172701	8021.015173
606.522534	8099.584076
606.872314	8095.105011
607.222041	8068.916217
607.571714	8119.418496
607.921333	8079.570695
608.270899	8089.126202
608.620411	8174.102412
608.969870	8080.488185
609.319276	8072.623985
609.668627	8088.347344
610.017926	8124.436964
610.367171	8170.497987
610.716362	8144.054615
611.065500	8140.145200
611.414585	8163.122779
611.763616	8153.907550
612.112594	8136.392061
612.461518	8155.188003
612.810389	8209.927372
613.159207	8150.940831
613.507971	8101.991227
613.856682	8217.816778
614.205340	8175.624841
614.553945	8252.915811
614.902496	8149.751118
615.250994	8207.792443
615.599439	8186.402827
615.947830	8201.554015
616.296169	8165.930702
616.644454	8183.395779
616.992686	8181.402003
617.340864	8239.241682
617.688990	8143.978997
618.037063	8235.596927
618.385082	8179.814039
618.733048	8268.621526
619.080961	8204.281280
619.428821	8228.350269
619.776628	8231.511072
620.124382	8182.054832
620.472083	8164.231833
620.819731	8187.469032
621.167326	8087.187879
621.514868	8096.077953
621.862357	7975.304510
622.209793	7993.114907
622.557176	7927.718538
622.904506	7899.175525
623.251783	7833.317892
623.599007	7789.878269
623.946179	7792.721480
624.293297	7751.079028
624.640363	7668.414188
624.987376	7652.267372
625.334336	7596.741583
625.681243	7548.863224
626.028097	7529.419494
626.374899	7512.508943
626.721647	7513.950713
627.068343	7433.781243
627.414987	7408.754435
627.761577	7368.654577
628.108115	7397.641212
628.454600	7294.461395
628.801032	7350.297215
629.147412	7300.581356
629.493739	7296.210676
629.840014	7231.847744
630.186236	7289.044675
630.532405	7173.196439
630.878521	7224.470015
631.224585	7178.920670
631.570597	7105.692869
631.916556	7136.486757
632.262462	7133.648587
632.608316	7097.574091
632.954117	7075.871923
633.299866	7055.916516
633.645562	7051.273613
633.991206	6977.778631
634.336797	6914.544918
634.682336	6871.760645
635.027823	6838.882240
635.373257	6833.137845
635.718639	6761.024139
636.063968	6775.729185
636.409245	6675.528691
636.754470	6674.061715
637.099642	6625.588500
637.444762	6573.546148
637.789829	6583.683909
638.134845	6521.448344
638.479808	6505.969481
638.824719	6514.289905
639.169577	6439.174192
639.514383	6459.396781
639.859137	6388.082098
640.203839	6394.761627
640.548489	6383.194700
