Dividing Wavelength (nm)	Counts (n)	Blue Motor Position (mm): 36.300000	Red Motor Position (mm): 0.000000	
326.493990	2129.189300
326.888308	2129.189300
327.282561	2129.189300
327.676750	2096.789804
328.070874	2095.970617
328.464933	2096.920874
328.858929	2106.398244
329.252859	2116.009203
329.646726	2125.274844
330.040528	2139.485857
330.434265	2154.765594
330.827938	2174.234530
331.221547	2191.092149
331.615091	2209.217618
332.008571	2226.339897
332.401986	2250.179513
332.795338	2268.587286
333.188625	2290.065122
333.581847	2308.094809
333.975006	2325.698518
334.368100	2343.158555
334.761129	2360.091790
335.154095	2376.888915
335.546996	2397.902965
335.939833	2423.953127
336.332606	2438.219593
336.725315	2450.101592
337.117960	2460.937553
337.510540	2466.949128
337.903056	2480.353557
338.295508	2485.462766
338.687896	2497.173366
339.080220	2501.657473
339.472480	2511.825480
339.864676	2512.637106
340.256807	2519.218332
340.648875	2523.919208
341.040879	2525.648324
341.432818	2525.804600
341.824694	2527.427851
342.216506	2529.018335
342.608253	2526.323838
342.999937	2527.614374
343.391557	2526.548170
343.783113	2526.901051
344.174605	2526.946421
344.566033	2526.666637
344.957397	2522.059022
345.348697	2522.535411
345.739934	2519.974505
346.131106	2518.958713
346.522215	2517.204391
346.913260	2516.796058
347.304241	2514.761952
347.695159	2510.666015
348.086012	2513.849503
348.476802	2508.309275
348.867528	2504.472957
349.258191	2505.150992
349.648789	2505.216527
350.039324	2503.066475
350.429796	2502.373317
350.820203	2500.213182
351.210548	2496.908706
351.600828	2498.678151
351.991045	2497.811072
352.381198	2494.773777
352.771288	2498.085815
353.161314	2496.255876
353.551276	2494.088180
353.941175	2498.048007
354.331010	2493.195896
354.720782	2497.982472
355.110490	2494.824189
355.500135	2493.760505
355.889717	2494.884683
356.279235	2494.120948
356.668689	2500.097236
357.058080	2493.773108
357.447408	2495.338386
357.836672	2491.572644
358.225873	2496.165136
358.615010	2492.548108
359.004084	2500.543378
359.393095	2497.329642
359.782043	2500.661845
360.170927	2499.862822
360.559748	2500.041783
360.948505	2501.281907
361.337199	2501.639829
361.725830	2501.614623
362.114398	2506.381034
362.502903	2504.437669
362.891344	2501.879283
363.279722	2503.368944
363.668037	2506.176867
364.056289	2502.786691
364.444478	2506.444048
364.832603	2506.212155
365.220665	2505.927330
365.608665	2504.714933
365.996601	2505.123266
366.384474	2506.794408
366.772284	2506.141579
367.160031	2508.198370
367.547715	2508.909173
367.935336	2508.463030
368.322893	2508.107629
368.710388	2507.021260
369.097820	2514.023423
369.485189	2510.524862
369.872495	2510.325737
370.259738	2509.345232
370.646918	2512.286746
371.034035	2511.422188
371.421090	2514.711541
371.808081	2511.807836
372.195010	2512.813546
372.581875	2512.264060
372.968678	2513.670542
373.355418	2512.027126
373.742096	2511.956550
374.128710	2511.704492
374.515262	2514.285563
374.901751	2513.519308
375.288177	2513.368073
375.674540	2512.218690
376.060841	2514.101561
376.447079	2514.041067
376.833254	2515.152642
377.219367	2510.456807
377.605417	2513.766324
377.991404	2510.986128
378.377329	2516.642302
378.763191	2511.598628
379.148991	2519.203209
379.534727	2515.941582
379.920402	2518.290760
380.306013	2518.459638
380.691563	2516.438136
381.077049	2517.705986
381.462474	2519.142715
381.847835	2521.111285
382.233134	2519.649351
382.618371	2519.382170
383.003545	2518.590708
383.388657	2520.501306
383.773706	2521.998528
384.158693	2519.785462
384.543618	2522.207736
384.928480	2523.145391
385.313280	2523.989784
385.698017	2522.104393
386.082692	2524.244363
386.467305	2523.800741
386.851856	2525.638242
387.236344	2525.779394
387.620770	2525.895340
388.005133	2525.144208
388.389435	2525.575227
388.773674	2526.633869
389.157851	2525.439116
389.541965	2526.717048
389.926018	2527.808458
390.310008	2526.757378
390.693936	2530.450023
391.077802	2529.643438
391.461606	2525.955834
391.845348	2530.311391
392.229027	2527.195958
392.612645	2528.123530
392.996200	2529.356093
393.379694	2528.282327
393.763125	2531.314581
394.146494	2530.838192
394.529801	2532.403470
394.913047	2530.258459
395.296230	2535.045035
395.679351	2531.175949
396.062410	2533.590662
396.445408	2533.804911
396.828343	2535.390354
397.211217	2532.763913
397.594028	2535.032432
397.976778	2537.870601
398.359466	2536.154088
398.742092	2540.083668
399.124656	2545.306303
399.507158	2547.597508
399.889598	2553.480534
400.271977	2559.713921
400.654294	2563.726679
401.036549	2568.533420
401.418742	2576.909297
401.800874	2589.718869
402.182944	2599.929726
402.564952	2612.073865
402.946898	2622.340175
403.328783	2632.992133
403.710606	2648.271871
404.092367	2677.218176
404.474067	2687.408868
404.855705	2706.514842
405.237282	2716.178733
405.618797	2746.672673
406.000250	2773.700819
406.381642	2804.282979
406.762972	2824.061946
407.144240	2848.579598
407.525447	2876.870553
407.906593	2912.859351
408.287677	2947.570216
408.668700	2960.150415
409.049661	3005.427538
409.430560	3043.531100
409.811399	3064.199830
410.192176	3136.242960
410.572891	3148.634116
410.953545	3220.483161
411.334138	3220.999880
411.714669	3278.789147
412.095139	3280.906431
412.475547	3368.463712
412.855894	3402.609968
413.236180	3446.962039
413.616405	3470.887355
413.996568	3545.493912
414.376670	3564.304977
414.756711	3583.660487
415.136691	3641.686689
415.516609	3716.487329
415.896466	3775.975465
416.276262	3840.393850
416.655997	3869.572048
417.035670	4016.987990
417.415283	4115.308134
417.794834	4127.583343
418.174324	4142.532885
418.553753	4123.787354
418.933121	4286.377169
419.312428	4377.246487
419.691674	4380.314030
420.070859	4512.288917
420.449983	4495.096062
420.829045	4617.777582
421.208047	4583.406995
421.586988	4681.437272
421.965867	4728.897215
422.344686	4875.902302
422.723444	4792.902225
423.102141	4671.977547
423.480777	4952.290907
423.859352	4790.396772
424.237866	5038.446747
424.616319	5062.402310
424.994712	5183.717677
425.373044	5104.611891
425.751314	5259.153503
426.129524	5106.204895
426.507673	5304.135719
426.885762	5402.609618
427.263789	5362.958422
427.641756	5273.573724
428.019662	5399.874792
428.397508	5428.216159
428.775292	5394.631992
429.153016	5505.988560
429.530679	5446.097132
429.908282	5539.915525
430.285824	5426.098874
430.663305	5704.113468
431.040726	5455.163647
431.418086	5464.247806
431.795385	5575.914405
432.172624	5598.468527
432.549802	5598.435760
432.926920	5618.000478
433.303977	5628.896932
433.680974	5671.807233
434.057910	5693.322878
434.434786	5704.030289
434.811601	5672.916287
435.188355	5909.013687
435.565050	5788.068844
435.941683	5775.662564
436.318257	5990.435883
436.694770	5974.730168
437.071222	6008.410117
437.447614	5945.650272
437.823946	5856.928485
438.200218	6011.870869
438.576429	5881.461260
438.952580	5978.440457
439.328670	6027.027098
439.704700	5932.931441
440.080670	5921.402322
440.456580	6194.499270
440.832429	6075.016362
441.208218	5920.353762
441.583947	6077.302525
441.959616	6079.276137
442.335224	6009.980436
442.710773	6145.917670
443.086261	6175.983112
443.461689	5969.300845
443.837057	6119.302899
444.212365	6273.910046
444.587612	6165.263098
444.962800	6319.789587
445.337927	6295.929806
445.712995	5907.985291
446.088002	6486.503065
446.462949	6317.334545
446.837837	6253.596717
447.212664	6422.913951
447.587431	6568.268060
447.962139	7107.669001
448.336786	8032.319960
448.711374	7773.408819
449.085901	6842.837025
449.460369	6766.745849
449.834776	6707.013217
450.209124	7092.611075
450.583412	7241.491471
450.957640	7390.684419
451.331808	7153.863614
451.705917	6707.373659
452.079965	6630.279294
452.453954	6841.110430
452.827883	6720.631894
453.201752	6812.121275
453.575562	6614.538291
453.949311	6815.365257
454.323001	6701.672114
454.696632	6777.654906
455.070202	6922.346103
455.443713	7071.181130
455.817164	7171.737025
456.190556	7254.306084
456.563888	7331.912127
456.937160	7374.988787
457.310373	7033.236365
457.683526	7053.529529
458.056619	6946.311749
458.429653	6934.076868
458.802628	6870.497836
459.175542	6979.961451
459.548398	7328.963052
459.921194	7494.096129
460.293930	7493.642425
460.666607	8026.736882
461.039224	8329.937080
461.411782	8456.119682
461.784280	8477.584915
462.156719	8366.561063
462.529099	8244.668484
462.901419	7830.862850
463.273680	7727.909885
463.645882	7735.839620
464.018024	7603.184177
464.390106	7776.025178
464.762130	8159.735124
465.134094	8632.786918
465.505999	9648.833997
465.877845	10869.529236
466.249631	11518.141734
466.621358	11125.564398
466.993026	10507.193782
467.364634	10249.820193
467.736184	9882.060459
468.107674	9553.130211
468.479105	9586.104399
468.850477	9353.833235
469.221790	9119.359088
469.593043	8787.900702
469.964238	8655.028489
470.335373	8669.615068
470.706449	8723.293274
471.077467	8712.522849
471.448425	10013.115335
471.819324	11090.558626
472.190164	11103.504309
472.560945	9859.133291
472.931667	9074.505421
473.302330	8939.435266
473.672934	8585.916790
474.043479	8943.770658
474.413965	8883.541472
474.784393	8759.498841
475.154761	8920.616638
475.525070	9012.708437
475.895321	8830.793359
476.265513	9009.182150
476.635645	9182.116412
477.005719	9179.300927
477.375734	9288.693966
477.745691	9531.987612
478.115588	9670.894086
478.485427	9910.593389
478.855207	10446.616757
479.224928	11259.563309
479.594591	11893.062428
479.964194	11689.609020
480.333739	11629.389917
480.703226	11544.494365
481.072653	11637.624642
481.442022	11880.162115
481.811333	12063.483674
482.180584	11868.310362
482.549777	11579.588358
482.918912	11405.333313
483.287988	11427.408526
483.657005	11439.817326
484.025964	11123.071548
484.394864	11260.805953
484.763706	11232.739329
485.132489	10982.337656
485.501213	10950.883377
485.869879	11017.471978
486.238487	10864.402382
486.607036	10969.492796
486.975527	10756.262071
487.343959	10946.931112
487.712333	10991.832669
488.080648	10923.111660
488.448905	10967.703186
488.817104	10906.342262
489.185244	11174.816472
489.553326	11323.787609
489.921350	11868.577543
490.289315	12928.696909
490.657222	13271.613838
491.025070	13179.262420
491.392861	13047.738716
491.760593	12669.538752
492.128267	12325.543016
492.495883	11994.082109
492.863440	11659.072231
493.230939	11323.838020
493.598380	11253.087947
493.965763	11124.440221
494.333088	11023.831393
494.700354	10946.122007
495.067563	11005.602581
495.434713	10838.712662
495.801805	10964.602877
496.168839	10890.800384
496.535815	10822.059211
496.902733	10821.585342
497.269593	10763.281877
497.636395	10851.373520
498.003139	10846.990237
498.369825	10708.058557
498.736453	10869.509071
499.103023	10800.087342
499.469535	10823.866464
499.835989	10816.692902
500.202385	10785.150403
500.568723	10631.707762
500.935003	10853.853768
501.301226	10658.191464
501.667390	10918.499004
502.033497	11019.727894
502.399546	10869.052847
502.765537	10778.148240
503.131470	10846.271873
503.497345	11025.817608
503.863163	10642.934412
504.228923	10948.135948
504.594625	11009.670792
504.960269	10761.094017
505.325856	10986.431073
505.691385	10774.931984
506.056856	10930.186919
506.422270	10949.610485
506.787625	10841.870945
507.152924	10959.458379
507.518164	10941.499269
507.883347	10863.237876
508.248472	10785.069744
508.613540	11011.921667
508.978550	10895.115612
509.343503	10873.957889
509.708398	10989.816208
510.073236	11101.603794
510.438016	11112.855650
510.802738	11055.583101
511.167403	11115.532502
511.532010	11006.648620
511.896561	11237.639331
512.261053	11310.683129
512.625488	11183.295692
512.989866	11157.923565
513.354186	11151.095322
513.718449	11050.604961
514.082655	11244.457491
514.446803	11144.236832
514.810894	11261.108423
515.174927	11133.204267
515.538904	11158.679738
515.902822	11307.653396
516.266684	11191.512773
516.630488	11134.358691
516.994235	11180.394508
517.357925	11241.765515
517.721558	11335.331851
518.085133	11350.911537
518.448651	11365.384690
518.812112	11247.696433
519.175516	11258.928123
519.538863	11378.065712
519.902152	11301.183075
520.265385	11456.866509
520.628560	11371.537418
520.991678	11345.323418
521.354739	11412.753892
521.717743	11343.647234
522.080690	11327.243320
522.443580	11464.271964
522.806413	11413.187431
523.169189	11441.417893
523.531908	11500.449804
523.894569	11319.855509
524.257174	11325.912455
524.619722	11446.718666
524.982213	11395.190512
525.344647	11445.518871
525.707025	11401.887685
526.069345	11487.241981
526.431608	11406.533108
526.793815	11521.516786
527.155964	11308.162552
527.518057	11362.975018
527.880093	11307.797069
528.242072	11374.604960
528.603995	11278.543253
528.965860	11201.504340
529.327669	11254.766651
529.689421	11205.701101
530.051117	11172.681543
530.412755	11280.849581
530.774337	11163.153762
531.135862	11146.880917
531.497331	11175.161791
531.858743	11023.213852
532.220098	11188.566219
532.581396	11064.851262
532.942638	11042.466018
533.303824	11013.580207
533.664953	11023.072700
534.026025	10936.082549
534.387040	11037.543332
534.747999	11042.639938
535.108902	11099.690676
535.469748	10853.853768
535.830537	10962.866199
536.191270	10945.494383
536.551947	10959.198760
536.912567	10965.462393
537.273131	10886.144879
537.633638	10865.145953
537.994089	10847.723725
538.354483	10802.980964
538.714821	10945.156626
539.075103	10955.259098
539.435328	10919.592935
539.795497	10751.472974
540.155609	10905.502910
540.515665	10987.093985
540.875665	10726.667977
541.235609	10798.965685
541.595496	10791.555189
541.955328	10950.117121
542.315102	10830.004069
542.674821	10779.350555
543.034483	10779.597572
543.394090	10781.006574
543.753640	10713.447551
544.113134	10934.905439
544.472571	10789.279108
544.831953	10933.007445
545.191278	10730.589995
545.550548	10761.341033
545.909761	10906.266644
546.268918	10880.100535
546.628019	10961.361415
546.987064	10826.495426
547.346053	10747.578683
547.704986	10849.558705
548.063863	10836.746612
548.422684	10825.288070
548.781449	10741.965358
549.140158	10843.978147
549.498811	10726.791485
549.857408	10580.550133
550.215949	10808.017077
550.574434	10662.549541
550.932864	10755.435321
551.291237	10819.422687
551.649555	10768.232290
552.007817	10779.353076
552.366022	10738.938145
552.724173	10732.639224
553.082267	10714.314629
553.440305	10855.499705
553.798288	10657.092492
554.156215	10809.836933
554.514086	10784.270721
554.871902	10639.975254
555.229661	10673.629997
555.587365	10651.368262
555.945014	10540.601509
556.302606	10671.668988
556.660143	10560.067925
557.017625	10714.828827
557.375050	10618.436924
557.732421	10746.724208
558.089735	10659.184571
558.446994	10652.338684
558.804197	10697.446929
559.161345	10698.465242
559.518437	10547.379340
559.875474	10633.711621
560.232455	10671.510192
560.589381	10614.272931
560.946251	10610.834864
561.303065	10718.329908
561.659825	10659.877730
562.016528	10585.866029
562.373177	10461.697369
562.729770	10587.030536
563.086307	10499.916877
563.442789	10592.928686
563.799216	10466.536877
564.155587	10515.615030
564.511904	10467.356064
564.868164	10466.247010
565.224370	10477.077929
565.580520	10399.973481
565.936615	10404.089583
566.292654	10276.175346
566.648638	10406.675695
567.004567	10363.084838
567.360441	10355.616369
567.716260	10255.582232
568.072023	10353.602428
568.427732	10305.109048
568.783385	10212.712260
569.138982	10279.797415
569.494525	10295.626638
569.850013	10182.087250
570.205445	10261.281257
570.560823	10156.778138
570.916145	10070.478625
571.271412	10143.411518
571.626625	10087.258105
571.981782	10057.631244
572.336884	10034.434375
572.691931	10034.005877
573.046923	9982.712136
573.401860	9942.619840
573.756743	9875.958142
574.111570	9926.921687
574.466342	9913.234954
574.821059	9934.758160
575.175722	9829.214043
575.530330	9836.743006
575.884882	9826.907715
576.239380	9755.151931
576.593823	9736.741637
576.948211	9754.680583
577.302544	9629.334813
577.656823	9651.253750
578.011047	9648.677721
578.365216	9622.761149
578.719330	9549.475375
579.073389	9560.666736
579.427394	9502.673303
579.781344	9484.787289
580.135239	9430.373074
580.489080	9440.934291
580.842866	9342.440228
581.196597	9349.460034
581.550273	9387.336744
581.903895	9355.872382
582.257463	9422.168596
582.610975	9301.589237
582.964434	9323.634203
583.317837	9251.356660
583.671186	9225.210715
584.024481	9224.653668
584.377721	9146.034353
584.730906	9121.310014
585.084037	9147.859251
585.437113	9084.733922
585.790135	9109.891801
586.143103	9005.839865
586.496016	8977.410277
586.848874	9031.345583
587.201679	9026.571610
587.554428	8914.010206
587.907124	8955.861865
588.259765	8927.626363
588.612352	8932.314636
588.964884	8806.863002
589.317362	8822.447729
589.669786	8824.779262
590.022155	8873.474288
590.374470	8890.117658
590.726731	8829.207916
591.078937	8676.559257
591.431090	8788.545969
591.783188	8667.031476
592.135232	8652.245772
592.487222	8658.940424
592.839157	8709.089823
593.191038	8634.513513
593.542866	8587.958458
593.894639	8483.147828
594.246358	8537.509111
594.598022	8554.424702
594.949633	8454.314949
595.301190	8427.410311
595.652692	8454.410731
596.004141	8563.314777
596.355535	8345.710851
596.706876	8325.417686
597.058162	8255.252386
597.409395	8338.585180
597.760573	8397.168429
598.111698	8304.562433
598.462768	8298.230743
598.813785	8251.816840
599.164748	8227.024445
599.515657	8210.565078
599.866511	8125.669527
600.217312	8253.036799
600.568060	8115.990511
600.918753	8217.940286
601.269392	8179.622476
601.619978	8097.759178
601.970510	8160.592120
602.320988	8157.262438
602.671412	8209.708082
603.021783	8147.820357
603.372100	8125.445195
603.722363	8127.277655
604.072572	8098.182635
604.422728	8109.250488
604.772830	8041.565436
605.122878	8049.051550
605.472872	8039.112915
605.822813	8071.136845
606.172701	8016.362188
606.522534	8091.450174
606.872314	8088.183507
607.222041	8063.572593
607.571714	8113.769883
607.921333	8075.620951
608.270899	8079.066580
608.620411	8167.553953
608.969870	8075.696568
609.319276	8066.569559
609.668627	8082.169410
610.017926	8129.205896
610.367171	8165.151843
610.716362	8144.631827
611.065500	8131.141699
611.414585	8157.229670
611.763616	8145.191395
612.112594	8132.230588
612.461518	8145.720716
612.810389	8205.864202
613.159207	8144.533524
613.507971	8098.280938
613.856682	8215.394503
614.205340	8173.983945
614.553945	8250.576716
614.902496	8141.897001
615.250994	8201.400260
615.599439	8188.053805
615.947830	8195.708798
616.296169	8167.793408
616.644454	8182.412754
616.992686	8173.131990
617.340864	8235.780929
617.688990	8136.066906
618.037063	8229.650886
618.385082	8178.861261
618.733048	8264.749920
619.080961	8207.348822
619.428821	8226.416986
619.776628	8222.363898
620.124382	8180.744132
620.472083	8157.532139
620.819731	8185.238321
621.167326	8082.827281
621.514868	8090.691481
621.862357	7974.974315
622.209793	7996.210175
622.557176	7929.087212
622.904506	7898.063951
623.251783	7836.677821
623.599007	7786.069677
623.946179	7795.168960
624.293297	7750.960561
624.640363	7666.236409
624.987376	7648.647823
625.334336	7594.289061
625.681243	7543.050774
626.028097	7531.060389
626.374899	7509.511977
626.721647	7509.368304
627.068343	7434.817201
627.414987	7406.856441
627.761577	7357.662341
628.108115	7398.394864
628.454600	7292.495345
628.801032	7347.554828
629.147412	7302.716285
629.493739	7291.179604
629.840014	7226.791467
630.186236	7282.042513
630.532405	7166.562281
630.878521	7224.220478
631.224585	7182.328490
631.570597	7097.248936
631.916556	7131.339739
632.262462	7130.354193
632.608316	7088.956238
632.954117	7071.823877
633.299866	7058.714356
633.645562	7050.645989
633.991206	6964.127187
634.336797	6913.047695
634.682336	6867.692434
635.027823	6834.178843
635.373257	6829.717422
635.718639	6757.691937
636.063968	6778.736233
636.409245	6665.590056
636.754470	6665.476630
637.099642	6620.310412
637.444762	6566.387710
637.789829	6577.022024
638.134845	6519.537747
638.479808	6504.192474
638.824719	6508.079204
639.169577	6440.338699
639.514383	6455.850329
639.859137	6382.756119
640.203839	6392.798098
640.548489	6381.500872
