Dividing Wavelength (nm)	Counts (n)	Blue Motor Position (mm): 22.000000	Red Motor Position (mm): 0.000000	
326.493990	2131.437655
326.888308	2131.437655
327.282561	2131.437655
327.676750	2101.594024
328.070874	2098.942377
328.464933	2103.113932
328.858929	2108.467637
329.252859	2119.409462
329.646726	2132.700464
330.040528	2142.868471
330.434265	2161.472849
330.827938	2176.193019
331.221547	2195.051975
331.615091	2214.868751
332.008571	2235.076216
332.401986	2254.729154
332.795338	2276.673297
333.188625	2292.767181
333.581847	2310.809470
333.975006	2328.080463
334.368100	2346.989832
334.761129	2367.847606
335.154095	2382.734133
335.546996	2403.763306
335.939833	2424.963879
336.332606	2439.489963
336.725315	2451.626541
337.117960	2461.449230
337.510540	2469.507514
337.903056	2481.931438
338.295508	2487.542242
338.687896	2495.219919
339.080220	2504.173008
339.472480	2515.613907
339.864676	2512.780779
340.256807	2520.869310
340.648875	2522.585823
341.040879	2525.764270
341.432818	2523.949455
341.824694	2530.634025
342.216506	2529.698891
342.608253	2527.319466
342.999937	2528.153777
343.391557	2528.121010
343.783113	2526.870804
344.174605	2523.904085
344.566033	2524.745957
344.957397	2522.898374
345.348697	2521.043230
345.739934	2520.644979
346.131106	2518.573064
346.522215	2519.092303
346.913260	2514.204905
347.304241	2514.414113
347.695159	2509.914883
348.086012	2509.519152
348.476802	2506.897752
348.867528	2505.957577
349.258191	2503.477329
349.648789	2503.540344
350.039324	2501.788543
350.429796	2502.290138
350.820203	2499.431803
351.210548	2498.826865
351.600828	2496.268479
351.991045	2497.311998
352.381198	2497.639673
352.771288	2495.335866
353.161314	2496.765033
353.551276	2496.102121
353.941175	2495.086329
354.331010	2495.101452
354.720782	2492.175062
355.110490	2496.354179
355.500135	2496.956597
355.889717	2495.098932
356.279235	2495.111534
356.668689	2498.352996
357.058080	2495.713952
357.447408	2492.175062
357.836672	2492.843015
358.225873	2496.470125
358.615010	2494.080618
359.004084	2499.588079
359.393095	2497.594303
359.782043	2502.612771
360.170927	2498.111021
360.559748	2500.248470
360.948505	2501.513800
361.337199	2500.886176
361.725830	2502.234685
362.114398	2501.395333
362.502903	2501.952380
362.891344	2505.171157
363.279722	2502.574963
363.668037	2503.857936
364.056289	2503.920951
364.444478	2505.897083
364.832603	2504.896414
365.220665	2507.686693
365.608665	2507.298524
365.996601	2505.239213
366.384474	2508.362207
366.772284	2505.216527
367.160031	2506.965808
367.547715	2507.848010
367.935336	2507.681652
368.322893	2507.815242
368.710388	2507.454800
369.097820	2513.718433
369.485189	2508.881446
369.872495	2508.974708
370.259738	2509.899759
370.646918	2508.606703
371.034035	2508.304234
371.421090	2510.880264
371.808081	2509.718278
372.195010	2512.047291
372.581875	2509.748525
372.968678	2516.206243
373.355418	2513.247085
373.742096	2512.299348
374.128710	2511.533093
374.515262	2512.662312
374.901751	2513.494102
375.288177	2509.985459
375.674540	2511.091992
376.060841	2514.033505
376.447079	2513.473937
376.833254	2515.689524
377.219367	2509.844307
377.605417	2513.607528
377.991404	2511.727178
378.377329	2511.439832
378.763191	2511.480161
379.148991	2514.696417
379.534727	2515.843280
379.920402	2515.336644
380.306013	2518.532735
380.691563	2516.884278
381.077049	2515.699607
381.462474	2519.175482
381.847835	2515.797909
382.233134	2515.198012
382.618371	2512.823628
383.003545	2517.627848
383.388657	2519.412417
383.773706	2517.723630
384.158693	2517.771521
384.543618	2520.133302
384.928480	2518.988960
385.313280	2518.056346
385.698017	2519.422499
386.082692	2521.481810
386.467305	2519.850997
386.851856	2517.101048
387.236344	2519.850997
387.620770	2519.740092
388.005133	2524.098169
388.389435	2518.555420
388.773674	2522.290915
389.157851	2519.576254
389.541965	2521.902747
389.926018	2522.348889
390.310008	2520.675226
390.693936	2521.824609
391.077802	2522.885772
391.461606	2521.065915
391.845348	2519.664474
392.229027	2522.850483
392.612645	2522.364012
392.996200	2521.862417
393.379694	2523.198323
393.763125	2524.093128
394.146494	2524.564476
394.529801	2524.819054
394.913047	2523.778056
395.296230	2521.748991
395.679351	2523.765453
396.062410	2525.068591
396.445408	2523.868797
396.828343	2523.268899
397.211217	2521.590195
397.594028	2522.300998
397.976778	2522.290915
398.359466	2524.355268
398.742092	2519.150277
399.124656	2524.965248
399.507158	2525.983561
399.889598	2526.754857
400.271977	2524.556914
400.654294	2529.005732
401.036549	2527.697553
401.418742	2528.829292
401.800874	2529.308202
402.182944	2526.671678
402.564952	2525.728982
402.946898	2527.415248
403.328783	2523.347037
403.710606	2528.988088
404.092367	2526.943900
404.474067	2526.475073
404.855705	2527.218643
405.237282	2527.460619
405.618797	2528.592358
406.000250	2527.800897
406.381642	2529.661082
406.762972	2528.539426
407.144240	2528.355423
407.525447	2529.144364
407.906593	2530.331556
408.287677	2528.589837
408.668700	2530.573531
409.049661	2530.752492
409.430560	2530.951618
409.811399	2532.305167
410.192176	2530.850795
410.572891	2530.737369
410.953545	2529.469518
411.334138	2531.135620
411.714669	2530.434899
412.095139	2533.429345
412.475547	2532.915147
412.855894	2529.401463
413.236180	2533.532688
413.616405	2530.646628
413.996568	2529.681247
414.376670	2531.327184
414.756711	2533.464633
415.136691	2531.428007
415.516609	2534.051927
415.896466	2535.410518
416.276262	2532.678213
416.655997	2531.312060
417.035670	2526.991791
417.415283	2532.395908
417.794834	2531.392719
418.174324	2534.901362
418.553753	2536.322967
418.933121	2534.775333
419.312428	2535.884387
419.691674	2533.993954
420.070859	2535.952442
420.449983	2533.141999
420.829045	2534.041845
421.208047	2536.325488
421.586988	2537.079140
421.965867	2535.216434
422.344686	2536.580066
422.723444	2538.052083
423.102141	2536.244829
423.480777	2536.822041
423.859352	2537.295910
424.237866	2535.776002
424.616319	2539.637526
424.994712	2537.195087
425.373044	2535.871784
425.751314	2536.254912
426.129524	2538.523431
426.507673	2536.567463
426.885762	2535.191228
427.263789	2538.009233
427.641756	2540.323123
428.019662	2536.784233
428.397508	2538.510828
428.775292	2538.810777
429.153016	2538.026877
429.530679	2539.093081
429.908282	2540.222300
430.285824	2537.575694
430.663305	2537.704243
431.040726	2537.369007
431.418086	2541.810263
431.795385	2542.536189
432.172624	2540.499563
432.549802	2538.689789
432.926920	2540.915458
433.303977	2537.444624
433.680974	2540.872608
434.057910	2538.286497
434.434786	2541.676672
434.811601	2541.412012
435.188355	2542.410160
435.565050	2539.637526
435.941683	2539.773637
436.318257	2538.377237
436.694770	2533.499921
437.071222	2538.311702
437.447614	2538.838503
437.823946	2537.482433
438.200218	2542.526107
438.576429	2543.284801
438.952580	2541.142310
439.328670	2542.062321
439.704700	2540.267670
440.080670	2542.543751
440.456580	2544.870243
440.832429	2544.280428
441.208218	2542.221117
441.583947	2544.976108
441.959616	2541.613658
442.335224	2543.148689
442.710773	2543.783875
443.086261	2544.915614
443.461689	2543.872095
443.837057	2543.778834
444.212365	2542.410160
444.587612	2542.793288
444.962800	2546.496016
445.337927	2543.781354
445.712995	2543.012578
446.088002	2544.038453
446.462949	2545.520552
446.837837	2545.429812
447.212664	2544.487116
447.587431	2545.535676
447.962139	2544.892929
448.336786	2547.733619
448.711374	2545.908721
449.085901	2546.256561
449.460369	2546.407795
449.834776	2543.761190
450.209124	2547.189174
450.583412	2548.278063
450.957640	2546.904349
451.331808	2547.400903
451.705917	2546.949719
452.079965	2549.992056
452.453954	2548.812426
452.827883	2547.093392
453.201752	2546.695141
453.575562	2547.794113
453.949311	2550.851572
454.323001	2547.957950
454.696632	2549.639175
455.070202	2548.174720
455.443713	2546.367466
455.817164	2545.051725
456.190556	2544.882846
456.563888	2544.824873
456.937160	2546.896787
457.310373	2550.050029
457.683526	2550.481048
458.056619	2549.009031
458.429653	2551.156562
458.802628	2550.460883
459.175542	2550.090358
459.548398	2550.959957
459.921194	2549.379556
460.293930	2554.808878
460.666607	2551.378373
461.039224	2553.931717
461.411782	2551.816953
461.784280	2555.915412
462.156719	2555.469269
462.529099	2553.735113
462.901419	2552.835267
463.273680	2555.612942
463.645882	2553.543549
464.018024	2555.179403
464.390106	2555.592778
464.762130	2555.335679
465.134094	2555.123950
465.505999	2558.733417
465.877845	2561.037224
466.249631	2564.339180
466.621358	2563.540157
466.993026	2563.305743
467.364634	2567.205076
467.736184	2563.830023
468.107674	2562.688202
468.479105	2563.835064
468.850477	2563.698953
469.221790	2566.698440
469.593043	2568.334294
469.964238	2569.259346
470.335373	2569.904613
470.706449	2572.992320
471.077467	2573.282187
471.448425	2583.528332
471.819324	2592.650300
472.190164	2591.470670
472.560945	2588.173755
472.931667	2588.498909
473.302330	2589.050916
473.672934	2591.768098
474.043479	2596.955445
474.413965	2603.115735
474.784393	2600.678337
475.154761	2610.238885
475.525070	2616.431943
475.895321	2616.729371
476.265513	2621.992336
476.635645	2636.278966
477.005719	2644.604431
477.375734	2649.925369
477.745691	2661.842657
478.115588	2671.912362
478.485427	2686.294773
478.855207	2705.178936
479.224928	2740.819893
479.594591	2763.754623
479.964194	2771.326436
480.333739	2776.975049
480.703226	2792.292595
481.072653	2811.454021
481.442022	2839.071982
481.811333	2861.127030
482.180584	2872.265459
482.549777	2879.365925
482.918912	2891.144581
483.287988	2912.198960
483.657005	2934.811055
484.025964	2942.854216
484.394864	2967.200469
484.763706	2988.128819
485.132489	2995.602329
485.501213	3019.978829
485.869879	3042.134700
486.238487	3065.999522
486.607036	3088.167996
486.975527	3108.519134
487.343959	3145.680000
487.712333	3177.840041
488.080648	3199.275027
488.448905	3239.344638
488.817104	3263.884975
489.185244	3320.280363
489.553326	3374.739948
489.921350	3468.533136
490.289315	3625.532311
490.657222	3702.092315
491.025070	3742.126638
491.392861	3770.145371
491.760593	3771.345166
492.128267	3767.473559
492.495883	3772.852471
492.863440	3774.379940
493.230939	3778.957308
493.598380	3822.840552
493.965763	3854.209132
494.333088	3877.597565
494.700354	3919.222372
495.067563	3970.243891
495.434713	3996.147860
495.801805	4069.587389
496.168839	4111.549953
496.535815	4159.945030
496.902733	4205.635528
497.269593	4256.722581
497.636395	4322.436542
498.003139	4390.242582
498.369825	4408.499121
498.736453	4514.408722
499.103023	4546.772930
499.469535	4618.521152
499.835989	4671.155839
500.202385	4729.066094
500.568723	4753.263632
500.935003	4866.402248
501.301226	4903.731992
501.667390	5017.500752
502.033497	5117.116473
502.399546	5137.732272
502.765537	5175.490514
503.131470	5267.630203
503.497345	5391.637547
503.863163	5340.268189
504.228923	5506.676677
504.594625	5591.612558
504.960269	5576.345424
505.325856	5723.284976
505.691385	5726.564247
506.056856	5847.289799
506.422270	5936.147697
506.787625	5953.259894
507.152924	6077.098359
507.518164	6132.747656
507.883347	6178.697773
508.248472	6215.107507
508.613540	6382.909874
508.978550	6413.857518
509.343503	6470.114274
509.708398	6602.787361
510.073236	6725.179015
510.438016	6802.260778
510.802738	6852.899168
511.167403	6945.116995
511.532010	6978.149156
511.896561	7149.669374
512.261053	7267.413084
512.625488	7272.295442
512.989866	7338.367325
513.354186	7403.841831
513.718449	7425.947290
514.082655	7594.510872
514.446803	7617.178420
514.810894	7759.701922
515.174927	7756.185717
515.538904	7831.306471
515.902822	8000.122111
516.266684	7997.767892
516.630488	8028.718056
516.994235	8122.629711
517.357925	8245.316272
517.721558	8364.012760
518.085133	8448.938558
518.448651	8512.512549
518.812112	8503.337649
519.175516	8581.654495
519.538863	8729.682936
519.902152	8726.562462
520.265385	8921.229138
520.628560	8906.060307
520.991678	8959.559552
521.354739	9063.344307
521.717743	9071.684896
522.080690	9111.878015
522.443580	9285.492833
522.806413	9306.433786
523.169189	9378.723932
523.531908	9481.689500
523.894569	9399.717818
524.257174	9463.667375
524.619722	9603.458571
524.982213	9608.950908
525.344647	9709.663079
525.707025	9714.064007
526.069345	9843.533440
526.431608	9828.586419
526.793815	9959.931162
527.155964	9835.712090
527.518057	9915.952136
527.880093	9926.533518
528.242072	10019.799905
528.603995	9988.499381
528.965860	9966.799734
529.327669	10050.417353
529.689421	10037.569973
530.051117	10052.025481
530.412755	10181.215131
530.774337	10119.876891
531.135862	10144.306323
531.497331	10187.425832
531.858743	10103.357030
532.220098	10275.283062
532.581396	10195.421102
532.942638	10207.257732
533.303824	10202.274551
533.664953	10244.216951
534.026025	10196.547800
534.387040	10307.896806
534.747999	10336.371764
535.108902	10419.528117
535.469748	10215.184946
535.830537	10338.715900
536.191270	10346.822076
536.551947	10387.181553
536.912567	10407.389019
537.273131	10358.721719
537.633638	10358.255413
537.994089	10370.364264
538.354483	10338.599954
538.714821	10492.032512
539.075103	10520.840186
539.435328	10500.668009
539.795497	10353.612510
540.155609	10517.003868
540.515665	10613.005081
540.875665	10380.292817
541.235609	10460.447163
541.595496	10463.920518
541.955328	10633.318411
542.315102	10527.935610
542.674821	10492.438325
543.034483	10510.195790
543.394090	10518.649805
543.753640	10465.722730
544.113134	10690.348984
544.472571	10551.934023
544.831953	10699.972547
545.191278	10528.669098
545.550548	10557.275125
545.909761	10704.953207
546.268918	10683.049393
546.628019	10768.796900
546.987064	10650.060082
547.346053	10577.233053
547.704986	10683.056955
548.063863	10669.954996
548.422684	10674.345841
548.781449	10593.387431
549.140158	10703.841632
549.498811	10585.104815
549.857408	10445.482498
550.215949	10680.196100
550.574434	10533.344768
550.932864	10633.641044
551.291237	10696.254696
551.649555	10650.523869
552.007817	10661.422843
552.366022	10627.944541
552.724173	10623.609148
553.082267	10616.624630
553.440305	10751.704868
553.798288	10554.341174
554.156215	10708.928157
554.514086	10692.257061
554.871902	10547.207941
555.229661	10580.109032
555.587365	10554.936030
555.945014	10459.741401
556.302606	10585.520710
556.660143	10481.826696
557.017625	10638.694801
557.375050	10540.450274
557.732421	10673.178814
558.089735	10586.733108
558.446994	10587.796791
558.804197	10625.514704
559.161345	10625.050918
559.518437	10478.081119
559.875474	10568.103524
560.232455	10599.910684
560.589381	10553.272449
560.946251	10545.773733
561.303065	10647.763837
561.659825	10588.996586
562.016528	10530.320076
562.373177	10401.465663
562.729770	10518.291883
563.086307	10435.841291
563.442789	10524.245485
563.799216	10405.901878
564.155587	10456.288211
564.511904	10409.471015
564.868164	10400.321321
565.224370	10416.861347
565.580520	10346.358290
565.936615	10341.959883
566.292654	10225.723478
566.648638	10349.972797
567.004567	10300.942535
567.360441	10299.505806
567.716260	10205.268996
568.072023	10305.282968
568.427732	10252.096274
568.783385	10161.476493
569.138982	10228.670033
569.494525	10248.532179
569.850013	10127.161359
570.205445	10196.613335
570.560823	10104.087998
570.916145	10024.765442
571.271412	10095.659188
571.626625	10041.255056
571.981782	10013.793370
572.336884	9988.327982
572.691931	9991.420730
573.046923	9942.229150
573.401860	9898.277851
573.756743	9830.849897
574.111570	9882.413339
574.466342	9859.644968
574.821059	9890.776614
575.175722	9788.287435
575.530330	9793.754567
575.884882	9786.931365
576.239380	9705.700732
576.593823	9696.946769
576.948211	9707.313902
577.302544	9586.328730
577.656823	9606.770609
578.011047	9601.971430
578.365216	9575.933871
578.719330	9502.423765
579.073389	9509.622533
579.427394	9461.373650
579.781344	9436.256101
580.135239	9393.812106
580.489080	9394.969051
580.842866	9294.017424
581.196597	9298.262076
581.550273	9343.647584
581.903895	9315.212956
582.257463	9376.437769
582.610975	9247.429601
582.964434	9281.956464
583.317837	9208.148930
583.671186	9183.487606
584.024481	9182.847379
584.377721	9104.437272
584.730906	9079.453314
585.084037	9112.064538
585.437113	9049.224035
585.790135	9072.274711
586.143103	8963.564748
586.496016	8942.880894
586.848874	8999.750151
587.201679	8987.374118
587.554428	8877.973518
587.907124	8917.488602
588.259765	8891.166217
588.612352	8895.985561
588.964884	8768.083926
589.317362	8783.139332
589.669786	8780.724619
590.022155	8830.047268
590.374470	8845.523611
590.726731	8792.271382
591.078937	8639.347980
591.431090	8747.974763
591.783188	8625.010938
592.135232	8615.417623
592.487222	8612.886963
592.839157	8665.607350
593.191038	8600.599151
593.542866	8548.839104
593.894639	8446.823794
594.246358	8503.730859
594.598022	8517.863734
594.949633	8412.531345
595.301190	8391.552583
595.652692	8416.251717
596.004141	8525.506123
596.355535	8308.829769
596.706876	8291.100031
597.058162	8223.034372
597.409395	8294.674209
597.760573	8358.356585
598.111698	8269.841485
598.462768	8254.211388
598.813785	8219.866007
599.164748	8191.585134
599.515657	8181.177672
599.866511	8093.678364
600.217312	8212.866365
600.568060	8077.077845
600.918753	8177.232969
601.269392	8147.326323
601.619978	8056.714104
601.970510	8126.791183
602.320988	8119.279864
602.671412	8174.243564
603.021783	8115.584698
603.372100	8089.204340
603.722363	8086.194771
604.072572	8063.761637
604.422728	8073.448214
604.772830	8003.555136
605.122878	8008.230807
605.472872	8010.753904
605.822813	8034.263325
606.172701	7983.113257
606.522534	8052.855100
606.872314	8056.986326
607.222041	8025.695884
607.571714	8077.740756
607.921333	8040.113584
608.270899	8041.583080
608.620411	8135.053634
608.969870	8034.127214
609.319276	8031.614199
609.668627	8048.171868
610.017926	8083.376766
610.367171	8128.169939
610.716362	8112.038247
611.065500	8104.199252
611.414585	8127.363354
611.763616	8111.801312
612.112594	8094.396729
612.461518	8113.207794
612.810389	8171.783481
613.159207	8111.798792
613.507971	8061.573776
613.856682	8177.837907
614.205340	8129.457954
614.553945	8205.796146
614.902496	8109.961291
615.250994	8165.356010
615.599439	8145.687948
615.947830	8157.088518
616.296169	8129.405022
616.644454	8147.076786
616.992686	8142.892629
617.340864	8199.489663
617.688990	8103.198583
618.037063	8189.956841
618.385082	8140.258626
618.733048	8228.299857
619.080961	8167.611927
619.428821	8187.272427
619.776628	8185.601284
620.124382	8144.886405
620.472083	8120.772046
620.819731	8152.196078
621.167326	8040.521917
621.514868	8052.890388
621.862357	7942.297555
622.209793	7957.799103
622.557176	7893.915081
622.904506	7860.419135
623.251783	7797.427397
623.599007	7753.811334
623.946179	7759.018846
624.293297	7720.176755
624.640363	7633.184084
624.987376	7619.686394
625.334336	7562.174391
625.681243	7511.077255
626.028097	7497.241809
626.374899	7480.739592
626.721647	7471.511759
627.068343	7400.746562
627.414987	7374.915690
627.761577	7331.637384
628.108115	7371.984259
628.454600	7259.374964
628.801032	7314.671381
629.147412	7276.167048
629.493739	7261.157012
629.840014	7198.936571
630.186236	7251.828357
630.532405	7137.401727
630.878521	7195.458175
631.224585	7143.940103
631.570597	7068.683238
631.916556	7106.812005
632.262462	7100.492919
632.608316	7065.318268
632.954117	7039.389093
633.299866	7024.661362
633.645562	7019.484097
633.991206	6947.375432
634.336797	6881.379167
634.682336	6842.889957
635.027823	6806.671787
635.373257	6801.456714
635.718639	6729.559778
636.063968	6748.605257
636.409245	6639.776828
636.754470	6642.935110
637.099642	6592.510969
637.444762	6541.789400
637.789829	6552.380864
638.134845	6496.434138
638.479808	6476.657692
638.824719	6482.921326
639.169577	6410.732002
639.514383	6430.513490
639.859137	6359.554209
640.203839	6367.131063
640.548489	6351.402663
640.893086	6330.985990
641.237632	6303.887267
641.582125	6326.368293
641.926566	6294.815711
642.270955	6306.148225
642.615292	6302.485827
