Dividing Wavelength (nm)	Counts (n)	Blue Motor Position (mm): 12.000000	Red Motor Position (mm): 0.000000	
326.493990	2138.815383
326.888308	2138.815383
327.282561	2138.815383
327.676750	2107.540065
328.070874	2104.785074
328.464933	2109.727926
328.858929	2116.989708
329.252859	2123.097066
329.646726	2134.336318
330.040528	2147.934831
330.434265	2166.337563
330.827938	2183.384225
331.221547	2200.814014
331.615091	2219.173896
332.008571	2237.218707
332.401986	2258.484814
332.795338	2275.218924
333.188625	2297.394960
333.581847	2314.393731
333.975006	2333.789570
334.368100	2353.631552
334.761129	2370.196783
335.154095	2384.279247
335.546996	2409.691703
335.939833	2425.427665
336.332606	2437.796136
336.725315	2449.834411
337.117960	2462.036524
337.510540	2467.491053
337.903056	2481.076962
338.295508	2487.217087
338.687896	2492.535505
339.080220	2504.714933
339.472480	2506.741476
339.864676	2515.245903
340.256807	2521.998528
340.648875	2523.999867
341.040879	2525.386184
341.432818	2525.671009
341.824694	2527.937008
342.216506	2527.914323
342.608253	2526.880886
342.999937	2530.233253
343.391557	2527.838705
343.783113	2527.440454
344.174605	2525.978519
344.566033	2525.325690
344.957397	2521.665812
345.348697	2523.646986
345.739934	2518.994001
346.131106	2516.733043
346.522215	2517.136336
346.913260	2514.255316
347.304241	2513.181550
347.695159	2513.796571
348.086012	2507.616117
348.476802	2506.718791
348.867528	2501.725528
349.258191	2505.319871
349.648789	2503.071516
350.039324	2500.606392
350.429796	2501.294510
350.820203	2501.181084
351.210548	2497.967348
351.600828	2495.217399
351.991045	2496.056751
352.381198	2495.713952
352.771288	2496.202944
353.161314	2493.392501
353.551276	2494.425938
353.941175	2494.683036
354.331010	2493.863849
354.720782	2493.826040
355.110490	2493.952069
355.500135	2494.367964
355.889717	2493.866369
356.279235	2492.787562
356.668689	2498.355517
357.058080	2495.245125
357.447408	2493.503406
357.836672	2495.096411
358.225873	2492.384270
358.615010	2490.244300
359.004084	2495.424086
359.393095	2498.184118
359.782043	2497.990033
360.170927	2498.443737
360.559748	2498.136227
360.948505	2498.960455
361.337199	2499.421721
361.725830	2499.729231
362.114398	2500.566063
362.502903	2501.130672
362.891344	2503.696619
363.279722	2502.080930
363.668037	2503.316012
364.056289	2502.040600
364.444478	2503.280724
364.832603	2503.825169
365.220665	2504.752741
365.608665	2506.207114
365.996601	2504.777947
366.384474	2505.929851
366.772284	2505.980262
367.160031	2507.608555
367.547715	2508.790705
367.935336	2506.318019
368.322893	2510.033350
368.710388	2507.106960
369.097820	2510.965963
369.485189	2507.497649
369.872495	2510.474451
370.259738	2509.067969
370.646918	2509.982938
371.034035	2508.221055
371.421090	2510.570233
371.808081	2509.861951
372.195010	2511.666684
372.581875	2509.866992
372.968678	2512.153155
373.355418	2513.403361
373.742096	2509.390603
374.128710	2511.349091
374.515262	2510.333298
374.901751	2511.651560
375.288177	2513.882271
375.674540	2510.804646
376.060841	2512.997548
376.447079	2512.042250
376.833254	2514.290604
377.219367	2507.853051
377.605417	2511.427229
377.991404	2508.271467
378.377329	2511.376817
378.763191	2510.471930
379.148991	2513.640295
379.534727	2512.662312
379.920402	2516.181037
380.306013	2514.164575
380.691563	2517.353105
381.077049	2513.118536
381.462474	2515.714730
381.847835	2516.854031
382.233134	2515.845800
382.618371	2516.541479
383.003545	2517.038033
383.388657	2518.124402
383.773706	2514.640964
384.158693	2520.352592
384.543618	2512.899246
384.928480	2516.957375
385.313280	2517.317817
385.698017	2518.941069
386.082692	2518.147087
386.467305	2516.967457
386.851856	2519.019207
387.236344	2516.990142
387.620770	2520.707993
388.005133	2518.121881
388.389435	2520.297139
388.773674	2518.429392
389.157851	2518.794875
389.541965	2519.445184
389.926018	2519.172962
390.310008	2521.373425
390.693936	2520.597088
391.077802	2519.316635
391.461606	2519.984588
391.845348	2521.086080
392.229027	2517.562313
392.612645	2521.990967
392.996200	2523.246214
393.379694	2519.117509
393.763125	2522.613549
394.146494	2518.497447
394.529801	2523.823426
394.913047	2521.139012
395.296230	2523.639424
395.679351	2524.017511
396.062410	2523.606657
396.445408	2521.932993
396.828343	2523.788138
397.211217	2518.066428
397.594028	2521.713703
397.976778	2520.002232
398.359466	2522.716893
398.742092	2517.761439
399.124656	2525.615556
399.507158	2523.684794
399.889598	2524.632531
400.271977	2526.555732
400.654294	2524.680422
401.036549	2524.856863
401.418742	2525.358458
401.800874	2525.282840
402.182944	2526.684281
402.564952	2524.267048
402.946898	2526.280989
403.328783	2529.683767
403.710606	2524.443488
404.092367	2525.560104
404.474067	2524.723272
404.855705	2526.845598
405.237282	2526.780063
405.618797	2527.755526
406.000250	2528.983047
406.381642	2527.674868
406.762972	2527.788294
407.144240	2527.977337
407.525447	2529.512368
407.906593	2528.748633
408.287677	2529.061185
408.668700	2527.712676
409.049661	2527.359796
409.430560	2530.762574
409.811399	2532.118645
410.192176	2529.698891
410.572891	2530.470187
410.953545	2529.653521
411.334138	2530.079498
411.714669	2527.579086
412.095139	2529.701412
412.475547	2529.766947
412.855894	2531.743079
413.236180	2530.197965
413.616405	2532.826927
413.996568	2531.947246
414.376670	2532.267359
414.756711	2529.466998
415.136691	2530.601257
415.516609	2531.503624
415.896466	2532.108563
416.276262	2531.453212
416.655997	2527.059847
417.035670	2526.646472
417.415283	2532.436237
417.794834	2526.936339
418.174324	2529.333407
418.553753	2532.852133
418.933121	2532.363141
419.312428	2532.968079
419.691674	2531.226361
420.070859	2531.191073
420.449983	2532.632842
420.829045	2530.795342
421.208047	2533.386495
421.586988	2531.145702
421.965867	2533.976310
422.344686	2529.124199
422.723444	2531.175949
423.102141	2534.316588
423.480777	2533.356248
423.859352	2532.148892
424.237866	2535.292051
424.616319	2533.814993
424.994712	2535.803728
425.373044	2533.162164
425.751314	2531.359951
426.129524	2533.620909
426.507673	2533.789787
426.885762	2533.938501
427.263789	2535.783564
427.641756	2534.732483
428.019662	2535.707946
428.397508	2533.661238
428.775292	2535.884387
429.153016	2533.570497
429.530679	2533.257946
429.908282	2535.690302
430.285824	2536.819521
430.663305	2536.736342
431.040726	2537.555529
431.418086	2534.614016
431.795385	2537.119469
432.172624	2537.187525
432.549802	2538.485622
432.926920	2535.755837
433.303977	2536.794315
433.680974	2535.350024
434.057910	2534.964376
434.434786	2539.889583
434.811601	2538.667104
435.188355	2537.079140
435.565050	2538.064686
435.941683	2536.547298
436.318257	2534.349355
436.694770	2533.890610
437.071222	2534.220806
437.447614	2535.266845
437.823946	2535.034952
438.200218	2536.489325
438.576429	2539.554347
438.952580	2539.819007
439.328670	2537.469830
439.704700	2538.394881
440.080670	2535.977648
440.456580	2538.462937
440.832429	2540.817156
441.208218	2537.890766
441.583947	2539.677855
441.959616	2539.945036
442.335224	2541.895963
442.710773	2541.633823
443.086261	2538.084850
443.461689	2539.231713
443.837057	2538.790612
444.212365	2538.672145
444.587612	2539.251878
444.962800	2538.478060
445.337927	2539.125849
445.712995	2538.236085
446.088002	2542.994934
446.462949	2540.560057
446.837837	2539.750952
447.212664	2540.454193
447.587431	2542.755479
447.962139	2538.266332
448.336786	2542.999975
448.711374	2543.675490
449.085901	2540.794471
449.460369	2539.226672
449.834776	2542.198432
450.209124	2541.976621
450.583412	2540.723894
450.957640	2540.318082
451.331808	2539.264480
451.705917	2541.580891
452.079965	2543.519214
452.453954	2542.881508
452.827883	2540.408822
453.201752	2541.800181
453.575562	2540.313040
453.949311	2542.906714
454.323001	2543.766231
454.696632	2542.306817
455.070202	2547.927703
455.443713	2541.704399
455.817164	2538.374717
456.190556	2537.371527
456.563888	2540.328164
456.937160	2540.093750
457.310373	2541.348997
457.683526	2541.923689
458.056619	2542.737835
458.429653	2544.282949
458.802628	2543.393185
459.175542	2542.687424
459.548398	2543.549461
459.921194	2539.692978
460.293930	2543.418391
460.666607	2543.763710
461.039224	2541.343956
461.411782	2539.864378
461.784280	2540.492001
462.156719	2544.035932
462.529099	2543.226827
462.901419	2544.373690
463.273680	2544.416540
463.645882	2543.690613
464.018024	2541.003678
464.390106	2545.873433
464.762130	2545.187836
465.134094	2543.841848
465.505999	2545.288659
465.877845	2542.548792
466.249631	2542.584080
466.621358	2546.644730
466.993026	2546.178423
467.364634	2546.886705
467.736184	2546.223793
468.107674	2543.373021
468.479105	2544.603062
468.850477	2542.891591
469.221790	2546.390151
469.593043	2547.279915
469.964238	2545.747404
470.335373	2544.164482
470.706449	2546.624565
471.077467	2545.339071
471.448425	2545.538196
471.819324	2545.197918
472.190164	2545.326468
472.560945	2546.266643
472.931667	2543.897301
473.302330	2546.458207
473.672934	2546.135573
474.043479	2545.286139
474.413965	2544.056097
474.784393	2543.851930
475.154761	2541.931251
475.525070	2542.332023
475.895321	2544.000644
476.265513	2541.464944
476.635645	2548.015923
477.005719	2545.787733
477.375734	2547.786551
477.745691	2549.039278
478.115588	2546.954761
478.485427	2548.099103
478.855207	2546.795964
479.224928	2548.872920
479.594591	2549.435008
479.964194	2547.345450
480.333739	2546.864020
480.703226	2548.376366
481.072653	2550.395348
481.442022	2548.366284
481.811333	2548.157076
482.180584	2546.732950
482.549777	2547.761345
482.918912	2548.489792
483.287988	2549.853424
483.657005	2548.953578
484.025964	2546.737991
484.394864	2547.635316
484.763706	2547.090872
485.132489	2547.216901
485.501213	2553.036913
485.869879	2550.405430
486.238487	2547.695810
486.607036	2548.081458
486.975527	2550.203784
487.343959	2548.935934
487.712333	2548.051212
488.080648	2548.595656
488.448905	2549.752601
488.817104	2549.155224
489.185244	2547.889895
489.553326	2548.449463
489.921350	2552.086655
490.289315	2547.675646
490.657222	2549.200595
491.025070	2550.198743
491.392861	2550.546583
491.760593	2549.666901
492.128267	2551.199412
492.495883	2552.563044
492.863440	2550.896943
493.230939	2547.441232
493.598380	2549.233362
493.965763	2545.265974
494.333088	2546.548948
494.700354	2544.507280
495.067563	2547.567261
495.434713	2542.289173
495.801805	2550.183620
496.168839	2550.980122
496.535815	2552.618497
496.902733	2550.526418
497.269593	2550.531459
497.636395	2550.377704
498.003139	2552.494989
498.369825	2549.369473
498.736453	2550.249155
499.103023	2552.605894
499.469535	2552.505071
499.835989	2551.769062
500.202385	2550.256716
500.568723	2551.373332
500.935003	2552.613456
501.301226	2551.239741
501.667390	2551.113713
502.033497	2550.748229
502.399546	2551.766542
502.765537	2549.651778
503.131470	2552.343754
503.497345	2550.914587
503.863163	2549.805533
504.228923	2553.914073
504.594625	2550.612118
504.960269	2548.570450
505.325856	2549.911397
505.691385	2552.595812
506.056856	2550.987684
506.422270	2550.453321
506.787625	2551.002807
507.152924	2550.768393
507.518164	2551.459032
507.883347	2552.489947
508.248472	2551.206974
508.613540	2552.852911
508.978550	2549.868547
509.343503	2552.008517
509.708398	2551.295194
510.073236	2550.586912
510.438016	2554.733261
510.802738	2551.519525
511.167403	2551.849721
511.532010	2553.833415
511.896561	2552.283260
512.261053	2551.143959
512.625488	2552.447098
512.989866	2549.064483
513.354186	2552.280740
513.718449	2546.264123
514.082655	2549.818136
514.446803	2551.738816
514.810894	2553.036913
515.174927	2555.928014
515.538904	2553.437684
515.902822	2554.327448
516.266684	2554.675288
516.630488	2553.452808
516.994235	2555.401214
517.357925	2555.088662
517.721558	2553.455328
518.085133	2556.618653
518.448651	2555.353323
518.812112	2554.415668
519.175516	2553.346944
519.538863	2555.897768
519.902152	2557.974723
520.265385	2555.880123
520.628560	2557.266441
520.991678	2556.537994
521.354739	2558.584702
521.717743	2557.047151
522.080690	2558.534291
522.443580	2561.800959
522.806413	2558.867007
523.169189	2559.746688
523.531908	2560.875907
523.894569	2557.997408
524.257174	2558.705690
524.619722	2558.541853
524.982213	2561.097718
525.344647	2556.958930
525.707025	2558.599826
526.069345	2559.774415
526.431608	2562.703325
526.793815	2559.658468
527.155964	2563.003274
527.518057	2561.037224
527.880093	2564.727348
528.242072	2562.824313
528.603995	2563.963614
528.965860	2563.391443
529.327669	2565.964952
529.689421	2562.768860
530.051117	2563.784653
530.412755	2563.058727
530.774337	2564.601320
531.135862	2565.223902
531.497331	2561.009498
531.858743	2562.415979
532.220098	2562.789025
532.581396	2558.859445
532.942638	2564.077040
533.303824	2563.237688
533.664953	2566.060734
534.026025	2565.309602
534.387040	2566.206927
534.747999	2567.565518
535.108902	2566.075857
535.469748	2567.573080
535.830537	2568.566187
536.191270	2565.233984
536.551947	2567.522668
536.912567	2565.831361
537.273131	2569.904613
537.633638	2566.033007
537.994089	2566.854715
538.354483	2568.067113
538.714821	2569.372772
539.075103	2568.636763
539.435328	2570.955694
539.795497	2570.280179
540.155609	2572.213462
540.515665	2571.822773
540.875665	2570.038204
541.235609	2572.374779
541.595496	2570.839748
541.955328	2571.812690
542.315102	2570.207083
542.674821	2571.933678
543.034483	2570.585169
543.394090	2574.038360
543.753640	2574.358473
544.113134	2572.445355
544.472571	2574.728998
544.831953	2572.639439
545.191278	2572.982238
545.550548	2572.573904
545.909761	2572.405026
546.268918	2573.093143
546.628019	2571.469892
546.987064	2573.007444
547.346053	2571.890828
547.704986	2572.702454
548.063863	2573.773699
548.422684	2573.902248
548.781449	2575.676735
549.140158	2574.275294
549.498811	2576.982393
549.857408	2574.008113
550.215949	2569.319840
550.574434	2571.810170
550.932864	2572.049624
551.291237	2568.598955
551.649555	2576.674883
552.007817	2572.944429
552.366022	2574.396282
552.724173	2571.815211
553.082267	2573.299831
553.440305	2575.976683
553.798288	2571.237999
554.156215	2573.519121
554.514086	2575.248237
554.871902	2573.904769
555.229661	2573.914851
555.587365	2573.430901
555.945014	2574.149265
556.302606	2576.125397
556.660143	2574.290417
557.017625	2575.139852
557.375050	2576.039698
557.732421	2574.154306
558.089735	2574.416446
558.446994	2578.283011
558.804197	2576.203535
559.161345	2574.885273
559.518437	2574.139183
559.875474	2576.647157
560.232455	2573.110787
560.589381	2572.813359
560.946251	2579.460121
561.303065	2573.511559
561.659825	2577.483988
562.016528	2574.817218
562.373177	2573.375448
562.729770	2576.049780
563.086307	2576.939544
563.442789	2576.495922
563.799216	2577.483988
564.155587	2574.106415
564.511904	2577.972980
564.868164	2574.645819
565.224370	2574.199677
565.580520	2576.195973
565.936615	2576.717733
566.292654	2579.165213
566.648638	2575.593556
567.004567	2574.325705
567.360441	2575.969122
567.716260	2575.223031
568.072023	2575.757393
568.427732	2571.840417
568.783385	2573.942578
569.138982	2574.918041
569.494525	2575.633885
569.850013	2572.132803
570.205445	2576.538772
570.560823	2576.647157
570.916145	2578.126735
571.271412	2575.893504
571.626625	2579.465162
571.981782	2576.422825
572.336884	2580.758218
572.691931	2578.162023
573.046923	2577.393247
573.401860	2580.039853
573.756743	2580.617065
574.111570	2577.415933
574.466342	2577.085737
574.821059	2576.732856
575.175722	2578.993814
575.530330	2580.100347
575.884882	2582.326017
576.239380	2581.826942
576.593823	2578.061200
576.948211	2580.281829
577.302544	2578.895511
577.656823	2580.077662
578.011047	2583.462797
578.365216	2581.403485
578.719330	2582.416757
579.073389	2583.339288
579.427394	2583.112437
579.781344	2582.068918
580.135239	2584.942375
580.489080	2582.157138
580.842866	2584.329875
581.196597	2589.280288
581.550273	2588.168714
581.903895	2590.071749
582.257463	2590.487645
582.610975	2588.362798
582.964434	2592.342789
583.317837	2592.957810
583.671186	2591.115268
584.024481	2589.897830
584.377721	2594.966710
584.730906	2593.252718
585.084037	2597.578027
585.437113	2596.032914
585.790135	2596.446288
586.143103	2600.552308
586.496016	2599.838985
586.848874	2595.657348
587.201679	2601.376537
587.554428	2598.034252
587.907124	2603.357710
588.259765	2600.743872
588.612352	2606.717639
588.964884	2607.574636
589.317362	2612.646036
589.669786	2609.497836
590.022155	2613.281222
590.374470	2614.738115
590.726731	2613.739967
591.078937	2615.234669
591.431090	2620.144753
591.783188	2617.356995
592.135232	2619.703652
592.487222	2621.798251
592.839157	2624.260855
593.191038	2624.568365
593.542866	2624.850670
593.894639	2627.867800
594.246358	2630.312760
594.598022	2631.414252
594.949633	2632.069602
595.301190	2636.684778
595.652692	2636.042031
596.004141	2640.816004
596.355535	2640.377424
596.706876	2639.515386
597.058162	2643.157620
597.409395	2645.736170
597.760573	2648.965029
598.111698	2648.249185
598.462768	2653.791934
598.813785	2653.252531
599.164748	2655.087511
599.515657	2655.647079
599.866511	2659.906854
600.217312	2662.480363
600.568060	2667.050169
600.918753	2674.553926
601.269392	2671.728359
601.619978	2674.939574
601.970510	2681.684638
602.320988	2683.421316
602.671412	2690.128571
603.021783	2687.212263
603.372100	2692.913808
603.722363	2699.250539
604.072572	2701.869418
604.422728	2704.674820
604.772830	2705.499049
605.122878	2707.613813
605.472872	2711.815615
605.822813	2717.716285
606.172701	2720.004969
606.522534	2729.031155
606.872314	2734.460478
607.222041	2737.447362
607.571714	2742.972466
607.921333	2748.147211
608.270899	2751.794485
608.620411	2761.924684
608.969870	2764.102462
609.319276	2773.088319
609.668627	2780.587036
610.017926	2787.281688
610.367171	2802.936991
610.716362	2802.163174
611.065500	2810.034936
611.414585	2819.030875
611.763616	2821.329641
612.112594	2826.580003
612.461518	2834.839933
612.810389	2845.673373
613.159207	2850.396934
613.507971	2853.275433
613.856682	2871.945346
614.205340	2875.222096
614.553945	2889.430588
614.902496	2896.188255
615.250994	2903.460119
615.599439	2915.581574
615.947830	2922.492996
616.296169	2931.680499
616.644454	2942.037549
616.992686	2953.859055
617.340864	2973.000316
617.688990	2971.200624
618.037063	2987.493633
618.385082	2996.340858
618.733048	3018.433715
619.080961	3021.382790
619.428821	3035.782846
619.776628	3047.916903
620.124382	3053.557955
620.472083	3064.446847
620.819731	3073.609144
621.167326	3073.525965
621.514868	3086.277564
621.862357	3083.555341
622.209793	3091.275868
622.557176	3098.651076
622.904506	3102.444544
623.251783	3101.486725
623.599007	3108.975359
623.946179	3114.258488
624.293297	3123.982874
624.640363	3123.977833
624.987376	3130.886734
625.334336	3134.216416
625.681243	3144.026502
626.028097	3150.751401
626.374899	3160.594254
626.721647	3172.007426
627.068343	3171.949453
627.414987	3180.405988
627.761577	3186.052081
628.108115	3198.939790
628.454600	3199.587579
628.801032	3224.357288
629.147412	3219.837894
629.493739	3237.625605
629.840014	3238.114597
630.186236	3259.738626
630.532405	3256.605549
630.878521	3274.665483
631.224585	3282.854837
631.570597	3278.768982
631.916556	3300.692960
632.262462	3309.744352
632.608316	3317.641319
632.954117	3326.657423
633.299866	3331.920388
633.645562	3341.853981
633.991206	3339.035976
634.336797	3336.908609
634.682336	3341.811132
635.027823	3348.858665
635.373257	3350.139118
635.718639	3350.547451
636.063968	3366.543032
636.409245	3351.855631
636.754470	3364.488762
637.099642	3368.899772
637.444762	3369.361037
637.789829	3383.814025
638.134845	3379.897049
638.479808	3388.449366
638.824719	3399.328176
639.169577	3392.305849
639.514383	3408.344280
639.859137	3405.541398
640.203839	3417.635127
640.548489	3426.328596
640.893086	3427.112496
641.237632	3434.185235
641.582125	3452.053604
641.926566	3449.951443
642.270955	3470.257211
642.615292	3482.048470
642.959576	3499.934484
643.303809	3506.470340
643.647990	3522.617155
643.992118	3528.482538
644.336195	3523.436343
