Dividing Wavelength (nm)	Counts (n)	Blue Motor Position (mm): 38.500000	Red Motor Position (mm): 0.000000	
326.493990	2131.309105
326.888308	2131.309105
327.282561	2131.309105
327.676750	2097.626636
328.070874	2095.101018
328.464933	2100.918509
328.858929	2106.736001
329.252859	2114.436363
329.646726	2125.277365
330.040528	2139.647174
330.434265	2156.222488
330.827938	2172.754952
331.221547	2189.685667
331.615091	2211.125694
332.008571	2232.956411
332.401986	2249.579616
332.795338	2269.330857
333.188625	2288.172169
333.581847	2306.406023
333.975006	2325.219609
334.368100	2344.393637
334.761129	2361.142871
335.154095	2377.793802
335.546996	2398.754920
335.939833	2423.138981
336.332606	2441.332505
336.725315	2451.150152
337.117960	2463.087605
337.510540	2471.032463
337.903056	2481.969246
338.295508	2487.058291
338.687896	2494.718324
339.080220	2505.337515
339.472480	2511.754904
339.864676	2517.743795
340.256807	2520.466018
340.648875	2523.117665
341.040879	2525.623118
341.432818	2524.705628
341.824694	2529.414066
342.216506	2530.455064
342.608253	2528.862059
342.999937	2528.302491
343.391557	2527.821061
343.783113	2528.269724
344.174605	2526.830474
344.566033	2528.138654
344.957397	2523.848632
345.348697	2521.587674
345.739934	2522.132119
346.131106	2518.023579
346.522215	2518.668846
346.913260	2516.181037
347.304241	2514.953516
347.695159	2511.646519
348.086012	2509.476302
348.476802	2508.163082
348.867528	2505.629902
349.258191	2505.347597
349.648789	2503.658811
350.039324	2499.449447
350.429796	2502.968173
350.820203	2499.401556
351.210548	2496.190341
351.600828	2498.756289
351.991045	2499.139416
352.381198	2499.230157
352.771288	2495.870228
353.161314	2497.009529
353.551276	2494.367964
353.941175	2497.251504
354.331010	2497.904334
354.720782	2495.928201
355.110490	2497.387615
355.500135	2496.276041
355.889717	2496.152533
356.279235	2496.843171
356.668689	2497.473315
357.058080	2498.027842
357.447408	2497.097749
357.836672	2493.657162
358.225873	2497.400218
358.615010	2493.989878
359.004084	2498.491628
359.393095	2500.671927
359.782043	2499.078922
360.170927	2499.880466
360.559748	2499.343583
360.948505	2498.123624
361.337199	2504.039418
361.725830	2502.879952
362.114398	2503.545385
362.502903	2505.287103
362.891344	2504.508245
363.279722	2503.081599
363.668037	2506.502022
364.056289	2505.191322
364.444478	2508.258864
364.832603	2507.263236
365.220665	2508.818432
365.608665	2508.548730
365.996601	2507.134686
366.384474	2507.112001
366.772284	2508.783144
367.160031	2509.670387
367.547715	2508.286590
367.935336	2506.456651
368.322893	2507.900942
368.710388	2509.987979
369.097820	2510.734070
369.485189	2509.025119
369.872495	2509.955212
370.259738	2511.651560
370.646918	2511.500326
371.034035	2513.249606
371.421090	2514.754390
371.808081	2513.473937
372.195010	2514.467045
372.581875	2513.214318
372.968678	2513.680625
373.355418	2514.381345
373.742096	2515.382014
374.128710	2514.383866
374.515262	2515.215656
374.901751	2514.898063
375.288177	2515.699607
375.674540	2515.288753
376.060841	2514.245234
376.447079	2514.686335
376.833254	2516.216325
377.219367	2513.103412
377.605417	2514.469565
377.991404	2514.966119
378.377329	2516.581809
378.763191	2515.097189
379.148991	2521.812006
379.534727	2520.327386
379.920402	2520.897036
380.306013	2518.920904
380.691563	2520.891995
381.077049	2520.690349
381.462474	2522.764784
381.847835	2519.266223
382.233134	2523.415093
382.618371	2524.319980
383.003545	2525.681091
383.388657	2524.141019
383.773706	2524.584640
384.158693	2523.815864
384.543618	2521.824609
384.928480	2526.303674
385.313280	2525.860052
385.698017	2527.692512
386.082692	2528.244518
386.467305	2527.357275
386.851856	2526.268386
387.236344	2526.951462
387.620770	2529.449354
388.005133	2527.705115
388.389435	2530.011443
388.773674	2534.039324
389.157851	2529.560259
389.541965	2531.974972
389.926018	2533.202493
390.310008	2530.828109
390.693936	2533.888090
391.077802	2534.805580
391.461606	2535.420601
391.845348	2537.616023
392.229027	2542.750438
392.612645	2545.127342
392.996200	2549.828218
393.379694	2557.382387
393.763125	2567.068964
394.146494	2571.699264
394.529801	2584.513877
394.913047	2596.804210
395.296230	2607.231837
395.679351	2619.310442
396.062410	2636.352062
396.445408	2651.722540
396.828343	2665.555467
397.211217	2682.496264
397.594028	2694.532019
397.976778	2717.749053
398.359466	2739.670510
398.742092	2765.821496
399.124656	2783.500822
399.507158	2816.583395
399.889598	2843.719926
400.271977	2881.253837
400.654294	2903.054307
401.036549	2936.025973
401.418742	2954.829477
401.800874	3012.722088
402.182944	3052.496792
402.564952	3105.454113
402.946898	3129.568472
403.328783	3168.226561
403.710606	3176.705781
404.092367	3281.077831
404.474067	3306.855771
404.855705	3345.297089
405.237282	3351.875795
405.618797	3438.649176
406.000250	3493.842249
406.381642	3571.297057
406.762972	3597.944597
407.144240	3640.002943
407.525447	3682.199922
407.906593	3751.052001
408.287677	3820.960202
408.668700	3814.928461
409.049661	3885.292887
409.430560	3956.224442
409.811399	3949.260088
410.192176	4091.045060
410.572891	4084.489040
410.953545	4200.561607
411.334138	4149.698885
411.714669	4232.184765
412.095139	4187.641130
412.475547	4328.589271
412.855894	4350.528372
413.236180	4390.834918
413.616405	4381.226478
413.996568	4479.627281
414.376670	4460.480979
414.756711	4445.102939
415.136691	4496.275692
415.516609	4586.333384
415.896466	4645.556860
416.276262	4690.836504
416.655997	4698.909912
417.035670	4884.041245
417.415283	4986.059076
417.794834	4951.678407
418.174324	4922.348973
418.553753	4852.576884
418.933121	5041.736099
419.312428	5118.338953
419.691674	5077.011573
420.070859	5210.123241
420.449983	5134.223628
420.829045	5259.818935
421.208047	5175.356923
421.586988	5252.176546
421.965867	5276.119506
422.344686	5410.977933
422.723444	5268.875368
423.102141	5096.909008
423.480777	5400.020986
423.859352	5171.271068
424.237866	5428.483340
424.616319	5426.658442
424.994712	5535.915370
425.373044	5417.181073
425.751314	5564.226490
426.129524	5369.706007
426.507673	5562.973763
426.885762	5647.808821
427.263789	5577.172173
427.641756	5464.353670
428.019662	5584.209624
428.397508	5593.903762
428.775292	5538.745978
429.153016	5640.617615
429.530679	5568.687911
429.908282	5651.526672
430.285824	5528.061252
430.663305	5800.787675
431.040726	5536.096851
431.418086	5539.056009
431.795385	5642.117358
432.172624	5657.644112
432.549802	5648.363347
432.926920	5660.454555
433.303977	5670.932593
433.680974	5709.217636
434.057910	5727.522066
434.434786	5734.466255
434.811601	5701.229928
435.188355	5932.923879
435.565050	5804.901257
435.941683	5794.292148
436.318257	6009.589747
436.694770	5985.901365
437.071222	6023.906624
437.447614	5954.663855
437.823946	5868.785279
438.200218	6024.254463
438.576429	5888.907044
438.952580	5987.786757
439.328670	6027.221183
439.704700	5945.904850
440.080670	5927.338281
440.456580	6198.159148
440.832429	6082.051292
441.208218	5925.561274
441.583947	6076.778245
441.959616	6085.224699
442.335224	6009.786352
442.710773	6148.624770
443.086261	6174.211146
443.461689	5966.971832
443.837057	6120.727025
444.212365	6276.118071
444.587612	6171.521691
444.962800	6322.758827
445.337927	6298.987266
445.712995	5910.533594
446.088002	6487.768395
446.462949	6318.315050
446.837837	6252.401963
447.212664	6416.562097
447.587431	6562.269087
447.962139	7105.040039
448.336786	8039.279273
448.711374	7776.294880
449.085901	6846.607808
449.460369	6764.721826
449.834776	6706.171344
450.209124	7097.558967
450.583412	7244.110351
450.957640	7386.596043
451.331808	7151.693398
451.705917	6709.271654
452.079965	6632.610827
452.453954	6846.466656
452.827883	6718.486883
453.201752	6812.214536
453.575562	6610.245748
453.949311	6818.636966
454.323001	6705.861313
454.696632	6778.501820
455.070202	6914.358395
455.443713	7070.868578
455.817164	7180.662388
456.190556	7253.824654
456.563888	7332.786767
456.937160	7372.269084
457.310373	7033.435490
457.683526	7054.648666
458.056619	6945.729496
458.429653	6933.660973
458.802628	6872.826849
459.175542	6980.969682
459.548398	7333.681572
459.921194	7493.153433
460.293930	7495.041345
460.666607	8017.335130
461.039224	8331.978748
461.411782	8458.650341
461.784280	8477.826890
462.156719	8365.484777
462.529099	8237.341167
462.901419	7833.779157
463.273680	7734.334836
463.645882	7737.583859
464.018024	7607.355732
464.390106	7775.944520
464.762130	8160.413159
465.134094	8630.543605
465.505999	9650.522783
465.877845	10870.671057
466.249631	11516.185766
466.621358	11131.704524
466.993026	10500.554583
467.364634	10251.864381
467.736184	9888.288804
468.107674	9554.380417
468.479105	9588.672867
468.850477	9349.361732
469.221790	9122.529973
469.593043	8797.093246
469.964238	8659.973861
470.335373	8668.397629
470.706449	8723.583140
471.077467	8710.735760
471.448425	10022.809474
471.819324	11083.211144
472.190164	11108.026224
472.560945	9858.228404
472.931667	9076.206811
473.302330	8939.629350
473.672934	8591.411648
474.043479	8944.849465
474.413965	8880.708344
474.784393	8769.490408
475.154761	8923.573275
475.525070	9009.106532
475.895321	8842.662756
476.265513	9014.737501
476.635645	9182.186988
477.005719	9184.268984
477.375734	9299.043455
477.745691	9531.054999
478.115588	9667.980299
478.485427	9909.864943
478.855207	10451.491553
479.224928	11262.348546
479.594591	11885.775440
479.964194	11702.710979
480.333739	11640.856021
480.703226	11559.035574
481.072653	11645.135961
481.442022	11890.251984
481.811333	12075.978174
482.180584	11879.796631
482.549777	11589.305182
482.918912	11407.753067
483.287988	11436.323807
483.657005	11453.466250
484.025964	11127.969029
484.394864	11258.489543
484.763706	11232.968702
485.132489	10992.152782
485.501213	10956.574839
485.869879	11023.924655
486.238487	10863.467248
486.607036	10983.494601
486.975527	10756.403223
487.343959	10951.541247
487.712333	11001.884730
488.080648	10928.172978
488.448905	10974.659979
488.817104	10910.959959
489.185244	11183.759478
489.553326	11334.263127
489.921350	11873.880837
490.289315	12931.663628
490.657222	13277.809416
491.025070	13176.855269
491.392861	13050.017317
491.760593	12678.350688
492.128267	12319.561687
492.495883	11995.901966
492.863440	11660.423260
493.230939	11327.480254
493.598380	11262.033474
493.965763	11127.608586
494.333088	11030.044615
494.700354	10944.597058
495.067563	11008.203816
495.434713	10837.931283
495.801805	10966.042126
496.168839	10894.697196
496.535815	10826.699593
496.902733	10828.713534
497.269593	10763.710375
497.636395	10858.884839
498.003139	10849.788077
498.369825	10709.402025
498.736453	10871.076870
499.103023	10792.739860
499.469535	10830.956847
499.835989	10819.273973
500.202385	10781.122521
500.568723	10628.375559
500.935003	10855.456855
501.301226	10660.293625
501.667390	10919.580332
502.033497	11013.766730
502.399546	10879.588858
502.765537	10775.229412
503.131470	10857.753100
503.497345	11025.255519
503.863163	10641.391818
504.228923	10946.144692
504.594625	11016.236895
504.960269	10764.141394
505.325856	10982.206586
505.691385	10771.360326
506.056856	10927.207598
506.422270	10961.091713
506.787625	10843.620226
507.152924	10962.132711
507.518164	10940.642273
507.883347	10860.525735
508.248472	10777.631522
508.613540	11019.601865
508.978550	10901.870758
509.343503	10879.185566
509.708398	10989.617082
510.073236	11109.102511
510.438016	11111.474373
510.802738	11062.885212
511.167403	11105.888775
511.532010	11016.723366
511.896561	11243.119065
512.261053	11314.436268
512.625488	11182.413490
512.989866	11166.047384
513.354186	11152.728656
513.718449	11055.378934
514.082655	11252.057031
514.446803	11146.800259
514.810894	11264.095306
515.174927	11137.839608
515.538904	11160.557568
515.902822	11310.254631
516.266684	11187.943636
516.630488	11137.491768
516.994235	11193.849348
517.357925	11252.838410
517.721558	11336.269506
518.085133	11359.660460
518.448651	11365.137673
518.812112	11253.423183
519.175516	11260.947106
519.538863	11389.572146
519.902152	11294.974894
520.265385	11465.202057
520.628560	11378.295085
520.991678	11351.254336
521.354739	11419.209089
521.717743	11353.537978
522.080690	11330.328506
522.443580	11457.826848
522.806413	11419.163719
523.169189	11444.992071
523.531908	11503.141780
523.894569	11332.813795
524.257174	11336.824033
524.619722	11449.813934
524.982213	11396.481047
525.344647	11452.115221
525.707025	11396.939792
526.069345	11494.019813
526.431608	11410.533264
526.793815	11525.136335
527.155964	11305.657099
527.518057	11360.487209
527.880093	11313.803604
528.242072	11379.252904
528.603995	11278.437389
528.965860	11203.167921
529.327669	11258.764286
529.689421	11209.958355
530.051117	11178.904847
530.412755	11275.984868
530.774337	11167.537045
531.135862	11156.948102
531.497331	11178.486432
531.858743	11022.886177
532.220098	11194.814729
532.581396	11065.133567
532.942638	11048.739734
533.303824	11009.789259
533.664953	11023.140755
534.026025	10938.681264
534.387040	11039.176666
534.747999	11038.821264
535.108902	11101.140008
535.469748	10855.971052
535.830537	10960.035591
536.191270	10938.865266
536.551947	10965.215377
536.912567	10963.554317
537.273131	10889.724098
537.633638	10867.114523
537.994089	10853.694972
538.354483	10802.552466
538.714821	10946.603437
539.075103	10958.432504
539.435328	10924.349263
539.795497	10750.139589
540.155609	10899.945038
540.515665	10993.302166
540.875665	10730.910108
541.235609	10800.107506
541.595496	10787.555033
541.955328	10949.779364
542.315102	10836.466828
542.674821	10778.619588
543.034483	10781.205700
543.394090	10790.483943
543.753640	10710.881604
544.113134	10939.001377
544.472571	10793.501074
544.831953	10935.079359
545.191278	10737.526622
545.550548	10771.851839
545.909761	10901.492672
546.268918	10880.105577
546.628019	10957.880498
546.987064	10825.144397
547.346053	10747.939126
547.704986	10854.743532
548.063863	10833.227887
548.422684	10832.325520
548.781449	10747.077088
549.140158	10848.515186
549.498811	10729.211239
549.857408	10578.299257
550.215949	10810.172170
550.574434	10665.102886
550.932864	10762.336661
551.291237	10821.282873
551.649555	10767.541652
552.007817	10776.411563
552.366022	10743.760009
552.724173	10739.409493
553.082267	10720.956350
553.440305	10863.946158
553.798288	10657.228603
554.156215	10816.234157
554.514086	10787.711309
554.871902	10640.469287
555.229661	10672.352065
555.587365	10653.046966
555.945014	10544.019411
556.302606	10668.939204
556.660143	10565.207381
557.017625	10720.817718
557.375050	10619.414908
557.732421	10751.460372
558.089735	10665.463328
558.446994	10668.689667
558.804197	10700.474142
559.161345	10699.506240
559.518437	10552.725484
559.875474	10638.352003
560.232455	10665.891826
560.589381	10621.416246
560.946251	10621.053283
561.303065	10730.297608
561.659825	10653.656946
562.016528	10592.043963
562.373177	10471.073915
562.729770	10584.565412
563.086307	10506.346869
563.442789	10586.639847
563.799216	10467.681219
564.155587	10519.148879
564.511904	10482.492129
564.868164	10461.755342
565.224370	10480.095060
565.580520	10399.933152
565.936615	10406.547146
566.292654	10279.137024
566.648638	10404.447505
567.004567	10366.502740
567.360441	10350.872643
567.716260	10261.621535
568.072023	10356.496050
568.427732	10308.131220
568.783385	10217.342560
569.138982	10283.948805
569.494525	10307.579214
569.850013	10183.682776
570.205445	10262.113047
570.560823	10155.371656
570.916145	10075.161857
571.271412	10148.329164
571.626625	10089.158620
571.981782	10066.556607
572.336884	10034.681391
572.691931	10042.560715
573.046923	9987.523918
573.401860	9945.354666
573.756743	9876.263132
574.111570	9923.675184
574.466342	9903.359334
574.821059	9939.121279
575.175722	9827.376542
575.530330	9841.244757
575.884882	9836.314508
576.239380	9758.169062
576.593823	9738.644673
576.948211	9754.209235
577.302544	9635.038879
577.656823	9649.927927
578.011047	9648.428184
578.365216	9628.997056
578.719330	9552.341271
579.073389	9563.925842
579.427394	9504.805711
579.781344	9488.641251
580.135239	9431.686295
580.489080	9439.971431
580.842866	9354.468421
581.196597	9352.406589
581.550273	9392.481241
581.903895	9356.479841
582.257463	9423.708669
582.610975	9304.432448
582.964434	9328.007404
583.317837	9253.650385
583.671186	9236.823013
584.024481	9228.933608
584.377721	9153.321341
584.730906	9118.832287
585.084037	9150.818408
585.437113	9090.014531
585.790135	9109.276780
586.143103	9007.531172
586.496016	8986.537287
586.848874	9039.527375
587.201679	9037.349597
587.554428	8913.934589
587.907124	8965.016601
588.259765	8938.293444
588.612352	8932.806148
588.964884	8812.756111
589.317362	8824.441505
589.669786	8822.175507
590.022155	8873.262560
590.374470	8891.309890
590.726731	8827.201537
591.078937	8685.439250
591.431090	8792.329355
591.783188	8666.862598
592.135232	8661.367740
592.487222	8653.984970
592.839157	8714.257006
593.191038	8639.176581
593.542866	8592.775280
593.894639	8489.537491
594.246358	8546.084113
594.598022	8560.756392
594.949633	8459.746792
595.301190	8434.364582
595.652692	8456.850649
596.004141	8569.202845
596.355535	8353.461625
596.706876	8330.277358
597.058162	8260.159949
597.409395	8339.054007
597.760573	8401.413080
598.111698	8310.924369
598.462768	8292.299826
598.813785	8262.516689
599.164748	8232.599961
599.515657	8215.754946
599.866511	8132.959035
600.217312	8253.477900
600.568060	8115.952702
600.918753	8223.009166
601.269392	8184.025923
601.619978	8098.164991
601.970510	8164.327615
602.320988	8156.997777
602.671412	8216.705203
603.021783	8152.304463
603.372100	8124.840257
603.722363	8128.787480
604.072572	8106.061959
604.422728	8113.233000
604.772830	8042.364459
605.122878	8056.913229
605.472872	8047.617342
605.822813	8079.754697
606.172701	8024.042386
606.522534	8099.069878
606.872314	8092.705422
607.222041	8067.953356
607.571714	8117.719627
607.921333	8073.037360
608.270899	8087.913805
608.620411	8174.084768
608.969870	8076.971980
609.319276	8068.102070
609.668627	8090.721727
610.017926	8122.869166
610.367171	8169.716608
610.716362	8144.669635
611.065500	8140.278790
611.414585	8168.574787
611.763616	8154.066346
612.112594	8137.019684
612.461518	8150.242631
612.810389	8217.133701
613.159207	8149.539390
613.507971	8099.601720
613.856682	8219.094710
614.205340	8173.820107
614.553945	8255.605267
614.902496	8155.747571
615.250994	8203.830096
615.599439	8189.840894
615.947830	8200.205507
616.296169	8174.024274
616.644454	8192.265689
616.992686	8184.499792
617.340864	8237.142041
617.688990	8140.447669
618.037063	8233.686330
618.385082	8186.952313
618.733048	8266.254704
619.080961	8204.309006
619.428821	8227.631904
619.776628	8232.196669
620.124382	8183.720934
620.472083	8170.014036
620.819731	8191.383487
621.167326	8085.559586
621.514868	8097.307995
621.862357	7987.277251
622.209793	8000.074220
622.557176	7935.774302
622.904506	7904.665342
623.251783	7841.638316
623.599007	7791.536808
623.946179	7793.228116
624.293297	7754.922908
624.640363	7671.050711
624.987376	7659.148547
625.334336	7604.953622
625.681243	7552.460087
626.028097	7535.894856
626.374899	7518.548245
626.721647	7510.575661
627.068343	7439.752490
627.414987	7413.450270
627.761577	7366.950667
628.108115	7401.469968
628.454600	7296.077085
628.801032	7350.582040
629.147412	7310.880433
629.493739	7299.157230
629.840014	7238.302941
630.186236	7293.309492
630.532405	7175.046543
630.878521	7228.381951
631.224585	7181.970568
631.570597	7105.423167
631.916556	7137.701675
632.262462	7139.214021
632.608316	7097.117866
632.954117	7077.457366
633.299866	7063.460602
633.645562	7058.550519
633.991206	6975.661347
634.336797	6913.657675
634.682336	6880.446553
635.027823	6843.971285
635.373257	6833.699934
635.718639	6764.149655
636.063968	6780.518281
636.409245	6671.014337
636.754470	6673.252610
637.099642	6628.552698
637.444762	6569.382155
637.789829	6586.678354
638.134845	6524.364651
638.479808	6509.410068
638.824719	6512.364185
639.169577	6442.241735
639.514383	6461.987934
639.859137	6386.927674
640.203839	6401.224386
640.548489	6381.886520
