Dividing Wavelength (nm)	Counts (n)	Blue Motor Position (mm): 34.600000	Red Motor Position (mm): 0.000000	
326.493990	2131.152830
326.888308	2131.152830
327.282561	2131.152830
327.676750	2097.603951
328.070874	2095.103538
328.464933	2098.065216
328.858929	2103.660897
329.252859	2114.958123
329.646726	2129.194341
330.040528	2139.052318
330.434265	2155.771304
330.827938	2175.202432
331.221547	2191.823116
331.615091	2212.401106
332.008571	2231.585217
332.401986	2249.393093
332.795338	2271.959818
333.188625	2291.988323
333.581847	2309.536579
333.975006	2327.241111
334.368100	2343.755931
334.761129	2362.826616
335.154095	2377.982845
335.546996	2398.752399
335.939833	2424.379105
336.332606	2439.530293
336.725315	2456.534105
337.117960	2461.093828
337.510540	2472.078502
337.903056	2481.550831
338.295508	2488.046357
338.687896	2496.759992
339.080220	2505.534120
339.472480	2510.572753
339.864676	2518.439474
340.256807	2518.416789
340.648875	2524.718231
341.040879	2527.246370
341.432818	2526.659075
341.824694	2526.984230
342.216506	2530.969262
342.608253	2529.333407
342.999937	2526.631349
343.391557	2531.647297
343.783113	2527.379960
344.174605	2527.737882
344.566033	2525.930628
344.957397	2525.103879
345.348697	2523.284023
345.739934	2521.156656
346.131106	2518.936028
346.522215	2517.781603
346.913260	2514.141890
347.304241	2514.880419
347.695159	2512.674914
348.086012	2512.599297
348.476802	2506.731394
348.867528	2506.761641
349.258191	2503.946157
349.648789	2504.072185
350.039324	2502.509428
350.429796	2501.014726
350.820203	2499.986330
351.210548	2500.364417
351.600828	2497.402739
351.991045	2500.339211
352.381198	2497.748058
352.771288	2497.359889
353.161314	2497.443068
353.551276	2495.555156
353.941175	2495.403921
354.331010	2497.458192
354.720782	2493.347131
355.110490	2497.178408
355.500135	2497.818634
355.889717	2497.304436
356.279235	2498.486587
356.668689	2500.024139
357.058080	2499.628408
357.447408	2496.581031
357.836672	2493.039620
358.225873	2496.029024
358.615010	2496.896103
359.004084	2498.151350
359.393095	2500.596310
359.782043	2499.270486
360.170927	2501.886845
360.559748	2501.682678
360.948505	2504.999758
361.337199	2502.728718
361.725830	2504.871208
362.114398	2503.195025
362.502903	2503.361383
362.891344	2503.658811
363.279722	2503.205107
363.668037	2504.198214
364.056289	2505.506394
364.444478	2506.118894
364.832603	2508.445386
365.220665	2506.958246
365.608665	2508.533607
365.996601	2509.042763
366.384474	2508.279028
366.772284	2508.558812
367.160031	2506.902793
367.547715	2507.459841
367.935336	2510.781961
368.322893	2507.893380
368.710388	2511.407064
369.097820	2511.107116
369.485189	2511.228103
369.872495	2511.739780
370.259738	2509.579646
370.646918	2511.447393
371.034035	2513.315141
371.421090	2512.604338
371.808081	2511.341529
372.195010	2514.426715
372.581875	2513.325223
372.968678	2514.376304
373.355418	2512.770696
373.742096	2514.164575
374.128710	2513.403361
374.515262	2514.474606
374.901751	2513.962929
375.288177	2515.687004
375.674540	2515.008969
376.060841	2515.709689
376.447079	2514.603156
376.833254	2513.269771
377.219367	2513.211797
377.605417	2512.564009
377.991404	2513.184071
378.377329	2511.996879
378.763191	2512.390089
379.148991	2517.771521
379.534727	2514.056191
379.920402	2519.039371
380.306013	2517.330420
380.691563	2519.137674
381.077049	2519.155318
381.462474	2518.192457
381.847835	2518.729340
382.233134	2516.642302
382.618371	2519.992149
383.003545	2517.769000
383.388657	2520.002232
383.773706	2521.675895
384.158693	2521.721265
384.543618	2520.745802
384.928480	2519.609022
385.313280	2520.032478
385.698017	2519.687159
386.082692	2522.641276
386.467305	2521.655730
386.851856	2520.622293
387.236344	2521.885103
387.620770	2526.328880
388.005133	2522.641276
388.389435	2524.070443
388.773674	2524.566996
389.157851	2522.971471
389.541965	2528.794004
389.926018	2526.328880
390.310008	2524.756040
390.693936	2527.722759
391.077802	2525.592871
391.461606	2527.632018
391.845348	2526.558252
392.229027	2527.886596
392.612645	2527.689991
392.996200	2529.209899
393.379694	2527.432892
393.763125	2530.361803
394.146494	2530.981865
394.529801	2531.251566
394.913047	2530.437420
395.296230	2531.806093
395.679351	2530.447502
396.062410	2531.531350
396.445408	2530.984385
396.828343	2530.485311
397.211217	2526.608664
397.594028	2531.564118
397.976778	2530.467667
398.359466	2530.868439
398.742092	2527.609333
399.124656	2537.996630
399.507158	2534.223327
399.889598	2538.596527
400.271977	2537.232895
400.654294	2537.636188
401.036549	2537.971424
401.418742	2537.530323
401.800874	2539.627443
402.182944	2538.165509
402.564952	2540.431507
402.946898	2540.184491
403.328783	2541.427135
403.710606	2543.738504
404.092367	2546.314534
404.474067	2545.586087
404.855705	2549.321582
405.237282	2548.164638
405.618797	2556.931204
406.000250	2564.434962
406.381642	2564.825651
406.762972	2574.814697
407.144240	2581.511870
407.525447	2588.937490
407.906593	2594.361771
408.287677	2608.653442
408.668700	2614.360029
409.049661	2628.079529
409.430560	2643.213073
409.811399	2655.422747
410.192176	2677.129956
410.572891	2687.174455
410.953545	2712.717981
411.334138	2718.848024
411.714669	2744.409195
412.095139	2752.656523
412.475547	2789.426699
412.855894	2807.277425
413.236180	2827.711742
413.616405	2846.648836
413.996568	2882.544372
414.376670	2899.182700
414.756711	2917.482089
415.136691	2951.759414
415.516609	2993.212823
415.896466	3029.476363
416.276262	3067.469019
416.655997	3093.186465
417.035670	3170.840399
417.415283	3230.207547
417.794834	3250.840990
418.174324	3277.927109
418.553753	3292.014614
418.933121	3383.710682
419.312428	3451.126032
419.691674	3475.056389
420.070859	3562.343968
420.449983	3571.236564
420.829045	3665.551511
421.208047	3670.171728
421.586988	3752.415633
421.965867	3800.702325
422.344686	3916.091816
422.723444	3892.529463
423.102141	3848.633616
423.480777	4043.010426
423.859352	3973.510558
424.237866	4160.882685
424.616319	4203.147719
424.994712	4311.983710
425.373044	4291.362870
425.751314	4428.391514
426.129524	4354.803271
426.507673	4524.821225
426.885762	4621.182881
427.263789	4626.947440
427.641756	4588.710288
428.019662	4718.169640
428.397508	4761.067338
428.775292	4774.522178
429.153016	4888.185074
429.530679	4875.836767
429.908282	4976.485925
430.285824	4908.997478
430.663305	5170.673691
431.040726	4996.579964
431.418086	5022.723388
431.795385	5145.195700
432.172624	5189.535168
432.549802	5212.860587
432.926920	5253.184777
433.303977	5286.995796
433.680974	5350.252194
434.057910	5396.681221
434.434786	5425.965284
434.811601	5419.671403
435.188355	5656.101519
435.565050	5561.776489
435.941683	5565.693466
436.318257	5785.505417
436.694770	5786.049862
437.071222	5839.349982
437.447614	5789.949194
437.823946	5724.031067
438.200218	5886.646087
438.576429	5765.459269
438.952580	5875.893306
439.328670	5933.095278
439.704700	5852.182239
440.080670	5844.542370
440.456580	6116.457167
440.832429	6011.384398
441.208218	5870.446339
441.583947	6029.991297
441.959616	6037.931114
442.335224	5966.699610
442.710773	6108.275375
443.086261	6134.668336
443.461689	5942.544921
443.837057	6093.179639
444.212365	6253.868939
444.587612	6144.443133
444.962800	6298.944416
445.337927	6280.145953
445.712995	5898.535648
446.088002	6469.723585
446.462949	6304.774510
446.837837	6233.089303
447.212664	6405.826960
447.587431	6551.236522
447.962139	7095.025787
448.336786	8016.231118
448.711374	7755.724452
449.085901	6839.668660
449.460369	6763.421208
449.834776	6695.126176
450.209124	7086.803665
450.583412	7241.161276
450.957640	7387.695015
451.331808	7149.508057
451.705917	6704.989194
452.079965	6626.503469
452.453954	6837.909297
452.827883	6716.324228
453.201752	6809.157076
453.575562	6610.391942
453.949311	6809.666233
454.323001	6702.360232
454.696632	6777.712879
455.070202	6917.831750
455.443713	7075.788744
455.817164	7171.908425
456.190556	7255.344562
456.563888	7329.462126
456.937160	7375.293777
457.310373	7036.319030
457.683526	7053.075826
458.056619	6946.679753
458.429653	6936.373114
458.802628	6875.402879
459.175542	6979.437171
459.548398	7329.961201
459.921194	7494.083526
460.293930	7492.976993
460.666607	8021.181531
461.039224	8330.226947
461.411782	8452.132129
461.784280	8475.056776
462.156719	8364.499231
462.529099	8243.264522
462.901419	7828.024680
463.273680	7726.185811
463.645882	7739.854899
464.018024	7608.560568
464.390106	7773.900332
464.762130	8162.835433
465.134094	8623.745609
465.505999	9648.891970
465.877845	10864.417506
466.249631	11518.129131
466.621358	11131.381890
466.993026	10500.035344
467.364634	10252.628116
467.736184	9884.356704
468.107674	9548.217607
468.479105	9585.307896
468.850477	9348.756793
469.221790	9120.594170
469.593043	8794.812123
469.964238	8662.764140
470.335373	8667.217999
470.706449	8723.114313
471.077467	8708.784833
471.448425	10015.933340
471.819324	11084.544530
472.190164	11103.521953
472.560945	9860.411223
472.931667	9073.338394
473.302330	8944.466337
473.672934	8591.225125
474.043479	8942.127242
474.413965	8878.459989
474.784393	8767.814224
475.154761	8923.137215
475.525070	9006.379268
475.895321	8839.698557
476.265513	9018.127677
476.635645	9186.915590
477.005719	9183.679169
477.375734	9291.091034
477.745691	9525.323207
478.115588	9669.177573
478.485427	9904.964941
478.855207	10438.361868
479.224928	11258.010633
479.594591	11883.007846
479.964194	11694.884588
480.333739	11632.641461
480.703226	11549.643904
481.072653	11640.354426
481.442022	11876.998791
481.811333	12066.410064
482.180584	11869.936134
482.549777	11579.285889
482.918912	11404.186451
483.287988	11433.155442
483.657005	11437.969743
484.025964	11126.524738
484.394864	11257.723288
484.763706	11221.273225
485.132489	10976.021090
485.501213	10949.023191
485.869879	11013.842347
486.238487	10864.503205
486.607036	10968.761829
486.975527	10757.963460
487.343959	10953.935795
487.712333	10993.687814
488.080648	10920.202914
488.448905	10966.100099
488.817104	10903.216746
489.185244	11173.858652
489.553326	11331.976963
489.921350	11860.088240
490.289315	12924.341352
490.657222	13266.887756
491.025070	13165.782374
491.392861	13048.573027
491.760593	12676.997139
492.128267	12319.743168
492.495883	11995.370124
492.863440	11655.588793
493.230939	11324.311889
493.598380	11261.549523
493.965763	11120.450148
494.333088	11024.063286
494.700354	10944.594537
495.067563	11009.174238
495.434713	10837.041520
495.801805	10961.628596
496.168839	10884.803932
496.535815	10824.703296
496.902733	10824.751187
497.269593	10756.199056
497.636395	10855.343429
498.003139	10840.199803
498.369825	10715.065761
498.736453	10867.951355
499.103023	10794.375714
499.469535	10825.865282
499.835989	10817.121400
500.202385	10773.165059
500.568723	10627.901691
500.935003	10853.316885
501.301226	10656.671556
501.667390	10908.527602
502.033497	11013.469302
502.399546	10879.815710
502.765537	10776.013311
503.131470	10849.704898
503.497345	11020.335353
503.863163	10631.879161
504.228923	10947.586462
504.594625	11007.815647
504.960269	10761.840107
505.325856	10983.066103
505.691385	10773.580955
506.056856	10929.239182
506.422270	10954.177771
506.787625	10843.254742
507.152924	10957.482247
507.518164	10937.544483
507.883347	10860.863492
508.248472	10774.994998
508.613540	11010.190031
508.978550	10900.708772
509.343503	10864.873730
509.708398	10990.839562
510.073236	11097.772517
510.438016	11103.622776
510.802738	11051.819879
511.167403	11109.021852
511.532010	11004.019659
511.896561	11242.955227
512.261053	11310.123561
512.625488	11179.230002
512.989866	11154.717391
513.354186	11146.187759
513.718449	11050.287369
514.082655	11244.316339
514.446803	11141.391101
514.810894	11259.553227
515.174927	11125.945006
515.538904	11152.713532
515.902822	11304.157356
516.266684	11180.449961
516.630488	11123.500046
516.994235	11178.335197
517.357925	11253.403019
517.721558	11336.634989
518.085133	11352.159223
518.448651	11365.392252
518.812112	11248.954201
519.175516	11257.776220
519.538863	11379.532688
519.902152	11294.664863
520.265385	11456.682507
520.628560	11370.297294
520.991678	11346.792914
521.354739	11408.138716
521.717743	11340.131030
522.080690	11325.010089
522.443580	11452.223606
522.806413	11414.142730
523.169189	11443.328490
523.531908	11498.216573
523.894569	11319.205200
524.257174	11322.053452
524.619722	11442.799169
524.982213	11393.017775
525.344647	11440.729775
525.707025	11393.244627
526.069345	11494.002168
526.431608	11403.831050
526.793815	11516.551250
527.155964	11299.461521
527.518057	11352.224758
527.880093	11310.894858
528.242072	11369.669671
528.603995	11274.313725
528.965860	11198.971160
529.327669	11247.951011
529.689421	11197.511746
530.051117	11164.189719
530.412755	11276.274734
530.774337	11161.177630
531.135862	11145.918057
531.497331	11173.241111
531.858743	11018.366783
532.220098	11189.153513
532.581396	11054.499253
532.942638	11039.128775
533.303824	11006.656182
533.664953	11020.365600
534.026025	10938.628332
534.387040	11030.531087
534.747999	11036.033506
535.108902	11090.344377
535.469748	10849.173057
535.830537	10954.510487
536.191270	10933.965264
536.551947	10957.114243
536.912567	10956.252205
537.273131	10876.223888
537.633638	10858.398368
537.994089	10856.162616
538.354483	10800.165479
538.714821	10944.050093
539.075103	10953.567791
539.435328	10914.559343
539.795497	10738.156767
540.155609	10899.879503
540.515665	10993.529018
540.875665	10721.462986
541.235609	10795.366301
541.595496	10785.220979
541.955328	10941.698394
542.315102	10826.452576
542.674821	10782.801225
543.034483	10775.463826
543.394090	10782.249219
543.753640	10710.190966
544.113134	10931.462331
544.472571	10785.165526
544.831953	10932.541138
545.191278	10736.820861
545.550548	10765.439491
545.909761	10895.135777
546.268918	10868.573937
546.628019	10957.368821
546.987064	10826.578605
547.346053	10748.218910
547.704986	10839.178969
548.063863	10829.179840
548.422684	10822.338995
548.781449	10739.873279
549.140158	10842.473363
549.498811	10716.825124
549.857408	10575.612322
550.215949	10804.667230
550.574434	10663.487196
550.932864	10750.913406
551.291237	10815.435134
551.649555	10762.916394
552.007817	10769.961406
552.366022	10735.623587
552.724173	10729.485982
553.082267	10712.504855
553.440305	10853.669766
553.798288	10651.857254
554.156215	10804.384925
554.514086	10780.782243
554.871902	10638.722527
555.229661	10670.108751
555.587365	10647.562191
555.945014	10541.264421
556.302606	10660.588532
556.660143	10562.033975
557.017625	10713.939063
557.375050	10606.348237
557.732421	10741.836809
558.089735	10659.855044
558.446994	10662.007617
558.804197	10694.903667
559.161345	10700.282578
559.518437	10546.771881
559.875474	10631.034768
560.232455	10670.529688
560.589381	10614.827458
560.946251	10610.330749
561.303065	10718.080371
561.659825	10651.978242
562.016528	10582.546430
562.373177	10467.449326
562.729770	10577.901006
563.086307	10494.865641
563.442789	10585.402243
563.799216	10462.972781
564.155587	10510.505821
564.511904	10474.454009
564.868164	10459.950609
565.224370	10476.155398
565.580520	10399.718903
565.936615	10404.495396
566.292654	10276.261045
566.648638	10403.872814
567.004567	10363.193223
567.360441	10351.782571
567.716260	10254.329506
568.072023	10352.745432
568.427732	10305.524943
568.783385	10207.298061
569.138982	10280.024267
569.494525	10300.370364
569.850013	10169.633080
570.205445	10254.896635
570.560823	10152.145317
570.916145	10070.949973
571.271412	10135.809458
571.626625	10088.639382
571.981782	10061.243231
572.336884	10029.604949
572.691931	10041.204644
573.046923	9984.045522
573.401860	9943.469274
573.756743	9881.334533
574.111570	9917.383824
574.466342	9905.998378
574.821059	9936.310836
575.175722	9827.774793
575.530330	9837.824334
575.884882	9827.973919
576.239380	9754.123536
576.593823	9733.301050
576.948211	9752.714533
577.302544	9630.890009
577.656823	9641.637749
578.011047	9647.258636
578.365216	9622.186457
578.719330	9542.130414
579.073389	9552.366477
579.427394	9505.234209
579.781344	9479.912493
580.135239	9429.556407
580.489080	9433.559083
580.842866	9342.359569
581.196597	9341.366462
581.550273	9382.938337
581.903895	9355.597639
582.257463	9417.172813
582.610975	9294.483731
582.964434	9320.859048
583.317837	9243.563036
583.671186	9228.989060
584.024481	9229.460408
584.377721	9145.010999
584.730906	9118.514694
585.084037	9149.091813
585.437113	9083.771062
585.790135	9105.962221
586.143103	9004.244339
586.496016	8978.698292
586.848874	9036.124596
587.201679	9018.248665
587.554428	8910.098271
587.907124	8954.488151
588.259765	8922.761649
588.612352	8927.616280
588.964884	8801.471488
589.317362	8825.364036
589.669786	8818.334147
590.022155	8869.771561
590.374470	8883.286894
590.726731	8818.944127
591.078937	8675.672014
591.431090	8784.573540
591.783188	8661.178697
592.135232	8654.836925
592.487222	8652.870875
592.839157	8702.632105
593.191038	8644.283270
593.542866	8583.255061
593.894639	8481.464083
594.246358	8538.333339
594.598022	8552.662819
594.949633	8450.713044
595.301190	8421.968385
595.652692	8451.741440
596.004141	8566.213441
596.355535	8342.736570
596.706876	8323.310484
597.058162	8256.762212
597.409395	8337.589552
597.760573	8398.131289
598.111698	8305.679048
598.462768	8287.374618
598.813785	8254.042509
599.164748	8224.140905
599.515657	8213.942651
599.866511	8126.224053
600.217312	8249.528156
600.568060	8107.223945
600.918753	8217.683187
601.269392	8179.098196
601.619978	8087.374401
601.970510	8167.490939
602.320988	8159.871235
602.671412	8210.255047
603.021783	8149.544431
603.372100	8117.006304
603.722363	8122.803631
604.072572	8097.161802
604.422728	8106.666897
604.772830	8042.722381
605.122878	8046.407465
605.472872	8042.198101
605.822813	8073.163389
606.172701	8020.571551
606.522534	8091.044361
606.872314	8091.402283
607.222041	8055.968013
607.571714	8114.246272
607.921333	8073.720436
608.270899	8079.258144
608.620411	8168.234509
608.969870	8070.317657
609.319276	8073.380158
609.668627	8083.028927
610.017926	8120.255327
610.367171	8162.815269
610.716362	8141.266857
611.065500	8134.436093
611.414585	8162.820310
611.763616	8149.448649
612.112594	8133.543809
612.461518	8150.484606
612.810389	8205.914613
613.159207	8144.798185
613.507971	8095.364630
613.856682	8216.984987
614.205340	8169.262904
614.553945	8252.812468
614.902496	8142.186867
615.250994	8196.747275
615.599439	8189.548507
615.947830	8193.220988
616.296169	8171.002102
616.644454	8175.818925
616.992686	8180.708844
617.340864	8235.324705
617.688990	8142.365828
618.037063	8230.419662
618.385082	8179.914863
618.733048	8268.137575
619.080961	8198.917492
619.428821	8219.319042
619.776628	8226.976554
620.124382	8176.030653
620.472083	8158.593302
620.819731	8186.775873
621.167326	8078.065911
621.514868	8095.341945
621.862357	7976.027916
622.209793	7995.070874
622.557176	7922.659741
622.904506	7899.699805
623.251783	7831.808066
623.599007	7782.369470
623.946179	7790.745347
624.293297	7752.389728
624.640363	7667.302613
624.987376	7648.178996
625.334336	7600.875329
625.681243	7546.239303
626.028097	7537.157665
626.374899	7509.338057
626.721647	7497.864391
627.068343	7431.807632
627.414987	7404.552633
627.761577	7361.244081
628.108115	7397.520224
628.454600	7295.459544
628.801032	7349.210847
629.147412	7304.455483
629.493739	7293.690099
629.840014	7226.930098
630.186236	7286.990405
630.532405	7166.438773
630.878521	7216.719241
631.224585	7176.959661
631.570597	7097.057372
631.916556	7133.731767
632.262462	7128.567104
632.608316	7095.159378
632.954117	7067.019657
633.299866	7061.512197
633.645562	7052.700260
633.991206	6968.608772
634.336797	6913.115751
634.682336	6867.629420
635.027823	6841.128074
635.373257	6825.298851
635.718639	6757.719663
636.063968	6770.579646
636.409245	6667.147772
636.754470	6668.241703
637.099642	6621.308560
637.444762	6565.656742
637.789829	6575.587816
638.134845	6520.886255
638.479808	6504.210118
638.824719	6509.684811
639.169577	6436.973729
639.514383	6462.008099
639.859137	6384.089504
640.203839	6391.162243
640.548489	6381.795779
