Dividing Wavelength (nm)	Counts (n)	Blue Motor Position (mm): 40.100000	Red Motor Position (mm): 0.000000	
326.493990	2132.677779
326.888308	2132.677779
327.282561	2132.677779
327.676750	2096.769640
328.070874	2096.053796
328.464933	2099.091091
328.858929	2106.909921
329.252859	2114.617845
329.646726	2124.160749
330.040528	2138.356638
330.434265	2156.041006
330.827938	2175.777123
331.221547	2190.593075
331.615091	2208.816846
332.008571	2230.405587
332.401986	2249.078021
332.795338	2267.571494
333.188625	2288.580503
333.581847	2304.253450
333.975006	2323.578713
334.368100	2344.925479
334.761129	2361.631863
335.154095	2375.857999
335.546996	2399.327091
335.939833	2427.207192
336.332606	2439.434511
336.725315	2448.357353
337.117960	2462.137347
337.510540	2468.640436
337.903056	2480.567806
338.295508	2486.246665
338.687896	2499.010867
339.080220	2503.285765
339.472480	2513.846983
339.864676	2517.048115
340.256807	2521.459125
340.648875	2523.957017
341.040879	2522.963909
341.432818	2526.928777
341.824694	2530.306350
342.216506	2531.400280
342.608253	2528.415917
342.999937	2527.937008
343.391557	2527.861390
343.783113	2529.083870
344.174605	2528.957841
344.566033	2529.479601
344.957397	2522.913498
345.348697	2522.477438
345.739934	2521.751512
346.131106	2519.218332
346.522215	2516.254134
346.913260	2517.050636
347.304241	2514.545183
347.695159	2510.643329
348.086012	2511.230624
348.476802	2510.000582
348.867528	2508.427742
349.258191	2505.264418
349.648789	2505.380365
350.039324	2502.635457
350.429796	2503.812566
350.820203	2500.374499
351.210548	2499.041114
351.600828	2500.099756
351.991045	2496.933912
352.381198	2497.289313
352.771288	2498.075733
353.161314	2497.463233
353.551276	2500.291320
353.941175	2493.700011
354.331010	2497.271669
354.720782	2495.845022
355.110490	2495.953407
355.500135	2495.756802
355.889717	2496.323932
356.279235	2495.789570
356.668689	2497.460712
357.058080	2496.427276
357.447408	2497.566576
357.836672	2495.313181
358.225873	2494.627584
358.615010	2495.199755
359.004084	2499.646052
359.393095	2499.298213
359.782043	2498.370640
360.170927	2501.241578
360.559748	2501.866681
360.948505	2502.683348
361.337199	2503.868019
361.725830	2503.396671
362.114398	2503.807525
362.502903	2503.255518
362.891344	2506.592762
363.279722	2504.833400
363.668037	2508.463030
364.056289	2506.852382
364.444478	2507.041425
364.832603	2508.702485
365.220665	2507.071672
365.608665	2506.575118
365.996601	2508.248781
366.384474	2509.556961
366.772284	2509.521673
367.160031	2509.488905
367.547715	2507.527896
367.935336	2508.707526
368.322893	2510.892867
368.710388	2512.105264
369.097820	2511.701972
369.485189	2512.392610
369.872495	2512.037208
370.259738	2512.216169
370.646918	2512.561488
371.034035	2507.537979
371.421090	2518.802437
371.808081	2512.775737
372.195010	2516.407889
372.581875	2513.557116
372.968678	2516.065090
373.355418	2515.371932
373.742096	2518.638599
374.128710	2515.760101
374.515262	2517.143897
374.901751	2518.010976
375.288177	2516.843949
375.674540	2517.990811
376.060841	2519.893847
376.447079	2515.865965
376.833254	2519.430061
377.219367	2516.619617
377.605417	2517.980729
377.991404	2517.605163
378.377329	2516.576768
378.763191	2515.777745
379.148991	2522.116996
379.534727	2520.982736
379.920402	2524.602284
380.306013	2523.977181
380.691563	2523.629342
381.077049	2522.611029
381.462474	2521.653209
381.847835	2525.852491
382.233134	2524.161183
382.618371	2524.824095
383.003545	2526.210413
383.388657	2522.968951
383.773706	2527.195958
384.158693	2525.975999
384.543618	2527.097656
384.928480	2525.355937
385.313280	2527.979857
385.698017	2529.371216
386.082692	2531.715352
386.467305	2530.744930
386.851856	2533.822555
387.236344	2536.612833
387.620770	2540.000489
388.005133	2544.320758
388.389435	2550.211346
388.773674	2551.746377
389.157851	2561.778273
389.541965	2568.437638
389.926018	2576.004410
390.310008	2588.345154
390.693936	2600.678337
391.077802	2619.907818
391.461606	2629.617081
391.845348	2650.933600
392.229027	2668.950684
392.612645	2684.553055
392.996200	2715.281408
393.379694	2738.702609
393.763125	2766.229829
394.146494	2786.921245
394.529801	2822.968016
394.913047	2857.167204
395.296230	2876.648743
395.679351	2914.691810
396.062410	2947.739094
396.445408	2973.990903
396.828343	3013.029598
397.211217	3048.501677
397.594028	3055.796227
397.976778	3111.563991
398.359466	3154.864982
398.742092	3200.759647
399.124656	3204.613609
399.507158	3272.333949
399.889598	3318.556289
400.271977	3384.363511
400.654294	3408.810587
401.036549	3450.047225
401.418742	3467.983651
401.800874	3561.295408
402.182944	3613.660394
402.564952	3684.337371
402.946898	3715.065724
403.328783	3746.837596
403.710606	3729.445615
404.092367	3891.680028
404.474067	3904.658479
404.855705	3941.000157
405.237282	3919.134152
405.618797	4034.687481
406.000250	4092.648147
406.381642	4183.961087
406.762972	4182.216848
407.144240	4222.984659
407.525447	4250.952981
407.906593	4324.059794
408.287677	4386.993558
408.668700	4350.724977
409.049661	4421.336419
409.430560	4475.730469
409.811399	4437.579017
410.192176	4594.749591
410.572891	4562.251793
410.953545	4678.490718
411.334138	4580.054627
411.714669	4657.970701
412.095139	4573.097835
412.475547	4718.678796
412.855894	4716.400195
413.236180	4735.012135
413.616405	4699.645920
413.996568	4792.022544
414.376670	4743.761057
414.756711	4710.045820
415.136691	4743.544288
415.516609	4827.144262
415.896466	4865.570458
416.276262	4908.178290
416.655997	4893.311927
417.035670	5074.674999
417.415283	5167.825439
417.794834	5113.083550
418.174324	5071.844391
418.553753	4983.732583
418.933121	5169.572199
419.312428	5238.872941
419.691674	5176.176111
420.070859	5306.210154
420.449983	5219.552719
420.829045	5334.884237
421.208047	5243.745216
421.586988	5314.190300
421.965867	5325.926106
422.344686	5458.884018
422.723444	5315.042255
423.102141	5132.791941
423.480777	5433.227066
423.859352	5205.165266
424.237866	5460.119101
424.616319	5455.672803
424.994712	5562.371345
425.373044	5440.007418
425.751314	5583.584521
426.129524	5386.056989
426.507673	5577.313325
426.885762	5661.775337
427.263789	5596.499957
427.641756	5476.921267
428.019662	5599.585143
428.397508	5601.299135
428.775292	5552.515889
429.153016	5650.430221
429.530679	5582.840950
429.908282	5666.186347
430.285824	5535.262540
430.663305	5809.453419
431.040726	5546.610178
431.418086	5544.807965
431.795385	5650.334439
432.172624	5661.709802
432.549802	5652.912989
432.926920	5671.497202
433.303977	5674.610115
433.680974	5719.720880
434.057910	5733.906687
434.434786	5737.634620
434.811601	5705.179672
435.188355	5944.899140
435.565050	5814.734027
435.941683	5799.814733
436.318257	6014.724162
436.694770	5996.094578
437.071222	6025.471902
437.447614	5962.626358
437.823946	5875.835333
438.200218	6029.918200
438.576429	5894.497684
438.952580	5993.546275
439.328670	6033.792327
439.704700	5947.933915
440.080670	5934.219456
440.456580	6201.128387
440.832429	6086.994144
441.208218	5930.836842
441.583947	6090.893476
441.959616	6090.543116
442.335224	6020.387898
442.710773	6153.353372
443.086261	6182.352610
443.461689	5976.091280
443.837057	6126.973014
444.212365	6284.551922
444.587612	6171.642678
444.962800	6326.965670
445.337927	6308.489841
445.712995	5921.977014
446.088002	6494.581514
446.462949	6321.833775
446.837837	6256.119814
447.212664	6431.191525
447.587431	6570.345016
447.962139	7115.760053
448.336786	8043.486116
448.711374	7777.456866
449.085901	6852.989909
449.460369	6775.099041
449.834776	6712.563527
450.209124	7104.321675
450.583412	7248.231494
450.957640	7398.916623
451.331808	7166.867271
451.705917	6714.907664
452.079965	6636.149717
452.453954	6851.023859
452.827883	6725.862091
453.201752	6820.721483
453.575562	6619.929805
453.949311	6825.981927
454.323001	6709.480862
454.696632	6788.805938
455.070202	6928.168636
455.443713	7082.405259
455.817164	7182.179776
456.190556	7265.505007
456.563888	7333.802560
456.937160	7381.834674
457.310373	7036.029164
457.683526	7064.690644
458.056619	6955.844571
458.429653	6940.458969
458.802628	6875.821295
459.175542	6984.407748
459.548398	7338.684917
459.921194	7500.319433
460.293930	7501.680545
460.666607	8031.788118
461.039224	8339.031322
461.411782	8463.119324
461.784280	8482.167324
462.156719	8373.928709
462.529099	8256.742047
462.901419	7847.123091
463.273680	7737.215855
463.645882	7748.964264
464.018024	7615.925694
464.390106	7780.065663
464.762130	8168.998244
465.134094	8637.613823
465.505999	9653.101333
465.877845	10876.198682
466.249631	11527.180522
466.621358	11143.823458
466.993026	10514.992447
467.364634	10260.774621
467.736184	9901.789014
468.107674	9562.736130
468.479105	9600.091080
468.850477	9362.491417
469.221790	9136.945153
469.593043	8803.992065
469.964238	8663.487545
470.335373	8681.318106
470.706449	8732.662258
471.077467	8725.188748
471.448425	10027.580926
471.819324	11095.940058
472.190164	11121.450817
472.560945	9872.691474
472.931667	9085.570754
473.302330	8951.947409
473.672934	8596.840971
474.043479	8955.393038
474.413965	8897.124861
474.784393	8778.758569
475.154761	8936.370244
475.525070	9023.466259
475.895321	8850.602573
476.265513	9026.899285
476.635645	9199.077374
477.005719	9198.149802
477.375734	9310.975866
477.745691	9549.004027
478.115588	9677.787864
478.485427	9927.445967
478.855207	10459.938006
479.224928	11278.661720
479.594591	11900.180537
479.964194	11715.888555
480.333739	11655.747590
480.703226	11572.755074
481.072653	11660.624906
481.442022	11900.039384
481.811333	12081.619225
482.180584	11892.510421
482.549777	11603.738005
482.918912	11421.391909
483.287988	11448.150354
483.657005	11457.322733
484.025964	11146.800259
484.394864	11275.619384
484.763706	11247.154509
485.132489	11003.165183
485.501213	10977.543519
485.869879	11040.505010
486.238487	10883.248736
486.607036	10994.254944
486.975527	10775.710842
487.343959	10961.983997
487.712333	11016.998109
488.080648	10948.012439
488.448905	10987.368728
488.817104	10931.275809
489.185244	11196.228772
489.553326	11348.643018
489.921350	11890.851882
490.289315	12951.750106
490.657222	13296.232312
491.025070	13193.014687
491.392861	13072.677304
491.760593	12688.422914
492.128267	12339.549862
492.495883	12013.238494
492.863440	11675.516474
493.230939	11343.354848
493.598380	11270.338775
493.965763	11136.813733
494.333088	11041.571214
494.700354	10961.242948
495.067563	11026.634275
495.434713	10853.420229
495.801805	10979.252470
496.168839	10901.379246
496.535815	10835.206540
496.902733	10839.057981
497.269593	10776.736717
497.636395	10876.133147
498.003139	10857.795950
498.369825	10729.627134
498.736453	10890.505477
499.103023	10815.692233
499.469535	10848.033756
499.835989	10827.468369
500.202385	10795.940993
500.568723	10646.871553
500.935003	10870.081242
501.301226	10672.407517
501.667390	10934.736561
502.033497	11033.714575
502.399546	10885.489529
502.765537	10796.369491
503.131470	10874.177180
503.497345	11048.071782
503.863163	10656.205249
504.228923	10960.690941
504.594625	11030.730212
504.960269	10771.236818
505.325856	10994.393575
505.691385	10790.617534
506.056856	10949.003026
506.422270	10969.752415
506.787625	10855.106495
507.152924	10978.337500
507.518164	10952.728439
507.883347	10869.672909
508.248472	10793.846393
508.613540	11032.111488
508.978550	10912.091698
509.343503	10887.188398
509.708398	11002.635862
510.073236	11122.764037
510.438016	11122.743873
510.802738	11071.137581
511.167403	11129.546910
511.532010	11028.244923
511.896561	11254.557443
512.261053	11330.625934
512.625488	11198.313290
512.989866	11184.729901
513.354186	11171.330514
513.718449	11066.282950
514.082655	11266.646130
514.446803	11159.420788
514.810894	11278.540733
515.174927	11148.995682
515.538904	11172.789928
515.902822	11326.502270
516.266684	11205.330576
516.630488	11147.392595
516.994235	11203.785462
517.357925	11265.169072
517.721558	11348.438851
518.085133	11376.157636
518.448651	11381.002184
518.812112	11266.986408
519.175516	11281.736824
519.538863	11400.990359
519.902152	11315.729324
520.265385	11472.771349
520.628560	11393.496684
520.991678	11369.745288
521.354739	11431.910277
521.717743	11359.456293
522.080690	11343.813593
522.443580	11477.988943
522.806413	11440.197933
523.169189	11465.675925
523.531908	11519.954028
523.894569	11340.252017
524.257174	11345.807369
524.619722	11467.934362
524.982213	11414.210785
525.344647	11462.368928
525.707025	11417.154819
526.069345	11510.048161
526.431608	11424.799729
526.793815	11536.057994
527.155964	11322.270222
527.518057	11373.770649
527.880093	11328.128042
528.242072	11394.958619
528.603995	11300.056377
528.965860	11222.667104
529.327669	11276.700711
529.689421	11229.888557
530.051117	11190.529748
530.412755	11301.407406
530.774337	11185.526403
531.135862	11165.734833
531.497331	11195.225583
531.858743	11038.755729
532.220098	11211.964734
532.581396	11076.201420
532.942638	11060.810777
533.303824	11026.868688
533.664953	11038.967458
534.026025	10956.589963
534.387040	11053.927082
534.747999	11056.724922
535.108902	11120.114911
535.469748	10866.335665
535.830537	10972.764505
536.191270	10954.966711
536.551947	10978.007305
536.912567	10970.690070
537.273131	10904.048537
537.633638	10884.078006
537.994089	10867.986643
538.354483	10819.042080
538.714821	10966.853752
539.075103	10970.052364
539.435328	10940.680081
539.795497	10764.811868
540.155609	10919.514797
540.515665	11008.450833
540.875665	10738.055943
541.235609	10811.001440
541.595496	10802.809565
541.955328	10963.062804
542.315102	10837.086890
542.674821	10800.810747
543.034483	10800.324276
543.394090	10804.397528
543.753640	10726.451207
544.113134	10947.485639
544.472571	10805.219236
544.831953	10947.931781
545.191278	10755.737791
545.550548	10789.100147
545.909761	10918.579663
546.268918	10892.267360
546.628019	10976.925977
546.987064	10838.942035
547.346053	10766.790520
547.704986	10861.949861
548.063863	10851.088695
548.422684	10840.923208
548.781449	10756.544375
549.140158	10863.371466
549.498811	10735.109389
549.857408	10597.160735
550.215949	10828.159007
550.574434	10679.797849
550.932864	10778.929619
551.291237	10835.110758
551.649555	10779.451378
552.007817	10792.394541
552.366022	10755.538665
552.724173	10743.528116
553.082267	10730.133770
553.440305	10872.112827
553.798288	10674.297950
554.156215	10823.710188
554.514086	10802.837291
554.871902	10655.882615
555.229661	10692.965343
555.587365	10661.528707
555.945014	10558.714375
556.302606	10689.144148
556.660143	10574.445295
557.017625	10734.398586
557.375050	10633.008380
557.732421	10763.884295
558.089735	10682.230206
558.446994	10684.100474
558.804197	10714.145751
559.161345	10713.848323
559.518437	10573.739534
559.875474	10654.261884
560.232455	10678.537561
560.589381	10634.188010
560.946251	10627.868923
561.303065	10736.273896
561.659825	10671.280820
562.016528	10607.215316
562.373177	10480.553805
562.729770	10600.271127
563.086307	10511.599751
563.442789	10605.216498
563.799216	10487.359363
564.155587	10528.475013
564.511904	10486.383899
564.868164	10480.705040
565.224370	10491.440177
565.580520	10414.209700
565.936615	10425.098592
566.292654	10291.782758
566.648638	10422.668756
567.004567	10376.771571
567.360441	10367.939469
567.716260	10277.596951
568.072023	10366.227998
568.427732	10321.142438
568.783385	10229.784128
569.138982	10296.823912
569.494525	10316.912910
569.850013	10189.674187
570.205445	10275.814903
570.560823	10166.893213
570.916145	10082.862219
571.271412	10156.372325
571.626625	10103.304098
571.981782	10077.022043
572.336884	10053.217714
572.691931	10057.253158
573.046923	10003.340538
573.401860	9955.149628
573.756743	9890.312828
574.111570	9932.719014
574.466342	9921.878012
574.821059	9946.219224
575.175722	9843.135189
575.530330	9852.141211
575.884882	9841.383388
576.239380	9770.209858
576.593823	9748.762269
576.948211	9762.892623
577.302544	9645.693358
577.656823	9659.266664
578.011047	9658.752467
578.365216	9632.097366
578.719330	9560.210512
579.073389	9564.049351
579.427394	9514.517493
579.781344	9492.575871
580.135239	9444.755486
580.489080	9452.697824
580.842866	9355.665695
581.196597	9359.191982
581.550273	9402.404753
581.903895	9366.478970
582.257463	9435.174773
582.610975	9305.193662
582.964434	9340.832099
583.317837	9257.118699
583.671186	9240.213189
584.024481	9237.496007
584.377721	9155.239500
584.730906	9131.576324
585.084037	9163.633021
585.437113	9101.042055
585.790135	9122.814798
586.143103	9017.903346
586.496016	8988.601639
586.848874	9050.156648
587.201679	9037.185759
587.554428	8922.038244
587.907124	8968.933577
588.259765	8941.418960
588.612352	8936.773536
588.964884	8818.334147
589.317362	8834.468360
589.669786	8829.490221
590.022155	8884.068273
590.374470	8898.717866
590.726731	8840.931119
591.078937	8683.339609
591.431090	8796.939490
591.783188	8673.448865
592.135232	8663.931167
592.487222	8663.117020
592.839157	8715.030823
593.191038	8652.732243
593.542866	8597.108152
593.894639	8496.844643
594.246358	8542.227631
594.598022	8567.471208
594.949633	8459.787121
595.301190	8438.906662
595.652692	8464.873645
596.004141	8579.776665
596.355535	8352.007252
596.706876	8336.525868
597.058162	8269.859129
597.409395	8346.575409
597.760573	8409.201663
598.111698	8315.554668
598.462768	8302.208214
598.813785	8264.482739
599.164748	8238.568687
599.515657	8227.173159
599.866511	8131.376113
600.217312	8259.219774
600.568060	8122.874207
600.918753	8223.944300
601.269392	8192.182510
601.619978	8108.615303
601.970510	8162.795104
602.320988	8163.901637
602.671412	8219.495482
603.021783	8157.269999
603.372100	8130.241853
603.722363	8131.587841
604.072572	8106.775282
604.422728	8115.965305
604.772830	8048.865027
605.122878	8056.759474
605.472872	8048.552476
605.822813	8080.568844
606.172701	8027.785442
606.522534	8100.173891
606.872314	8103.359900
607.222041	8067.204745
607.571714	8122.695246
607.921333	8077.715551
608.270899	8087.530677
608.620411	8181.346550
608.969870	8083.258299
609.319276	8072.669356
609.668627	8091.893796
610.017926	8129.107593
610.367171	8179.877054
610.716362	8151.923856
611.065500	8139.799881
611.414585	8168.095877
611.763616	8157.259917
612.112594	8140.293914
612.461518	8156.614649
612.810389	8208.170530
613.159207	8154.104155
613.507971	8109.910880
613.856682	8222.336172
614.205340	8177.926127
614.553945	8257.309177
614.902496	8157.033065
615.250994	8213.120943
615.599439	8188.376439
615.947830	8199.729118
616.296169	8178.452928
616.644454	8189.175462
616.992686	8190.317283
617.340864	8242.334429
617.688990	8148.339595
618.037063	8243.191426
618.385082	8191.552366
618.733048	8273.269470
619.080961	8209.594656
619.428821	8230.104590
619.776628	8234.155157
620.124382	8182.193464
620.472083	8165.101432
620.819731	8194.418262
621.167326	8088.443126
621.514868	8099.667255
621.862357	7981.989080
622.209793	7999.610433
622.557176	7935.683562
622.904506	7907.672390
623.251783	7839.120260
623.599007	7797.805483
623.946179	7800.056358
624.293297	7751.139522
624.640363	7673.316710
624.987376	7654.230901
625.334336	7602.430525
625.681243	7553.097793
626.028097	7545.762914
626.374899	7517.207298
626.721647	7510.520208
627.068343	7440.710309
627.414987	7413.873727
627.761577	7370.643312
628.108115	7409.324086
628.454600	7291.592979
628.801032	7354.710745
629.147412	7311.840773
629.493739	7300.639329
629.840014	7236.543579
630.186236	7292.356713
630.532405	7174.791965
630.878521	7231.298258
631.224585	7182.653644
631.570597	7114.154446
631.916556	7141.825339
632.262462	7137.031202
632.608316	7098.927640
632.954117	7075.486275
633.299866	7064.932619
633.645562	7054.507513
633.991206	6974.983311
634.336797	6921.746206
634.682336	6876.678291
635.027823	6845.957499
635.373257	6834.786302
635.718639	6765.989676
636.063968	6781.196316
636.409245	6670.356467
636.754470	6670.200191
637.099642	6633.364480
637.444762	6572.795016
637.789829	6587.452171
638.134845	6523.575711
638.479808	6511.454256
638.824719	6514.962899
639.169577	6440.489934
639.514383	6465.610003
639.859137	6392.480505
640.203839	6396.722636
640.548489	6388.994547
