Dividing Wavelength (nm)	Counts (n)	Blue Motor Position (mm): 40.600000	Red Motor Position (mm): 0.000000	
326.493990	2129.935391
326.888308	2129.935391
327.282561	2129.935391
327.676750	2096.462129
328.070874	2096.033631
328.464933	2099.217120
328.858929	2102.493870
329.252859	2114.431322
329.646726	2124.760647
330.040528	2139.281690
330.434265	2154.054792
330.827938	2171.255208
331.221547	2188.107786
331.615091	2208.421115
332.008571	2231.013046
332.401986	2250.471900
332.795338	2269.852616
333.188625	2286.387601
333.581847	2303.439303
333.975006	2323.372026
334.368100	2342.709892
334.761129	2359.469208
335.154095	2376.881353
335.546996	2400.234498
335.939833	2422.730647
336.332606	2438.985848
336.725315	2449.466407
337.117960	2458.227932
337.510540	2468.746300
337.903056	2480.421612
338.295508	2486.846563
338.687896	2495.459374
339.080220	2505.624861
339.472480	2509.617455
339.864676	2514.595594
340.256807	2517.569875
340.648875	2520.707993
341.040879	2524.594723
341.432818	2527.518592
341.824694	2527.329549
342.216506	2529.807276
342.608253	2529.759385
342.999937	2529.915661
343.391557	2531.125537
343.783113	2525.842408
344.174605	2527.710156
344.566033	2525.734023
344.957397	2521.743950
345.348697	2521.605318
345.739934	2522.984074
346.131106	2519.465349
346.522215	2516.551562
346.913260	2512.838752
347.304241	2511.593587
347.695159	2508.752897
348.086012	2510.953360
348.476802	2507.827845
348.867528	2506.096209
349.258191	2504.016733
349.648789	2502.058244
350.039324	2500.046824
350.429796	2501.090343
350.820203	2498.597492
351.210548	2500.878614
351.600828	2495.633294
351.991045	2498.776453
352.381198	2497.513644
352.771288	2495.020794
353.161314	2495.207316
353.551276	2498.042965
353.941175	2494.131030
354.331010	2495.761843
354.720782	2494.226812
355.110490	2493.216061
355.500135	2493.568941
355.889717	2496.185300
356.279235	2497.861484
356.668689	2497.629591
357.058080	2497.836278
357.447408	2494.468787
357.836672	2496.076915
358.225873	2494.289826
358.615010	2491.524753
359.004084	2497.208654
359.393095	2495.902996
359.782043	2499.903151
360.170927	2497.758140
360.559748	2499.996413
360.948505	2503.177381
361.337199	2503.530261
361.725830	2502.942967
362.114398	2503.865498
362.502903	2501.423059
362.891344	2504.067144
363.279722	2505.161075
363.668037	2501.730569
364.056289	2506.416322
364.444478	2506.202073
364.832603	2508.032012
365.220665	2506.998575
365.608665	2505.521517
365.996601	2507.560664
366.384474	2507.419512
366.772284	2510.340860
367.160031	2509.420850
367.547715	2509.952691
367.935336	2511.144924
368.322893	2509.078051
368.710388	2510.338340
369.097820	2515.510563
369.485189	2510.698782
369.872495	2511.538134
370.259738	2514.550224
370.646918	2510.653412
371.034035	2514.406551
371.421090	2513.378155
371.808081	2513.494102
372.195010	2514.613238
372.581875	2514.522497
372.968678	2518.381501
373.355418	2514.129287
373.742096	2518.305883
374.128710	2515.213135
374.515262	2516.299504
374.901751	2519.843435
375.288177	2514.386386
375.674540	2516.891840
376.060841	2518.633558
376.447079	2518.699093
376.833254	2521.832170
377.219367	2512.690038
377.605417	2516.221366
377.991404	2512.684997
378.377329	2518.812519
378.763191	2513.824298
379.148991	2523.788138
379.534727	2519.362005
379.920402	2520.710514
380.306013	2523.578930
380.691563	2523.102541
381.077049	2522.638755
381.462474	2524.753519
381.847835	2523.762932
382.233134	2523.962058
382.618371	2524.960206
383.003545	2525.318128
383.388657	2527.468180
383.773706	2526.712007
384.158693	2527.505989
384.543618	2529.323325
384.928480	2529.179652
385.313280	2531.324663
385.698017	2534.979500
386.082692	2539.599717
386.467305	2537.568132
386.851856	2544.439225
387.236344	2551.269988
387.620770	2558.584702
388.005133	2567.469736
388.389435	2574.668504
388.773674	2583.215780
389.157851	2600.070878
389.541965	2611.567229
389.926018	2620.633745
390.310008	2644.266674
390.693936	2657.295536
391.077802	2676.978721
391.461606	2695.709128
391.845348	2722.790207
392.229027	2743.201839
392.612645	2762.194386
392.996200	2797.795014
393.379694	2830.237360
393.763125	2870.375027
394.146494	2890.118706
394.529801	2933.558328
394.913047	2973.189359
395.296230	2993.858090
395.679351	3042.971532
396.062410	3082.267326
396.445408	3103.795573
396.828343	3152.029333
397.211217	3192.910570
397.594028	3195.864687
397.976778	3261.442536
398.359466	3308.431131
398.742092	3353.012575
399.124656	3351.716999
399.507158	3428.322373
399.889598	3474.390957
400.271977	3547.596073
400.654294	3568.423600
401.036549	3608.964559
401.418742	3617.312710
401.800874	3720.326168
402.182944	3771.103190
402.564952	3850.060262
402.946898	3872.450547
403.328783	3904.857605
403.710606	3872.858881
404.092367	4045.042011
404.474067	4051.688772
404.855705	4082.477619
405.237282	4055.731777
405.618797	4169.155218
406.000250	4224.333168
406.381642	4317.949915
406.762972	4312.704595
407.144240	4344.199203
407.525447	4363.922718
407.906593	4440.245787
408.287677	4498.637472
408.668700	4451.197694
409.049661	4515.197663
409.430560	4568.792690
409.811399	4515.878218
410.192176	4679.347714
410.572891	4631.388697
410.953545	4742.977158
411.334138	4639.356241
411.714669	4715.840627
412.095139	4623.027943
412.475547	4769.846508
412.855894	4760.535497
413.236180	4774.701139
413.616405	4733.630859
413.996568	4821.170495
414.376670	4770.995891
414.756711	4730.964088
415.136691	4767.159573
415.516609	4846.275441
415.896466	4884.941091
416.276262	4919.914096
416.655997	4902.292743
417.035670	5089.420374
417.415283	5176.246687
417.794834	5121.477071
418.174324	5074.952262
418.553753	4986.366586
418.933121	5170.928270
419.312428	5235.969237
419.691674	5176.367675
420.070859	5303.341737
420.449983	5218.168922
420.829045	5329.018854
421.208047	5239.815637
421.586988	5311.505886
421.965867	5326.508360
422.344686	5449.235250
422.723444	5310.865659
423.102141	5135.791427
423.480777	5431.651705
423.859352	5198.568916
424.237866	5456.524758
424.616319	5446.313901
424.994712	5558.618206
425.373044	5435.649340
425.751314	5580.174180
426.129524	5383.528851
426.507673	5573.610598
426.885762	5662.440770
427.263789	5589.850675
427.641756	5476.328931
428.019662	5592.494760
428.397508	5598.415595
428.775292	5549.110590
429.153016	5650.210930
429.530679	5573.340896
429.908282	5658.347353
430.285824	5530.196181
430.663305	5800.996883
431.040726	5539.915525
431.418086	5543.484662
431.795385	5644.615250
432.172624	5656.346015
432.549802	5647.302185
432.926920	5665.079814
433.303977	5676.465260
433.680974	5707.407862
434.057910	5728.714299
434.434786	5737.927007
434.811601	5702.265885
435.188355	5941.433347
435.565050	5814.600437
435.941683	5791.275018
436.318257	6004.659498
436.694770	5995.383775
437.071222	6024.125914
437.447614	5953.764009
437.823946	5870.247213
438.200218	6022.429566
438.576429	5891.777982
438.952580	5988.878166
439.328670	6024.279669
439.704700	5941.438388
440.080670	5926.541778
440.456580	6197.655032
440.832429	6081.698412
441.208218	5927.113949
441.583947	6079.732362
441.959616	6081.834523
442.335224	6014.489748
442.710773	6148.186190
443.086261	6177.757598
443.461689	5972.433922
443.837057	6119.197034
444.212365	6274.106651
444.587612	6170.503378
444.962800	6320.812941
445.337927	6299.577081
445.712995	5909.104427
446.088002	6489.154712
446.462949	6324.392161
446.837837	6250.934987
447.212664	6428.728922
447.587431	6568.447021
447.962139	7110.728982
448.336786	8032.763582
448.711374	7772.133407
449.085901	6848.876327
449.460369	6769.011848
449.834776	6698.826383
450.209124	7093.276507
450.583412	7250.099241
450.957640	7391.496045
451.331808	7160.001219
451.705917	6707.151849
452.079965	6631.131249
452.453954	6847.290884
452.827883	6719.911009
453.201752	6810.331665
453.575562	6614.692046
453.949311	6817.646379
454.323001	6705.069852
454.696632	6783.711852
455.070202	6922.351145
455.443713	7073.729433
455.817164	7172.480596
456.190556	7249.027996
456.563888	7328.804256
456.937160	7367.903445
457.310373	7034.899945
457.683526	7056.173615
458.056619	6949.462470
458.429653	6933.189625
458.802628	6867.347115
459.175542	6979.658982
459.548398	7333.154772
459.921194	7491.063875
460.293930	7495.931109
460.666607	8025.146398
461.039224	8335.709202
461.411782	8455.978529
461.784280	8475.999472
462.156719	8366.074592
462.529099	8238.276301
462.901419	7834.255546
463.273680	7722.099955
463.645882	7740.263233
464.018024	7602.221317
464.390106	7771.624251
464.762130	8162.588417
465.134094	8633.805231
465.505999	9659.380090
465.877845	10872.574093
466.249631	11522.434276
466.621358	11135.540842
466.993026	10503.486014
467.364634	10252.023178
467.736184	9879.996106
468.107674	9555.486951
468.479105	9589.668494
468.850477	9349.245785
469.221790	9120.783213
469.593043	8795.069222
469.964238	8655.199888
470.335373	8668.296806
470.706449	8725.445847
471.077467	8710.070327
471.448425	10015.247743
471.819324	11088.610220
472.190164	11101.674370
472.560945	9853.449390
472.931667	9071.952077
473.302330	8938.447199
473.672934	8588.255886
474.043479	8947.148231
474.413965	8883.594404
474.784393	8767.322712
475.154761	8922.136546
475.525070	9018.362091
475.895321	8839.305347
476.265513	9015.619703
476.635645	9178.461575
477.005719	9191.800468
477.375734	9299.703846
477.745691	9538.989775
478.115588	9665.167335
478.485427	9913.184543
478.855207	10457.858530
479.224928	11262.343505
479.594591	11892.525545
479.964194	11706.499406
480.333739	11635.194805
480.703226	11559.922817
481.072653	11655.253557
481.442022	11888.666541
481.811333	12073.699573
482.180584	11879.131199
482.549777	11589.002713
482.918912	11411.468398
483.287988	11436.263313
483.657005	11444.646752
484.025964	11136.654937
484.394864	11263.818043
484.763706	11226.082486
485.132489	10986.305044
485.501213	10959.533997
485.869879	11032.585357
486.238487	10873.776408
486.607036	10977.664506
486.975527	10764.605180
487.343959	10952.282297
487.712333	11004.780873
488.080648	10927.157186
488.448905	10975.390946
488.817104	10905.898640
489.185244	11180.298726
489.553326	11335.566265
489.921350	11875.932587
490.289315	12930.922578
490.657222	13264.830965
491.025070	13179.577492
491.392861	13057.967217
491.760593	12676.825739
492.128267	12322.278869
492.495883	11997.273160
492.863440	11660.209011
493.230939	11327.238279
493.598380	11256.089954
493.965763	11124.019285
494.333088	11019.685044
494.700354	10949.237440
495.067563	11013.471822
495.434713	10844.691471
495.801805	10968.658485
496.168839	10896.454038
496.535815	10825.444345
496.902733	10825.681280
497.269593	10758.165106
497.636395	10861.201250
498.003139	10852.853099
498.369825	10718.861750
498.736453	10872.624504
499.103023	10794.393358
499.469535	10831.576909
499.835989	10818.840434
500.202385	10788.175095
500.568723	10631.002000
500.935003	10860.810560
501.301226	10659.940744
501.667390	10922.927658
502.033497	11013.794456
502.399546	10874.714063
502.765537	10781.815679
503.131470	10855.202277
503.497345	11034.440502
503.863163	10644.494649
504.228923	10955.654829
504.594625	11018.747390
504.960269	10761.335992
505.325856	10985.092647
505.691385	10775.410893
506.056856	10932.795717
506.422270	10957.535179
506.787625	10847.086019
507.152924	10962.450304
507.518164	10942.631008
507.883347	10863.409275
508.248472	10785.465475
508.613540	11021.643533
508.978550	10901.769935
509.343503	10878.807479
509.708398	10994.275108
510.073236	11109.422624
510.438016	11122.615323
510.802738	11065.993083
511.167403	11117.803542
511.532010	11012.458550
511.896561	11247.111659
512.261053	11319.394243
512.625488	11184.576145
512.989866	11168.169710
513.354186	11153.091619
513.718449	11057.302134
514.082655	11245.947152
514.446803	11148.509210
514.810894	11267.578743
515.174927	11136.133178
515.538904	11159.720736
515.902822	11309.939559
516.266684	11194.734070
516.630488	11137.378342
516.994235	11193.889677
517.357925	11254.643143
517.721558	11344.688233
518.085133	11354.465551
518.448651	11373.596729
518.812112	11255.275807
519.175516	11266.336099
519.538863	11384.399922
519.902152	11309.576596
520.265385	11465.141563
520.628560	11375.809796
520.991678	11350.830879
521.354739	11423.032805
521.717743	11349.920950
522.080690	11335.122643
522.443580	11465.630555
522.806413	11420.834862
523.169189	11455.424739
523.531908	11512.684685
523.894569	11332.856645
524.257174	11331.976963
524.619722	11450.249994
524.982213	11401.368446
525.344647	11453.108328
525.707025	11401.922973
526.069345	11489.969245
526.431608	11412.660631
526.793815	11519.356652
527.155964	11313.155815
527.518057	11360.371262
527.880093	11311.242697
528.242072	11380.089736
528.603995	11287.970211
528.965860	11212.809127
529.327669	11257.047773
529.689421	11210.938859
530.051117	11180.452482
530.412755	11281.920826
530.774337	11172.432006
531.135862	11155.040025
531.497331	11174.821513
531.858743	11029.868175
532.220098	11193.136025
532.581396	11066.124153
532.942638	11051.184694
533.303824	11015.770588
533.664953	11026.094871
534.026025	10942.643611
534.387040	11044.853005
534.747999	11048.328880
535.108902	11101.034144
535.469748	10860.855931
535.830537	10964.227311
536.191270	10943.253590
536.551947	10962.896446
536.912567	10963.597167
537.273131	10896.310366
537.633638	10866.370953
537.994089	10854.388130
538.354483	10805.385594
538.714821	10951.843716
539.075103	10964.444080
539.435328	10928.556106
539.795497	10748.355021
540.155609	10909.687067
540.515665	11002.086376
540.875665	10738.164328
541.235609	10806.764350
541.595496	10797.367639
541.955328	10952.889756
542.315102	10833.732002
542.674821	10786.992944
543.034483	10786.967739
543.394090	10794.728595
543.753640	10713.490401
544.113134	10940.264186
544.472571	10792.886053
544.831953	10941.053127
545.191278	10736.054605
545.550548	10777.515575
545.909761	10906.891748
546.268918	10881.665814
546.628019	10966.299225
546.987064	10827.619603
547.346053	10756.652760
547.704986	10853.082471
548.063863	10839.670482
548.422684	10830.646816
548.781449	10748.372665
549.140158	10852.850578
549.498811	10726.831814
549.857408	10578.027035
550.215949	10808.559001
550.574434	10663.472072
550.932864	10761.908163
551.291237	10821.260188
551.649555	10770.483166
552.007817	10777.331573
552.366022	10743.089536
552.724173	10742.955945
553.082267	10726.710827
553.440305	10859.431805
553.798288	10659.315641
554.156215	10822.089458
554.514086	10789.503439
554.871902	10642.813424
555.229661	10669.418113
555.587365	10649.808025
555.945014	10548.122911
556.302606	10675.399442
556.660143	10571.067722
557.017625	10724.291073
557.375050	10617.030443
557.732421	10745.456357
558.089735	10667.837712
558.446994	10665.349902
558.804197	10701.104286
559.161345	10705.810203
559.518437	10553.088447
559.875474	10641.898454
560.232455	10674.010604
560.589381	10619.072110
560.946251	10616.828796
561.303065	10719.809487
561.659825	10658.262040
562.016528	10594.075548
562.373177	10475.414349
562.729770	10586.087840
563.086307	10505.855356
563.442789	10590.264436
563.799216	10474.446447
564.155587	10523.905207
564.511904	10476.478032
564.868164	10468.641558
565.224370	10481.922478
565.580520	10401.039685
565.936615	10408.780377
566.292654	10277.269276
566.648638	10414.701212
567.004567	10371.455674
567.360441	10352.175781
567.716260	10263.272513
568.072023	10355.029074
568.427732	10311.917127
568.783385	10217.410615
569.138982	10285.052818
569.494525	10302.147370
569.850013	10180.461478
570.205445	10265.835939
570.560823	10154.900308
570.916145	10077.110263
571.271412	10143.736672
571.626625	10087.978990
571.981782	10063.194158
572.336884	10042.711949
572.691931	10041.587772
573.046923	9991.778652
573.401860	9946.375499
573.756743	9881.884018
574.111570	9921.699051
574.466342	9903.361854
574.821059	9933.684395
575.175722	9831.464918
575.530330	9840.939767
575.884882	9835.011370
576.239380	9758.216953
576.593823	9740.298171
576.948211	9752.424667
577.302544	9632.611563
577.656823	9651.498246
578.011047	9655.427826
578.365216	9629.682653
578.719330	9543.335249
579.073389	9554.506446
579.427394	9500.704732
579.781344	9485.392227
580.135239	9436.268703
580.489080	9447.018964
580.842866	9342.077264
581.196597	9351.698307
581.550273	9392.909739
581.903895	9356.005972
582.257463	9425.094986
582.610975	9297.296695
582.964434	9333.628291
583.317837	9246.098736
583.671186	9236.742355
584.024481	9227.474193
584.377721	9144.380855
584.730906	9125.050550
585.084037	9151.020054
585.437113	9088.353471
585.790135	9104.868291
586.143103	9011.637192
586.496016	8985.816402
586.848874	9043.640957
587.201679	9027.607567
587.554428	8912.361749
587.907124	8962.866549
588.259765	8928.138040
588.612352	8933.025438
588.964884	8810.893404
589.317362	8824.708686
589.669786	8818.555958
590.022155	8865.809214
590.374470	8890.062205
590.726731	8830.911826
591.078937	8682.283487
591.431090	8789.498747
591.783188	8658.360692
592.135232	8654.579826
592.487222	8657.213829
592.839157	8707.368269
593.191038	8639.221951
593.542866	8584.860669
593.894639	8486.948858
594.246358	8540.284266
594.598022	8556.927635
594.949633	8450.521480
595.301190	8430.114890
595.652692	8457.543808
596.004141	8566.379799
596.355535	8342.035850
596.706876	8323.451636
597.058162	8259.285309
597.409395	8333.667534
597.760573	8397.420486
598.111698	8309.696848
598.462768	8291.720093
598.813785	8259.222295
599.164748	8225.829692
599.515657	8215.253351
599.866511	8129.170608
600.217312	8248.285512
600.568060	8110.674614
600.918753	8215.500367
601.269392	8186.100358
601.619978	8094.061492
601.970510	8156.123137
602.320988	8154.741861
602.671412	8211.384265
603.021783	8149.730954
603.372100	8121.366902
603.722363	8128.096842
604.072572	8101.245136
604.422728	8105.436856
604.772830	8043.400416
605.122878	8047.082979
605.472872	8041.058800
605.822813	8073.120539
606.172701	8014.502002
606.522534	8092.140812
606.872314	8087.525636
607.222041	8056.835091
607.571714	8116.126622
607.921333	8075.048780
608.270899	8081.635048
608.620411	8171.236516
608.969870	8073.254129
609.319276	8072.447545
609.668627	8083.074297
610.017926	8116.290460
610.367171	8168.635281
610.716362	8145.209039
611.065500	8130.824106
611.414585	8163.989857
611.763616	8148.878999
612.112594	8132.454920
612.461518	8146.993607
612.810389	8208.490643
613.159207	8147.560737
613.507971	8095.697346
613.856682	8214.343423
614.205340	8163.639497
614.553945	8247.037826
614.902496	8144.450345
615.250994	8201.145682
615.599439	8180.058535
615.947830	8193.878859
616.296169	8168.126124
616.644454	8188.583127
616.992686	8181.381838
617.340864	8234.641629
617.688990	8141.312227
618.037063	8234.939057
618.385082	8182.637086
618.733048	8263.368644
619.080961	8201.465795
619.428821	8224.677788
619.776628	8226.182573
620.124382	8178.064759
620.472083	8161.295361
620.819731	8189.614043
621.167326	8075.809994
621.514868	8093.869928
621.862357	7973.958522
622.209793	7997.205803
622.557176	7927.494207
622.904506	7893.458857
623.251783	7830.230185
623.599007	7789.621170
623.946179	7789.278372
624.293297	7750.365705
624.640363	7660.345821
624.987376	7648.693194
625.334336	7592.436437
625.681243	7541.929117
626.028097	7537.215638
626.374899	7507.538365
626.721647	7503.399578
627.068343	7431.495080
627.414987	7404.902994
627.761577	7362.181735
628.108115	7396.476705
628.454600	7288.837988
628.801032	7343.806730
629.147412	7302.554968
629.493739	7286.952597
629.840014	7232.182981
630.186236	7287.161804
630.532405	7170.761562
630.878521	7224.273410
631.224585	7178.565268
631.570597	7102.693382
631.916556	7138.135214
632.262462	7129.406457
632.608316	7090.224088
632.954117	7067.228865
633.299866	7053.920219
633.645562	7045.110802
633.991206	6968.407126
634.336797	6912.657006
634.682336	6866.190170
635.027823	6835.751683
635.373257	6828.958728
635.718639	6755.476349
636.063968	6776.689525
636.409245	6668.524007
636.754470	6660.785836
637.099642	6625.210413
637.444762	6566.952319
637.789829	6575.088741
638.134845	6521.808786
638.479808	6501.984449
638.824719	6505.271281
639.169577	6435.085817
639.514383	6451.703980
639.859137	6386.902468
640.203839	6390.748869
640.548489	6381.347117
