Dividing Wavelength (nm)	Counts (n)	Blue Motor Position (mm): 44.200000	Red Motor Position (mm): 0.000000	
326.493990	2128.039917
326.888308	2128.039917
327.282561	2128.039917
327.676750	2097.994640
328.070874	2096.835175
328.464933	2098.481112
328.858929	2103.522265
329.252859	2115.182454
329.646726	2126.477159
330.040528	2137.204735
330.434265	2156.212405
330.827938	2173.012051
331.221547	2191.525688
331.615091	2212.096116
332.008571	2228.338714
332.401986	2248.934348
332.795338	2267.203490
333.188625	2289.679474
333.581847	2306.463996
333.975006	2323.866059
334.368100	2342.127639
334.761129	2360.187572
335.154095	2376.747763
335.546996	2398.575959
335.939833	2423.421286
336.332606	2440.523400
336.725315	2454.492437
337.117960	2461.265228
337.510540	2468.786629
337.903056	2483.773979
338.295508	2485.755153
338.687896	2497.647235
339.080220	2507.343894
339.472480	2511.462517
339.864676	2513.809174
340.256807	2519.127591
340.648875	2524.332583
341.040879	2526.727131
341.432818	2529.275434
341.824694	2527.090094
342.216506	2528.990609
342.608253	2531.037317
342.999937	2528.945238
343.391557	2533.386495
343.783113	2528.451205
344.174605	2522.938704
344.566033	2524.375433
344.957397	2525.981040
345.348697	2518.686490
345.739934	2520.758405
346.131106	2519.278826
346.522215	2518.678929
346.913260	2510.797085
347.304241	2517.587519
347.695159	2510.229955
348.086012	2512.856396
348.476802	2505.488750
348.867528	2509.423370
349.258191	2502.080930
349.648789	2505.491270
350.039324	2501.768378
350.429796	2505.261898
350.820203	2499.328460
351.210548	2499.628408
351.600828	2500.881135
351.991045	2501.652432
352.381198	2498.279900
352.771288	2496.306288
353.161314	2498.594972
353.551276	2497.901813
353.941175	2496.457523
354.331010	2494.441061
354.720782	2494.446102
355.110490	2496.341576
355.500135	2497.150681
355.889717	2494.632625
356.279235	2496.228150
356.668689	2499.739314
357.058080	2495.350989
357.447408	2494.226812
357.836672	2492.248159
358.225873	2495.902996
358.615010	2493.936946
359.004084	2500.790394
359.393095	2498.383243
359.782043	2501.639829
360.170927	2500.563542
360.559748	2504.273832
360.948505	2505.103101
361.337199	2504.422546
361.725830	2504.861126
362.114398	2505.766013
362.502903	2505.024963
362.891344	2509.662825
363.279722	2506.484378
363.668037	2508.392454
364.056289	2507.482526
364.444478	2507.308606
364.832603	2510.517301
365.220665	2509.816580
365.608665	2510.325737
365.996601	2511.719616
366.384474	2514.945954
366.772284	2510.703823
367.160031	2513.259688
367.547715	2514.136849
367.935336	2512.717764
368.322893	2513.317662
368.710388	2510.650891
369.097820	2516.002076
369.485189	2514.799761
369.872495	2516.203722
370.259738	2516.143228
370.646918	2516.460821
371.034035	2515.175327
371.421090	2514.464524
371.808081	2517.852179
372.195010	2516.619617
372.581875	2516.092817
372.968678	2519.460307
373.355418	2518.326048
373.742096	2520.017355
374.128710	2520.377797
374.515262	2522.167407
374.901751	2522.343848
375.288177	2523.178158
375.674540	2523.710000
376.060841	2525.237470
376.447079	2524.345186
376.833254	2531.372554
377.219367	2527.203520
377.605417	2534.830786
377.991404	2537.646270
378.377329	2544.156920
378.763191	2556.021276
379.148991	2565.717935
379.534727	2577.310068
379.920402	2585.990935
380.306013	2595.740527
380.691563	2612.761983
381.077049	2628.397122
381.462474	2640.263998
381.847835	2660.058088
382.233134	2678.659946
382.618371	2686.874506
383.003545	2720.478838
383.388657	2735.433421
383.773706	2763.174890
384.158693	2781.391100
384.543618	2806.899338
384.928480	2835.732217
385.313280	2872.202445
385.698017	2893.602143
386.082692	2934.329625
386.467305	2957.430713
386.851856	2992.333141
387.236344	3026.585261
387.620770	3065.346693
388.005133	3104.990327
388.389435	3141.707571
388.773674	3170.671520
389.157851	3217.791185
389.541965	3251.640013
389.926018	3251.599683
390.310008	3326.682629
390.693936	3356.170858
391.077802	3405.617016
391.461606	3423.752567
391.845348	3491.024244
392.229027	3515.783871
392.612645	3544.520969
392.996200	3628.504071
393.379694	3679.724715
393.763125	3754.641302
394.146494	3745.456320
394.529801	3817.688493
394.913047	3881.786764
395.296230	3865.617263
395.679351	3934.577727
396.062410	3966.097542
396.445408	3961.573106
396.828343	4010.008512
397.211217	4041.392215
397.594028	3980.726970
397.976778	4052.265984
398.359466	4088.373249
398.742092	4120.813074
399.124656	4051.729101
399.507158	4137.869818
399.889598	4168.951052
400.271977	4235.690888
400.654294	4206.094273
401.036549	4222.926686
401.418742	4197.529353
401.800874	4302.314777
402.182944	4323.832942
402.564952	4390.434146
402.946898	4381.486098
403.328783	4380.437538
403.710606	4293.167603
404.092367	4486.722705
404.474067	4452.198363
404.855705	4460.299497
405.237282	4390.542531
405.618797	4498.967668
406.000250	4535.846229
406.381642	4615.652735
406.762972	4579.648814
407.144240	4588.919496
407.525447	4589.025361
407.906593	4647.785050
408.287677	4689.029250
408.668700	4622.531390
409.049661	4668.640303
409.430560	4712.768043
409.811399	4638.960510
410.192176	4801.991425
410.572891	4738.984564
410.953545	4839.144729
411.334138	4724.453438
411.714669	4791.614210
412.095139	4685.084547
412.475547	4830.829346
412.855894	4810.042148
413.236180	4817.344259
413.616405	4775.938742
413.996568	4857.371021
414.376670	4804.547290
414.756711	4753.316564
415.136691	4791.221000
415.516609	4867.511302
415.896466	4905.829112
416.276262	4935.153504
416.655997	4919.104991
417.035670	5097.702989
417.415283	5188.955436
417.794834	5133.074245
418.174324	5087.814766
418.553753	4996.799254
418.933121	5176.844064
419.312428	5247.992388
419.691674	5182.507800
420.070859	5313.229960
420.449983	5221.881732
420.829045	5338.231563
421.208047	5246.769909
421.586988	5314.560825
421.965867	5326.470551
422.344686	5460.948371
422.723444	5317.885466
423.102141	5134.226149
423.480777	5432.019710
423.859352	5202.480852
424.237866	5461.644050
424.616319	5454.006702
424.994712	5562.688938
425.373044	5440.083035
425.751314	5582.730045
426.129524	5385.205034
426.507673	5580.035548
426.885762	5666.037633
427.263789	5590.621971
427.641756	5472.505216
428.019662	5596.479792
428.397508	5603.043374
428.775292	5551.986568
429.153016	5654.997506
429.530679	5581.482359
429.908282	5661.919010
430.285824	5534.289598
430.663305	5805.417975
431.040726	5538.849321
431.418086	5542.466349
431.795385	5652.744110
432.172624	5660.946067
432.549802	5653.477598
432.926920	5672.223129
433.303977	5673.473335
433.680974	5712.045723
434.057910	5732.036419
434.434786	5735.718982
434.811601	5702.986770
435.188355	5941.002328
435.565050	5808.215815
435.941683	5796.195184
436.318257	6013.536970
436.694770	5993.105174
437.071222	6026.878384
437.447614	5958.043949
437.823946	5870.927769
438.200218	6028.761255
438.576429	5887.364451
438.952580	5992.044011
439.328670	6037.820208
439.704700	5945.783863
440.080670	5933.450680
440.456580	6200.553696
440.832429	6083.891313
441.208218	5930.317603
441.583947	6088.120842
441.959616	6085.872487
442.335224	6014.792218
442.710773	6148.203834
443.086261	6176.966137
443.461689	5971.559282
443.837057	6120.469926
444.212365	6277.085973
444.587612	6170.057236
444.962800	6323.678837
445.337927	6301.245703
445.712995	5914.392598
446.088002	6492.854919
446.462949	6321.604402
446.837837	6257.309526
447.212664	6430.417708
447.587431	6572.938689
447.962139	7112.500947
448.336786	8037.398923
448.711374	7778.137422
449.085901	6846.149063
449.460369	6774.683146
449.834776	6703.817125
450.209124	7102.113650
450.583412	7245.136225
450.957640	7392.511837
451.331808	7159.960890
451.705917	6707.340892
452.079965	6635.270036
452.453954	6850.189548
452.827883	6724.563994
453.201752	6819.884652
453.575562	6612.277333
453.949311	6820.517316
454.323001	6712.518157
454.696632	6785.198993
455.070202	6923.281237
455.443713	7074.757828
455.817164	7176.291708
456.190556	7259.584172
456.563888	7333.858013
456.937160	7384.050261
457.310373	7037.725512
457.683526	7056.554222
458.056619	6948.534898
458.429653	6940.826973
458.802628	6874.145111
459.175542	6982.716441
459.548398	7336.376069
459.921194	7500.989907
460.293930	7504.634661
460.666607	8030.953807
461.039224	8339.578287
461.411782	8465.067730
461.784280	8481.201943
462.156719	8372.872588
462.529099	8247.625120
462.901419	7842.225610
463.273680	7735.741318
463.645882	7744.974191
464.018024	7613.402596
464.390106	7781.023482
464.762130	8169.688882
465.134094	8635.604923
465.505999	9664.317901
465.877845	10880.917202
466.249631	11533.267716
466.621358	11143.563838
466.993026	10515.025215
467.364634	10257.006358
467.736184	9897.635103
468.107674	9560.470131
468.479105	9596.413558
468.850477	9360.548052
469.221790	9131.704873
469.593043	8800.899317
469.964238	8670.071292
470.335373	8679.941871
470.706449	8736.115449
471.077467	8719.305721
471.448425	10024.157983
471.819324	11105.276275
472.190164	11125.493822
472.560945	9875.688440
472.931667	9084.101258
473.302330	8948.524466
473.672934	8599.154860
474.043479	8958.236249
474.413965	8894.689984
474.784393	8776.376624
475.154761	8934.552908
475.525070	9027.630252
475.895321	8851.089044
476.265513	9030.907002
476.635645	9192.423051
477.005719	9193.796765
477.375734	9312.291607
477.745691	9555.028206
478.115588	9680.583183
478.485427	9923.062683
478.855207	10456.830135
479.224928	11278.762543
479.594591	11903.059036
479.964194	11719.745038
480.333739	11650.363637
480.703226	11569.470762
481.072653	11661.060966
481.442022	11901.924776
481.811333	12090.307654
482.180584	11891.701316
482.549777	11597.234917
482.918912	11424.338463
483.287988	11447.391660
483.657005	11456.148144
484.025964	11142.565690
484.394864	11267.430029
484.763706	11241.498334
485.132489	11000.871458
485.501213	10963.014913
485.869879	11034.374967
486.238487	10880.294620
486.607036	10998.224852
486.975527	10765.978895
487.343959	10962.188164
487.712333	11009.217088
488.080648	10945.166708
488.448905	10984.938891
488.817104	10928.510736
489.185244	11192.435304
489.553326	11345.547749
489.921350	11879.978113
490.289315	12955.097432
490.657222	13290.984471
491.025070	13200.026932
491.392861	13069.970204
491.760593	12688.609437
492.128267	12337.954337
492.495883	12008.192299
492.863440	11670.545897
493.230939	11336.907212
493.598380	11273.270206
493.965763	11136.864145
494.333088	11038.576768
494.700354	10957.252874
495.067563	11019.150682
495.434713	10846.753303
495.801805	10979.544857
496.168839	10896.005376
496.535815	10834.805768
496.902733	10834.808289
497.269593	10773.147415
497.636395	10868.647034
498.003139	10854.345280
498.369825	10719.693541
498.736453	10889.043542
499.103023	10808.841305
499.469535	10837.986736
499.835989	10830.745119
500.202385	10793.246496
500.568723	10639.208999
500.935003	10862.695952
501.301226	10672.823413
501.667390	10929.430746
502.033497	11028.985973
502.399546	10889.038501
502.765537	10790.587287
503.131470	10868.246262
503.497345	11040.144567
503.863163	10651.262398
504.228923	10965.043978
504.594625	11024.706033
504.960269	10775.426017
505.325856	10998.355922
505.691385	10785.604107
506.056856	10940.123034
506.422270	10960.731271
506.787625	10858.433656
507.152924	10970.576644
507.518164	10951.132914
507.883347	10878.106759
508.248472	10800.805706
508.613540	11024.146465
508.978550	10911.990875
509.343503	10879.757737
509.708398	11009.887562
510.073236	11123.429470
510.438016	11123.734460
510.802738	11076.735782
511.167403	11127.623710
511.532010	11026.619151
511.896561	11257.312434
512.261053	11323.527989
512.625488	11199.792868
512.989866	11179.776967
513.354186	11162.127887
513.718449	11070.338558
514.082655	11259.061714
514.446803	11151.700261
514.810894	11277.595516
515.174927	11142.411935
515.538904	11165.908753
515.902822	11320.876343
516.266684	11204.241687
516.630488	11145.620629
516.994235	11201.920235
517.357925	11262.827456
517.721558	11347.649911
518.085133	11362.143228
518.448651	11381.110569
518.812112	11257.458627
519.175516	11273.219795
519.538863	11400.259392
519.902152	11307.991153
520.265385	11472.158849
520.628560	11383.167360
520.991678	11358.921931
521.354739	11424.209914
521.717743	11357.601148
522.080690	11344.479025
522.443580	11473.971144
522.806413	11430.816346
523.169189	11462.744494
523.531908	11514.491938
523.894569	11333.922849
524.257174	11343.236380
524.619722	11464.423198
524.982213	11410.495455
525.344647	11464.065276
525.707025	11414.301526
526.069345	11511.590754
526.431608	11421.780078
526.793815	11526.124401
527.155964	11320.820890
527.518057	11373.722758
527.880093	11321.267032
528.242072	11384.558718
528.603995	11292.862651
528.965860	11218.190559
529.327669	11272.501430
529.689421	11221.893287
530.051117	11189.501353
530.412755	11290.697475
530.774337	11184.901300
531.135862	11160.025726
531.497331	11185.090343
531.858743	11041.873683
532.220098	11200.291942
532.581396	11075.914074
532.942638	11058.817001
533.303824	11022.198059
533.664953	11031.947651
534.026025	10952.718357
534.387040	11048.394415
534.747999	11053.279293
535.108902	11109.621749
535.469748	10871.268434
535.830537	10972.056223
536.191270	10951.909251
536.551947	10974.929680
536.912567	10971.708383
537.273131	10893.038657
537.633638	10882.711853
537.994089	10864.568740
538.354483	10813.141409
538.714821	10960.411157
539.075103	10967.146139
539.435328	10934.681108
539.795497	10759.536300
540.155609	10914.287120
540.515665	11007.903868
540.875665	10745.945349
541.235609	10805.420882
541.595496	10808.266614
541.955328	10956.476537
542.315102	10840.187200
542.674821	10790.814139
543.034483	10790.269694
543.394090	10798.827053
543.753640	10725.558923
544.113134	10942.696543
544.472571	10799.810078
544.831953	10937.494072
545.191278	10749.701009
545.550548	10780.326018
545.909761	10916.694271
546.268918	10889.225024
546.628019	10975.726183
546.987064	10842.332211
547.346053	10761.464541
547.704986	10859.431805
548.063863	10842.949752
548.422684	10839.766263
548.781449	10753.360887
549.140158	10856.681855
549.498811	10731.822557
549.857408	10595.615621
550.215949	10819.911679
550.574434	10670.580099
550.932864	10769.331262
551.291237	10831.894502
551.649555	10782.576894
552.007817	10795.260437
552.366022	10749.544733
552.724173	10749.302758
553.082267	10729.803575
553.440305	10866.958247
553.798288	10670.489358
554.156215	10820.347739
554.514086	10801.922322
554.871902	10648.202417
555.229661	10688.176247
555.587365	10663.598101
555.945014	10554.010978
556.302606	10676.168218
556.660143	10574.772970
557.017625	10730.176620
557.375050	10630.989397
557.732421	10756.584704
558.089735	10667.177320
558.446994	10672.543629
558.804197	10709.026459
559.161345	10712.572911
559.518437	10561.915507
559.875474	10651.905145
560.232455	10680.422952
560.589381	10626.321289
560.946251	10629.154417
561.303065	10734.365819
561.659825	10668.326703
562.016528	10603.315983
562.373177	10473.360078
562.729770	10596.792730
563.086307	10508.227219
563.442789	10604.949317
563.799216	10481.912396
564.155587	10527.880157
564.511904	10485.791564
564.868164	10475.167332
565.224370	10492.884467
565.580520	10414.582745
565.936615	10415.734649
566.292654	10281.493763
566.648638	10419.132387
567.004567	10376.101097
567.360441	10365.161793
567.716260	10272.147464
568.072023	10362.195074
568.427732	10319.599845
568.783385	10228.848993
569.138982	10296.105548
569.494525	10312.000306
569.850013	10190.251399
570.205445	10270.241908
570.560823	10163.374487
570.916145	10088.833466
571.271412	10151.623558
571.626625	10098.089024
571.981782	10069.787987
572.336884	10045.396364
572.691931	10053.532786
573.046923	10002.486062
573.401860	9952.848341
573.756743	9893.584536
574.111570	9937.697153
574.466342	9914.701930
574.821059	9945.914234
575.175722	9832.815947
575.530330	9849.265232
575.884882	9843.702319
576.239380	9764.180638
576.593823	9740.008305
576.948211	9761.302139
577.302544	9640.831165
577.656823	9655.536211
578.011047	9648.085385
578.365216	9628.959247
578.719330	9551.504439
579.073389	9566.839629
579.427394	9515.699644
579.781344	9487.224687
580.135239	9438.880021
580.489080	9456.319893
580.842866	9350.410292
581.196597	9359.176858
581.550273	9393.018124
581.903895	9364.477632
582.257463	9432.220657
582.610975	9315.525507
582.964434	9330.621242
583.317837	9256.659954
583.671186	9237.483404
584.024481	9238.090863
584.377721	9155.909973
584.730906	9132.899627
585.084037	9159.945417
585.437113	9092.252803
585.790135	9115.099313
586.143103	9013.366307
586.496016	8991.475097
586.848874	9051.197646
587.201679	9039.081233
587.554428	8926.608050
587.907124	8968.913413
588.259765	8945.043549
588.612352	8939.863764
588.964884	8813.819794
589.317362	8833.346703
589.669786	8833.162701
590.022155	8881.451914
590.374470	8898.468329
590.726731	8836.941046
591.078937	8687.589302
591.431090	8799.817989
591.783188	8676.420625
592.135232	8664.026949
592.487222	8659.260538
592.839157	8717.599291
593.191038	8651.600504
593.542866	8598.081095
593.894639	8495.052513
594.246358	8547.634268
594.598022	8564.461640
594.949633	8457.992470
595.301190	8437.684182
595.652692	8460.480280
596.004141	8571.131086
596.355535	8348.228907
596.706876	8327.852563
597.058162	8263.323273
597.409395	8338.552412
597.760573	8404.843585
598.111698	8316.593146
598.462768	8296.068088
598.813785	8264.502903
599.164748	8235.339828
599.515657	8222.172335
599.866511	8138.126218
600.217312	8257.793128
600.568060	8115.821632
600.918753	8221.693425
601.269392	8192.116975
601.619978	8104.925178
601.970510	8169.061258
602.320988	8160.660175
602.671412	8223.697284
603.021783	8156.150863
603.372100	8133.017008
603.722363	8132.817883
604.072572	8106.669418
604.422728	8118.405224
604.772830	8048.872589
605.122878	8053.210502
605.472872	8051.007517
605.822813	8077.128256
606.172701	8025.519444
606.522534	8098.986699
606.872314	8094.323632
607.222041	8064.870691
607.571714	8124.772201
607.921333	8087.291222
608.270899	8086.734175
608.620411	8176.086106
608.969870	8079.900891
609.319276	8075.930982
609.668627	8091.210719
610.017926	8129.994837
610.367171	8172.796753
610.716362	8150.608115
611.065500	8136.959191
611.414585	8167.412801
611.763616	8156.155904
612.112594	8136.999520
612.461518	8152.604412
612.810389	8212.349646
613.159207	8153.741192
613.507971	8101.401412
613.856682	8220.659988
614.205340	8174.994696
614.553945	8254.123168
614.902496	8152.841346
615.250994	8211.535500
615.599439	8193.462963
615.947830	8206.595169
616.296169	8173.963780
616.644454	8185.578599
616.992686	8187.292591
617.340864	8249.815502
617.688990	8152.886716
618.037063	8247.161334
618.385082	8190.954989
618.733048	8278.988659
619.080961	8210.517187
619.428821	8233.225064
619.776628	8233.061227
620.124382	8184.436778
620.472083	8171.433121
620.819731	8196.694343
621.167326	8091.293898
621.514868	8098.238088
621.862357	7985.681725
622.209793	8001.833582
622.557176	7937.115249
622.904506	7907.748007
623.251783	7848.763987
623.599007	7794.122920
623.946179	7803.111298
624.293297	7753.435768
624.640363	7677.268974
624.987376	7659.839185
625.334336	7604.464630
625.681243	7552.681898
626.028097	7533.066768
626.374899	7514.936259
626.721647	7511.117585
627.068343	7444.256761
627.414987	7416.356495
627.761577	7369.685493
628.108115	7409.606390
628.454600	7298.562374
628.801032	7358.917588
629.147412	7312.226421
629.493739	7295.043648
629.840014	7241.365442
630.186236	7296.583721
630.532405	7177.688107
630.878521	7227.703915
631.224585	7188.251845
631.570597	7107.288394
631.916556	7139.458517
632.262462	7136.080944
632.608316	7099.968639
632.954117	7080.744198
633.299866	7066.770120
633.645562	7060.476239
633.991206	6974.973229
634.336797	6917.491472
634.682336	6878.780452
635.027823	6843.542787
635.373257	6835.469379
635.718639	6763.764006
636.063968	6785.929960
636.409245	6673.686149
636.754470	6673.736560
637.099642	6631.884901
637.444762	6568.656229
637.789829	6581.105358
638.134845	6524.188211
638.479808	6506.516446
638.824719	6516.681933
639.169577	6442.977743
639.514383	6465.204190
639.859137	6396.881432
640.203839	6397.093161
640.548489	6383.850050
