Dividing Wavelength (nm)	Counts (n)	Blue Motor Position (mm): 21.800000	Red Motor Position (mm): 0.000000	
326.493990	2134.326236
326.888308	2134.326236
327.282561	2134.326236
327.676750	2099.580083
328.070874	2102.652666
328.464933	2100.064034
328.858929	2109.357401
329.252859	2121.085645
329.646726	2130.631070
330.040528	2144.083389
330.434265	2161.966883
330.827938	2178.433812
331.221547	2195.576255
331.615091	2215.761035
332.008571	2234.761144
332.401986	2254.782087
332.795338	2274.011568
333.188625	2293.974537
333.581847	2313.067907
333.975006	2327.856132
334.368100	2348.721468
334.761129	2366.501618
335.154095	2383.623897
335.546996	2404.118707
335.939833	2423.678384
336.332606	2441.907197
336.725315	2450.638475
337.117960	2461.149281
337.510540	2469.633543
337.903056	2481.586119
338.295508	2488.114413
338.687896	2497.904334
339.080220	2508.672238
339.472480	2509.791374
339.864676	2516.854031
340.256807	2523.304187
340.648875	2523.604136
341.040879	2526.996833
341.432818	2525.502130
341.824694	2529.444313
342.216506	2528.592358
342.608253	2531.289375
342.999937	2531.677544
343.391557	2524.869466
343.783113	2527.082532
344.174605	2526.263345
344.566033	2526.545649
344.957397	2525.151770
345.348697	2522.174969
345.739934	2523.803262
346.131106	2521.075997
346.522215	2520.440812
346.913260	2515.117353
347.304241	2514.683814
347.695159	2510.741632
348.086012	2512.087620
348.476802	2511.613752
348.867528	2509.055366
349.258191	2504.903976
349.648789	2505.236692
350.039324	2502.615292
350.429796	2502.355673
350.820203	2501.055055
351.210548	2499.625888
351.600828	2497.498521
351.991045	2498.232009
352.381198	2497.425424
352.771288	2496.455002
353.161314	2495.776967
353.551276	2496.192862
353.941175	2497.644714
354.331010	2495.955928
354.720782	2497.732934
355.110490	2495.764364
355.500135	2496.202944
355.889717	2495.270331
356.279235	2493.541215
356.668689	2497.589262
357.058080	2495.703870
357.447408	2494.783859
357.836672	2494.665392
358.225873	2494.241935
358.615010	2493.044661
359.004084	2497.833758
359.393095	2501.665034
359.782043	2499.928357
360.170927	2501.488594
360.559748	2499.721670
360.948505	2503.928512
361.337199	2505.125787
361.725830	2502.791732
362.114398	2501.947339
362.502903	2502.640498
362.891344	2505.168636
363.279722	2504.846002
363.668037	2505.347597
364.056289	2503.754593
364.444478	2506.141579
364.832603	2504.616630
365.220665	2505.745848
365.608665	2509.899759
365.996601	2510.023268
366.384474	2506.068482
366.772284	2509.713237
367.160031	2508.548730
367.547715	2509.544358
367.935336	2508.279028
368.322893	2508.324399
368.710388	2511.452435
369.097820	2511.399503
369.485189	2511.399503
369.872495	2509.473782
370.259738	2510.156858
370.646918	2509.940088
371.034035	2508.200890
371.421090	2513.138701
371.808081	2510.192146
372.195010	2509.410767
372.581875	2513.642816
372.968678	2511.003772
373.355418	2511.855727
373.742096	2509.133504
374.128710	2513.123577
374.515262	2513.446211
374.901751	2510.766838
375.288177	2511.533093
375.674540	2512.599297
376.060841	2516.138187
376.447079	2511.893536
376.833254	2512.110305
377.219367	2511.137362
377.605417	2512.808505
377.991404	2511.588546
378.377329	2509.977897
378.763191	2513.617610
379.148991	2516.314628
379.534727	2514.731705
379.920402	2519.062056
380.306013	2516.992663
380.691563	2516.196160
381.077049	2516.881757
381.462474	2515.828156
381.847835	2518.575585
382.233134	2515.371932
382.618371	2517.600122
383.003545	2517.050636
383.388657	2517.839577
383.773706	2518.396624
384.158693	2517.239679
384.543618	2520.886954
384.928480	2517.837056
385.313280	2521.509537
385.698017	2519.220853
386.082692	2519.596419
386.467305	2519.172962
386.851856	2517.784124
387.236344	2521.018024
387.620770	2519.505678
388.005133	2517.718589
388.389435	2524.619928
388.773674	2522.999197
389.157851	2519.999711
389.541965	2521.557427
389.926018	2521.474248
390.310008	2520.914680
390.693936	2521.698580
391.077802	2523.009280
391.461606	2522.868128
391.845348	2522.384177
392.229027	2523.969620
392.612645	2523.246214
392.996200	2524.037675
393.379694	2519.437622
393.763125	2522.079187
394.146494	2523.447860
394.529801	2524.221677
394.913047	2523.921729
395.296230	2522.981553
395.679351	2525.476925
396.062410	2525.103879
396.445408	2525.350896
396.828343	2524.803931
397.211217	2520.380318
397.594028	2525.161853
397.976778	2523.543642
398.359466	2525.575227
398.742092	2521.007942
399.124656	2528.516740
399.507158	2529.260311
399.889598	2524.133457
400.271977	2527.689991
400.654294	2528.090763
401.036549	2525.880217
401.418742	2525.950793
401.800874	2527.256452
402.182944	2528.201668
402.564952	2528.073119
402.946898	2528.340300
403.328783	2527.954652
403.710606	2527.919364
404.092367	2527.458098
404.474067	2530.197965
404.855705	2531.455733
405.237282	2529.174611
405.618797	2527.523633
406.000250	2531.821217
406.381642	2528.330218
406.762972	2527.793335
407.144240	2528.869621
407.525447	2532.224509
407.906593	2530.346679
408.287677	2527.906761
408.668700	2530.749972
409.049661	2531.380116
409.430560	2529.623274
409.811399	2531.591844
410.192176	2529.598068
410.572891	2530.142512
410.953545	2531.158305
411.334138	2531.475898
411.714669	2532.731145
412.095139	2532.784077
412.475547	2532.176618
412.855894	2535.574356
413.236180	2533.878007
413.616405	2534.372041
413.996568	2533.499921
414.376670	2530.767616
414.756711	2534.170394
415.136691	2533.767102
415.516609	2530.933974
415.896466	2533.394057
416.276262	2533.278110
416.655997	2531.329704
417.035670	2529.996319
417.415283	2533.426824
417.794834	2528.947759
418.174324	2532.867256
418.553753	2534.825744
418.933121	2533.663758
419.312428	2535.357586
419.691674	2536.892617
420.070859	2535.939839
420.449983	2536.378420
420.829045	2535.281969
421.208047	2536.713657
421.586988	2537.086702
421.965867	2537.684079
422.344686	2535.183666
422.723444	2536.028060
423.102141	2539.445962
423.480777	2537.137113
423.859352	2536.864891
424.237866	2535.100487
424.616319	2538.145344
424.994712	2537.860519
425.373044	2538.019315
425.751314	2539.297248
426.129524	2539.135931
426.507673	2539.085519
426.885762	2539.302289
427.263789	2536.680889
427.641756	2537.495035
428.019662	2537.918492
428.397508	2537.971424
428.775292	2537.966383
429.153016	2540.078627
429.530679	2540.305479
429.908282	2538.914120
430.285824	2537.114428
430.663305	2541.590973
431.040726	2538.034439
431.418086	2540.784388
431.795385	2541.822866
432.172624	2540.968390
432.549802	2539.007382
432.926920	2539.269522
433.303977	2539.755993
433.680974	2542.107691
434.057910	2540.492001
434.434786	2540.464275
434.811601	2540.779347
435.188355	2540.847403
435.565050	2541.653987
435.941683	2544.081303
436.318257	2539.408153
436.694770	2533.729293
437.071222	2542.029553
437.447614	2536.791794
437.823946	2538.846065
438.200218	2541.447300
438.576429	2542.889070
438.952580	2541.074255
439.328670	2542.644574
439.704700	2541.911086
440.080670	2541.659028
440.456580	2540.081147
440.832429	2544.051056
441.208218	2543.002496
441.583947	2544.751776
441.959616	2543.171375
442.335224	2541.313709
442.710773	2544.545089
443.086261	2545.507949
443.461689	2542.226158
443.837057	2547.315203
444.212365	2543.010058
444.587612	2547.100954
444.962800	2542.969728
445.337927	2545.938968
445.712995	2545.172713
446.088002	2544.517363
446.462949	2544.837476
446.837837	2545.422250
447.212664	2542.823535
447.587431	2545.749925
447.962139	2547.678166
448.336786	2548.782179
448.711374	2547.282436
449.085901	2547.721016
449.460369	2547.705892
449.834776	2546.289328
450.209124	2545.074410
450.583412	2546.695141
450.957640	2547.153886
451.331808	2544.197249
451.705917	2547.113557
452.079965	2545.321427
452.453954	2547.322765
452.827883	2548.812426
453.201752	2548.172199
453.575562	2550.017262
453.949311	2549.238403
454.323001	2548.262940
454.696632	2548.028526
455.070202	2549.868547
455.443713	2548.888043
455.817164	2546.372507
456.190556	2546.823691
456.563888	2546.740512
456.937160	2545.026519
457.310373	2548.593136
457.683526	2549.873589
458.056619	2552.552962
458.429653	2549.104813
458.802628	2549.243444
459.175542	2549.792930
459.548398	2548.847714
459.921194	2552.189999
460.293930	2553.926676
460.666607	2551.796789
461.039224	2552.401727
461.411782	2555.948179
461.784280	2551.879968
462.156719	2552.363919
462.529099	2553.062118
462.901419	2554.269475
463.273680	2551.625390
463.645882	2553.596481
464.018024	2555.660833
464.390106	2553.742674
464.762130	2556.969013
465.134094	2555.910370
465.505999	2558.516647
465.877845	2559.305587
466.249631	2562.413459
466.621358	2558.231822
466.993026	2562.161401
467.364634	2564.538305
467.736184	2563.734241
468.107674	2560.510423
468.479105	2560.785166
468.850477	2562.383212
469.221790	2561.405228
469.593043	2562.025290
469.964238	2562.884807
470.335373	2563.086453
470.706449	2567.321022
471.077467	2567.172308
471.448425	2573.244378
471.819324	2577.390727
472.190164	2578.403999
472.560945	2577.733525
472.931667	2578.978690
473.302330	2577.761252
473.672934	2580.259143
474.043479	2584.551686
474.413965	2588.813982
474.784393	2584.319793
475.154761	2592.597367
475.525070	2594.760022
475.895321	2598.873604
476.265513	2604.539861
476.635645	2613.432456
477.005719	2619.045781
477.375734	2625.284209
477.745691	2635.716877
478.115588	2645.020326
478.485427	2650.575678
478.855207	2668.839778
479.224928	2693.864066
479.594591	2713.547251
479.964194	2717.108826
480.333739	2722.349106
480.703226	2734.798235
481.072653	2748.104361
481.442022	2771.875922
481.811333	2791.911988
482.180584	2799.183852
482.549777	2805.218113
482.918912	2813.793116
483.287988	2832.140395
483.657005	2848.219156
484.025964	2854.654188
484.394864	2874.879298
484.763706	2891.575599
485.132489	2897.919891
485.501213	2918.409661
485.869879	2937.054369
486.238487	2956.790486
486.607036	2978.480050
486.975527	2994.367247
487.343959	3022.670805
487.712333	3051.286915
488.080648	3073.006726
488.448905	3103.896396
488.817104	3125.190230
489.185244	3174.069258
489.553326	3215.164744
489.921350	3294.567958
490.289315	3424.584357
490.657222	3488.443173
491.025070	3527.554966
491.392861	3549.857030
491.760593	3554.729305
492.128267	3551.702093
492.495883	3555.641754
492.863440	3559.198288
493.230939	3567.601892
493.598380	3601.375102
493.965763	3633.625884
494.333088	3655.018020
494.700354	3691.067311
495.067563	3735.197572
495.434713	3763.349896
495.801805	3827.554031
496.168839	3860.901264
496.535815	3908.172163
496.902733	3947.636836
497.269593	3996.583919
497.636395	4051.035943
498.003139	4118.042960
498.369825	4132.768170
498.736453	4222.341912
499.103023	4256.059670
499.469535	4322.965863
499.835989	4370.065364
500.202385	4424.020833
500.568723	4446.925316
500.935003	4543.760840
501.301226	4585.705761
501.667390	4689.296431
502.033497	4781.272283
502.399546	4801.187361
502.765537	4841.539277
503.131470	4925.804684
503.497345	5037.355337
503.863163	4990.139890
504.228923	5149.420187
504.594625	5228.583946
504.960269	5219.018357
505.325856	5354.002813
505.691385	5363.815419
506.056856	5472.716945
506.422270	5554.532351
506.787625	5572.393159
507.152924	5692.380182
507.518164	5743.502523
507.883347	5789.979441
508.248472	5826.253064
508.613540	5985.334235
508.978550	6017.229616
509.343503	6069.534107
509.708398	6191.023394
510.073236	6310.569317
510.438016	6386.085801
510.802738	6436.162103
511.167403	6530.313213
511.532010	6569.404840
511.896561	6724.811011
512.261053	6838.284863
512.625488	6856.591813
512.989866	6919.901144
513.354186	6983.815413
513.718449	7016.366143
514.082655	7172.273908
514.446803	7195.059924
514.810894	7335.791295
515.174927	7342.249013
515.538904	7408.885505
515.902822	7581.446722
516.266684	7578.391783
516.630488	7623.583206
516.994235	7711.861372
517.357925	7829.209351
517.721558	7951.835418
518.085133	8032.529168
518.448651	8106.591280
518.812112	8094.038807
519.175516	8190.680247
519.538863	8320.013569
519.902152	8329.924478
520.265385	8517.067232
520.628560	8501.217844
520.991678	8567.292248
521.354739	8670.030963
521.717743	8683.337088
522.080690	8735.606292
522.443580	8896.214933
522.806413	8930.063761
523.169189	9011.715329
523.531908	9104.969114
523.894569	9038.234319
524.257174	9101.082384
524.619722	9249.720805
524.982213	9249.670394
525.344647	9359.350778
525.707025	9374.401143
526.069345	9502.711111
526.431608	9496.034103
526.793815	9627.779618
527.155964	9514.129325
527.518057	9604.335732
527.880093	9618.829049
528.242072	9716.846724
528.603995	9697.834012
528.965860	9674.513634
529.327669	9762.769115
529.689421	9757.402806
530.051117	9785.570253
530.412755	9916.622609
530.774337	9856.279998
531.135862	9886.821828
531.497331	9938.412997
531.858743	9860.202016
532.220098	10036.914623
532.581396	9958.350760
532.942638	9987.765893
533.303824	9982.457558
533.664953	10031.883551
534.026025	9990.593980
534.387040	10109.744172
534.747999	10142.257094
535.108902	10215.938598
535.469748	10033.103510
535.830537	10157.393158
536.191270	10163.755094
536.551947	10217.738290
536.912567	10239.697557
537.273131	10200.863028
537.633638	10197.540908
537.994089	10219.477488
538.354483	10193.976812
538.714821	10345.914668
539.075103	10375.899451
539.435328	10365.975940
539.795497	10224.422860
540.155609	10396.147246
540.515665	10492.072842
540.875665	10263.897616
541.235609	10346.426345
541.595496	10360.566782
541.955328	10518.725422
542.315102	10425.517008
542.674821	10395.098686
543.034483	10413.970245
543.394090	10428.050188
543.753640	10370.553307
544.113134	10600.702145
544.472571	10472.994595
544.831953	10621.905238
545.191278	10443.103073
545.550548	10485.143776
545.909761	10632.705910
546.268918	10613.040369
546.628019	10705.059071
546.987064	10588.368962
547.346053	10512.257622
547.704986	10622.719385
548.063863	10617.211924
548.422684	10616.102870
548.781449	10548.808507
549.140158	10659.217338
549.498811	10540.606550
549.857408	10405.881714
550.215949	10628.042843
550.574434	10496.625003
550.932864	10594.665363
551.291237	10659.164406
551.649555	10618.878025
552.007817	10626.855651
552.366022	10599.320869
552.724173	10598.249624
553.082267	10588.951216
553.440305	10720.941226
553.798288	10534.063132
554.156215	10692.151197
554.514086	10673.130923
554.871902	10523.696000
555.229661	10558.424508
555.587365	10548.818590
555.945014	10435.135529
556.302606	10564.814171
556.660143	10463.275250
557.017625	10618.764599
557.375050	10522.319765
557.732421	10649.195525
558.089735	10576.310522
558.446994	10580.023332
558.804197	10613.516758
559.161345	10613.007602
559.518437	10469.402773
559.875474	10557.625486
560.232455	10586.478530
560.589381	10541.254338
560.946251	10535.668740
561.303065	10642.599175
561.659825	10578.233723
562.016528	10513.132262
562.373177	10390.508715
562.729770	10508.650676
563.086307	10424.541545
563.442789	10517.286173
563.799216	10400.457432
564.155587	10448.902921
564.511904	10403.605633
564.868164	10398.463656
565.224370	10408.452702
565.580520	10334.866979
565.936615	10338.133647
566.292654	10214.781654
566.648638	10342.726138
567.004567	10304.998143
567.360441	10284.571387
567.716260	10200.104334
568.072023	10296.402976
568.427732	10245.731818
568.783385	10158.834928
569.138982	10230.268078
569.494525	10244.877342
569.850013	10119.529052
570.205445	10203.474346
570.560823	10104.019942
570.916145	10013.821097
571.271412	10092.664743
571.626625	10036.004694
571.981782	10007.554943
572.336884	9986.740018
572.691931	9989.396706
573.046923	9936.537688
573.401860	9891.961285
573.756743	9827.449639
574.111570	9879.628102
574.466342	9854.760090
574.821059	9892.699814
575.175722	9778.668914
575.530330	9787.886664
575.884882	9782.192680
576.239380	9711.306496
576.593823	9682.360190
576.948211	9709.151402
577.302544	9586.845448
577.656823	9601.910937
578.011047	9601.119475
578.365216	9577.635260
578.719330	9500.503086
579.073389	9516.554120
579.427394	9459.337023
579.781344	9433.218805
580.135239	9391.115088
580.489080	9396.264627
580.842866	9298.012539
581.196597	9301.463208
581.550273	9345.442235
581.903895	9314.938213
582.257463	9377.612358
582.610975	9254.280529
582.964434	9279.503942
583.317837	9202.351603
583.671186	9187.644037
584.024481	9187.545734
584.377721	9108.306358
584.730906	9075.881656
585.084037	9112.465310
585.437113	9045.722953
585.790135	9065.174245
586.143103	8963.947876
586.496016	8939.311757
586.848874	8996.145726
587.201679	8985.939910
587.554428	8875.465544
587.907124	8916.187985
588.259765	8892.693687
588.612352	8897.069409
588.964884	8766.324563
589.317362	8789.990260
589.669786	8782.841904
590.022155	8833.031631
590.374470	8846.163837
590.726731	8788.712327
591.078937	8634.725242
591.431090	8754.692101
591.783188	8628.471691
592.135232	8619.221173
592.487222	8619.223694
592.839157	8667.480139
593.191038	8598.950694
593.542866	8548.884474
593.894639	8451.131460
594.246358	8499.241712
594.598022	8516.762242
594.949633	8410.335923
595.301190	8390.078046
595.652692	8421.383611
596.004141	8531.250518
596.355535	8310.430336
596.706876	8284.753218
597.058162	8224.702994
597.409395	8299.997668
597.760573	8364.799180
598.111698	8268.969366
598.462768	8256.268179
598.813785	8220.531439
599.164748	8191.360802
599.515657	8183.821757
599.866511	8092.965041
600.217312	8215.863331
600.568060	8077.022392
600.918753	8176.791868
601.269392	8146.423957
601.619978	8058.024804
601.970510	8124.903271
602.320988	8123.063250
602.671412	8180.756735
603.021783	8112.585212
603.372100	8086.182168
603.722363	8089.194258
604.072572	8069.659787
604.422728	8080.873833
604.772830	8005.679983
605.122878	8017.856890
605.472872	8009.034871
605.822813	8036.940178
606.172701	7980.930438
606.522534	8059.000267
606.872314	8051.090697
607.222041	8024.105400
607.571714	8080.747805
607.921333	8042.397227
608.270899	8042.694655
608.620411	8134.317626
608.969870	8046.072228
609.319276	8037.976135
609.668627	8050.788227
610.017926	8087.099658
610.367171	8129.480639
610.716362	8103.566587
611.065500	8102.681865
611.414585	8125.402345
611.763616	8109.225283
612.112594	8099.319415
612.461518	8113.411961
612.810389	8169.366248
613.159207	8110.044470
613.507971	8058.042448
613.856682	8180.663474
614.205340	8134.801577
614.553945	8213.950213
614.902496	8111.052701
615.250994	8162.752254
615.599439	8141.440776
615.947830	8160.738313
616.296169	8131.373592
616.644454	8145.577043
616.992686	8140.782906
617.340864	8197.291720
617.688990	8106.077082
618.037063	8193.208385
618.385082	8146.688618
618.733048	8226.956390
619.080961	8171.302051
619.428821	8187.738733
619.776628	8187.181686
620.124382	8135.003223
620.472083	8128.719425
620.819731	8152.586767
621.167326	8046.611631
621.514868	8049.013741
621.862357	7940.386958
622.209793	7959.543343
622.557176	7895.351810
622.904506	7866.007254
623.251783	7801.843447
623.599007	7752.644307
623.946179	7757.385512
624.293297	7715.357412
624.640363	7634.396481
624.987376	7614.839325
625.334336	7567.702016
625.681243	7517.996239
626.028097	7502.083837
626.374899	7479.814540
626.721647	7471.829352
627.068343	7412.255517
627.414987	7379.251082
627.761577	7336.494536
628.108115	7368.117694
628.454600	7262.041735
628.801032	7319.689850
629.147412	7275.262161
629.493739	7264.763958
629.840014	7199.294493
630.186236	7256.773729
630.532405	7143.640154
630.878521	7193.582866
631.224585	7145.248282
631.570597	7072.774134
631.916556	7106.988445
632.262462	7102.322857
632.608316	7061.297947
632.954117	7041.987808
633.299866	7026.118255
633.645562	7020.547780
633.991206	6942.097344
634.336797	6882.883951
634.682336	6842.484144
635.027823	6811.070194
635.373257	6797.764068
635.718639	6737.665953
636.063968	6743.468321
636.409245	6645.120451
636.754470	6637.336909
637.099642	6600.438183
637.444762	6541.620521
637.789829	6554.152829
638.134845	6497.149982
638.479808	6481.598023
638.824719	6483.059957
639.169577	6410.545480
639.514383	6432.812256
639.859137	6358.281317
640.203839	6369.147524
640.548489	6357.136975
640.893086	6333.355332
641.237632	6302.503471
641.582125	6325.528941
641.926566	6294.435104
642.270955	6308.404141
642.615292	6303.940199
642.959576	6319.207334
