Dividing Wavelength (nm)	Counts (n)	Blue Motor Position (mm): 3.200000	Red Motor Position (mm): 0.000000	
326.493990	2143.813688
326.888308	2143.813688
327.282561	2143.813688
327.676750	2110.549634
328.070874	2110.915118
328.464933	2112.707248
328.858929	2118.436519
329.252859	2129.496811
329.646726	2141.227576
330.040528	2153.291057
330.434265	2172.886022
330.827938	2188.132992
331.221547	2205.419108
331.615091	2223.731099
332.008571	2245.002248
332.401986	2264.922368
332.795338	2281.933741
333.188625	2303.517441
333.581847	2321.365647
333.975006	2339.173523
334.368100	2357.755216
334.761129	2376.397402
335.154095	2391.107489
335.546996	2409.706827
335.939833	2424.842891
336.332606	2439.139603
336.725315	2451.820626
337.117960	2458.863118
337.510540	2467.985086
337.903056	2483.700883
338.295508	2487.605256
338.687896	2493.999960
339.080220	2501.803666
339.472480	2513.365553
339.864676	2513.451252
340.256807	2519.447705
340.648875	2523.334434
341.040879	2526.225536
341.432818	2525.938190
341.824694	2529.325846
342.216506	2526.588499
342.608253	2526.961544
342.999937	2526.923736
343.391557	2525.368540
343.783113	2525.900382
344.174605	2525.242511
344.566033	2525.245032
344.957397	2523.762932
345.348697	2522.679084
345.739934	2523.145391
346.131106	2518.873013
346.522215	2517.395955
346.913260	2514.378824
347.304241	2512.301869
347.695159	2508.352125
348.086012	2508.160561
348.476802	2505.803822
348.867528	2506.295334
349.258191	2503.298368
349.648789	2505.781137
350.039324	2503.762154
350.429796	2501.654952
350.820203	2499.172184
351.210548	2499.630929
351.600828	2498.055568
351.991045	2495.991216
352.381198	2497.576659
352.771288	2494.259579
353.161314	2494.577172
353.551276	2496.238232
353.941175	2495.701349
354.331010	2496.064313
354.720782	2495.502224
355.110490	2492.865700
355.500135	2494.695639
355.889717	2495.061123
356.279235	2495.477018
356.668689	2494.960300
357.058080	2494.524240
357.447408	2492.064157
357.836672	2493.941987
358.225873	2494.395691
358.615010	2492.389311
359.004084	2500.114880
359.393095	2498.834427
359.782043	2499.552791
360.170927	2498.814262
360.559748	2501.032370
360.948505	2495.817296
361.337199	2500.921464
361.725830	2501.130672
362.114398	2502.804335
362.502903	2502.655621
362.891344	2502.605210
363.279722	2503.507576
363.668037	2505.708040
364.056289	2504.236023
364.444478	2504.089829
364.832603	2505.624861
365.220665	2504.029336
365.608665	2504.120076
365.996601	2507.863133
366.384474	2506.406240
366.772284	2506.927999
367.160031	2505.904645
367.547715	2508.798267
367.935336	2506.968328
368.322893	2507.908503
368.710388	2510.393792
369.097820	2510.091323
369.485189	2506.204593
369.872495	2511.371776
370.259738	2507.038904
370.646918	2508.342043
371.034035	2508.967146
371.421090	2509.206601
371.808081	2510.955881
372.195010	2509.887156
372.581875	2508.949502
372.968678	2508.616786
373.355418	2508.692403
373.742096	2512.158196
374.128710	2512.072497
374.515262	2511.109636
374.901751	2510.920593
375.288177	2512.228772
375.674540	2512.170799
376.060841	2512.241375
376.447079	2513.121057
376.833254	2515.921418
377.219367	2507.094357
377.605417	2509.539317
377.991404	2510.045953
378.377329	2513.000069
378.763191	2510.149296
379.148991	2513.695748
379.534727	2514.310769
379.920402	2515.535769
380.306013	2515.508043
380.691563	2517.766480
381.077049	2515.374452
381.462474	2516.140708
381.847835	2516.806140
382.233134	2516.753208
382.618371	2515.271109
383.003545	2515.376973
383.388657	2516.531397
383.773706	2518.797396
384.158693	2516.526356
384.543618	2517.461490
384.928480	2516.130625
385.313280	2517.501819
385.698017	2519.452746
386.082692	2518.477282
386.467305	2516.652385
386.851856	2519.304032
387.236344	2520.208919
387.620770	2520.087931
388.005133	2517.184227
388.389435	2520.115657
388.773674	2522.243024
389.157851	2520.322345
389.541965	2520.672705
389.926018	2518.648682
390.310008	2520.327386
390.693936	2520.387880
391.077802	2520.463497
391.461606	2521.023065
391.845348	2520.692870
392.229027	2520.231604
392.612645	2521.867458
392.996200	2520.917201
393.379694	2521.796882
393.763125	2523.689836
394.146494	2524.352747
394.529801	2521.033147
394.913047	2520.937366
395.296230	2522.656399
395.679351	2523.140350
396.062410	2525.847449
396.445408	2522.958868
396.828343	2522.762263
397.211217	2517.766480
397.594028	2523.004239
397.976778	2520.695390
398.359466	2522.003570
398.742092	2518.585667
399.124656	2524.325021
399.507158	2522.542973
399.889598	2525.330731
400.271977	2525.489528
400.654294	2526.369209
401.036549	2525.010618
401.418742	2524.884589
401.800874	2526.482635
402.182944	2526.306194
402.564952	2524.294774
402.946898	2529.179652
403.328783	2526.530526
403.710606	2527.102697
404.092367	2524.176307
404.474067	2528.718387
404.855705	2522.699249
405.237282	2527.523633
405.618797	2527.725279
406.000250	2529.943387
406.381642	2527.160670
406.762972	2528.942718
407.144240	2528.070598
407.525447	2530.397091
407.906593	2529.499765
408.287677	2529.575383
408.668700	2525.880217
409.049661	2528.395753
409.430560	2529.774508
409.811399	2529.973634
410.192176	2527.994981
410.572891	2530.124868
410.953545	2526.485155
411.334138	2528.960362
411.714669	2531.382636
412.095139	2529.635877
412.475547	2529.441792
412.855894	2531.738038
413.236180	2528.826771
413.616405	2532.721063
413.996568	2532.101001
414.376670	2530.180321
414.756711	2531.899355
415.136691	2531.216278
415.516609	2532.547143
415.896466	2531.400280
416.276262	2533.767102
416.655997	2529.340969
417.035670	2526.354085
417.415283	2528.763757
417.794834	2525.892820
418.174324	2531.415404
418.553753	2532.552184
418.933121	2534.775333
419.312428	2530.729807
419.691674	2534.079654
420.070859	2534.074613
420.449983	2532.721063
420.829045	2532.532019
421.208047	2532.068233
421.586988	2535.118131
421.965867	2532.375744
422.344686	2531.985054
422.723444	2534.251053
423.102141	2534.026722
423.480777	2534.155271
423.859352	2533.731814
424.237866	2535.135775
424.616319	2534.939170
424.994712	2535.740714
425.373044	2536.552340
425.751314	2537.684079
426.129524	2532.756351
426.507673	2537.258101
426.885762	2534.261135
427.263789	2536.315405
427.641756	2534.566125
428.019662	2538.029398
428.397508	2535.594520
428.775292	2533.946063
429.153016	2536.627957
429.530679	2537.258101
429.908282	2534.024201
430.285824	2536.859850
430.663305	2538.954449
431.040726	2536.481763
431.418086	2537.149716
431.795385	2538.667104
432.172624	2537.792463
432.549802	2539.985365
432.926920	2538.470499
433.303977	2537.699202
433.680974	2536.658204
434.057910	2537.694161
434.434786	2537.363965
434.811601	2538.357073
435.188355	2538.478060
435.565050	2538.301620
435.941683	2538.699871
436.318257	2535.803728
436.694770	2534.883718
437.071222	2535.095446
437.447614	2535.498738
437.823946	2537.999151
438.200218	2538.999820
438.576429	2537.132072
438.952580	2540.834800
439.328670	2537.532844
439.704700	2537.709284
440.080670	2539.824048
440.456580	2538.921682
440.832429	2540.406302
441.208218	2538.916641
441.583947	2540.315561
441.959616	2538.296579
442.335224	2537.444624
442.710773	2540.340767
443.086261	2543.262115
443.461689	2541.071734
443.837057	2539.052752
444.212365	2540.796991
444.587612	2539.236754
444.962800	2542.092568
445.337927	2542.001827
445.712995	2541.449821
446.088002	2540.444110
446.462949	2542.508463
446.837837	2541.341436
447.212664	2541.732125
447.587431	2541.704399
447.962139	2541.636343
448.336786	2543.123484
448.711374	2540.728936
449.085901	2543.670449
449.460369	2537.560570
449.834776	2541.580891
450.209124	2543.289842
450.583412	2542.455531
450.957640	2541.427135
451.331808	2541.754810
451.705917	2541.722043
452.079965	2540.779347
452.453954	2543.428473
452.827883	2542.334543
453.201752	2541.038967
453.575562	2544.043494
453.949311	2542.823535
454.323001	2541.653987
454.696632	2542.064841
455.070202	2541.989224
455.443713	2542.861344
455.817164	2537.900848
456.190556	2537.553009
456.563888	2538.241126
456.937160	2538.132741
457.310373	2543.723381
457.683526	2543.360418
458.056619	2542.642053
458.429653	2543.088196
458.802628	2541.371683
459.175542	2543.410829
459.548398	2548.013403
459.921194	2543.269677
460.293930	2546.894267
460.666607	2541.976621
461.039224	2544.857641
461.411782	2544.696324
461.784280	2543.151210
462.156719	2545.510470
462.529099	2543.428473
462.901419	2542.276570
463.273680	2544.540048
463.645882	2545.139945
464.018024	2544.713968
464.390106	2544.875285
464.762130	2545.397044
465.134094	2546.150697
465.505999	2545.273536
465.877845	2544.151879
466.249631	2546.833773
466.621358	2546.312013
466.993026	2549.147663
467.364634	2548.578012
467.736184	2543.005017
468.107674	2544.424101
468.479105	2545.495347
468.850477	2543.859492
469.221790	2544.633309
469.593043	2544.023330
469.964238	2545.011396
470.335373	2547.791592
470.706449	2548.169679
471.077467	2546.455686
471.448425	2545.739842
471.819324	2548.179761
472.190164	2548.094061
472.560945	2549.450132
472.931667	2546.548948
473.302330	2544.885367
473.672934	2546.639688
474.043479	2547.058104
474.413965	2547.055584
474.784393	2542.450490
475.154761	2544.335881
475.525070	2542.142979
475.895321	2543.912424
476.265513	2541.820345
476.635645	2546.828732
477.005719	2543.662887
477.375734	2546.813608
477.745691	2545.046684
478.115588	2546.576674
478.485427	2546.254040
478.855207	2544.807229
479.224928	2544.782023
479.594591	2550.082797
479.964194	2549.548434
480.333739	2547.920142
480.703226	2546.115408
481.072653	2548.819988
481.442022	2545.870913
481.811333	2547.877292
482.180584	2545.959133
482.549777	2549.298897
482.918912	2545.686910
483.287988	2546.498536
483.657005	2547.756304
484.025964	2547.834442
484.394864	2549.689587
484.763706	2548.371325
485.132489	2547.625234
485.501213	2548.825029
485.869879	2549.072045
486.238487	2545.722198
486.607036	2546.548948
486.975527	2548.552806
487.343959	2548.867878
487.712333	2549.777807
488.080648	2545.482744
488.448905	2548.204967
488.817104	2545.061807
489.185244	2551.446429
489.553326	2548.653629
489.921350	2550.221428
490.289315	2548.270502
490.657222	2549.024154
491.025070	2549.485420
491.392861	2549.714792
491.760593	2548.514998
492.128267	2544.950902
492.495883	2549.548434
492.863440	2547.975594
493.230939	2549.142621
493.598380	2548.779658
493.965763	2544.986190
494.333088	2545.613814
494.700354	2548.744370
495.067563	2547.471479
495.434713	2546.921993
495.801805	2547.524411
496.168839	2547.758825
496.535815	2551.350647
496.902733	2550.130687
497.269593	2549.503064
497.636395	2550.380225
498.003139	2548.900646
498.369825	2548.237734
498.736453	2551.385935
499.103023	2546.155738
499.469535	2548.361243
499.835989	2547.879812
500.202385	2550.044988
500.568723	2550.929710
500.935003	2552.346275
501.301226	2552.933569
501.667390	2549.112374
502.033497	2548.711603
502.399546	2549.704710
502.765537	2548.973743
503.131470	2550.284443
503.497345	2549.878630
503.863163	2552.789896
504.228923	2546.987528
504.594625	2548.346119
504.960269	2550.067673
505.325856	2549.437529
505.691385	2548.603218
506.056856	2550.052550
506.422270	2548.943496
506.787625	2550.019782
507.152924	2549.984494
507.518164	2549.067004
507.883347	2547.030378
508.248472	2553.694783
508.613540	2551.784186
508.978550	2551.242262
509.343503	2551.131357
509.708398	2550.302087
510.073236	2550.284443
510.438016	2551.012889
510.802738	2550.302087
511.167403	2552.709238
511.532010	2550.922149
511.896561	2548.535162
512.261053	2553.551110
512.625488	2547.501726
512.989866	2546.780841
513.354186	2548.373845
513.718449	2545.354194
514.082655	2550.692776
514.446803	2551.721172
514.810894	2552.149670
515.174927	2552.247972
515.538904	2551.587581
515.902822	2552.184958
516.266684	2550.334854
516.630488	2549.946685
516.994235	2552.323589
517.357925	2549.253527
517.721558	2553.067160
518.085133	2548.595656
518.448651	2551.537169
518.812112	2550.637323
519.175516	2549.311500
519.538863	2552.356357
519.902152	2549.535831
520.265385	2549.286294
520.628560	2551.017931
520.991678	2551.806871
521.354739	2550.914587
521.717743	2551.509443
522.080690	2550.929710
522.443580	2552.673950
522.806413	2550.481048
523.169189	2549.772766
523.531908	2552.908363
523.894569	2551.151521
524.257174	2551.058260
524.619722	2551.365770
524.982213	2550.276881
525.344647	2551.229659
525.707025	2551.151521
526.069345	2551.668239
526.431608	2551.539690
526.793815	2555.426420
527.155964	2553.631769
527.518057	2550.438198
527.880093	2552.978939
528.242072	2551.277550
528.603995	2550.377704
528.965860	2550.609597
529.327669	2553.924156
529.689421	2551.859803
530.051117	2551.322920
530.412755	2552.215205
530.774337	2554.277037
531.135862	2551.259906
531.497331	2551.209494
531.858743	2549.251006
532.220098	2549.659340
532.581396	2549.901315
532.942638	2549.077086
533.303824	2551.418702
533.664953	2552.358878
534.026025	2549.593805
534.387040	2550.377704
534.747999	2551.524567
535.108902	2551.118754
535.469748	2552.555483
535.830537	2552.802499
536.191270	2551.665719
536.551947	2552.053888
536.912567	2552.739485
537.273131	2550.894422
537.633638	2552.684032
537.994089	2551.592622
538.354483	2551.252344
538.714821	2551.058260
539.075103	2550.176058
539.435328	2552.278219
539.795497	2553.798127
540.155609	2553.735113
540.515665	2551.149001
540.875665	2553.563713
541.235609	2552.018600
541.595496	2553.039433
541.955328	2552.494989
542.315102	2551.108671
542.674821	2552.404248
543.034483	2553.442726
543.394090	2552.527756
543.753640	2553.064639
544.113134	2551.622869
544.472571	2552.021120
544.831953	2554.077911
545.191278	2553.147818
545.550548	2552.946172
545.909761	2551.990873
546.268918	2552.860472
546.628019	2552.399207
546.987064	2553.344423
547.346053	2552.540359
547.704986	2550.483568
548.063863	2554.171172
548.422684	2553.813250
548.781449	2551.612787
549.140158	2552.056408
549.498811	2554.256872
549.857408	2550.697817
550.215949	2551.259906
550.574434	2548.333516
550.932864	2548.484751
551.291237	2547.715975
551.649555	2554.105637
552.007817	2552.961295
552.366022	2554.839125
552.724173	2553.838456
553.082267	2551.839639
553.440305	2550.498692
553.798288	2552.598332
554.156215	2550.934752
554.514086	2551.663198
554.871902	2555.338199
555.229661	2553.881306
555.587365	2550.738147
555.945014	2551.408620
556.302606	2554.425751
556.660143	2551.484237
557.017625	2554.178734
557.375050	2554.473642
557.732421	2554.214022
558.089735	2553.193188
558.446994	2554.584547
558.804197	2551.000287
559.161345	2550.506253
559.518437	2549.442570
559.875474	2553.445246
560.232455	2552.411810
560.589381	2554.156049
560.946251	2553.225956
561.303065	2553.329300
561.659825	2554.362736
562.016528	2555.151677
562.373177	2549.694628
562.729770	2552.973898
563.086307	2553.286450
563.442789	2554.788714
563.799216	2553.180586
564.155587	2550.586912
564.511904	2554.594629
564.868164	2554.708055
565.224370	2555.378529
565.580520	2553.291491
565.936615	2553.982129
566.292654	2551.867365
566.648638	2554.138405
567.004567	2553.757798
567.360441	2552.336192
567.716260	2552.270657
568.072023	2552.411810
568.427732	2547.990718
568.783385	2550.039947
569.138982	2550.163455
569.494525	2551.474155
569.850013	2551.413661
570.205445	2553.107489
570.560823	2554.042623
570.916145	2554.019938
571.271412	2552.207643
571.626625	2554.352654
571.981782	2553.427602
572.336884	2550.564227
572.691931	2554.246790
573.046923	2553.281409
573.401860	2551.955585
573.756743	2553.490617
574.111570	2552.202602
574.466342	2555.013045
574.821059	2549.954247
575.175722	2554.675288
575.530330	2552.142108
575.884882	2555.229815
576.239380	2551.776624
576.593823	2552.222766
576.948211	2553.420040
577.302544	2552.754608
577.656823	2552.908363
578.011047	2550.284443
578.365216	2554.657644
578.719330	2554.317366
579.073389	2553.508261
579.427394	2552.217725
579.781344	2554.052705
580.135239	2553.581357
580.489080	2553.304094
580.842866	2552.673950
581.196597	2551.302756
581.550273	2554.443395
581.903895	2552.663867
582.257463	2555.665874
582.610975	2552.404248
582.964434	2552.570606
583.317837	2551.002807
583.671186	2552.232849
584.024481	2553.969526
584.377721	2554.181255
584.730906	2554.433312
585.084037	2553.586398
585.437113	2553.646892
585.790135	2552.074052
586.143103	2553.961964
586.496016	2553.583878
586.848874	2548.779658
587.201679	2552.321069
587.554428	2550.337375
587.907124	2550.271840
588.259765	2546.465769
588.612352	2553.084804
588.964884	2555.396173
589.317362	2555.154197
589.669786	2552.552962
590.022155	2554.340051
590.374470	2552.671429
590.726731	2553.563713
591.078937	2552.653785
591.431090	2556.091852
591.783188	2556.331307
592.135232	2555.015566
592.487222	2553.351985
592.839157	2554.529094
593.191038	2553.399876
593.542866	2554.438353
593.894639	2551.602704
594.246358	2553.508261
594.598022	2551.375852
594.949633	2553.609084
595.301190	2554.750905
595.652692	2552.179917
596.004141	2553.286450
596.355535	2554.387942
596.706876	2554.793755
597.058162	2552.888199
597.409395	2552.121943
597.760573	2555.423899
598.111698	2553.019269
598.462768	2554.965154
598.813785	2555.428940
599.164748	2553.155380
599.515657	2555.255020
599.866511	2555.554969
600.217312	2553.740154
600.568060	2554.899619
600.918753	2553.125133
601.269392	2550.826367
601.619978	2554.007335
601.970510	2552.222766
602.320988	2552.847869
602.671412	2554.776111
603.021783	2553.286450
603.372100	2553.583878
603.722363	2552.764690
604.072572	2553.067160
604.422728	2553.669578
604.772830	2550.939793
605.122878	2549.399720
605.472872	2547.849565
605.822813	2546.387631
606.172701	2551.821995
606.522534	2551.015410
606.872314	2555.093703
607.222041	2552.318548
607.571714	2551.650595
607.921333	2555.441543
608.270899	2552.817622
608.620411	2554.715617
608.969870	2553.122612
609.319276	2555.123950
609.668627	2560.094528
610.017926	2557.901626
610.367171	2563.439334
610.716362	2560.684343
611.065500	2557.674774
611.414585	2557.815927
611.763616	2558.655279
612.112594	2559.524878
612.461518	2556.071687
612.810389	2554.042623
613.159207	2554.546738
613.507971	2555.885165
613.856682	2556.285936
614.205340	2553.425082
614.553945	2555.854918
614.902496	2553.462890
615.250994	2554.392983
615.599439	2553.243600
615.947830	2554.292160
616.296169	2553.324258
616.644454	2557.190823
616.992686	2552.726882
617.340864	2553.868703
617.688990	2554.256872
618.037063	2558.423386
618.385082	2554.836605
618.733048	2553.843497
619.080961	2552.883158
619.428821	2553.553631
619.776628	2553.288970
620.124382	2556.989177
620.472083	2553.530946
620.819731	2556.089331
621.167326	2552.457180
621.514868	2554.438353
621.862357	2551.663198
622.209793	2555.633107
622.557176	2553.354505
622.904506	2552.779814
623.251783	2549.956768
623.599007	2552.394166
623.946179	2550.254196
624.293297	2552.951213
624.640363	2552.187478
624.987376	2553.919115
625.334336	2552.633620
625.681243	2554.080432
626.028097	2554.967675
626.374899	2554.105637
626.721647	2555.058415
627.068343	2555.055895
627.414987	2555.073539
627.761577	2552.570606
628.108115	2552.399207
628.454600	2551.390976
628.801032	2553.344423
629.147412	2552.593291
629.493739	2551.529608
629.840014	2555.991029
630.186236	2552.013558
630.532405	2555.197047
630.878521	2551.191850
631.224585	2554.506409
631.570597	2553.793086
631.916556	2553.162942
632.262462	2552.668908
632.608316	2552.936090
632.954117	2550.682694
633.299866	2555.146636
633.645562	2552.653785
633.991206	2554.050185
634.336797	2553.530946
634.682336	2553.825853
635.027823	2551.373332
635.373257	2552.847869
635.718639	2553.183106
636.063968	2553.916594
636.409245	2551.350647
636.754470	2551.990873
637.099642	2552.706717
637.444762	2552.815102
637.789829	2551.580019
638.134845	2551.411141
638.479808	2551.882488
638.824719	2554.657644
639.169577	2555.282747
639.514383	2554.050185
639.859137	2553.891388
640.203839	2552.784855
640.548489	2551.363250
640.893086	2552.641182
641.237632	2548.071376
641.582125	2549.538352
641.926566	2549.863506
642.270955	2552.278219
642.615292	2552.779814
642.959576	2554.138405
643.303809	2553.760318
643.647990	2554.889537
643.992118	2551.358208
644.336195	2552.263096
