Dividing Wavelength (nm)	Counts (n)	Blue Motor Position (mm): 19.800000	Red Motor Position (mm): 0.000000	
326.493990	2134.268263
326.888308	2134.268263
327.282561	2134.268263
327.676750	2102.685434
328.070874	2100.915989
328.464933	2103.509663
328.858929	2107.804726
329.252859	2119.326283
329.646726	2131.079733
330.040528	2145.474748
330.434265	2163.058292
330.827938	2179.555468
331.221547	2197.985927
331.615091	2213.777341
332.008571	2234.176370
332.401986	2253.347878
332.795338	2273.862854
333.188625	2292.741975
333.581847	2311.427012
333.975006	2327.102480
334.368100	2348.993690
334.761129	2368.013964
335.154095	2384.496016
335.546996	2403.357493
335.939833	2422.544125
336.332606	2437.549119
336.725315	2449.022785
337.117960	2460.451081
337.510540	2467.042390
337.903056	2481.250882
338.295508	2486.100472
338.687896	2496.034066
339.080220	2504.672083
339.472480	2507.837927
339.864676	2511.676766
340.256807	2520.365195
340.648875	2523.384846
341.040879	2523.248735
341.432818	2524.438447
341.824694	2527.274096
342.216506	2528.194107
342.608253	2528.607481
342.999937	2528.095804
343.391557	2528.163860
343.783113	2525.416431
344.174605	2528.723428
344.566033	2524.937521
344.957397	2523.299146
345.348697	2521.733868
345.739934	2520.382839
346.131106	2516.304545
346.522215	2515.878568
346.913260	2513.579802
347.304241	2512.712723
347.695159	2509.022598
348.086012	2507.948833
348.476802	2506.587721
348.867528	2505.438338
349.258191	2503.295848
349.648789	2503.005981
350.039324	2501.571773
350.429796	2498.564725
350.820203	2499.439365
351.210548	2493.203458
351.600828	2496.147492
351.991045	2497.357368
352.381198	2496.913747
352.771288	2494.602378
353.161314	2496.177738
353.551276	2498.526916
353.941175	2494.884683
354.331010	2493.553818
354.720782	2492.394353
355.110490	2493.881493
355.500135	2494.935094
355.889717	2496.422234
356.279235	2494.559528
356.668689	2495.930722
357.058080	2494.418376
357.447408	2492.235556
357.836672	2491.423930
358.225873	2494.597337
358.615010	2493.737820
359.004084	2495.918119
359.393095	2499.678820
359.782043	2500.190497
360.170927	2498.191679
360.559748	2499.983810
360.948505	2500.185456
361.337199	2501.670076
361.725830	2499.852740
362.114398	2504.258708
362.502903	2501.380209
362.891344	2504.125117
363.279722	2503.106804
363.668037	2502.574963
364.056289	2503.023625
364.444478	2505.508914
364.832603	2505.450941
365.220665	2503.958759
365.608665	2505.244254
365.996601	2508.120232
366.384474	2504.949346
366.772284	2508.616786
367.160031	2509.521673
367.547715	2507.563184
367.935336	2504.057062
368.322893	2508.427742
368.710388	2505.045128
369.097820	2511.182733
369.485189	2506.663338
369.872495	2508.906652
370.259738	2507.787516
370.646918	2509.562002
371.034035	2509.695593
371.421090	2508.369769
371.808081	2508.667197
372.195010	2509.390603
372.581875	2508.667197
372.968678	2511.026457
373.355418	2512.332116
373.742096	2511.787671
374.128710	2509.569564
374.515262	2510.234996
374.901751	2513.814215
375.288177	2512.536283
375.674540	2512.324554
376.060841	2510.718947
376.447079	2512.921931
376.833254	2513.055522
377.219367	2508.657115
377.605417	2510.471930
377.991404	2509.551920
378.377329	2511.034019
378.763191	2509.498987
379.148991	2512.748011
379.534727	2514.141890
379.920402	2515.150121
380.306013	2513.657939
380.691563	2515.981911
381.077049	2512.793382
381.462474	2514.104082
381.847835	2516.491068
382.233134	2515.949144
382.618371	2515.813033
383.003545	2517.985770
383.388657	2517.683301
383.773706	2517.186747
384.158693	2515.336644
384.543618	2515.928979
384.928480	2517.176665
385.313280	2516.780934
385.698017	2519.840915
386.082692	2518.459638
386.467305	2518.368898
386.851856	2519.188085
387.236344	2518.182375
387.620770	2519.291429
388.005133	2519.298991
388.389435	2519.276305
388.773674	2518.789834
389.157851	2518.263033
389.541965	2521.562469
389.926018	2521.784279
390.310008	2517.587519
390.693936	2524.332583
391.077802	2521.242355
391.461606	2522.898374
391.845348	2520.279495
392.229027	2521.809485
392.612645	2524.662778
392.996200	2522.180010
393.379694	2522.472397
393.763125	2524.007428
394.146494	2524.065402
394.529801	2522.318642
394.913047	2523.082377
395.296230	2522.616070
395.679351	2524.045237
396.062410	2523.490710
396.445408	2522.774866
396.828343	2522.850483
397.211217	2521.214629
397.594028	2519.651871
397.976778	2523.972140
398.359466	2522.300998
398.742092	2522.033817
399.124656	2524.113292
399.507158	2522.822757
399.889598	2524.955165
400.271977	2524.856863
400.654294	2523.266379
401.036549	2524.761081
401.418742	2526.006246
401.800874	2524.430885
402.182944	2523.894002
402.564952	2526.031452
402.946898	2525.126564
403.328783	2526.704446
403.710606	2525.716379
404.092367	2526.033972
404.474067	2527.886596
404.855705	2524.773684
405.237282	2526.701925
405.618797	2526.538087
406.000250	2527.218643
406.381642	2528.831812
406.762972	2530.571011
407.144240	2527.243849
407.525447	2529.151926
407.906593	2529.421628
408.287677	2531.054961
408.668700	2526.467511
409.049661	2530.019004
409.430560	2528.559590
409.811399	2529.328366
410.192176	2530.447502
410.572891	2529.187214
410.953545	2529.797193
411.334138	2531.354910
411.714669	2528.746113
412.095139	2529.769467
412.475547	2527.942049
412.855894	2529.381298
413.236180	2529.898017
413.616405	2532.889941
413.996568	2529.633356
414.376670	2532.252235
414.756711	2531.135620
415.136691	2532.378264
415.516609	2532.837009
415.896466	2531.191073
416.276262	2531.203675
416.655997	2526.772501
417.035670	2528.685619
417.415283	2530.334076
417.794834	2525.582789
418.174324	2531.357431
418.553753	2530.946577
418.933121	2533.373892
419.312428	2532.534540
419.691674	2534.293903
420.070859	2533.046217
420.449983	2533.141999
420.829045	2535.902031
421.208047	2533.250384
421.586988	2532.743748
421.965867	2534.251053
422.344686	2534.102339
422.723444	2534.213244
423.102141	2532.736186
423.480777	2533.515044
423.859352	2534.888759
424.237866	2533.951104
424.616319	2535.987730
424.994712	2535.544109
425.373044	2535.705426
425.751314	2534.150230
426.129524	2534.006557
426.507673	2536.774150
426.885762	2536.121321
427.263789	2537.094264
427.641756	2537.200128
428.019662	2535.922195
428.397508	2534.545960
428.775292	2537.679037
429.153016	2536.123842
429.530679	2537.537885
429.908282	2537.807587
430.285824	2536.191897
430.663305	2538.573842
431.040726	2534.750127
431.418086	2539.740869
431.795385	2540.043339
432.172624	2536.436393
432.549802	2537.162319
432.926920	2536.060827
433.303977	2538.921682
433.680974	2538.382278
434.057910	2537.149716
434.434786	2536.844727
434.811601	2538.730118
435.188355	2538.442772
435.565050	2537.588297
435.941683	2536.620395
436.318257	2536.998482
436.694770	2534.790456
437.071222	2535.065199
437.447614	2535.019829
437.823946	2539.498894
438.200218	2541.006199
438.576429	2542.473175
438.952580	2539.463606
439.328670	2540.229861
439.704700	2539.395550
440.080670	2539.982845
440.456580	2540.290355
440.832429	2541.233051
441.208218	2539.461085
441.583947	2541.190201
441.959616	2542.596683
442.335224	2539.466127
442.710773	2538.861188
443.086261	2541.064172
443.461689	2539.438400
443.837057	2538.556198
444.212365	2540.502084
444.587612	2543.693134
444.962800	2541.865716
445.337927	2542.231199
445.712995	2540.461754
446.088002	2543.589790
446.462949	2542.604245
446.837837	2542.488298
447.212664	2542.667259
447.587431	2541.285983
447.962139	2540.532331
448.336786	2543.161292
448.711374	2543.322609
449.085901	2542.251364
449.460369	2541.560726
449.834776	2542.498381
450.209124	2541.268339
450.583412	2542.198432
450.957640	2543.433515
451.331808	2544.109029
451.705917	2543.214224
452.079965	2546.551468
452.453954	2544.151879
452.827883	2544.335881
453.201752	2545.291180
453.575562	2544.905532
453.949311	2544.890408
454.323001	2543.836807
454.696632	2543.408309
455.070202	2544.789585
455.443713	2544.698844
455.817164	2541.172557
456.190556	2540.595345
456.563888	2543.272198
456.937160	2541.406971
457.310373	2544.270346
457.683526	2545.376879
458.056619	2543.788916
458.429653	2544.724050
458.802628	2544.635830
459.175542	2546.788402
459.548398	2544.963505
459.921194	2544.766900
460.293930	2548.431819
460.666607	2548.865358
461.039224	2547.484082
461.411782	2546.795964
461.784280	2548.099102
462.156719	2545.636499
462.529099	2548.008362
462.901419	2545.606252
463.273680	2549.044319
463.645882	2547.410985
464.018024	2548.462066
464.390106	2549.689587
464.762130	2549.593805
465.134094	2549.258568
465.505999	2548.817467
465.877845	2550.332334
466.249631	2552.379042
466.621358	2550.460883
466.993026	2552.502550
467.364634	2553.626728
467.736184	2554.335010
468.107674	2550.097920
468.479105	2551.403579
468.850477	2551.912735
469.221790	2553.636810
469.593043	2547.942827
469.964238	2550.869217
470.335373	2549.848383
470.706449	2550.881819
471.077467	2549.308979
471.448425	2552.991542
471.819324	2550.927190
472.190164	2555.176882
472.560945	2552.850390
472.931667	2554.771070
473.302330	2554.156049
473.672934	2553.909032
474.043479	2552.106820
474.413965	2554.161090
474.784393	2548.933413
475.154761	2551.335523
475.525070	2548.835111
475.895321	2553.805689
476.265513	2548.827549
476.635645	2556.535473
477.005719	2553.997252
477.375734	2553.934238
477.745691	2554.516491
478.115588	2558.647717
478.485427	2554.203940
478.855207	2556.217881
479.224928	2559.310629
479.594591	2557.183262
479.964194	2556.621173
480.333739	2560.447409
480.703226	2559.383725
481.072653	2560.147460
481.442022	2559.184600
481.811333	2562.761298
482.180584	2562.632749
482.549777	2560.512944
482.918912	2562.841957
483.287988	2566.295147
483.657005	2563.303222
484.025964	2563.444375
484.394864	2564.709704
484.763706	2567.452092
485.132489	2567.469736
485.501213	2564.838254
485.869879	2566.559808
486.238487	2566.937894
486.607036	2568.616599
486.975527	2572.488205
487.343959	2573.844275
487.712333	2573.902248
488.080648	2577.466344
488.448905	2577.761252
488.817104	2580.039853
489.185244	2585.696028
489.553326	2585.590164
489.921350	2594.137440
490.289315	2600.196907
490.657222	2604.287803
491.025070	2607.320057
491.392861	2610.135542
491.760593	2612.136880
492.128267	2612.903135
492.495883	2614.128136
492.863440	2621.319342
493.230939	2621.352109
493.598380	2627.986267
493.965763	2629.531381
494.333088	2631.106742
494.700354	2637.463637
495.067563	2645.058135
495.434713	2648.470996
495.801805	2658.485248
496.168839	2668.355827
496.535815	2674.987465
496.902733	2680.016016
497.269593	2687.441636
497.636395	2696.195600
498.003139	2707.394523
498.369825	2713.015409
498.736453	2725.298181
499.103023	2734.110118
499.469535	2746.302148
499.835989	2755.565268
500.202385	2766.723862
500.568723	2776.128135
500.935003	2791.934673
501.301226	2807.040490
501.667390	2817.994918
502.033497	2841.854699
502.399546	2848.806450
502.765537	2860.723738
503.131470	2875.791747
503.497345	2901.378123
503.863163	2904.884245
504.228923	2932.718976
504.594625	2951.777058
504.960269	2961.879531
505.325856	2988.194354
505.691385	3000.272958
506.056856	3025.836650
506.422270	3052.443860
506.787625	3066.075140
507.152924	3093.677977
507.518164	3112.912500
507.883347	3131.650469
508.248472	3152.422543
508.613540	3192.489634
508.978550	3212.629044
509.343503	3234.109400
509.708398	3272.495266
510.073236	3307.422901
510.438016	3336.543126
510.802738	3364.143443
511.167403	3398.710635
511.532010	3426.560489
511.896561	3473.632263
512.261053	3518.163296
512.625488	3536.255997
512.989866	3568.501738
513.354186	3605.269393
513.718449	3634.636635
514.082655	3695.160728
514.446803	3721.304152
514.810894	3779.282462
515.174927	3806.592913
515.538904	3840.552646
515.902822	3907.887338
516.266684	3930.759053
516.630488	3974.029797
516.994235	4020.715923
517.357925	4081.050973
517.721558	4137.474087
518.085133	4193.478786
518.448651	4237.036876
518.812112	4263.439919
519.175516	4318.083506
519.538863	4389.052870
519.902152	4416.217127
520.265385	4517.652704
520.628560	4534.396897
520.991678	4596.423254
521.354739	4652.274197
521.717743	4689.924055
522.080690	4735.811158
522.443580	4835.668854
522.806413	4878.082602
523.169189	4935.196354
523.531908	5010.382643
523.894569	5025.853944
524.257174	5086.667904
524.619722	5179.021842
524.982213	5207.610226
525.344647	5298.661026
525.707025	5335.733671
526.069345	5420.483029
526.431608	5467.426254
526.793815	5562.588115
527.155964	5557.037804
527.518057	5625.584894
527.880093	5676.646741
528.242072	5749.420838
528.603995	5786.445593
528.965860	5818.061189
529.327669	5900.693262
529.689421	5933.405309
530.051117	5985.674513
530.412755	6098.745073
530.774337	6101.900836
531.135862	6167.098078
531.497331	6224.295010
531.858743	6232.020578
532.220098	6360.025557
532.581396	6362.715012
532.942638	6413.741571
533.303824	6454.469053
533.664953	6536.150869
534.026025	6553.358848
534.387040	6653.851729
534.747999	6711.930863
535.108902	6803.631972
535.469748	6742.560913
535.830537	6855.996957
536.191270	6911.817654
536.551947	6978.285267
536.912567	7036.553444
537.273131	7048.377470
537.633638	7095.938236
537.994089	7156.079202
538.354483	7180.801020
538.714821	7313.993346
539.075103	7377.761421
539.435328	7422.534429
539.795497	7364.568722
540.155609	7521.182248
540.515665	7626.902806
540.875665	7524.509410
541.235609	7629.083105
541.595496	7674.052718
541.955328	7837.544899
542.315102	7811.056156
542.674821	7833.655649
543.034483	7885.982826
543.394090	7946.637989
543.753640	7947.111857
544.113134	8147.404461
544.472571	8099.248839
544.831953	8251.831963
545.191278	8174.362032
545.550548	8240.176816
545.909761	8383.438846
546.268918	8412.312055
546.628019	8514.060183
546.987064	8478.416705
547.346053	8458.022717
547.704986	8584.704393
548.063863	8624.708469
548.422684	8655.741812
548.781449	8649.556317
549.140158	8760.749047
549.498811	8718.322696
549.857408	8642.433166
550.215949	8872.307261
550.574434	8788.324158
550.932864	8918.776617
551.291237	8992.077515
551.649555	9002.013629
552.007817	9045.848982
552.366022	9056.261485
552.724173	9091.340354
553.082267	9108.606306
553.440305	9268.123538
553.798288	9129.451478
554.156215	9300.311305
554.514086	9316.821084
554.871902	9225.036796
555.229661	9290.017269
555.587365	9306.461513
555.945014	9243.996575
556.302606	9391.951920
556.660143	9323.692176
557.017625	9492.507816
557.375050	9431.177138
557.732421	9581.519469
558.089735	9536.736379
558.446994	9564.908867
558.804197	9630.819433
559.161345	9659.422940
559.518437	9554.302280
559.875474	9660.413527
560.232455	9714.016116
560.589381	9687.043422
560.946251	9715.972083
561.303065	9823.840173
561.659825	9802.528695
562.016528	9756.170244
562.373177	9670.188324
562.729770	9805.185383
563.086307	9748.522814
563.442789	9851.836221
563.799216	9765.607284
564.155587	9827.464762
564.511904	9809.041866
564.868164	9820.689452
565.224370	9841.305250
565.580520	9805.419797
565.936615	9821.375049
566.292654	9716.995438
566.648638	9847.160551
567.004567	9830.260082
567.360441	9828.823353
567.716260	9761.213919
568.072023	9858.387200
568.427732	9832.561369
568.783385	9755.817363
569.138982	9847.800777
569.494525	9874.579386
569.850013	9767.669116
570.205445	9857.222694
570.560823	9766.786914
570.916145	9705.456237
571.271412	9779.399881
571.626625	9740.295651
571.981782	9731.022448
572.336884	9720.262105
572.691931	9729.515143
573.046923	9684.013689
573.401860	9650.550509
573.756743	9598.220812
574.111570	9647.503132
574.466342	9638.933170
574.821059	9680.565539
575.175722	9578.393954
575.530330	9599.743240
575.884882	9599.221481
576.239380	9533.847798
576.593823	9514.711578
576.948211	9542.067399
577.302544	9424.043905
577.656823	9450.908214
578.011047	9456.503895
578.365216	9437.486142
578.719330	9372.009115
579.073389	9377.007419
579.427394	9334.276079
579.781344	9315.873347
580.135239	9270.006408
580.489080	9282.919324
580.842866	9192.029841
581.196597	9201.000574
581.550273	9243.043797
581.903895	9215.337616
582.257463	9283.524263
582.610975	9164.174945
582.964434	9197.882620
583.317837	9121.776321
583.671186	9103.628167
584.024481	9110.365669
584.377721	9029.666878
584.730906	9008.544444
585.084037	9037.394967
585.437113	8983.671391
585.790135	9006.293568
586.143103	8903.330522
586.496016	8877.280359
586.848874	8943.775699
587.201679	8932.478473
587.554428	8817.928334
587.907124	8869.867342
588.259765	8847.096451
588.612352	8844.263322
588.964884	8721.047440
589.317362	8736.864060
589.669786	8738.177281
590.022155	8784.881050
590.374470	8802.721694
590.726731	8743.536027
591.078937	8600.795756
591.431090	8716.394455
591.783188	8586.196574
592.135232	8584.149866
592.487222	8580.358918
592.839157	8633.853122
593.191038	8569.739728
593.542866	8510.896859
593.894639	8420.617356
594.246358	8467.568142
594.598022	8484.037592
594.949633	8384.583188
595.301190	8366.346814
595.652692	8392.472594
596.004141	8499.022422
596.355535	8279.807847
596.706876	8259.214733
597.058162	8198.814148
597.409395	8275.865664
597.760573	8334.678286
598.111698	8247.075635
598.462768	8230.414621
598.813785	8200.704581
599.164748	8165.497162
599.515657	8159.994743
599.866511	8072.142555
600.217312	8196.220475
600.568060	8058.095380
600.918753	8160.108169
601.269392	8127.726317
601.619978	8044.532155
601.970510	8109.152186
602.320988	8099.959642
602.671412	8157.327973
603.021783	8096.622398
603.372100	8070.063079
603.722363	8077.773524
604.072572	8053.074391
604.422728	8057.734937
604.772830	7992.797314
605.122878	7999.262594
605.472872	7992.656162
605.822813	8027.208230
606.172701	7967.281514
606.522534	8040.806743
606.872314	8044.075931
607.222041	8009.793564
607.571714	8062.506389
607.921333	8024.158332
608.270899	8032.214096
608.620411	8115.226776
608.969870	8023.923918
609.319276	8021.511726
609.668627	8035.876494
610.017926	8070.110970
610.367171	8124.182386
610.716362	8096.609795
611.065500	8089.794155
611.414585	8114.352136
611.763616	8101.449303
612.112594	8079.449707
612.461518	8101.091381
612.810389	8163.662182
613.159207	8098.908561
613.507971	8045.742032
613.856682	8163.705032
614.205340	8120.106613
614.553945	8203.308337
614.902496	8100.670445
615.250994	8157.663209
615.599439	8133.236298
615.947830	8147.706931
616.296169	8125.120041
616.644454	8134.247050
616.992686	8136.019015
617.340864	8191.847274
617.688990	8089.085873
618.037063	8185.974329
618.385082	8131.630691
618.733048	8214.608083
619.080961	8155.009042
619.428821	8178.122732
619.776628	8177.109460
620.124382	8132.467522
620.472083	8113.727033
620.819731	8141.458420
621.167326	8032.067902
621.514868	8046.924183
621.862357	7934.992923
622.209793	7949.198895
622.557176	7885.841673
622.904506	7853.104420
623.251783	7791.677961
623.599007	7747.404027
623.946179	7744.359170
624.293297	7703.813170
624.640363	7625.085470
624.987376	7610.451001
625.334336	7561.077940
625.681243	7507.067017
626.028097	7496.437745
626.374899	7471.088302
626.721647	7466.904145
627.068343	7395.949904
627.414987	7368.299176
627.761577	7329.336097
628.108115	7362.101077
628.454600	7259.226250
628.801032	7303.381717
629.147412	7262.374451
629.493739	7260.668020
629.840014	7194.722166
630.186236	7248.607060
630.532405	7132.093392
630.878521	7179.954106
631.224585	7143.292315
631.570597	7065.845068
631.916556	7099.202383
632.262462	7095.459327
632.608316	7054.973820
632.954117	7032.752414
633.299866	7022.594489
633.645562	7013.139805
633.991206	6931.964625
634.336797	6875.241562
634.682336	6835.539955
635.027823	6804.347815
635.373257	6794.699047
635.718639	6726.807308
636.063968	6739.873978
636.409245	6632.759541
636.754470	6632.260467
637.099642	6590.849909
637.444762	6533.650457
637.789829	6547.753085
638.134845	6482.752447
638.479808	6471.472865
638.824719	6476.808927
639.169577	6407.480458
639.514383	6426.404950
639.859137	6353.056161
640.203839	6363.496391
640.548489	6352.582293
640.893086	6329.854251
641.237632	6300.905425
641.582125	6314.458567
641.926566	6286.767509
642.270955	6296.194467
642.615292	6297.716895
642.959576	6313.707435
643.303809	6304.668646
643.647990	6313.059647
643.992118	6298.838552
644.336195	6247.386015
