Dividing Wavelength (nm)	Counts (n)	Blue Motor Position (mm): 18.000000	Red Motor Position (mm): 0.000000	
326.493990	2133.849847
326.888308	2133.849847
327.282561	2133.849847
327.676750	2102.443458
328.070874	2100.023705
328.464933	2106.516711
328.858929	2109.186002
329.252859	2120.659668
329.646726	2131.321708
330.040528	2144.327885
330.434265	2162.241625
330.827938	2177.768379
331.221547	2197.927953
331.615091	2213.926055
332.008571	2234.196535
332.401986	2254.134298
332.795338	2273.167175
333.188625	2293.888838
333.581847	2310.983390
333.975006	2329.290340
334.368100	2348.978567
334.761129	2366.156298
335.154095	2383.253372
335.546996	2404.816907
335.939833	2422.791141
336.332606	2436.853440
336.725315	2452.198712
337.117960	2461.207254
337.510540	2468.040538
337.903056	2478.092599
338.295508	2490.660196
338.687896	2496.621360
339.080220	2502.879953
339.472480	2508.621827
339.864676	2515.553413
340.256807	2519.576254
340.648875	2521.083559
341.040879	2523.316790
341.432818	2524.713190
341.824694	2525.280320
342.216506	2526.953983
342.608253	2527.412728
342.999937	2528.310053
343.391557	2528.000022
343.783113	2523.241173
344.174605	2522.641276
344.566033	2522.999197
344.957397	2521.401152
345.348697	2520.889475
345.739934	2518.512571
346.131106	2516.980060
346.522215	2515.331602
346.913260	2514.177178
347.304241	2513.789009
347.695159	2509.662825
348.086012	2507.611075
348.476802	2505.022443
348.867528	2503.038749
349.258191	2504.041938
349.648789	2500.866012
350.039324	2501.475991
350.429796	2496.896103
350.820203	2497.995074
351.210548	2496.739827
351.600828	2494.816627
351.991045	2497.848881
352.381198	2493.316884
352.771288	2494.612460
353.161314	2492.180103
353.551276	2493.228663
353.941175	2494.405773
354.331010	2495.189672
354.720782	2494.735968
355.110490	2493.936946
355.500135	2495.124137
355.889717	2492.124651
356.279235	2491.567603
356.668689	2493.957110
357.058080	2493.944507
357.447408	2492.482573
357.836672	2493.047182
358.225873	2493.009373
358.615010	2493.052223
359.004084	2495.872749
359.393095	2496.013901
359.782043	2498.640342
360.170927	2496.669251
360.559748	2500.114880
360.948505	2500.351814
361.337199	2498.655466
361.725830	2500.061948
362.114398	2501.024808
362.502903	2500.150168
362.891344	2501.279386
363.279722	2499.797287
363.668037	2501.879283
364.056289	2503.089160
364.444478	2503.618482
364.832603	2503.563029
365.220665	2503.923471
365.608665	2503.764675
365.996601	2503.963801
366.384474	2505.929851
366.772284	2505.284583
367.160031	2505.458503
367.547715	2508.284069
367.935336	2504.873729
368.322893	2507.996724
368.710388	2506.864985
369.097820	2510.154338
369.485189	2508.566374
369.872495	2508.407578
370.259738	2510.219872
370.646918	2508.657115
371.034035	2508.858761
371.421090	2507.764831
371.808081	2509.554440
372.195010	2506.602845
372.581875	2507.656446
372.968678	2508.241220
373.355418	2511.200377
373.742096	2507.815242
374.128710	2513.297497
374.515262	2512.402692
374.901751	2511.311282
375.288177	2510.572753
375.674540	2510.582836
376.060841	2511.870850
376.447079	2511.525531
376.833254	2512.392610
377.219367	2507.563184
377.605417	2511.273474
377.991404	2507.782475
378.377329	2509.768689
378.763191	2509.234327
379.148991	2509.052845
379.534727	2513.582322
379.920402	2512.722805
380.306013	2515.500481
380.691563	2512.301869
381.077049	2515.598784
381.462474	2512.241375
381.847835	2515.263547
382.233134	2515.850841
382.618371	2514.179699
383.003545	2516.687673
383.388657	2513.889833
383.773706	2517.766480
384.158693	2516.125584
384.543618	2516.014679
384.928480	2518.242869
385.313280	2515.959226
385.698017	2516.415451
386.082692	2515.994514
386.467305	2517.348064
386.851856	2518.482324
387.236344	2519.379649
387.620770	2516.629700
388.005133	2519.777900
388.389435	2519.044412
388.773674	2518.005935
389.157851	2519.145235
389.541965	2518.542817
389.926018	2518.315966
390.310008	2516.344874
390.693936	2521.070956
391.077802	2518.966274
391.461606	2520.403003
391.845348	2516.806140
392.229027	2520.140863
392.612645	2518.880575
392.996200	2519.087262
393.379694	2520.433250
393.763125	2522.870648
394.146494	2520.745802
394.529801	2522.568179
394.913047	2522.500123
395.296230	2523.213447
395.679351	2520.362674
396.062410	2522.651358
396.445408	2524.937521
396.828343	2523.599095
397.211217	2519.311593
397.594028	2519.944258
397.976778	2519.672036
398.359466	2523.589012
398.742092	2520.120699
399.124656	2522.570699
399.507158	2522.815195
399.889598	2523.697397
400.271977	2522.391738
400.654294	2525.507172
401.036549	2523.556245
401.418742	2525.600433
401.800874	2524.750998
402.182944	2525.257634
402.564952	2524.826616
402.946898	2526.487676
403.328783	2525.807120
403.710606	2525.620598
404.092367	2526.638911
404.474067	2525.466842
404.855705	2528.284847
405.237282	2527.478263
405.618797	2523.987264
406.000250	2526.769981
406.381642	2527.826102
406.762972	2526.679240
407.144240	2526.187727
407.525447	2530.054292
407.906593	2527.072450
408.287677	2526.109589
408.668700	2526.240659
409.049661	2526.656555
409.430560	2529.812317
409.811399	2529.023376
410.192176	2528.047913
410.572891	2527.339631
410.953545	2527.818541
411.334138	2527.813499
411.714669	2528.506658
412.095139	2528.670496
412.475547	2530.855836
412.855894	2530.051772
413.236180	2530.702081
413.616405	2530.001360
413.996568	2528.841895
414.376670	2528.236956
414.756711	2532.499252
415.136691	2531.117976
415.516609	2530.082019
415.896466	2531.299457
416.276262	2530.760054
416.655997	2528.922553
417.035670	2527.334590
417.415283	2530.666792
417.794834	2523.846111
418.174324	2528.864580
418.553753	2530.533202
418.933121	2531.740558
419.312428	2529.489683
419.691674	2529.799714
420.070859	2531.478418
420.449983	2531.415404
420.829045	2532.733666
421.208047	2532.315250
421.586988	2533.668800
421.965867	2533.091587
422.344686	2531.324663
422.723444	2533.971269
423.102141	2531.422966
423.480777	2533.358769
423.859352	2533.794828
424.237866	2533.986392
424.616319	2532.247194
424.994712	2533.880528
425.373044	2534.699716
425.751314	2536.312885
426.129524	2535.604603
426.507673	2534.482946
426.885762	2534.160312
427.263789	2534.656866
427.641756	2532.136289
428.019662	2535.193749
428.397508	2534.404808
428.775292	2536.093595
429.153016	2534.576207
429.530679	2534.087215
429.908282	2536.204500
430.285824	2534.515713
430.663305	2531.100332
431.040726	2537.631147
431.418086	2533.658717
431.795385	2536.746424
432.172624	2534.863553
432.549802	2536.005374
432.926920	2533.988913
433.303977	2538.941847
433.680974	2536.902700
434.057910	2537.603420
434.434786	2535.796167
434.811601	2537.429500
435.188355	2536.537216
435.565050	2538.533513
435.941683	2538.626774
436.318257	2535.256763
436.694770	2534.929088
437.071222	2536.224665
437.447614	2532.471526
437.823946	2533.976310
438.200218	2537.903369
438.576429	2539.975283
438.952580	2539.710622
439.328670	2538.079809
439.704700	2538.488143
440.080670	2536.501928
440.456580	2536.975797
440.832429	2541.837989
441.208218	2535.302133
441.583947	2539.219110
441.959616	2538.810777
442.335224	2538.185673
442.710773	2538.553678
443.086261	2538.762886
443.461689	2540.123997
443.837057	2543.423432
444.212365	2539.473688
444.587612	2538.735159
444.962800	2541.356559
445.337927	2542.326981
445.712995	2540.113915
446.088002	2541.195242
446.462949	2541.396888
446.837837	2539.635005
447.212664	2542.266487
447.587431	2539.698020
447.962139	2539.803884
448.336786	2543.607434
448.711374	2539.728267
449.085901	2541.081816
449.460369	2541.195242
449.834776	2542.037115
450.209124	2540.088709
450.583412	2542.122815
450.957640	2542.752959
451.331808	2540.915458
451.705917	2542.382434
452.079965	2541.099460
452.453954	2541.280942
452.827883	2544.535007
453.201752	2543.488967
453.575562	2543.136087
453.949311	2542.664739
454.323001	2543.604914
454.696632	2544.666077
455.070202	2543.887218
455.443713	2542.710109
455.817164	2541.064172
456.190556	2537.416897
456.563888	2541.412012
456.937160	2539.481250
457.310373	2541.288504
457.683526	2543.652805
458.056619	2544.693803
458.429653	2543.312527
458.802628	2544.098947
459.175542	2543.080634
459.548398	2546.054915
459.921194	2543.763710
460.293930	2544.451828
460.666607	2544.161961
461.039224	2545.923845
461.411782	2545.434853
461.784280	2546.493495
462.156719	2546.886705
462.529099	2544.114070
462.901419	2545.235727
463.273680	2545.381921
463.645882	2545.880995
464.018024	2546.279246
464.390106	2545.583567
464.762130	2545.301262
465.134094	2547.254709
465.505999	2547.108516
465.877845	2550.085317
466.249631	2547.133722
466.621358	2547.781510
466.993026	2549.666901
467.364634	2550.672612
467.736184	2547.431150
468.107674	2545.941489
468.479105	2547.189174
468.850477	2548.144473
469.221790	2547.554658
469.593043	2545.737322
469.964238	2547.912580
470.335373	2547.375697
470.706449	2548.520039
471.077467	2548.976263
471.448425	2552.313507
471.819324	2550.987684
472.190164	2550.430636
472.560945	2549.009031
472.931667	2549.881150
473.302330	2547.836962
473.672934	2544.721529
474.043479	2549.377035
474.413965	2551.443908
474.784393	2543.874616
475.154761	2547.320244
475.525070	2544.915614
475.895321	2546.879143
476.265513	2545.802857
476.635645	2553.364588
477.005719	2549.107333
477.375734	2546.382590
477.745691	2548.212528
478.115588	2551.726213
478.485427	2548.341078
478.855207	2551.625390
479.224928	2548.585574
479.594591	2554.556821
479.964194	2551.789227
480.333739	2550.700338
480.703226	2551.794268
481.072653	2551.718651
481.442022	2553.276368
481.811333	2555.887685
482.180584	2552.028682
482.549777	2554.042623
482.918912	2555.189485
483.287988	2554.302242
483.657005	2553.863662
484.025964	2552.522715
484.394864	2553.097407
484.763706	2555.991029
485.132489	2555.678477
485.501213	2553.510781
485.869879	2555.093703
486.238487	2552.353836
486.607036	2552.313507
486.975527	2555.779300
487.343959	2552.956254
487.712333	2555.587737
488.080648	2555.433981
488.448905	2556.144784
488.817104	2557.372305
489.185244	2557.513457
489.553326	2556.868190
489.921350	2559.056050
490.289315	2557.107644
490.657222	2560.265927
491.025070	2559.809703
491.392861	2556.333827
491.760593	2558.599826
492.128267	2560.961607
492.495883	2556.399362
492.863440	2560.371792
493.230939	2557.568910
493.598380	2557.210988
493.965763	2551.469114
494.333088	2556.411965
494.700354	2554.148487
495.067563	2556.444733
495.434713	2551.703527
495.801805	2559.330793
496.168839	2558.070505
496.535815	2561.241391
496.902733	2561.279199
497.269593	2560.863304
497.636395	2560.621329
498.003139	2561.380022
498.369825	2558.554456
498.736453	2561.848850
499.103023	2564.376988
499.469535	2560.918757
499.835989	2563.661144
500.202385	2564.553429
500.568723	2561.969837
500.935003	2564.931515
501.301226	2565.533933
501.667390	2569.113152
502.033497	2566.713563
502.399546	2568.606516
502.765537	2567.517627
503.131470	2568.956877
503.497345	2571.790005
503.863163	2571.205231
504.228923	2570.628019
504.594625	2575.974163
504.960269	2575.971642
505.325856	2578.696386
505.691385	2580.546489
506.056856	2583.213260
506.422270	2582.497416
506.787625	2584.158476
507.152924	2585.867427
507.518164	2589.605443
507.883347	2591.377408
508.248472	2595.312029
508.613540	2599.715477
508.978550	2600.857298
509.343503	2601.711774
509.708398	2610.289297
510.073236	2612.877929
510.438016	2616.315996
510.802738	2621.130298
511.167403	2625.992491
511.532010	2627.613222
511.896561	2635.522792
512.261053	2641.627630
512.625488	2642.618217
512.989866	2643.850779
513.354186	2650.016110
513.718449	2654.722027
514.082655	2668.774243
514.446803	2672.613082
514.810894	2680.878054
515.174927	2687.522294
515.538904	2692.858356
515.902822	2704.659697
516.266684	2709.663042
516.630488	2716.488764
516.994235	2726.424879
517.357925	2740.202352
517.721558	2747.718712
518.085133	2756.243304
518.448651	2768.223606
518.812112	2774.250305
519.175516	2785.673560
519.538863	2798.394912
519.902152	2809.908907
520.265385	2828.861125
520.628560	2834.945797
520.991678	2851.155628
521.354739	2860.159128
521.717743	2868.729090
522.080690	2883.242572
522.443580	2908.279463
522.806413	2921.472162
523.169189	2938.538988
523.531908	2957.302163
523.894569	2966.832464
524.257174	2980.572129
524.619722	3006.879391
524.982213	3017.445649
525.344647	3046.162582
525.707025	3059.975343
526.069345	3083.497367
526.431608	3104.128289
526.793815	3131.806745
527.155964	3137.684730
527.518057	3159.830519
527.880093	3179.377593
528.242072	3208.412118
528.603995	3228.886765
528.965860	3244.123652
529.327669	3271.439144
529.689421	3291.008904
530.051117	3314.225938
530.412755	3351.381762
530.774337	3364.670244
531.135862	3398.377919
531.497331	3417.496495
531.858743	3434.578445
532.220098	3483.104592
532.581396	3495.110099
532.942638	3519.194212
533.303824	3548.206052
533.664953	3590.377825
534.026025	3602.733693
534.387040	3655.438956
534.747999	3683.419881
535.108902	3729.813620
535.469748	3725.405131
535.830537	3771.889610
536.191270	3808.627019
536.551947	3850.022454
536.912567	3883.016806
537.273131	3904.043458
537.633638	3942.958645
537.994089	3980.243019
538.354483	4007.026670
538.714821	4065.176379
539.075103	4104.890589
539.435328	4141.348214
539.795497	4137.781598
540.155609	4221.946182
540.515665	4269.983337
540.875665	4260.279115
541.235609	4321.771110
541.595496	4357.018858
541.955328	4435.905354
542.315102	4448.256181
542.674821	4477.313391
543.034483	4518.590359
543.394090	4564.200198
543.753640	4589.973098
544.113134	4693.556206
544.472571	4700.467628
544.831953	4785.950474
545.191278	4780.735400
545.550548	4830.310107
545.909761	4903.845418
546.268918	4949.498108
546.628019	5017.021843
546.987064	5029.599522
547.346053	5043.225760
547.704986	5126.911435
548.063863	5162.938041
548.422684	5199.763670
548.781449	5228.329368
549.140158	5306.933559
549.498811	5317.414118
549.857408	5307.566224
550.215949	5445.078819
550.574434	5439.528508
550.932864	5530.609555
551.291237	5581.961269
551.649555	5632.405575
552.007817	5678.393501
552.366022	5703.934507
552.724173	5756.561633
553.082267	5794.571933
553.440305	5914.823616
553.798288	5861.221028
554.156215	5993.427808
554.514086	6034.465321
554.871902	6011.568400
555.229661	6078.560293
555.587365	6112.890551
555.945014	6105.900991
556.302606	6228.456482
556.660143	6216.251849
557.017625	6350.769998
557.375050	6342.739440
557.732421	6459.895855
558.089735	6473.398586
558.446994	6508.631210
558.804197	6583.073929
559.161345	6630.715353
559.518437	6593.347801
559.875474	6700.679007
560.232455	6761.903821
560.589381	6776.286233
560.946251	6840.185378
561.303065	6918.608088
561.659825	6954.780887
562.016528	6955.136289
562.373177	6922.860301
562.729770	7050.325876
563.086307	7040.528394
563.442789	7128.816642
563.799216	7133.522559
564.155587	7192.912392
564.511904	7211.932666
564.868164	7246.467090
565.224370	7297.423073
565.580520	7311.008983
565.936615	7334.251223
566.292654	7320.191444
566.648638	7431.963908
567.004567	7457.451981
567.360441	7493.881880
567.716260	7478.385373
568.072023	7579.488234
568.427732	7597.860719
568.783385	7562.670944
569.138982	7668.043663
569.494525	7714.913791
569.850013	7672.633633
570.205445	7772.025022
570.560823	7725.926191
570.916145	7722.856128
571.271412	7808.656567
571.626625	7812.913821
571.981782	7823.936304
572.336884	7856.963424
572.691931	7883.802527
573.046923	7901.764158
573.401860	7897.433807
573.756743	7890.824854
574.111570	7954.600491
574.466342	7976.610169
574.821059	8032.771143
575.175722	7980.219635
575.530330	8029.401132
575.884882	8052.663537
576.239380	8030.522789
576.593823	8045.421919
576.948211	8088.468332
577.302544	8024.183538
577.656823	8074.234634
578.011047	8100.743541
578.365216	8114.667208
578.719330	8086.814833
579.073389	8120.615770
579.427394	8105.280580
579.781344	8106.210673
580.135239	8092.087880
580.489080	8132.263356
580.842866	8081.355264
581.196597	8103.674972
581.550273	8159.047006
581.903895	8162.722007
582.257463	8239.181188
582.610975	8164.136051
582.964434	8204.644243
583.317837	8163.866349
583.671186	8162.434662
584.024481	8185.404679
584.377721	8136.765106
584.730906	8142.927917
585.084037	8188.666306
585.437113	8146.854976
585.790135	8191.940535
586.143103	8128.185062
586.496016	8121.044268
586.848874	8188.704114
587.201679	8197.410187
587.554428	8116.103937
587.907124	8176.776744
588.259765	8165.063623
588.612352	8188.585647
588.964884	8085.045388
589.317362	8120.285574
589.669786	8127.501986
590.022155	8185.180348
590.374470	8222.875576
590.726731	8175.798760
591.078937	8059.287613
591.431090	8182.571551
591.783188	8080.175634
592.135232	8093.592665
592.487222	8101.101463
592.839157	8166.659148
593.191038	8109.918441
593.542866	8074.398471
593.894639	7992.641038
594.246358	8055.652941
594.598022	8081.609842
594.949633	8001.798294
595.301190	7989.906212
595.652692	8028.536574
596.004141	8146.602918
596.355535	7944.324099
596.706876	7935.796987
597.058162	7885.259420
597.409395	7966.550547
597.760573	8034.134776
598.111698	7955.175183
598.462768	7949.675284
598.813785	7933.475536
599.164748	7908.113491
599.515657	7903.957060
599.866511	7830.479722
600.217312	7953.317518
600.568060	7824.841191
600.918753	7935.645753
601.269392	7915.675222
601.619978	7834.681524
601.970510	7902.182574
602.320988	7902.106956
602.671412	7967.430228
603.021783	7910.835714
603.372100	7887.636324
603.722363	7901.915392
604.072572	7883.552990
604.422728	7895.699650
604.772830	7830.736821
605.122878	7845.003286
605.472872	7846.697114
605.822813	7879.464614
606.172701	7834.187491
606.522534	7906.008809
606.872314	7913.459635
607.222041	7886.854945
607.571714	7946.486754
607.921333	7911.274295
608.270899	7918.951972
608.620411	8007.240220
608.969870	7917.782424
609.319276	7915.912156
609.668627	7929.855988
610.017926	7969.310578
610.367171	8022.129268
610.716362	8002.935074
611.065500	7998.579517
611.414585	8025.975668
611.763616	8022.446860
612.112594	7999.129003
612.461518	8015.487547
612.810389	8084.357271
613.159207	8024.581789
613.507971	7972.559602
613.856682	8098.016277
614.205340	8057.752581
614.553945	8135.109087
614.902496	8034.840537
615.250994	8086.799710
615.599439	8074.932834
615.947830	8096.319929
616.296169	8060.958755
616.644454	8078.207063
616.992686	8076.235972
617.340864	8129.029456
617.688990	8046.364615
618.037063	8133.916854
618.385082	8084.102692
618.733048	8170.959253
619.080961	8109.623534
619.428821	8131.161864
619.776628	8134.168912
620.124382	8087.717200
620.472083	8068.356648
620.819731	8102.344108
621.167326	7997.535999
621.514868	8004.018922
621.862357	7900.944970
622.209793	7914.795541
622.557176	7853.870676
622.904506	7827.802869
623.251783	7758.693691
623.599007	7719.007208
623.946179	7720.259934
624.293297	7681.284253
624.640363	7604.757017
624.987376	7580.655261
625.334336	7531.889659
625.681243	7482.009962
626.028097	7468.232489
626.374899	7452.546939
626.721647	7443.460259
627.068343	7375.984415
627.414987	7349.185641
627.761577	7302.980945
628.108115	7345.740012
628.454600	7238.965853
628.801032	7292.397043
629.147412	7252.594612
629.493739	7238.693631
629.840014	7175.195257
630.186236	7235.943681
630.532405	7118.305836
630.878521	7167.051273
631.224585	7123.954449
631.570597	7048.768160
631.916556	7087.315342
632.262462	7076.376039
632.608316	7041.614762
632.954117	7025.301588
633.299866	7005.651171
633.645562	6998.578432
633.991206	6917.577172
634.336797	6864.161106
634.682336	6822.657286
635.027823	6793.133769
635.373257	6783.394259
635.718639	6710.368105
636.063968	6727.782771
636.409245	6623.307378
636.754470	6625.134796
637.099642	6581.458239
637.444762	6530.119128
637.789829	6537.156579
638.134845	6481.164483
638.479808	6465.831814
638.824719	6465.627647
639.169577	6399.689355
639.514383	6424.295227
639.859137	6348.435944
640.203839	6352.776377
640.548489	6341.824471
640.893086	6317.924360
641.237632	6291.400329
641.582125	6312.926056
641.926566	6284.004957
642.270955	6293.073992
642.615292	6297.875691
642.959576	6303.804088
643.303809	6296.065917
643.647990	6304.918183
643.992118	6293.915865
644.336195	6240.719089
