Dividing Wavelength (nm)	Counts (n)	Blue Motor Position (mm): 20.700000	Red Motor Position (mm): 0.000000	
326.493990	2138.643984
326.888308	2138.643984
327.282561	2138.643984
327.676750	2104.086875
328.070874	2102.241812
328.464933	2103.514704
328.858929	2113.261775
329.252859	2120.442898
329.646726	2131.699795
330.040528	2145.326034
330.434265	2162.334887
330.827938	2180.311641
331.221547	2196.312264
331.615091	2213.240458
332.008571	2235.996227
332.401986	2256.856521
332.795338	2274.387134
333.188625	2292.560493
333.581847	2311.716878
333.975006	2329.955773
334.368100	2352.414113
334.761129	2365.309385
335.154095	2384.533825
335.546996	2402.591238
335.939833	2424.943714
336.332606	2439.474840
336.725315	2452.717951
337.117960	2460.509054
337.510540	2469.126907
337.903056	2480.209884
338.295508	2490.163642
338.687896	2498.635301
339.080220	2507.207783
339.472480	2510.918072
339.864676	2517.148938
340.256807	2520.783610
340.648875	2522.921060
341.040879	2525.184538
341.432818	2528.756195
341.824694	2528.947759
342.216506	2529.900537
342.608253	2530.472708
342.999937	2530.941535
343.391557	2530.321473
343.783113	2527.289219
344.174605	2523.483148
344.566033	2526.210412
344.957397	2523.528519
345.348697	2522.505164
345.739934	2522.512726
346.131106	2518.726820
346.522215	2518.936028
346.913260	2515.276150
347.304241	2512.347239
347.695159	2514.590553
348.086012	2512.627023
348.476802	2505.521517
348.867528	2506.023112
349.258191	2503.915910
349.648789	2504.293996
350.039324	2503.061434
350.429796	2502.849706
350.820203	2501.579335
351.210548	2499.567914
351.600828	2497.944663
351.991045	2496.245794
352.381198	2497.193531
352.771288	2497.506082
353.161314	2497.138078
353.551276	2498.738645
353.941175	2494.549446
354.331010	2498.428614
354.720782	2495.771926
355.110490	2497.004488
355.500135	2496.921309
355.889717	2494.587254
356.279235	2497.009529
356.668689	2498.600013
357.058080	2499.177225
357.447408	2495.146822
357.836672	2494.811586
358.225873	2497.299395
358.615010	2492.676657
359.004084	2499.779643
359.393095	2498.095897
359.782043	2500.382061
360.170927	2499.963645
360.559748	2500.981958
360.948505	2499.913233
361.337199	2500.931547
361.725830	2499.847698
362.114398	2505.007319
362.502903	2502.688389
362.891344	2504.999758
363.279722	2504.684686
363.668037	2505.942453
364.056289	2506.496980
364.444478	2505.030005
364.832603	2505.604696
365.220665	2505.539161
365.608665	2508.102588
365.996601	2506.600324
366.384474	2508.037053
366.772284	2507.169974
367.160031	2507.495129
367.547715	2510.260202
367.935336	2509.703154
368.322893	2509.272136
368.710388	2508.717609
369.097820	2513.778927
369.485189	2508.679800
369.872495	2512.768176
370.259738	2509.950171
370.646918	2510.088803
371.034035	2510.492095
371.421090	2510.660973
371.808081	2512.032167
372.195010	2511.026457
372.581875	2511.462517
372.968678	2511.878412
373.355418	2511.205418
373.742096	2511.971673
374.128710	2512.760614
374.515262	2512.483351
374.901751	2511.938906
375.288177	2512.858917
375.674540	2512.634585
376.060841	2513.368073
376.447079	2514.661129
376.833254	2512.478309
377.219367	2510.116529
377.605417	2512.972343
377.991404	2511.318844
378.377329	2510.134173
378.763191	2509.796416
379.148991	2518.321007
379.534727	2515.997035
379.920402	2515.767662
380.306013	2515.820594
380.691563	2519.150277
381.077049	2513.231962
381.462474	2517.559793
381.847835	2516.581809
382.233134	2514.703979
382.618371	2517.194309
383.003545	2517.998373
383.388657	2517.191788
383.773706	2517.519463
384.158693	2520.642458
384.543618	2520.942407
384.928480	2520.836543
385.313280	2519.382170
385.698017	2520.491223
386.082692	2519.190606
386.467305	2520.370236
386.851856	2521.043230
387.236344	2518.242869
387.620770	2522.724455
388.005133	2520.949968
388.389435	2521.325534
388.773674	2522.759743
389.157851	2518.063908
389.541965	2520.370236
389.926018	2523.329393
390.310008	2524.723272
390.693936	2521.302849
391.077802	2523.266379
391.461606	2522.815195
391.845348	2520.907119
392.229027	2521.784279
392.612645	2524.067922
392.996200	2523.324352
393.379694	2525.179497
393.763125	2524.725793
394.146494	2524.693025
394.529801	2525.565145
394.913047	2524.720752
395.296230	2523.599095
395.679351	2524.740916
396.062410	2526.102028
396.445408	2523.079856
396.828343	2524.753519
397.211217	2520.319824
397.594028	2524.007428
397.976778	2521.043230
398.359466	2522.023734
398.742092	2521.433919
399.124656	2527.362316
399.507158	2524.899712
399.889598	2529.204858
400.271977	2529.159488
400.654294	2526.565814
401.036549	2526.371729
401.418742	2527.536236
401.800874	2527.879034
402.182944	2529.734179
402.564952	2526.800227
402.946898	2527.531195
403.328783	2528.269724
403.710606	2527.402645
404.092367	2527.425331
404.474067	2528.103366
404.855705	2527.730320
405.237282	2528.655372
405.618797	2529.802235
406.000250	2527.664785
406.381642	2528.536905
406.762972	2529.615712
407.144240	2528.705784
407.525447	2531.619571
407.906593	2531.075126
408.287677	2532.189221
408.668700	2528.917512
409.049661	2529.789632
409.430560	2529.807276
409.811399	2535.559232
410.192176	2532.653007
410.572891	2530.029087
410.953545	2533.119314
411.334138	2531.375075
411.714669	2532.607637
412.095139	2533.096629
412.475547	2532.312729
412.855894	2530.104704
413.236180	2530.891124
413.616405	2533.809952
413.996568	2529.540095
414.376670	2534.051927
414.756711	2531.498583
415.136691	2533.845240
415.516609	2532.713501
415.896466	2530.525640
416.276262	2535.380271
416.655997	2530.679395
417.035670	2531.032276
417.415283	2531.425486
417.794834	2528.640249
418.174324	2534.689633
418.553753	2537.782381
418.933121	2533.794828
419.312428	2533.462112
419.691674	2536.943029
420.070859	2534.240971
420.449983	2535.269366
420.829045	2534.913965
421.208047	2536.988399
421.586988	2534.069571
421.965867	2533.023532
422.344686	2536.194418
422.723444	2537.777340
423.102141	2534.558563
423.480777	2537.873122
423.859352	2535.370189
424.237866	2536.456558
424.616319	2536.625436
424.994712	2538.707433
425.373044	2535.299613
425.751314	2534.014119
426.129524	2538.223482
426.507673	2536.322967
426.885762	2537.545447
427.263789	2536.751465
427.641756	2538.077289
428.019662	2539.503935
428.397508	2537.860519
428.775292	2537.921013
429.153016	2539.599717
429.530679	2539.687937
429.908282	2537.812628
430.285824	2540.428987
430.663305	2537.099305
431.040726	2541.797660
431.418086	2538.304141
431.795385	2538.513348
432.172624	2539.761034
432.549802	2538.263811
432.926920	2542.896632
433.303977	2539.405633
433.680974	2538.283976
434.057910	2539.672814
434.434786	2540.650798
434.811601	2539.506456
435.188355	2541.661549
435.565050	2541.790098
435.941683	2541.361600
436.318257	2539.836651
436.694770	2536.391023
437.071222	2542.168185
437.447614	2536.441434
437.823946	2538.994779
438.200218	2540.093750
438.576429	2540.744059
438.952580	2543.088196
439.328670	2544.570295
439.704700	2542.810932
440.080670	2543.073072
440.456580	2544.487116
440.832429	2542.238761
441.208218	2540.108874
441.583947	2543.350336
441.959616	2541.235572
442.335224	2542.689944
442.710773	2541.013761
443.086261	2543.173895
443.461689	2541.323792
443.837057	2542.843700
444.212365	2544.451828
444.587612	2544.960984
444.962800	2543.095757
445.337927	2544.139276
445.712995	2545.170192
446.088002	2544.363607
446.462949	2547.589946
446.837837	2544.751776
447.212664	2544.164482
447.587431	2544.517363
447.962139	2544.673638
448.336786	2547.259750
448.711374	2544.610624
449.085901	2546.687579
449.460369	2544.305634
449.834776	2546.178423
450.209124	2546.518701
450.583412	2546.170861
450.957640	2545.996941
451.331808	2546.092723
451.705917	2544.547610
452.079965	2549.971891
452.453954	2547.272353
452.827883	2546.087682
453.201752	2546.029709
453.575562	2548.585574
453.949311	2547.978115
454.323001	2548.129349
454.696632	2549.460214
455.070202	2548.192364
455.443713	2544.182126
455.817164	2544.303114
456.190556	2543.299924
456.563888	2543.584749
456.937160	2545.397044
457.310373	2546.007024
457.683526	2549.790410
458.056619	2547.965512
458.429653	2549.777807
458.802628	2549.992056
459.175542	2549.971891
459.548398	2550.483568
459.921194	2550.082797
460.293930	2550.962478
460.666607	2549.987015
461.039224	2550.418033
461.411782	2548.883002
461.784280	2552.116902
462.156719	2549.674463
462.529099	2549.374514
462.901419	2550.660009
463.273680	2548.260419
463.645882	2553.893909
464.018024	2553.712427
464.390106	2551.703528
464.762130	2552.338713
465.134094	2551.958106
465.505999	2555.108827
465.877845	2554.171172
466.249631	2553.351985
466.621358	2555.718807
466.993026	2557.669733
467.364634	2559.595454
467.736184	2554.519012
468.107674	2556.051523
468.479105	2553.543549
468.850477	2554.728220
469.221790	2555.565051
469.593043	2553.256203
469.964238	2555.746533
470.335373	2555.786862
470.706449	2554.420709
471.077467	2556.051523
471.448425	2560.137378
471.819324	2560.071843
472.190164	2558.720814
472.560945	2558.007490
472.931667	2557.006821
473.302330	2557.518498
473.672934	2556.598488
474.043479	2558.302398
474.413965	2561.458160
474.784393	2553.500699
475.154761	2558.098231
475.525070	2555.146636
475.895321	2557.180741
476.265513	2558.471277
476.635645	2560.868345
477.005719	2564.024107
477.375734	2562.078222
477.745691	2563.703994
478.115588	2567.212637
478.485427	2565.589386
478.855207	2569.324881
479.224928	2571.202711
479.594591	2572.354614
479.964194	2575.631364
480.333739	2577.347877
480.703226	2577.665470
481.072653	2581.539597
481.442022	2585.655699
481.811333	2591.574013
482.180584	2589.706266
482.549777	2594.397059
482.918912	2595.990064
483.287988	2601.762185
483.657005	2604.799480
484.025964	2603.201435
484.394864	2609.397013
484.763706	2619.252468
485.132489	2618.685339
485.501213	2623.388735
485.869879	2630.587503
486.238487	2632.543471
486.607036	2637.554377
486.975527	2646.429329
487.343959	2652.632469
487.712333	2661.603202
488.080648	2665.883142
488.448905	2677.951664
488.817104	2680.414267
489.185244	2696.185517
489.553326	2710.421736
489.921350	2732.738924
490.289315	2767.134717
490.657222	2786.709517
491.025070	2800.169398
491.392861	2808.126859
491.760593	2812.159782
492.128267	2818.425936
492.495883	2820.255875
492.863440	2827.462205
493.230939	2831.709377
493.598380	2844.045080
493.965763	2855.317100
494.333088	2866.374871
494.700354	2882.052860
495.067563	2900.037176
495.434713	2910.963877
495.801805	2938.415480
496.168839	2954.015331
496.535815	2979.586584
496.902733	2992.174345
497.269593	3012.139835
497.636395	3036.160933
498.003139	3062.805951
498.369825	3078.693148
498.736453	3113.582973
499.103023	3131.171559
499.469535	3161.138698
499.835989	3179.191070
500.202385	3207.144268
500.568723	3226.207392
500.935003	3268.298506
501.301226	3299.283958
501.667390	3339.824917
502.033497	3387.819222
502.399546	3397.704925
502.765537	3425.128802
503.131470	3466.574648
503.497345	3523.025489
503.863163	3517.533152
504.228923	3588.870520
504.594625	3633.847694
504.960269	3645.449910
505.325856	3708.348387
505.691385	3731.232704
506.056856	3788.558185
506.422270	3841.863346
506.787625	3861.745657
507.152924	3925.549021
507.518164	3965.147284
507.883347	4001.362933
508.248472	4035.718397
508.613540	4119.204946
508.978550	4157.177437
509.343503	4199.132440
509.708398	4268.506278
510.073236	4340.670396
510.438016	4395.828181
510.802738	4439.923153
511.167403	4510.206920
511.532010	4550.369793
511.896561	4639.414214
512.261053	4721.874888
512.625488	4746.324484
512.989866	4806.581396
513.354186	4858.328840
513.718449	4895.313265
514.082655	5003.410727
514.446803	5041.602509
514.810894	5132.965861
515.174927	5166.565151
515.538904	5222.481629
515.902822	5342.849260
516.266684	5361.312486
516.630488	5415.247791
516.994235	5485.942412
517.357925	5586.425211
517.721558	5675.515002
518.085133	5752.843782
518.448651	5813.972813
518.812112	5836.625238
519.175516	5918.402836
519.538863	6027.410226
519.902152	6047.617691
520.265385	6195.336102
520.628560	6211.861004
520.991678	6290.263549
521.354739	6370.682556
521.717743	6403.543317
522.080690	6467.273584
522.443580	6603.384738
522.806413	6654.683519
523.169189	6731.379634
523.531908	6825.397153
523.894569	6812.912736
524.257174	6890.549026
524.619722	7018.140629
524.982213	7041.544186
525.344647	7156.396794
525.707025	7187.195724
526.069345	7309.317676
526.431608	7343.726071
526.793815	7464.134031
527.155964	7420.752381
527.518057	7500.984865
527.880093	7546.819036
528.242072	7645.703789
528.603995	7669.243457
528.965860	7681.579161
529.327669	7783.425592
529.689421	7809.541289
530.051117	7853.895882
530.412755	7992.318404
530.774337	7967.644477
531.135862	8035.977317
531.497331	8093.678364
531.858743	8068.727173
532.220098	8229.623160
532.581396	8208.011733
532.942638	8254.808765
533.303824	8282.230121
533.664953	8356.735854
534.026025	8345.688166
534.387040	8472.843710
534.747999	8524.628963
535.108902	8623.256617
535.469748	8504.265222
535.830537	8628.449005
536.191270	8670.744286
536.551947	8738.840192
536.912567	8782.279815
537.273131	8778.914845
537.633638	8816.113519
537.994089	8857.655147
538.354483	8866.222588
538.714821	9014.412347
539.075103	9070.538033
539.435328	9093.387063
539.795497	8996.002053
540.155609	9175.237757
540.515665	9277.472357
540.875665	9112.513201
541.235609	9216.194612
541.595496	9251.999407
541.955328	9422.488709
542.315102	9358.818936
542.674821	9354.866672
543.034483	9392.302280
543.394090	9440.357079
543.753640	9410.914220
544.113134	9641.978027
544.472571	9550.012258
544.831953	9711.152740
545.191278	9577.357997
545.550548	9631.958734
545.909761	9786.023957
546.268918	9790.198033
546.628019	9892.331810
546.987064	9811.537237
547.346053	9767.003684
547.704986	9888.208146
548.063863	9911.982227
548.422684	9928.353374
548.781449	9878.569460
549.140158	9997.482717
549.498811	9912.607330
549.857408	9811.068410
550.215949	10043.243791
550.574434	9927.289691
550.932864	10050.508094
551.291237	10113.696437
551.649555	10099.492986
552.007817	10129.959199
552.366022	10105.491959
552.724173	10126.183375
553.082267	10132.066401
553.440305	10278.819431
553.798288	10108.693092
554.156215	10273.521178
554.514086	10267.738975
554.871902	10138.768615
555.229661	10194.175937
555.587365	10188.464310
555.945014	10099.140105
556.302606	10233.847298
556.660143	10148.004009
557.017625	10315.700513
557.375050	10229.668181
557.732421	10371.175890
558.089735	10299.105034
558.446994	10311.859153
558.804197	10364.546773
559.161345	10372.146312
559.518437	10241.782074
559.875474	10334.231794
560.232455	10375.246622
560.589381	10334.998049
560.946251	10342.990799
561.303065	10456.066400
561.659825	10403.603112
562.016528	10345.551705
562.373177	10230.961237
562.729770	10358.885557
563.086307	10284.425194
563.442789	10380.227282
563.799216	10261.737481
564.155587	10317.500204
564.511904	10283.243043
564.868164	10284.349577
565.224370	10298.149735
565.580520	10231.082225
565.936615	10240.695705
566.292654	10117.641140
566.648638	10250.541078
567.004567	10217.526562
567.360441	10201.662051
567.716260	10120.048291
568.072023	10218.696110
568.427732	10174.606178
568.783385	10090.522252
569.138982	10167.019242
569.494525	10171.778091
569.850013	10060.192150
570.205445	10142.254573
570.560823	10043.876456
570.916145	9963.515422
571.271412	10032.710300
571.626625	9991.365277
571.981782	9961.466193
572.336884	9942.156054
572.691931	9945.941960
573.046923	9899.023941
573.401860	9855.087765
573.756743	9794.611563
574.111570	9833.556997
574.466342	9817.198453
574.821059	9847.435293
575.175722	9745.417463
575.530330	9760.598898
575.884882	9753.478268
576.239380	9679.161578
576.593823	9660.927725
576.948211	9674.498511
577.302544	9560.447446
577.656823	9578.330939
578.011047	9582.384027
578.365216	9547.983193
578.719330	9481.334098
579.073389	9482.586825
579.427394	9443.127193
579.781344	9416.454448
580.135239	9365.788332
580.489080	9370.141368
580.842866	9280.378583
581.196597	9282.384962
581.550273	9325.358278
581.903895	9291.786714
582.257463	9365.838743
582.610975	9242.267459
582.964434	9265.560111
583.317837	9187.449953
583.671186	9170.872118
584.024481	9169.450513
584.377721	9091.552083
584.730906	9065.970748
585.084037	9098.839071
585.437113	9031.320377
585.790135	9056.001866
586.143103	8953.621073
586.496016	8926.008152
586.848874	8986.736412
587.201679	8979.716605
587.554428	8868.977579
587.907124	8911.464423
588.259765	8879.448055
588.612352	8887.660095
588.964884	8763.322556
589.317362	8782.236965
589.669786	8778.171275
590.022155	8823.347575
590.374470	8842.498918
590.726731	8778.259495
591.078937	8629.731979
591.431090	8741.554854
591.783188	8624.859704
592.135232	8611.026778
592.487222	8610.013506
592.839157	8666.852515
593.191038	8599.265766
593.542866	8537.821662
593.894639	8439.105788
594.246358	8492.269796
594.598022	8507.128597
594.949633	8411.939009
595.301190	8383.146459
595.652692	8418.542921
596.004141	8527.026031
596.355535	8297.008263
596.706876	8285.204402
597.058162	8220.168476
597.409395	8292.330073
597.760573	8354.563117
598.111698	8265.390147
598.462768	8248.328361
598.813785	8214.524904
599.164748	8189.651851
599.515657	8170.155189
599.866511	8088.725431
600.217312	8210.978453
600.568060	8070.136176
600.918753	8172.063265
601.269392	8143.563102
601.619978	8063.277686
601.970510	8122.188610
602.320988	8120.162066
602.671412	8173.686517
603.021783	8112.151672
603.372100	8086.023372
603.722363	8087.969257
604.072572	8062.423210
604.422728	8070.075682
604.772830	8006.489088
605.122878	8014.970829
605.472872	8006.610076
605.822813	8036.942698
606.172701	7972.935168
606.522534	8059.327942
606.872314	8064.122079
607.222041	8025.370730
607.571714	8079.973987
607.921333	8036.433542
608.270899	8040.587452
608.620411	8132.286041
608.969870	8036.027729
609.319276	8028.937346
609.668627	8046.183133
610.017926	8079.936179
610.367171	8127.678426
610.716362	8109.512628
611.065500	8096.410670
611.414585	8123.867314
611.763616	8114.127805
612.112594	8094.174918
612.461518	8111.836600
612.810389	8171.952360
613.159207	8113.205274
613.507971	8064.621153
613.856682	8174.813215
614.205340	8128.737069
614.553945	8212.697486
614.902496	8109.111857
615.250994	8162.351483
615.599439	8145.408164
615.947830	8156.544073
616.296169	8130.665310
616.644454	8144.621744
616.992686	8138.302658
617.340864	8198.529323
617.688990	8109.391641
618.037063	8194.138478
618.385082	8139.903224
618.733048	8221.955565
619.080961	8162.958942
619.428821	8187.753857
619.776628	8183.524329
620.124382	8138.164026
620.472083	8124.154660
620.819731	8154.061305
621.167326	8044.547279
621.514868	8054.415337
621.862357	7942.030374
622.209793	7959.077036
622.557176	7894.628405
622.904506	7861.916357
623.251783	7801.730022
623.599007	7756.440295
623.946179	7755.439626
624.293297	7715.400262
624.640363	7631.326419
624.987376	7617.581713
625.334336	7565.725884
625.681243	7513.471803
626.028097	7496.702405
626.374899	7479.302863
626.721647	7474.508725
627.068343	7408.520022
627.414987	7377.569858
627.761577	7330.742579
628.108115	7367.676593
628.454600	7263.549040
628.801032	7312.997718
629.147412	7269.898373
629.493739	7254.109479
629.840014	7198.003957
630.186236	7254.278358
630.532405	7134.175388
630.878521	7193.028339
631.224585	7149.429920
631.570597	7074.662046
631.916556	7108.284022
632.262462	7097.589214
632.608316	7063.127886
632.954117	7036.964298
633.299866	7024.391660
633.645562	7019.244642
633.991206	6937.144411
634.336797	6884.134157
634.682336	6839.759401
635.027823	6806.598691
635.373257	6802.278422
635.718639	6731.704788
636.063968	6742.916315
636.409245	6642.068032
636.754470	6640.006200
637.099642	6594.713953
637.444762	6541.905346
637.789829	6550.760133
638.134845	6486.911399
638.479808	6481.073743
638.824719	6481.081304
639.169577	6408.821405
639.514383	6426.979641
639.859137	6361.147213
640.203839	6368.892946
640.548489	6354.785277
640.893086	6330.549930
641.237632	6302.747967
641.582125	6323.734290
641.926566	6293.389064
642.270955	6306.196116
642.615292	6304.093955
642.959576	6317.485780
643.303809	6308.814995
643.647990	6317.677344
