Dividing Wavelength (nm)	Counts (n)	Blue Motor Position (mm): 26.500000	Red Motor Position (mm): 0.000000	
326.493990	2130.537809
326.888308	2130.537809
327.282561	2130.537809
327.676750	2101.220979
328.070874	2098.788622
328.464933	2100.827769
328.858929	2106.367997
329.252859	2118.807044
329.646726	2130.726852
330.040528	2142.986938
330.434265	2159.340441
330.827938	2175.875426
331.221547	2191.838240
331.615091	2215.267002
332.008571	2232.038921
332.401986	2254.661099
332.795338	2272.683224
333.188625	2289.641665
333.581847	2310.204532
333.975006	2327.732624
334.368100	2349.089472
334.761129	2365.420290
335.154095	2381.045346
335.546996	2403.337329
335.939833	2425.392377
336.332606	2439.230344
336.725315	2451.679473
337.117960	2460.806482
337.510540	2470.891311
337.903056	2479.985552
338.295508	2490.642552
338.687896	2497.049858
339.080220	2506.423884
339.472480	2511.946468
339.864676	2514.852693
340.256807	2520.884433
340.648875	2522.275792
341.040879	2524.947603
341.432818	2527.904240
341.824694	2526.906092
342.216506	2529.267872
342.608253	2530.397091
342.999937	2528.665454
343.391557	2530.956659
343.783113	2529.603109
344.174605	2527.100176
344.566033	2526.124713
344.957397	2525.436595
345.348697	2522.510206
345.739934	2521.045750
346.131106	2518.467200
346.522215	2517.763959
346.913260	2514.414113
347.304241	2513.030316
347.695159	2508.999913
348.086012	2510.509739
348.476802	2507.684172
348.867528	2505.566887
349.258191	2505.539161
349.648789	2506.585201
350.039324	2503.666372
350.429796	2504.447751
350.820203	2501.400374
351.210548	2497.450630
351.600828	2496.575990
351.991045	2497.846360
352.381198	2498.630260
352.771288	2498.332832
353.161314	2498.615136
353.551276	2495.812255
353.941175	2495.716473
354.331010	2496.880979
354.720782	2496.543222
355.110490	2495.237563
355.500135	2497.894251
355.889717	2497.803511
356.279235	2497.213696
356.668689	2497.470794
357.058080	2497.601864
357.447408	2497.720332
357.836672	2494.539363
358.225873	2496.938953
358.615010	2493.798314
359.004084	2499.930878
359.393095	2497.455671
359.782043	2501.556650
360.170927	2500.636639
360.559748	2499.197390
360.948505	2499.963645
361.337199	2501.634788
361.725830	2500.419869
362.114398	2503.613440
362.502903	2504.964470
362.891344	2507.338853
363.279722	2506.612927
363.668037	2506.471775
364.056289	2503.850375
364.444478	2507.832886
364.832603	2503.815087
365.220665	2507.232989
365.608665	2504.742659
365.996601	2506.660818
366.384474	2506.272649
366.772284	2505.274501
367.160031	2509.481343
367.547715	2507.341374
367.935336	2509.700634
368.322893	2509.748525
368.710388	2507.797598
369.097820	2513.839421
369.485189	2507.162413
369.872495	2509.899759
370.259738	2508.858761
370.646918	2510.020747
371.034035	2508.969666
371.421090	2510.098885
371.808081	2510.565192
372.195010	2512.954698
372.581875	2509.824142
372.968678	2515.661798
373.355418	2510.555109
373.742096	2514.870337
374.128710	2513.216838
374.515262	2514.882940
374.901751	2513.078207
375.288177	2513.909997
375.674540	2514.802281
376.060841	2513.897394
376.447079	2511.094513
376.833254	2516.821263
377.219367	2510.134173
377.605417	2514.300687
377.991404	2510.585356
378.377329	2515.722292
378.763191	2510.126611
379.148991	2516.044926
379.534727	2517.040554
379.920402	2516.987622
380.306013	2515.470234
380.691563	2518.981398
381.077049	2517.806809
381.462474	2519.861079
381.847835	2519.936697
382.233134	2517.305214
382.618371	2519.901408
383.003545	2518.104237
383.388657	2517.337982
383.773706	2519.641789
384.158693	2519.180523
384.543618	2520.382839
384.928480	2517.232118
385.313280	2519.717406
385.698017	2519.914011
386.082692	2520.521470
386.467305	2520.617252
386.851856	2519.994670
387.236344	2520.869310
387.620770	2522.195133
388.005133	2522.343847
388.389435	2519.971985
388.773674	2522.064063
389.157851	2522.487520
389.541965	2521.673374
389.926018	2522.633714
390.310008	2524.350227
390.693936	2523.110103
391.077802	2523.762932
391.461606	2525.071112
391.845348	2527.304343
392.229027	2523.004239
392.612645	2525.126564
392.996200	2524.357788
393.379694	2526.197810
393.763125	2524.511544
394.146494	2524.977850
394.529801	2526.165042
394.913047	2527.062368
395.296230	2528.012625
395.679351	2525.113962
396.062410	2526.969106
396.445408	2526.349044
396.828343	2524.524147
397.211217	2523.233611
397.594028	2525.423993
397.976778	2519.777900
398.359466	2525.602953
398.742092	2523.972140
399.124656	2528.799045
399.507158	2526.464991
399.889598	2527.760567
400.271977	2525.855011
400.654294	2527.783253
401.036549	2527.327028
401.418742	2529.416586
401.800874	2527.223684
402.182944	2529.015815
402.564952	2528.340300
402.946898	2530.475229
403.328783	2531.435568
403.710606	2530.553367
404.092367	2530.384488
404.474067	2530.329035
404.855705	2530.407173
405.237282	2529.222502
405.618797	2528.940197
406.000250	2533.026053
406.381642	2531.831299
406.762972	2533.189890
407.144240	2530.155115
407.525447	2533.701567
407.906593	2531.899355
408.287677	2533.419263
408.668700	2534.157792
409.049661	2534.145189
409.430560	2533.109232
409.811399	2531.140661
410.192176	2534.253573
410.572891	2529.030938
410.953545	2534.976979
411.334138	2532.630322
411.714669	2534.813142
412.095139	2534.833306
412.475547	2534.157792
412.855894	2533.545291
413.236180	2534.727442
413.616405	2535.813811
413.996568	2539.357742
414.376670	2535.899510
414.756711	2535.818852
415.136691	2535.770961
415.516609	2535.793646
415.896466	2535.453368
416.276262	2539.713143
416.655997	2531.548994
417.035670	2533.595703
417.415283	2535.743234
417.794834	2532.496731
418.174324	2535.768440
418.553753	2535.949922
418.933121	2535.105528
419.312428	2537.651311
419.691674	2538.649460
420.070859	2542.042156
420.449983	2535.249201
420.829045	2540.413863
421.208047	2539.705581
421.586988	2539.773637
421.965867	2538.188194
422.344686	2538.553678
422.723444	2537.058976
423.102141	2539.819007
423.480777	2539.448483
423.859352	2539.652649
424.237866	2540.572660
424.616319	2540.292876
424.994712	2541.406971
425.373044	2540.744059
425.751314	2542.488298
426.129524	2541.633823
426.507673	2544.018288
426.885762	2540.459234
427.263789	2540.335726
427.641756	2542.337064
428.019662	2540.295396
428.397508	2541.396888
428.775292	2543.042825
429.153016	2545.611293
429.530679	2545.926365
429.908282	2543.940151
430.285824	2540.456713
430.663305	2543.763710
431.040726	2542.054759
431.418086	2543.345294
431.795385	2544.751776
432.172624	2542.947043
432.549802	2548.003321
432.926920	2545.311344
433.303977	2547.637837
433.680974	2549.326623
434.057910	2549.298897
434.434786	2547.970553
434.811601	2552.999104
435.188355	2546.506098
435.565050	2548.628424
435.941683	2550.654967
436.318257	2545.250851
436.694770	2547.166489
437.071222	2547.179092
437.447614	2547.221942
437.823946	2548.416695
438.200218	2549.568599
438.576429	2553.014228
438.952580	2554.186296
439.328670	2555.577654
439.704700	2553.566234
440.080670	2555.890206
440.456580	2559.277861
440.832429	2561.107800
441.208218	2563.310784
441.583947	2562.370609
441.959616	2569.009809
442.335224	2570.428893
442.710773	2571.568194
443.086261	2575.220510
443.461689	2579.250913
443.837057	2583.185533
444.212365	2588.904722
444.587612	2590.280957
444.962800	2600.867380
445.337927	2604.403750
445.712995	2604.567587
446.088002	2620.290946
446.462949	2622.751029
446.837837	2631.910806
447.212664	2639.802732
447.587431	2651.576347
447.962139	2678.992662
448.336786	2716.183775
448.711374	2718.225442
449.085901	2698.978317
449.460369	2706.222455
449.834776	2716.841645
450.209124	2749.901532
450.583412	2773.864657
450.957640	2790.008952
451.331808	2798.611681
451.705917	2790.797893
452.079965	2802.042186
452.453954	2831.411949
452.827883	2839.782785
453.201752	2864.436548
453.575562	2868.358565
453.949311	2911.790626
454.323001	2917.048550
454.696632	2945.281532
455.070202	2986.319045
455.443713	3024.079808
455.817164	3061.921229
456.190556	3099.243411
456.563888	3136.401756
456.937160	3171.087415
457.310373	3159.016372
457.683526	3188.555013
458.056619	3211.625854
458.429653	3240.299937
458.802628	3265.447733
459.175542	3311.720484
459.548398	3414.234868
459.921194	3483.815394
460.293930	3533.284237
460.666607	3695.087631
461.039224	3814.691527
461.411782	3890.344123
461.784280	3939.576031
462.156719	3964.328097
462.529099	3985.654698
462.901419	3934.550001
463.273680	3956.226962
463.645882	4004.866535
464.018024	4028.867469
464.390106	4126.983446
464.762130	4297.835712
465.134094	4523.926420
465.505999	4940.597950
465.877845	5437.708652
466.249631	5731.562551
466.621358	5676.092214
466.993026	5544.896185
467.364634	5522.132855
467.736184	5470.700483
468.107674	5418.363224
468.479105	5526.556468
468.850477	5481.170960
469.221790	5468.925997
469.593043	5400.230193
469.964238	5416.777781
470.335373	5492.432897
470.706449	5593.192960
471.077467	5655.151261
471.448425	6388.382047
471.819324	7021.051896
472.190164	7112.269054
472.560945	6547.357354
472.931667	6206.948399
473.302330	6197.128232
473.672934	6070.670887
474.043479	6343.825809
474.413965	6373.170365
474.784393	6379.287805
475.154761	6541.706221
475.525070	6669.088617
475.895321	6626.853830
476.265513	6806.263454
476.635645	6981.531770
477.005719	7056.213944
477.375734	7198.510593
477.745691	7427.842764
478.115588	7599.925071
478.485427	7847.191147
478.855207	8293.416441
479.224928	8945.035987
479.594591	9471.289599
479.964194	9428.028937
480.333739	9470.581317
480.703226	9507.800156
481.072653	9640.775712
481.442022	9900.579137
481.811333	10105.582700
482.180584	10031.165187
482.549777	9891.439525
482.918912	9805.036669
483.287988	9889.937262
483.657005	9954.280029
484.025964	9759.890616
484.394864	9933.823026
484.763706	9969.156474
485.132489	9821.024688
485.501213	9849.900418
485.869879	9955.459659
486.238487	9877.906548
486.607036	10014.524338
486.975527	9868.303150
487.343959	10083.003372
487.712333	10170.946300
488.080648	10144.006374
488.448905	10222.093847
488.817104	10205.415190
489.185244	10488.236523
489.553326	10668.651858
489.921350	11196.874040
490.289315	12183.770646
490.657222	12527.519365
491.025070	12483.976399
491.392861	12401.903894
491.760593	12100.223604
492.128267	11819.985861
492.495883	11537.313242
492.863440	11237.074722
493.230939	10941.854670
493.598380	10902.586602
493.965763	10795.807402
494.333088	10712.857736
494.700354	10652.270628
495.067563	10732.959337
495.434713	10585.760165
495.801805	10724.979190
496.168839	10656.472430
496.535815	10615.913827
496.902733	10622.721905
497.269593	10569.893133
497.636395	10674.489514
498.003139	10671.739565
498.369825	10551.878570
498.736453	10715.756399
499.103023	10649.387088
499.469535	10678.981182
499.835989	10682.494866
500.202385	10652.628550
500.568723	10507.798721
500.935003	10741.672971
501.301226	10550.981245
501.667390	10810.280555
502.033497	10909.021635
502.399546	10779.148909
502.765537	10675.936325
503.131470	10758.896073
503.497345	10935.079359
503.863163	10555.661956
504.228923	10864.031857
504.594625	10927.404202
504.960269	10681.153919
505.325856	10907.844526
505.691385	10703.874400
506.056856	10854.282266
506.422270	10879.619105
506.787625	10766.195664
507.152924	10892.481609
507.518164	10875.871007
507.883347	10797.985180
508.248472	10713.631553
508.613540	10949.431524
508.978550	10836.237456
509.343503	10813.620319
509.708398	10934.728999
510.073236	11038.652386
510.438016	11049.226206
510.802738	11006.066367
511.167403	11054.171578
511.532010	10954.893614
511.896561	11181.498521
512.261053	11260.432908
512.625488	11123.419387
512.989866	11108.426996
513.354186	11094.989800
513.718449	11008.201296
514.082655	11191.956395
514.446803	11091.264388
514.810894	11210.364168
515.174927	11077.459188
515.538904	11101.162693
515.902822	11258.469378
516.266684	11145.855043
516.630488	11083.213665
516.994235	11141.988478
517.357925	11201.365708
517.721558	11284.358224
518.085133	11304.089300
518.448651	11320.115128
518.812112	11202.305883
519.175516	11216.111083
519.538863	11339.049702
519.902152	11261.060532
520.265385	11423.363000
520.628560	11330.653660
520.991678	11307.494600
521.354739	11368.172448
521.717743	11302.501337
522.080690	11279.518716
522.443580	11416.000395
522.806413	11372.452388
523.169189	11400.617314
523.531908	11460.420522
523.894569	11284.000302
524.257174	11294.858947
524.619722	11405.794579
524.982213	11349.598317
525.344647	11403.410113
525.707025	11355.226765
526.069345	11451.119593
526.431608	11364.419309
526.793815	11471.410238
527.155964	11261.670511
527.518057	11318.529685
527.880093	11267.185533
528.242072	11337.373518
528.603995	11235.670760
528.965860	11166.049905
529.327669	11217.474715
529.689421	11164.792137
530.051117	11128.062290
530.412755	11244.845660
530.774337	11134.149483
531.135862	11110.667789
531.497331	11136.375153
531.858743	10987.220013
532.220098	11147.649693
532.581396	11026.798112
532.942638	11010.810093
533.303824	10968.502209
533.664953	10981.846143
534.026025	10895.120653
534.387040	10995.938689
534.747999	10995.724440
535.108902	11051.744262
535.469748	10816.697943
535.830537	10925.186095
536.191270	10897.568133
536.551947	10920.165106
536.912567	10916.845506
537.273131	10850.216575
537.633638	10823.614407
537.994089	10818.036370
538.354483	10760.889850
538.714821	10909.598847
539.075103	10917.493294
539.435328	10888.191587
539.795497	10710.823630
540.155609	10867.119564
540.515665	10953.794643
540.875665	10684.229023
541.235609	10753.844837
541.595496	10756.859447
541.955328	10911.214537
542.315102	10793.964860
542.674821	10742.184648
543.034483	10747.835782
543.394090	10746.764537
543.753640	10679.530668
544.113134	10894.898842
544.472571	10745.836964
544.831953	10898.185675
545.191278	10703.650068
545.550548	10735.830274
545.909761	10870.807168
546.268918	10837.979174
546.628019	10919.605537
546.987064	10783.965732
547.346053	10716.189939
547.704986	10805.887189
548.063863	10795.578029
548.422684	10791.484612
548.781449	10711.224402
549.140158	10807.180245
549.498811	10684.823879
549.857408	10545.320029
550.215949	10770.694894
550.574434	10618.252922
550.932864	10722.917358
551.291237	10776.822417
551.649555	10731.051260
552.007817	10739.918650
552.366022	10697.550272
552.724173	10701.215191
553.082267	10677.277272
553.440305	10820.302368
553.798288	10619.382141
554.156215	10770.962075
554.514086	10750.184960
554.871902	10603.489903
555.229661	10636.748916
555.587365	10612.500966
555.945014	10511.156129
556.302606	10625.310538
556.660143	10524.270691
557.017625	10684.884373
557.375050	10574.631818
557.732421	10713.339166
558.089735	10629.104006
558.446994	10620.508839
558.804197	10663.595581
559.161345	10662.678091
559.518437	10513.480101
559.875474	10597.127967
560.232455	10630.780190
560.589381	10585.780330
560.946251	10577.666593
561.303065	10689.555002
561.659825	10619.835845
562.016528	10547.626357
562.373177	10428.796278
562.729770	10543.918588
563.086307	10464.253234
563.442789	10555.949302
563.799216	10434.734758
564.155587	10479.137241
564.511904	10428.387945
564.868164	10425.917780
565.224370	10436.907495
565.580520	10362.636175
565.936615	10375.017249
566.292654	10235.531043
566.648638	10368.516681
567.004567	10330.428243
567.360441	10316.096243
567.716260	10227.976874
568.072023	10317.691768
568.427732	10267.383573
568.783385	10177.189769
569.138982	10244.834492
569.494525	10264.784859
569.850013	10146.995778
570.205445	10223.152490
570.560823	10118.974525
570.916145	10034.918326
571.271412	10106.127144
571.626625	10051.599504
571.981782	10030.023365
572.336884	10007.229788
572.691931	10009.750365
573.046923	9954.504360
573.401860	9904.934694
573.756743	9847.692392
574.111570	9893.463549
574.466342	9873.127534
574.821059	9908.120703
575.175722	9799.753540
575.530330	9803.715887
575.884882	9794.329258
576.239380	9723.836283
576.593823	9704.314415
576.948211	9719.160613
577.302544	9597.043702
577.656823	9612.837637
578.011047	9615.643040
578.365216	9583.369573
578.719330	9510.063634
579.073389	9525.103917
579.427394	9478.357297
579.781344	9457.693607
580.135239	9398.954083
580.489080	9409.190146
580.842866	9307.041245
581.196597	9316.188419
581.550273	9353.578657
581.903895	9324.161004
582.257463	9393.063494
582.610975	9260.312270
582.964434	9294.511457
583.317837	9216.504643
583.671186	9196.408083
584.024481	9194.507568
584.377721	9115.711813
584.730906	9091.186599
585.084037	9122.600549
585.437113	9051.759735
585.790135	9082.427594
586.143103	8973.841141
586.496016	8951.435732
586.848874	9012.100978
587.201679	9000.798711
587.554428	8886.820743
587.907124	8933.665665
588.259765	8897.719717
588.612352	8905.815811
588.964884	8780.384341
589.317362	8795.974109
589.669786	8793.466135
590.022155	8847.101492
590.374470	8853.612142
590.726731	8793.902195
591.078937	8648.338878
591.431090	8758.528419
591.783188	8636.335891
592.135232	8631.756002
592.487222	8627.569324
592.839157	8678.381634
593.191038	8606.802291
593.542866	8555.989981
593.894639	8455.275288
594.246358	8510.591870
594.598022	8529.402935
594.949633	8424.738499
595.301190	8392.036534
595.652692	8426.394518
596.004141	8535.956435
596.355535	8317.147673
596.706876	8299.851474
597.058162	8228.377995
597.409395	8308.867578
597.760573	8365.736834
598.111698	8274.290304
598.462768	8264.560877
598.813785	8228.009991
599.164748	8199.111576
599.515657	8190.266872
599.866511	8098.187676
600.217312	8225.136533
600.568060	8083.200326
600.918753	8184.419133
601.269392	8160.796287
601.619978	8070.640291
601.970510	8137.430538
602.320988	8131.260166
602.671412	8187.678239
603.021783	8120.595605
603.372100	8094.391687
603.722363	8102.142462
604.072572	8073.334788
604.422728	8079.472393
604.772830	8011.681476
605.122878	8020.755553
605.472872	8021.032817
605.822813	8046.430150
606.172701	7985.888413
606.522534	8066.408242
606.872314	8062.710556
607.222041	8036.252060
607.571714	8089.078311
607.921333	8047.766056
608.270899	8052.751757
608.620411	8145.337588
608.969870	8045.399234
609.319276	8042.336733
609.668627	8060.396667
610.017926	8096.239270
610.367171	8139.227710
610.716362	8113.164944
611.065500	8111.758462
611.414585	8134.090774
611.763616	8125.225905
612.112594	8104.161444
612.461518	8118.916901
612.810389	8180.688680
613.159207	8122.274309
613.507971	8068.659118
613.856682	8185.500461
614.205340	8139.890622
614.553945	8220.360040
614.902496	8122.395297
615.250994	8173.131990
615.599439	8153.610122
615.947830	8167.445568
616.296169	8140.228379
616.644454	8155.263620
616.992686	8148.253896
617.340864	8210.222279
617.688990	8111.040098
618.037063	8205.138276
618.385082	8152.213722
618.733048	8238.462823
619.080961	8177.376642
619.428821	8193.031945
619.776628	8196.401956
620.124382	8150.098958
620.472083	8132.066751
620.819731	8160.735793
621.167326	8052.655975
621.514868	8062.834064
621.862357	7951.540511
622.209793	7974.997000
622.557176	7907.826145
622.904506	7880.135087
623.251783	7805.989797
623.599007	7767.175432
623.946179	7768.115608
624.293297	7720.547280
624.640363	7644.582133
624.987376	7620.492979
625.334336	7571.750063
625.681243	7522.918926
626.028097	7509.509457
626.374899	7493.869277
626.721647	7480.885785
627.068343	7410.511277
627.414987	7385.751650
627.761577	7340.827408
628.108115	7375.634054
628.454600	7274.178313
628.801032	7321.900396
629.147412	7285.311701
629.493739	7269.689165
629.840014	7209.218004
630.186236	7263.750686
630.532405	7148.625856
630.878521	7201.205090
631.224585	7155.990981
631.570597	7078.148004
631.916556	7115.724765
632.262462	7109.546831
632.608316	7069.217600
632.954117	7047.792696
633.299866	7039.482354
633.645562	7029.684872
633.991206	6948.459280
634.336797	6894.377782
634.682336	6853.357913
635.027823	6821.276010
635.373257	6805.164482
635.718639	6738.996818
636.063968	6753.948880
636.409245	6648.709752
636.754470	6647.371326
637.099642	6604.534121
637.444762	6544.604884
637.789829	6557.074178
638.134845	6505.891343
638.479808	6484.065668
638.824719	6491.418190
639.169577	6419.685092
639.514383	6438.458349
639.859137	6369.916300
640.203839	6373.518205
640.548489	6363.657708
640.893086	6339.253482
