Dividing Wavelength (nm)	Counts (n)	Blue Motor Position (mm): 26.100000	Red Motor Position (mm): 0.000000	
326.493990	2133.907820
326.888308	2133.907820
327.282561	2133.907820
327.676750	2101.039497
328.070874	2097.881214
328.464933	2098.236616
328.858929	2107.771958
329.252859	2117.713113
329.646726	2131.709877
330.040528	2140.635240
330.434265	2158.513692
330.827938	2176.994562
331.221547	2194.615915
331.615091	2213.106868
332.008571	2232.220403
332.401986	2252.450553
332.795338	2271.828748
333.188625	2290.556635
333.581847	2309.786116
333.975006	2327.165494
334.368100	2345.338854
334.761129	2362.181349
335.154095	2379.621220
335.546996	2401.441855
335.939833	2427.287851
336.332606	2439.772268
336.725315	2455.069649
337.117960	2459.364712
337.510540	2469.815024
337.903056	2479.133597
338.295508	2490.612305
338.687896	2495.361072
339.080220	2506.464213
339.472480	2510.363545
339.864676	2515.571057
340.256807	2520.231604
340.648875	2523.425175
341.040879	2526.452388
341.432818	2525.736544
341.824694	2525.315608
342.216506	2529.164529
342.608253	2529.711494
342.999937	2528.612522
343.391557	2528.494055
343.783113	2528.292409
344.174605	2524.493900
344.566033	2524.388035
344.957397	2523.984743
345.348697	2523.783097
345.739934	2523.747809
346.131106	2520.256810
346.522215	2516.279339
346.913260	2513.965450
347.304241	2512.543844
347.695159	2509.892197
348.086012	2512.006962
348.476802	2506.880108
348.867528	2504.551095
349.258191	2503.875580
349.648789	2503.978924
350.039324	2502.091012
350.429796	2503.739469
350.820203	2502.428769
351.210548	2499.073881
351.600828	2497.311998
351.991045	2499.434324
352.381198	2494.647748
352.771288	2498.889879
353.161314	2496.921309
353.551276	2497.556494
353.941175	2496.702018
354.331010	2495.265290
354.720782	2493.558859
355.110490	2496.155053
355.500135	2494.703201
355.889717	2494.977944
356.279235	2496.238232
356.668689	2497.974910
357.058080	2498.015239
357.447408	2494.672954
357.836672	2492.719507
358.225873	2493.488283
358.615010	2494.725886
359.004084	2496.132368
359.393095	2500.056906
359.782043	2497.309477
360.170927	2499.751917
360.559748	2503.013543
360.948505	2502.035559
361.337199	2503.875580
361.725830	2502.935405
362.114398	2503.043790
362.502903	2501.803666
362.891344	2503.837772
363.279722	2503.754593
363.668037	2506.388596
364.056289	2503.207628
364.444478	2506.509583
364.832603	2504.432628
365.220665	2505.357680
365.608665	2506.136538
365.996601	2507.205262
366.384474	2505.834069
366.772284	2508.679800
367.160031	2508.798267
367.547715	2506.875067
367.935336	2509.032681
368.322893	2511.278515
368.710388	2507.666528
369.097820	2512.004441
369.485189	2510.310613
369.872495	2509.597290
370.259738	2511.036539
370.646918	2510.292969
371.034035	2509.088133
371.421090	2510.217352
371.808081	2510.983607
372.195010	2509.932527
372.581875	2509.763648
372.968678	2512.427898
373.355418	2513.605007
373.742096	2510.411436
374.128710	2513.277332
374.515262	2514.003258
374.901751	2510.784482
375.288177	2512.987466
375.674540	2513.040398
376.060841	2512.589215
376.447079	2515.016530
376.833254	2514.431757
377.219367	2507.288442
377.605417	2511.258350
377.991404	2511.956550
378.377329	2512.329595
378.763191	2511.376817
379.148991	2516.128105
379.534727	2516.423012
379.920402	2517.337982
380.306013	2515.676922
380.691563	2519.419978
381.077049	2516.029802
381.462474	2518.381501
381.847835	2515.714730
382.233134	2518.462159
382.618371	2519.031809
383.003545	2516.750687
383.388657	2519.659433
383.773706	2519.626666
384.158693	2519.946779
384.543618	2518.520132
384.928480	2519.293949
385.313280	2518.908301
385.698017	2518.139525
386.082692	2522.515247
386.467305	2520.087931
386.851856	2520.526512
387.236344	2520.201357
387.620770	2521.290246
388.005133	2522.195133
388.389435	2520.241686
388.773674	2520.448374
389.157851	2519.787982
389.541965	2520.408044
389.926018	2522.041378
390.310008	2522.764784
390.693936	2524.319980
391.077802	2521.086080
391.461606	2523.180679
391.845348	2522.611029
392.229027	2523.677233
392.612645	2524.519105
392.996200	2522.588343
393.379694	2522.588343
393.763125	2524.125895
394.146494	2523.639424
394.529801	2523.122706
394.913047	2526.429703
395.296230	2527.173273
395.679351	2523.818385
396.062410	2525.267717
396.445408	2523.228570
396.828343	2526.631349
397.211217	2522.079187
397.594028	2523.417613
397.976778	2522.043899
398.359466	2522.810154
398.742092	2521.799403
399.124656	2524.488858
399.507158	2528.010104
399.889598	2529.517409
400.271977	2527.291740
400.654294	2528.133613
401.036549	2525.519774
401.418742	2528.786442
401.800874	2526.923736
402.182944	2527.937008
402.564952	2527.833664
402.946898	2526.318797
403.328783	2529.766947
403.710606	2527.911802
404.092367	2527.896678
404.474067	2530.944056
404.855705	2529.290557
405.237282	2528.098325
405.618797	2528.620084
406.000250	2528.337779
406.381642	2528.819210
406.762972	2530.462626
407.144240	2529.338448
407.525447	2531.985054
407.906593	2530.046731
408.287677	2533.431865
408.668700	2532.282482
409.049661	2531.967410
409.430560	2529.217461
409.811399	2532.713501
410.192176	2534.314067
410.572891	2531.533871
410.953545	2532.383305
411.334138	2536.688451
411.714669	2533.946063
412.095139	2535.430683
412.475547	2531.647297
412.855894	2534.482946
413.236180	2536.398584
413.616405	2535.302133
413.996568	2536.169212
414.376670	2534.072092
414.756711	2533.058820
415.136691	2534.694674
415.516609	2535.234078
415.896466	2532.963038
416.276262	2534.482946
416.655997	2531.753161
417.035670	2532.378264
417.415283	2533.537730
417.794834	2531.304498
418.174324	2537.663914
418.553753	2535.143337
418.933121	2539.186342
419.312428	2535.319777
419.691674	2536.053265
420.070859	2537.341280
420.449983	2535.365148
420.829045	2536.401105
421.208047	2536.882535
421.586988	2539.521579
421.965867	2539.440921
422.344686	2539.937474
422.723444	2536.721218
423.102141	2538.714995
423.480777	2540.421425
423.859352	2540.416384
424.237866	2539.889583
424.616319	2540.686086
424.994712	2540.612989
425.373044	2539.269522
425.751314	2539.856816
426.129524	2539.899666
426.507673	2539.897145
426.885762	2542.533669
427.263789	2541.510314
427.641756	2540.187012
428.019662	2540.774306
428.397508	2541.492670
428.775292	2542.395037
429.153016	2545.253371
429.530679	2543.806560
429.908282	2541.298586
430.285824	2544.456869
430.663305	2541.976621
431.040726	2543.390665
431.418086	2542.919317
431.795385	2546.513660
432.172624	2542.405119
432.549802	2543.766231
432.926920	2544.923176
433.303977	2547.380738
433.680974	2542.011909
434.057910	2544.444266
434.434786	2544.822353
434.811601	2547.836962
435.188355	2547.849565
435.565050	2547.534493
435.941683	2549.702189
436.318257	2547.713454
436.694770	2543.052907
437.071222	2547.007693
437.447614	2544.887887
437.823946	2543.851930
438.200218	2549.984494
438.576429	2552.356357
438.952580	2551.907694
439.328670	2551.580019
439.704700	2551.141439
440.080670	2552.810061
440.456580	2552.414330
440.832429	2552.583209
441.208218	2551.915256
441.583947	2556.384239
441.959616	2556.449774
442.335224	2558.713252
442.710773	2561.196020
443.086261	2562.022769
443.461689	2563.787173
443.837057	2566.769016
444.212365	2566.920250
444.587612	2569.067782
444.962800	2572.894018
445.337927	2578.577919
445.712995	2576.017012
446.088002	2584.728126
446.462949	2587.263827
446.837837	2591.841194
447.212664	2596.698346
447.587431	2605.346446
447.962139	2621.773045
448.336786	2645.905049
448.711374	2646.699031
449.085901	2636.765437
449.460369	2641.158802
449.834776	2648.448311
450.209124	2669.149809
450.583412	2687.542459
450.957640	2697.690302
451.331808	2703.099460
451.705917	2700.215920
452.079965	2708.770758
452.453954	2728.844632
452.827883	2737.107084
453.201752	2751.280288
453.575562	2757.604415
453.949311	2785.759259
454.323001	2791.208747
454.696632	2807.252219
455.070202	2840.186077
455.443713	2864.693646
455.817164	2893.254303
456.190556	2919.183478
456.563888	2949.710185
456.937160	2969.516879
457.310373	2966.648462
457.683526	2989.043788
458.056619	3009.316788
458.429653	3030.625746
458.802628	3048.592418
459.175542	3085.826380
459.548398	3159.701969
459.921194	3217.370249
460.293930	3256.116557
460.666607	3375.642315
461.039224	3471.434320
461.411782	3528.704349
461.784280	3566.767581
462.156719	3586.312134
462.529099	3608.788119
462.901419	3572.562387
463.273680	3591.769183
463.645882	3632.519350
464.018024	3662.362981
464.390106	3734.842171
464.762130	3872.747975
465.134094	4052.326478
465.505999	4393.670567
465.877845	4794.074293
466.249631	5027.381414
466.621358	4991.211135
466.993026	4891.439139
467.364634	4876.696284
467.736184	4839.873176
468.107674	4812.366120
468.479105	4913.053086
468.850477	4889.997369
469.221790	4884.449579
469.593043	4840.316797
469.964238	4866.921487
470.335373	4934.785500
470.706449	5027.048698
471.077467	5087.998768
471.448425	5702.011307
471.819324	6242.992649
472.190164	6326.302758
472.560945	5875.212750
472.931667	5606.340289
473.302330	5605.737871
473.672934	5509.774467
474.043479	5757.728660
474.413965	5794.786182
474.784393	5811.243028
475.154761	5959.994875
475.525070	6076.410241
475.895321	6057.941974
476.265513	6218.255707
476.635645	6382.438527
477.005719	6469.186702
477.375734	6601.779130
477.745691	6812.955586
478.115588	6970.587425
478.485427	7201.434463
478.855207	7611.207174
479.224928	8218.338537
479.594591	8696.053399
479.964194	8677.169237
480.333739	8728.601609
480.703226	8795.152401
481.072653	8924.954551
481.442022	9178.360752
481.811333	9382.353563
482.180584	9337.116769
482.549777	9219.867092
482.918912	9166.877004
483.287988	9255.694573
483.657005	9341.752110
484.025964	9180.072224
484.394864	9364.293629
484.763706	9413.583511
485.132489	9277.116956
485.501213	9325.572527
485.869879	9432.258466
486.238487	9386.933451
486.607036	9524.695583
486.975527	9411.062934
487.343959	9623.865162
487.712333	9719.039626
488.080648	9714.253050
488.448905	9807.824427
488.817104	9803.234457
489.185244	10089.584598
489.553326	10272.250807
489.921350	10781.876173
490.289315	11734.306411
490.657222	12070.616907
491.025070	12054.586038
491.392861	11990.749907
491.760593	11723.591438
492.128267	11473.829991
492.495883	11218.208203
492.863440	10942.872983
493.230939	10675.971613
493.598380	10647.602520
493.965763	10564.955323
494.333088	10493.252472
494.700354	10454.700247
495.067563	10537.314677
495.434713	10402.816692
495.801805	10544.735255
496.168839	10494.568213
496.535815	10458.380290
496.902733	10472.767743
497.269593	10430.870713
497.636395	10544.339525
498.003139	10558.674046
498.369825	10442.931674
498.736453	10604.147774
499.103023	10551.336646
499.469535	10597.533780
499.835989	10590.962636
500.202385	10572.519575
500.568723	10440.743813
500.935003	10658.128449
501.301226	10486.346091
501.667390	10743.664227
502.033497	10852.089364
502.399546	10724.482637
502.765537	10634.548452
503.131470	10715.521986
503.497345	10892.307689
503.863163	10516.804742
504.228923	10825.426701
504.594625	10898.969574
504.960269	10651.801801
505.325856	10874.522499
505.691385	10673.133444
506.056856	10833.086735
506.422270	10861.375169
506.787625	10753.118911
507.152924	10870.298012
507.518164	10857.848882
507.883347	10779.562284
508.248472	10703.645027
508.613540	10936.218660
508.978550	10822.069293
509.343503	10808.692591
509.708398	10922.151320
510.073236	11037.301356
510.438016	11047.025742
510.802738	10987.134314
511.167403	11048.396936
511.532010	10947.364651
511.896561	11177.359734
512.261053	11248.233316
512.625488	11123.873091
512.989866	11097.520460
513.354186	11094.929307
513.718449	10997.042702
514.082655	11195.293638
514.446803	11096.088772
514.810894	11207.858714
515.174927	11080.861967
515.538904	11102.362488
515.902822	11256.520972
516.266684	11147.768161
516.630488	11085.502349
516.994235	11146.701957
517.357925	11202.925945
517.721558	11296.209977
518.085133	11306.365381
518.448651	11320.417597
518.812112	11207.147912
519.175516	11216.451361
519.538863	11340.647748
519.902152	11256.198339
520.265385	11421.429718
520.628560	11329.012765
520.991678	11307.900412
521.354739	11367.043229
521.717743	11298.133177
522.080690	11282.354365
522.443580	11420.885273
522.806413	11375.086390
523.169189	11405.275340
523.531908	11460.602004
523.894569	11285.268152
524.257174	11286.120107
524.619722	11406.923797
524.982213	11357.606189
525.344647	11408.259703
525.707025	11356.401354
526.069345	11453.677979
526.431608	11365.606501
526.793815	11483.098153
527.155964	11270.255596
527.518057	11312.838223
527.880093	11271.389856
528.242072	11339.979795
528.603995	11248.755075
528.965860	11167.839515
529.327669	11219.891949
529.689421	11164.842549
530.051117	11140.897068
530.412755	11241.866338
530.774337	11132.097734
531.135862	11115.313212
531.497331	11140.645010
531.858743	10996.072280
532.220098	11154.649336
532.581396	11029.984122
532.942638	11011.994764
533.303824	10977.987140
533.664953	10991.358801
534.026025	10902.339586
534.387040	11006.477221
534.747999	11004.659885
535.108902	11061.360263
535.469748	10820.556947
535.830537	10927.663822
536.191270	10904.918136
536.551947	10926.302710
536.912567	10929.982753
537.273131	10847.345638
537.633638	10828.940386
537.994089	10823.410240
538.354483	10772.547518
538.714821	10914.307285
539.075103	10928.873699
539.435328	10883.382327
539.795497	10709.371778
540.155609	10865.536642
540.515665	10954.384458
540.875665	10694.220590
541.235609	10763.816240
541.595496	10753.406257
541.955328	10917.243757
542.315102	10800.044492
542.674821	10747.777809
543.034483	10745.247149
543.394090	10748.907027
543.753640	10686.467296
544.113134	10896.519573
544.472571	10756.418346
544.831953	10898.783052
545.191278	10702.770387
545.550548	10740.967210
545.909761	10871.296160
546.268918	10842.551501
546.628019	10928.147773
546.987064	10792.160127
547.346053	10712.709022
547.704986	10814.154681
548.063863	10798.327979
548.422684	10781.291399
548.781449	10707.947652
549.140158	10808.374998
549.498811	10689.345794
549.857408	10550.028467
550.215949	10776.981213
550.574434	10617.952974
550.932864	10726.418440
551.291237	10789.037132
551.649555	10733.952444
552.007817	10739.701880
552.366022	10703.912208
552.724173	10703.491272
553.082267	10691.100116
553.440305	10824.330250
553.798288	10622.918510
554.156215	10773.031469
554.514086	10756.206618
554.871902	10597.826167
555.229661	10639.009873
555.587365	10612.548857
555.945014	10508.867446
556.302606	10631.427978
556.660143	10528.928717
557.017625	10684.327326
557.375050	10582.964845
557.732421	10721.858716
558.089735	10629.961002
558.446994	10631.400252
558.804197	10670.529688
559.161345	10668.883751
559.518437	10514.936995
559.875474	10605.584503
560.232455	10630.145004
560.589381	10583.773951
560.946251	10582.037273
561.303065	10688.526607
561.659825	10619.145207
562.016528	10550.063755
562.373177	10438.316497
562.729770	10548.178363
563.086307	10461.803233
563.442789	10560.708151
563.799216	10441.013515
564.155587	10485.398354
564.511904	10433.446743
564.868164	10430.301063
565.224370	10447.758579
565.580520	10369.330828
565.936615	10370.422237
566.292654	10243.342311
566.648638	10384.187108
567.004567	10331.759108
567.360441	10319.274691
567.716260	10223.858251
568.072023	10320.978601
568.427732	10271.421538
568.783385	10182.097333
569.138982	10249.532848
569.494525	10266.206464
569.850013	10148.505604
570.205445	10228.322193
570.560823	10124.625658
570.916145	10041.428976
571.271412	10112.426066
571.626625	10053.139576
571.981782	10026.928097
572.336884	10008.467391
572.691931	10017.256643
573.046923	9962.345875
573.401860	9906.590713
573.756743	9850.550727
574.111570	9890.055729
574.466342	9874.576866
574.821059	9911.289069
575.175722	9794.853538
575.530330	9805.659252
575.884882	9802.879055
576.239380	9722.986849
576.593823	9707.628974
576.948211	9726.061953
577.302544	9597.260472
577.656823	9611.481567
578.011047	9620.112022
578.365216	9591.884082
578.719330	9518.376497
579.073389	9529.867807
579.427394	9470.631729
579.781344	9452.357546
580.135239	9400.441223
580.489080	9405.290813
580.842866	9310.567532
581.196597	9323.014141
581.550273	9353.699645
581.903895	9320.352412
582.257463	9392.433350
582.610975	9269.177139
582.964434	9295.277713
583.317837	9221.187875
583.671186	9202.026449
584.024481	9192.382722
584.377721	9116.457903
584.730906	9088.837422
585.084037	9119.139797
585.437113	9061.113596
585.790135	9075.281759
586.143103	8976.407088
586.496016	8953.674005
586.848874	9010.520576
587.201679	9000.871808
587.554428	8881.343529
587.907124	8931.250952
588.259765	8899.358092
588.612352	8908.245647
588.964884	8782.370556
589.317362	8794.020662
589.669786	8796.208523
590.022155	8841.147889
590.374470	8858.993574
590.726731	8793.284654
591.078937	8648.364084
591.431090	8762.969675
591.783188	8630.258780
592.135232	8628.892627
592.487222	8627.823902
592.839157	8677.796860
593.191038	8610.948640
593.542866	8558.775218
593.894639	8464.659396
594.246358	8511.985749
594.598022	8522.163838
594.949633	8426.606247
595.301190	8399.202534
595.652692	8432.184283
596.004141	8536.367289
596.355535	8317.225811
596.706876	8295.531205
597.058162	8229.590392
597.409395	8302.606465
597.760573	8368.327988
598.111698	8277.551930
598.462768	8266.347966
598.813785	8231.437975
599.164748	8198.252060
599.515657	8187.095986
599.866511	8102.976772
600.217312	8226.661482
600.568060	8089.579906
600.918753	8189.760236
601.269392	8156.465935
601.619978	8070.284890
601.970510	8132.953994
602.320988	8129.049620
602.671412	8183.307559
603.021783	8124.709187
603.372100	8096.062830
603.722363	8098.764888
604.072572	8073.395282
604.422728	8083.119667
604.772830	8019.218001
605.122878	8026.414248
605.472872	8012.296497
605.822813	8044.527114
606.172701	7990.518712
606.522534	8064.270793
606.872314	8060.101759
607.222041	8036.874643
607.571714	8091.482942
607.921333	8049.207826
608.270899	8053.933907
608.620411	8142.975808
608.969870	8049.278402
609.319276	8038.414715
609.668627	8057.641676
610.017926	8095.843540
610.367171	8137.148234
610.716362	8117.056715
611.065500	8106.082123
611.414585	8135.376268
611.763616	8124.873024
612.112594	8103.218748
612.461518	8118.609391
612.810389	8178.478134
613.159207	8117.583516
613.507971	8068.122235
613.856682	8185.636572
614.205340	8143.404306
614.553945	8222.739464
614.902496	8122.808672
615.250994	8173.474788
615.599439	8154.368815
615.947830	8175.511415
616.296169	8135.149416
616.644454	8152.715317
616.992686	8153.186665
617.340864	8205.982669
617.688990	8110.641847
618.037063	8201.475877
618.385082	8152.009555
618.733048	8238.218327
619.080961	8175.670211
619.428821	8193.823406
619.776628	8196.180145
620.124382	8140.823235
620.472083	8127.759085
620.819731	8159.508272
621.167326	8051.725882
621.514868	8065.019405
621.862357	7948.200747
622.209793	7967.362172
622.557176	7903.001761
622.904506	7872.412040
623.251783	7813.594377
623.599007	7762.290554
623.946179	7766.555371
624.293297	7725.285965
624.640363	7636.775906
624.987376	7624.357023
625.334336	7569.146307
625.681243	7521.194851
626.028097	7506.542738
626.374899	7481.611711
626.721647	7480.744633
627.068343	7411.078407
627.414987	7381.806947
627.761577	7336.328178
628.108115	7374.875361
628.454600	7267.334946
628.801032	7320.824109
629.147412	7279.942872
629.493739	7271.871985
629.840014	7204.675925
630.186236	7265.058865
630.532405	7144.565206
630.878521	7200.348094
631.224585	7156.026269
631.570597	7078.921821
631.916556	7113.277285
632.262462	7106.282684
632.608316	7065.875315
632.954117	7044.528549
633.299866	7033.138062
633.645562	7025.092381
633.991206	6948.514733
634.336797	6891.025415
634.682336	6849.405648
635.027823	6815.019938
635.373257	6800.725746
635.718639	6736.884574
636.063968	6749.840339
636.409245	6650.282592
636.754470	6642.231869
637.099642	6605.071004
637.444762	6547.203599
637.789829	6558.326905
638.134845	6497.157544
638.479808	6482.931408
638.824719	6484.882334
639.169577	6415.122848
639.514383	6434.201094
639.859137	6365.301124
640.203839	6371.035437
640.548489	6361.505135
640.893086	6337.020251
