Dividing Wavelength (nm)	Counts (n)	Blue Motor Position (mm): 2.000000	Red Motor Position (mm): 0.000000	
326.493990	2143.276805
326.888308	2143.276805
327.282561	2143.276805
327.676750	2111.051229
328.070874	2109.541403
328.464933	2111.527618
328.858929	2117.188833
329.252859	2127.929012
329.646726	2138.679272
330.040528	2155.088228
330.434265	2168.628767
330.827938	2188.097703
331.221547	2205.267873
331.615091	2224.537684
332.008571	2241.753224
332.401986	2264.138468
332.795338	2282.407610
333.188625	2303.308233
333.581847	2319.331541
333.975006	2340.206959
334.368100	2358.541636
334.761129	2376.016795
335.154095	2391.157901
335.546996	2408.446538
335.939833	2422.443302
336.332606	2439.366455
336.725315	2452.294494
337.117960	2461.605505
337.510540	2470.193111
337.903056	2481.596201
338.295508	2486.508805
338.687896	2497.846360
339.080220	2504.951867
339.472480	2510.832373
339.864676	2513.670542
340.256807	2517.675739
340.648875	2524.304856
341.040879	2524.851822
341.432818	2527.591689
341.824694	2525.897861
342.216506	2531.155784
342.608253	2527.354754
342.999937	2529.719056
343.391557	2530.026566
343.783113	2527.624456
344.174605	2526.437264
344.566033	2524.451050
344.957397	2522.346368
345.348697	2521.045750
345.739934	2524.335103
346.131106	2514.527538
346.522215	2516.556603
346.913260	2513.463855
347.304241	2511.631396
347.695159	2509.672907
348.086012	2510.731550
348.476802	2507.923627
348.867528	2506.002947
349.258191	2504.588904
349.648789	2502.227123
350.039324	2501.365086
350.429796	2501.355003
350.820203	2502.753924
351.210548	2499.086484
351.600828	2497.170846
351.991045	2497.478356
352.381198	2498.015239
352.771288	2494.897285
353.161314	2495.179590
353.551276	2493.909219
353.941175	2495.197234
354.331010	2498.894920
354.720782	2496.349138
355.110490	2494.264621
355.500135	2495.887872
355.889717	2494.546925
356.279235	2494.501555
356.668689	2499.126813
357.058080	2494.481390
357.447408	2494.625063
357.836672	2491.648262
358.225873	2494.544405
358.615010	2492.457367
359.004084	2497.667399
359.393095	2497.990033
359.782043	2500.498007
360.170927	2497.952225
360.559748	2498.332832
360.948505	2502.975734
361.337199	2499.449447
361.725830	2502.453975
362.114398	2502.688389
362.502903	2502.970693
362.891344	2502.363234
363.279722	2502.000271
363.668037	2503.391630
364.056289	2504.876249
364.444478	2505.667711
364.832603	2504.324243
365.220665	2506.262567
365.608665	2505.786178
365.996601	2504.427587
366.384474	2504.966990
366.772284	2508.183246
367.160031	2504.919099
367.547715	2505.841630
367.935336	2505.813904
368.322893	2509.062928
368.710388	2507.648884
369.097820	2513.786489
369.485189	2508.077382
369.872495	2509.123422
370.259738	2510.603000
370.646918	2507.868174
371.034035	2512.160717
371.421090	2509.249450
371.808081	2511.313803
372.195010	2511.928824
372.581875	2510.008144
372.968678	2511.142404
373.355418	2512.430418
373.742096	2513.161386
374.128710	2509.882115
374.515262	2511.954029
374.901751	2512.329595
375.288177	2516.052487
375.674540	2512.543844
376.060841	2511.399503
376.447079	2512.828670
376.833254	2511.497805
377.219367	2511.631396
377.605417	2512.513597
377.991404	2510.285407
378.377329	2510.053514
378.763191	2508.641991
379.148991	2516.158352
379.534727	2513.400841
379.920402	2517.519463
380.306013	2513.496622
380.691563	2515.712210
381.077049	2514.736746
381.462474	2517.537107
381.847835	2517.645492
382.233134	2515.896212
382.618371	2515.152642
383.003545	2519.344361
383.388657	2514.250275
383.773706	2516.478465
384.158693	2517.663136
384.543618	2518.189937
384.928480	2516.304545
385.313280	2516.959895
385.698017	2516.725482
386.082692	2517.877385
386.467305	2514.983763
386.851856	2519.367046
387.236344	2519.553569
387.620770	2520.995339
388.005133	2518.111799
388.389435	2521.181862
388.773674	2520.138343
389.157851	2517.292611
389.541965	2518.494927
389.926018	2518.124402
390.310008	2518.678929
390.693936	2521.675895
391.077802	2520.970133
391.461606	2519.200688
391.845348	2522.565658
392.229027	2520.521470
392.612645	2521.794362
392.996200	2521.955679
393.379694	2522.747140
393.763125	2522.278313
394.146494	2524.204033
394.529801	2520.944927
394.913047	2522.769825
395.296230	2524.493900
395.679351	2524.330062
396.062410	2523.014321
396.445408	2524.060360
396.828343	2523.924249
397.211217	2522.432068
397.594028	2523.589013
397.976778	2519.321676
398.359466	2524.929959
398.742092	2522.532891
399.124656	2524.619928
399.507158	2524.561955
399.889598	2525.187058
400.271977	2527.732841
400.654294	2526.011287
401.036549	2526.049096
401.418742	2524.413241
401.800874	2525.363499
402.182944	2523.616739
402.564952	2526.142357
402.946898	2528.675537
403.328783	2524.935001
403.710606	2527.637059
404.092367	2527.253931
404.474067	2527.188396
404.855705	2525.557583
405.237282	2527.768129
405.618797	2524.602284
406.000250	2526.008766
406.381642	2529.242667
406.762972	2527.274096
407.144240	2526.840557
407.525447	2528.234436
407.906593	2528.788963
408.287677	2531.710311
408.668700	2529.799714
409.049661	2529.688809
409.430560	2528.728469
409.811399	2527.884076
410.192176	2528.816689
410.572891	2530.288706
410.953545	2530.790301
411.334138	2526.827954
411.714669	2530.147554
412.095139	2528.453726
412.475547	2529.918181
412.855894	2529.998840
413.236180	2530.601257
413.616405	2532.831968
413.996568	2532.887421
414.376670	2529.840043
414.756711	2532.133768
415.136691	2534.167874
415.516609	2529.545136
415.896466	2531.491021
416.276262	2534.538399
416.655997	2529.933305
417.035670	2529.098994
417.415283	2531.125537
417.794834	2527.385001
418.174324	2530.704601
418.553753	2530.840712
418.933121	2535.128214
419.312428	2532.637884
419.691674	2533.308357
420.070859	2534.460261
420.449983	2532.365661
420.829045	2533.527647
421.208047	2533.782226
421.586988	2531.364992
421.965867	2534.576207
422.344686	2531.652338
422.723444	2532.549663
423.102141	2533.262987
423.480777	2533.694005
423.859352	2537.079140
424.237866	2535.234078
424.616319	2533.913296
424.994712	2534.248532
425.373044	2531.745599
425.751314	2534.041845
426.129524	2536.222144
426.507673	2535.153419
426.885762	2537.351362
427.263789	2534.384643
427.641756	2535.642411
428.019662	2535.511341
428.397508	2536.726259
428.775292	2537.782381
429.153016	2537.356404
429.530679	2536.983358
429.908282	2534.876156
430.285824	2534.435055
430.663305	2532.985723
431.040726	2535.594520
431.418086	2538.183153
431.795385	2536.189377
432.172624	2535.299613
432.549802	2540.786909
432.926920	2536.328008
433.303977	2537.437062
433.680974	2537.363965
434.057910	2536.811959
434.434786	2536.070909
434.811601	2539.022505
435.188355	2538.939326
435.565050	2537.255581
435.941683	2539.163657
436.318257	2536.577545
436.694770	2534.775333
437.071222	2535.002185
437.447614	2536.577545
437.823946	2536.280117
438.200218	2538.737680
438.576429	2538.893956
438.952580	2538.059645
439.328670	2539.922351
439.704700	2537.724408
440.080670	2538.218441
440.456580	2539.655170
440.832429	2539.221631
441.208218	2539.503935
441.583947	2536.345652
441.959616	2540.418905
442.335224	2541.054090
442.710773	2538.382278
443.086261	2540.292876
443.461689	2540.307999
443.837057	2540.837320
444.212365	2540.958308
444.587612	2539.352701
444.962800	2540.439069
445.337927	2542.316899
445.712995	2538.962011
446.088002	2541.898483
446.462949	2541.820345
446.837837	2542.518545
447.212664	2541.094419
447.587431	2539.017464
447.962139	2540.464275
448.336786	2543.360418
448.711374	2542.107691
449.085901	2541.361600
449.460369	2544.003165
449.834776	2540.552495
450.209124	2541.273380
450.583412	2544.277908
450.957640	2544.900490
451.331808	2541.038967
451.705917	2542.566436
452.079965	2540.050900
452.453954	2544.779503
452.827883	2541.923689
453.201752	2546.070038
453.575562	2541.797660
453.949311	2541.948895
454.323001	2541.354039
454.696632	2542.659697
455.070202	2543.819163
455.443713	2542.528628
455.817164	2538.825900
456.190556	2541.258257
456.563888	2541.333874
456.937160	2535.322298
457.310373	2542.314378
457.683526	2542.281611
458.056619	2543.224307
458.429653	2541.459903
458.802628	2543.234389
459.175542	2545.452497
459.548398	2547.025337
459.921194	2543.798998
460.293930	2544.204811
460.666607	2545.152548
461.039224	2544.192208
461.411782	2542.984852
461.784280	2546.410316
462.156719	2544.638350
462.529099	2545.059287
462.901419	2545.374359
463.273680	2545.525593
463.645882	2544.522404
464.018024	2544.469472
464.390106	2544.073741
464.762130	2544.517363
465.134094	2542.858823
465.505999	2543.904862
465.877845	2542.415202
466.249631	2545.437373
466.621358	2545.029040
466.993026	2548.953578
467.364634	2549.029195
467.736184	2544.895449
468.107674	2547.652960
468.479105	2543.320089
468.850477	2546.732950
469.221790	2544.734132
469.593043	2545.480223
469.964238	2545.800336
470.335373	2547.428629
470.706449	2549.349309
471.077467	2545.356715
471.448425	2548.152035
471.819324	2544.897970
472.190164	2548.462066
472.560945	2545.218083
472.931667	2547.592467
473.302330	2547.090872
473.672934	2544.948381
474.043479	2544.814791
474.413965	2543.940151
474.784393	2543.499050
475.154761	2543.776313
475.525070	2541.464944
475.895321	2543.798998
476.265513	2540.136600
476.635645	2545.875954
477.005719	2547.559699
477.375734	2546.906870
477.745691	2548.482230
478.115588	2547.511808
478.485427	2543.400747
478.855207	2550.579350
479.224928	2544.487116
479.594591	2545.891077
479.964194	2549.377035
480.333739	2548.000800
480.703226	2543.367980
481.072653	2546.329658
481.442022	2546.448125
481.811333	2544.766900
482.180584	2545.722198
482.549777	2548.560368
482.918912	2548.537683
483.287988	2548.489792
483.657005	2547.511808
484.025964	2547.605069
484.394864	2547.658002
484.763706	2548.459545
485.132489	2547.169010
485.501213	2549.936603
485.869879	2545.349153
486.238487	2547.589946
486.607036	2546.364946
486.975527	2550.838970
487.343959	2547.920142
487.712333	2545.732281
488.080648	2546.763197
488.448905	2549.533311
488.817104	2544.908052
489.185244	2550.639844
489.553326	2547.053063
489.921350	2547.922662
490.289315	2549.621531
490.657222	2549.140101
491.025070	2551.721172
491.392861	2550.859134
491.760593	2548.378887
492.128267	2548.010882
492.495883	2548.595656
492.863440	2549.256047
493.230939	2546.102806
493.598380	2551.847200
493.965763	2543.307486
494.333088	2546.778320
494.700354	2543.098278
495.067563	2546.780841
495.434713	2543.743546
495.801805	2549.298897
496.168839	2549.253527
496.535815	2550.803682
496.902733	2549.399720
497.269593	2551.096068
497.636395	2548.691438
498.003139	2550.370142
498.369825	2550.702858
498.736453	2548.237734
499.103023	2548.699000
499.469535	2550.508774
499.835989	2551.852242
500.202385	2545.712116
500.568723	2550.753270
500.935003	2548.479710
501.301226	2550.135729
501.667390	2549.074566
502.033497	2548.782179
502.399546	2550.531459
502.765537	2549.475337
503.131470	2549.729916
503.497345	2551.877447
503.863163	2551.827036
504.228923	2549.540872
504.594625	2549.782848
504.960269	2549.170348
505.325856	2550.009700
505.691385	2549.215718
506.056856	2552.721841
506.422270	2549.190512
506.787625	2549.114895
507.152924	2549.374514
507.518164	2551.043136
507.883347	2547.516849
508.248472	2550.196223
508.613540	2550.690256
508.978550	2549.644216
509.343503	2550.029864
509.708398	2551.327962
510.073236	2552.563044
510.438016	2547.872251
510.802738	2549.500543
511.167403	2550.274360
511.532010	2550.385266
511.896561	2551.990873
512.261053	2550.796120
512.625488	2545.144986
512.989866	2546.347302
513.354186	2548.968702
513.718449	2547.232024
514.082655	2550.544062
514.446803	2549.440049
514.810894	2552.779814
515.174927	2551.968188
515.538904	2552.137067
515.902822	2548.015923
516.266684	2550.581871
516.630488	2551.816953
516.994235	2552.996583
517.357925	2552.341233
517.721558	2552.580688
518.085133	2553.198230
518.448651	2550.228990
518.812112	2551.012889
519.175516	2552.608415
519.538863	2552.116902
519.902152	2551.428785
520.265385	2550.075235
520.628560	2550.246634
520.991678	2550.649926
521.354739	2552.404248
521.717743	2549.271171
522.080690	2553.719989
522.443580	2551.885009
522.806413	2551.517005
523.169189	2549.223280
523.531908	2549.210677
523.894569	2553.198230
524.257174	2552.013558
524.619722	2551.849721
524.982213	2554.801317
525.344647	2550.486089
525.707025	2551.345606
526.069345	2549.855945
526.431608	2550.118085
526.793815	2551.494320
527.155964	2550.123126
527.518057	2553.029351
527.880093	2551.476676
528.242072	2551.940462
528.603995	2553.510781
528.965860	2553.357026
529.327669	2554.932387
529.689421	2554.259392
530.051117	2551.701007
530.412755	2551.927859
530.774337	2551.809392
531.135862	2549.291335
531.497331	2549.006510
531.858743	2547.413506
532.220098	2550.453321
532.581396	2548.396531
532.942638	2549.850903
533.303824	2552.558003
533.664953	2550.637323
534.026025	2551.862324
534.387040	2553.566234
534.747999	2551.632951
535.108902	2552.416851
535.469748	2551.310317
535.830537	2552.742005
536.191270	2549.172868
536.551947	2553.609084
536.912567	2551.645554
537.273131	2551.375852
537.633638	2550.100441
537.994089	2553.901471
538.354483	2552.013558
538.714821	2552.507592
539.075103	2551.771583
539.435328	2551.945503
539.795497	2552.255534
540.155609	2554.521533
540.515665	2553.299053
540.875665	2552.550441
541.235609	2553.614125
541.595496	2553.407438
541.955328	2552.154711
542.315102	2553.833415
542.674821	2552.570606
543.034483	2552.144628
543.394090	2551.078424
543.753640	2556.338868
544.113134	2552.384083
544.472571	2552.406768
544.831953	2554.032541
545.191278	2554.130843
545.550548	2550.889381
545.909761	2553.407437
546.268918	2552.162273
546.628019	2551.769063
546.987064	2551.149001
547.346053	2554.007335
547.704986	2554.382901
548.063863	2553.271326
548.422684	2553.230997
548.781449	2551.401058
549.140158	2551.796789
549.498811	2552.217725
549.857408	2554.576985
550.215949	2551.471634
550.574434	2546.851417
550.932864	2549.871068
551.291237	2547.418547
551.649555	2553.523384
552.007817	2553.019269
552.366022	2551.572457
552.724173	2553.654454
553.082267	2550.594474
553.440305	2554.403065
553.798288	2552.658826
554.156215	2556.109496
554.514086	2553.150339
554.871902	2553.258723
555.229661	2551.650595
555.587365	2555.318035
555.945014	2554.095555
556.302606	2551.796789
556.660143	2556.018755
557.017625	2551.885009
557.375050	2552.124464
557.732421	2551.549772
558.089735	2553.770401
558.446994	2555.444064
558.804197	2552.293343
559.161345	2553.087324
559.518437	2554.728220
559.875474	2552.525236
560.232455	2553.052036
560.589381	2551.640513
560.946251	2553.883827
561.303065	2550.871737
561.659825	2552.933569
562.016528	2552.316028
562.373177	2555.030689
562.729770	2552.331151
563.086307	2553.261244
563.442789	2552.038764
563.799216	2555.310473
564.155587	2554.710576
564.511904	2553.183106
564.868164	2553.135215
565.224370	2549.795451
565.580520	2552.873075
565.936615	2555.265103
566.292654	2553.084804
566.648638	2551.653116
567.004567	2554.254351
567.360441	2554.297201
567.716260	2554.236707
568.072023	2551.564896
568.427732	2548.744370
568.783385	2552.318548
569.138982	2547.332847
569.494525	2550.493651
569.850013	2550.082797
570.205445	2555.083621
570.560823	2553.029351
570.916145	2553.725030
571.271412	2551.390976
571.626625	2554.085473
571.981782	2551.033054
572.336884	2553.500699
572.691931	2553.049516
573.046923	2552.870555
573.401860	2555.015566
573.756743	2554.929866
574.111570	2552.379042
574.466342	2554.801317
574.821059	2553.281409
575.175722	2554.662685
575.530330	2554.012376
575.884882	2552.903322
576.239380	2552.757129
576.593823	2552.091696
576.948211	2552.293342
577.302544	2552.356357
577.656823	2553.462890
578.011047	2553.467931
578.365216	2552.522715
578.719330	2556.134702
579.073389	2554.314845
579.427394	2549.727395
579.781344	2553.455328
580.135239	2551.597663
580.489080	2552.807540
580.842866	2556.991698
581.196597	2559.658468
581.550273	2553.520863
581.903895	2551.658157
582.257463	2551.582540
582.610975	2553.006666
582.964434	2554.498847
583.317837	2553.427602
583.671186	2554.937428
584.024481	2553.344423
584.377721	2554.241748
584.730906	2554.962633
585.084037	2555.126471
585.437113	2554.115720
585.790135	2554.110678
586.143103	2554.982798
586.496016	2553.979608
586.848874	2548.595656
587.201679	2550.896943
587.554428	2552.938610
587.907124	2550.385266
588.259765	2549.356870
588.612352	2555.383570
588.964884	2553.712427
589.317362	2555.565051
589.669786	2553.475493
590.022155	2554.433312
590.374470	2554.130843
590.726731	2551.723692
591.078937	2552.633620
591.431090	2554.539177
591.783188	2550.571788
592.135232	2554.289639
592.487222	2554.836605
592.839157	2552.520194
593.191038	2552.588250
593.542866	2552.759649
593.894639	2552.545400
594.246358	2555.673436
594.598022	2555.139074
594.949633	2553.084804
595.301190	2551.703528
595.652692	2554.327448
596.004141	2552.878116
596.355535	2552.623538
596.706876	2554.256872
597.058162	2553.180586
597.409395	2553.669577
597.760573	2553.364588
598.111698	2550.937272
598.462768	2552.132026
598.813785	2553.520863
599.164748	2552.794937
599.515657	2552.353836
599.866511	2551.779145
600.217312	2550.319731
600.568060	2552.983981
600.918753	2554.788714
601.269392	2554.019938
601.619978	2553.036913
601.970510	2555.875082
602.320988	2556.137222
602.671412	2554.690411
603.021783	2552.681511
603.372100	2555.224773
603.722363	2553.687222
604.072572	2555.433981
604.422728	2556.137222
604.772830	2549.124977
605.122878	2551.380894
605.472872	2553.440205
605.822813	2547.713454
606.172701	2550.808723
606.522534	2553.455328
606.872314	2550.720503
607.222041	2555.582695
607.571714	2552.948693
607.921333	2554.181255
608.270899	2551.398538
608.620411	2552.094217
608.969870	2555.486913
609.319276	2555.050854
609.668627	2558.332645
610.017926	2559.842470
610.367171	2563.174673
610.716362	2559.315670
611.065500	2557.664692
611.414585	2555.295350
611.763616	2558.047820
612.112594	2558.168807
612.461518	2557.039589
612.810389	2554.458518
613.159207	2555.260062
613.507971	2556.278375
613.856682	2553.341902
614.205340	2554.433312
614.553945	2554.884496
614.902496	2553.828374
615.250994	2553.800647
615.599439	2555.897768
615.947830	2554.035061
616.296169	2555.111348
616.644454	2555.935576
616.992686	2554.874413
617.340864	2553.291491
617.688990	2550.334854
618.037063	2554.153528
618.385082	2554.544218
618.733048	2554.075390
619.080961	2553.374670
619.428821	2553.442726
619.776628	2554.786193
620.124382	2553.465411
620.472083	2552.305945
620.819731	2554.065308
621.167326	2552.240410
621.514868	2553.961964
621.862357	2553.813250
622.209793	2554.662685
622.557176	2555.897768
622.904506	2552.812581
623.251783	2547.380738
623.599007	2550.874258
623.946179	2550.430636
624.293297	2550.770914
624.640363	2552.046326
624.987376	2553.692263
625.334336	2553.167983
625.681243	2554.766028
626.028097	2553.387273
626.374899	2554.398024
626.721647	2554.370298
627.068343	2556.855587
627.414987	2551.746377
627.761577	2553.601522
628.108115	2554.138405
628.454600	2556.333827
628.801032	2553.914073
629.147412	2555.106306
629.493739	2551.469114
629.840014	2554.410627
630.186236	2552.063970
630.532405	2551.028013
630.878521	2556.381718
631.224585	2554.612273
631.570597	2555.242418
631.916556	2552.842828
632.262462	2554.012376
632.608316	2554.428271
632.954117	2553.906512
633.299866	2551.617828
633.645562	2551.597663
633.991206	2552.260575
634.336797	2553.785524
634.682336	2553.188147
635.027823	2555.144115
635.373257	2552.530277
635.718639	2551.232180
636.063968	2551.706048
636.409245	2553.329300
636.754470	2552.663867
637.099642	2550.556665
637.444762	2556.190154
637.789829	2550.488609
638.134845	2551.300235
638.479808	2550.849052
638.824719	2554.173693
639.169577	2550.551624
639.514383	2554.040102
639.859137	2553.561193
640.203839	2553.941800
640.548489	2553.107489
640.893086	2551.610266
641.237632	2549.248486
641.582125	2550.206305
641.926566	2546.735470
642.270955	2551.915256
642.615292	2551.025492
642.959576	2551.020451
643.303809	2549.956768
643.647990	2555.255020
643.992118	2555.801986
644.336195	2551.635472
