Dividing Wavelength (nm)	Counts (n)	Blue Motor Position (mm): 36.600000	Red Motor Position (mm): 0.000000	
326.493990	2129.156533
326.888308	2129.156533
327.282561	2129.156533
327.676750	2097.745103
328.070874	2096.631008
328.464933	2100.439600
328.858929	2106.065528
329.252859	2117.513988
329.646726	2126.777108
330.040528	2138.003758
330.434265	2156.492189
330.827938	2173.858964
331.221547	2189.335307
331.615091	2211.332382
332.008571	2229.228478
332.401986	2251.578433
332.795338	2270.810435
333.188625	2287.594957
333.581847	2307.489871
333.975006	2321.922694
334.368100	2342.140242
334.761129	2361.800742
335.154095	2376.168030
335.546996	2398.485218
335.939833	2423.325504
336.332606	2436.228337
336.725315	2450.746860
337.117960	2461.746658
337.510540	2470.803091
337.903056	2481.117291
338.295508	2485.412354
338.687896	2494.713283
339.080220	2504.722494
339.472480	2510.275325
339.864676	2516.682632
340.256807	2520.755884
340.648875	2521.073477
341.040879	2524.241842
341.432818	2525.141688
341.824694	2527.357275
342.216506	2528.723428
342.608253	2528.305012
342.999937	2527.589168
343.391557	2528.040351
343.783113	2528.695701
344.174605	2526.848118
344.566033	2525.212264
344.957397	2520.415606
345.348697	2524.156142
345.739934	2519.329238
346.131106	2519.329238
346.522215	2516.057529
346.913260	2515.523166
347.304241	2512.374966
347.695159	2508.586539
348.086012	2510.156858
348.476802	2507.122083
348.867528	2508.117711
349.258191	2503.986486
349.648789	2504.609068
350.039324	2504.102432
350.429796	2500.440034
350.820203	2497.937101
351.210548	2497.334683
351.600828	2497.160763
351.991045	2494.834271
352.381198	2494.864518
352.771288	2495.920640
353.161314	2495.794611
353.551276	2498.126144
353.941175	2493.783190
354.331010	2495.749240
354.720782	2493.513489
355.110490	2493.145484
355.500135	2495.668582
355.889717	2494.783859
356.279235	2497.881648
356.668689	2496.795280
357.058080	2495.683705
357.447408	2493.415186
357.836672	2493.944507
358.225873	2495.061123
358.615010	2494.103304
359.004084	2498.494149
359.393095	2498.116062
359.782043	2502.123779
360.170927	2498.544560
360.559748	2500.853409
360.948505	2502.136382
361.337199	2502.988337
361.725830	2503.162257
362.114398	2503.210148
362.502903	2501.254180
362.891344	2502.065806
363.279722	2503.285765
363.668037	2504.725015
364.056289	2503.164778
364.444478	2506.103770
364.832603	2505.647546
365.220665	2503.983965
365.608665	2505.274501
365.996601	2507.691734
366.384474	2506.489419
366.772284	2508.132835
367.160031	2506.464213
367.547715	2508.112670
367.935336	2507.787516
368.322893	2510.156858
368.710388	2509.693072
369.097820	2513.393279
369.485189	2511.233144
369.872495	2509.766169
370.259738	2512.405213
370.646918	2510.585356
371.034035	2510.146776
371.421090	2509.866992
371.808081	2511.119718
372.195010	2512.654750
372.581875	2513.191633
372.968678	2512.485871
373.355418	2513.216838
373.742096	2513.950326
374.128710	2513.597446
374.515262	2513.874709
374.901751	2511.265912
375.288177	2516.145749
375.674540	2515.054339
376.060841	2515.792868
376.447079	2513.471417
376.833254	2517.539628
377.219367	2513.572240
377.605417	2512.737929
377.991404	2512.619462
378.377329	2515.412261
378.763191	2513.549555
379.148991	2519.616583
379.534727	2517.080883
379.920402	2518.154649
380.306013	2518.263033
380.691563	2520.695390
381.077049	2520.206398
381.462474	2518.560462
381.847835	2519.298991
382.233134	2518.920904
382.618371	2518.764628
383.003545	2519.702283
383.388657	2520.569361
383.773706	2518.376459
384.158693	2520.365195
384.543618	2525.723941
384.928480	2521.295287
385.313280	2521.781759
385.698017	2523.977181
386.082692	2526.149919
386.467305	2525.234949
386.851856	2523.873838
387.236344	2522.568179
387.620770	2527.765608
388.005133	2524.448529
388.389435	2525.897861
388.773674	2527.455577
389.157851	2525.411390
389.541965	2527.080012
389.926018	2527.195958
390.310008	2527.422810
390.693936	2530.150074
391.077802	2527.379960
391.461606	2529.005732
391.845348	2527.241328
392.229027	2533.578059
392.612645	2531.347348
392.996200	2531.604447
393.379694	2528.990609
393.763125	2533.855322
394.146494	2534.039324
394.529801	2535.392874
394.913047	2531.112935
395.296230	2534.916485
395.679351	2534.971938
396.062410	2533.310878
396.445408	2537.464788
396.828343	2539.463606
397.211217	2535.894469
397.594028	2537.500077
397.976778	2539.670293
398.359466	2545.371838
398.742092	2545.676828
399.124656	2556.792572
399.507158	2556.704352
399.889598	2569.229099
400.271977	2575.742270
400.654294	2586.230390
401.036549	2590.323807
401.418742	2604.277721
401.800874	2618.042592
402.182944	2632.891310
402.564952	2650.109371
402.946898	2665.741989
403.328783	2679.711027
403.710606	2690.736030
404.092367	2725.567882
404.474067	2742.453227
404.855705	2762.907709
405.237282	2774.630912
405.618797	2814.009886
406.000250	2840.906962
406.381642	2877.389792
406.762972	2903.810480
407.144240	2930.140426
407.525447	2962.965899
407.906593	3001.255983
408.287677	3039.926675
408.668700	3056.426371
409.049661	3104.226592
409.430560	3147.971204
409.811399	3167.077177
410.192176	3249.857965
410.572891	3265.886313
410.953545	3341.717870
411.334138	3336.880883
411.714669	3400.180131
412.095139	3401.226171
412.475547	3498.689319
412.855894	3536.434958
413.236180	3580.290476
413.616405	3600.888631
413.996568	3682.439376
414.376670	3696.756253
414.756711	3713.994479
415.136691	3772.550001
415.516609	3854.904811
415.896466	3917.498298
416.276262	3980.439624
416.655997	4012.834079
417.035670	4164.524919
417.415283	4266.832615
417.794834	4272.496352
418.174324	4284.050676
418.553753	4259.706944
418.933121	4433.798151
419.312428	4528.670146
419.691674	4521.665463
420.070859	4656.299559
420.449983	4622.871668
420.829045	4749.550822
421.208047	4712.674782
421.586988	4806.193227
421.965867	4851.480433
422.344686	4994.792875
422.723444	4897.727978
423.102141	4773.103093
423.480777	5059.060025
423.859352	4883.227099
424.237866	5141.646728
424.616319	5155.625847
424.994712	5279.701246
425.373044	5190.377041
425.751314	5345.478222
426.129524	5180.282131
426.507673	5379.027100
426.885762	5475.527388
427.263789	5426.812198
427.641756	5328.416436
428.019662	5459.882167
428.397508	5478.811700
428.775292	5446.414724
429.153016	5547.915837
429.530679	5489.196477
429.908282	5575.722841
430.285824	5464.290656
430.663305	5734.720833
431.040726	5486.280169
431.418086	5488.805787
431.795385	5602.367860
432.172624	5618.101301
432.549802	5614.968224
432.926920	5637.706348
433.303977	5640.131143
433.680974	5685.128482
434.057910	5703.322007
434.434786	5713.520261
434.811601	5687.207958
435.188355	5916.537609
435.565050	5793.871212
435.941683	5776.413696
436.318257	5995.063662
436.694770	5977.704449
437.071222	6012.916908
437.447614	5945.471311
437.823946	5863.703796
438.200218	6012.047309
438.576429	5881.199120
438.952580	5980.562783
439.328670	6026.893508
439.704700	5934.456390
440.080670	5923.312919
440.456580	6195.462130
440.832429	6076.569038
441.208218	5922.624802
441.583947	6073.824129
441.959616	6081.756385
442.335224	6008.672257
442.710773	6151.891438
443.086261	6175.365571
443.461689	5965.504857
443.837057	6121.382375
444.212365	6271.092041
444.587612	6166.495660
444.962800	6317.001829
445.337927	6298.944416
445.712995	5910.236166
446.088002	6483.306974
446.462949	6314.829092
446.837837	6253.301809
447.212664	6416.904895
447.587431	6568.739408
447.962139	7103.149607
448.336786	8029.345679
448.711374	7763.354238
449.085901	6844.790472
449.460369	6768.376662
449.834776	6703.681014
450.209124	7093.140396
450.583412	7248.145794
450.957640	7391.057465
451.331808	7151.063253
451.705917	6710.622683
452.079965	6630.362473
452.453954	6844.631676
452.827883	6721.158695
453.201752	6812.577499
453.575562	6609.466890
453.949311	6815.425751
454.323001	6702.655139
454.696632	6774.534432
455.070202	6917.506596
455.443713	7070.596356
455.817164	7171.789957
456.190556	7246.683860
456.563888	7333.484967
456.937160	7373.788992
457.310373	7030.998092
457.683526	7053.466515
458.056619	6943.980215
458.429653	6935.823628
458.802628	6869.572784
459.175542	6976.044474
459.548398	7333.467323
459.921194	7491.205027
460.293930	7491.532702
460.666607	8017.577106
461.039224	8330.335332
461.411782	8452.989125
461.784280	8472.984862
462.156719	8363.922019
462.529099	8234.397133
462.901419	7829.602561
463.273680	7726.100111
463.645882	7734.987665
464.018024	7602.581759
464.390106	7766.089064
464.762130	8163.021956
465.134094	8626.341803
465.505999	9637.042738
465.877845	10863.542866
466.249631	11505.168324
466.621358	11124.956939
466.993026	10499.022072
467.364634	10247.574359
467.736184	9887.545234
468.107674	9559.169514
468.479105	9591.969781
468.850477	9346.551288
469.221790	9117.955126
469.593043	8795.676681
469.964238	8655.036051
470.335373	8664.541146
470.706449	8725.831495
471.077467	8708.210142
471.448425	10016.198001
471.819324	11079.576473
472.190164	11104.177303
472.560945	9855.680101
472.931667	9072.352848
473.302330	8933.708515
473.672934	8585.054753
474.043479	8941.197149
474.413965	8885.240341
474.784393	8766.090149
475.154761	8927.328935
475.525070	9001.406170
475.895321	8837.475408
476.265513	9013.109208
476.635645	9178.814456
477.005719	9181.234210
477.375734	9295.290316
477.745691	9535.249239
478.115588	9663.690277
478.485427	9905.809334
478.855207	10440.043093
479.224928	11257.148596
479.594591	11878.644728
479.964194	11693.137828
480.333739	11634.819239
480.703226	11547.728266
481.072653	11638.151442
481.442022	11876.731610
481.811333	12063.881926
482.180584	11872.406300
482.549777	11576.367061
482.918912	11400.173692
483.287988	11428.799885
483.657005	11443.396546
484.025964	11120.626588
484.394864	11255.827814
484.763706	11232.265461
485.132489	10984.817904
485.501213	10947.594024
485.869879	11023.228975
486.238487	10863.033709
486.607036	10977.838426
486.975527	10759.367421
487.343959	10946.053951
487.712333	10991.837710
488.080648	10933.229256
488.448905	10972.532612
488.817104	10908.018445
489.185244	11176.805207
489.553326	11328.110398
489.921350	11859.742921
490.289315	12928.172629
490.657222	13274.338581
491.025070	13176.220083
491.392861	13044.499775
491.760593	12668.152434
492.128267	12323.786174
492.495883	11987.707570
492.863440	11657.418732
493.230939	11313.473408
493.598380	11249.327246
493.965763	11120.971907
494.333088	11023.188646
494.700354	10944.125710
495.067563	11005.567293
495.434713	10837.752323
495.801805	10962.704882
496.168839	10880.546678
496.535815	10823.974849
496.902733	10820.685496
497.269593	10756.710733
497.636395	10858.408450
498.003139	10849.863695
498.369825	10714.362520
498.736453	10872.886644
499.103023	10797.360077
499.469535	10830.241003
499.835989	10815.107459
500.202385	10779.736203
500.568723	10630.946548
500.935003	10854.806546
501.301226	10660.810343
501.667390	10918.597307
502.033497	11019.596824
502.399546	10870.406397
502.765537	10781.298961
503.131470	10849.639363
503.497345	11032.492096
503.863163	10643.335183
504.228923	10953.585435
504.594625	11008.801193
504.960269	10760.947823
505.325856	10975.297685
505.691385	10774.616912
506.056856	10927.159707
506.422270	10954.676845
506.787625	10839.897333
507.152924	10958.702206
507.518164	10939.447519
507.883347	10854.932575
508.248472	10784.096802
508.613540	11013.451658
508.978550	10897.598380
509.343503	10868.697445
509.708398	10990.857206
510.073236	11100.691345
510.438016	11105.969433
510.802738	11052.933974
511.167403	11113.994950
511.532010	11006.540236
511.896561	11238.191337
512.261053	11313.244036
512.625488	11177.344610
512.989866	11153.837710
513.354186	11156.688482
513.718449	11052.379448
514.082655	11243.915567
514.446803	11139.772891
514.810894	11259.021385
515.174927	11126.053390
515.538904	11158.543627
515.902822	11305.969651
516.266684	11190.010509
516.630488	11129.345264
516.994235	11191.570746
517.357925	11247.635939
517.721558	11342.671771
518.085133	11349.018584
518.448651	11364.323527
518.812112	11247.151988
519.175516	11261.085737
519.538863	11379.121834
519.902152	11304.530401
520.265385	11457.340377
520.628560	11371.552542
520.991678	11347.017246
521.354739	11411.097873
521.717743	11338.906029
522.080690	11324.379944
522.443580	11461.413629
522.806413	11411.785990
523.169189	11444.427462
523.531908	11499.665905
523.894569	11323.601086
524.257174	11324.513535
524.619722	11446.968203
524.982213	11397.196891
525.344647	11446.423758
525.707025	11392.337219
526.069345	11487.486477
526.431608	11404.355330
526.793815	11514.418842
527.155964	11303.572582
527.518057	11356.240037
527.880093	11309.465691
528.242072	11374.509178
528.603995	11280.501741
528.965860	11202.043743
529.327669	11254.260015
529.689421	11204.715555
530.051117	11171.471666
530.412755	11281.431834
530.774337	11167.083342
531.135862	11150.419807
531.497331	11172.225318
531.858743	11028.567557
532.220098	11189.410612
532.581396	11058.312886
532.942638	11043.907788
533.303824	11010.444609
533.664953	11020.279900
534.026025	10933.171283
534.387040	11039.153980
534.747999	11033.235666
535.108902	11095.355284
535.469748	10847.648108
535.830537	10954.099633
536.191270	10937.289905
536.551947	10959.649943
536.912567	10962.543565
537.273131	10884.423325
537.633638	10860.054387
537.994089	10856.041629
538.354483	10801.347630
538.714821	10944.586975
539.075103	10952.451175
539.435328	10921.841289
539.795497	10744.337221
540.155609	10903.151211
540.515665	10994.532207
540.875665	10726.083203
541.235609	10791.623244
541.595496	10786.624940
541.955328	10946.585793
542.315102	10825.136835
542.674821	10775.254618
543.034483	10783.093612
543.394090	10781.901379
543.753640	10715.199352
544.113134	10935.815368
544.472571	10785.687286
544.831953	10933.244379
545.191278	10736.931766
545.550548	10764.206929
545.909761	10902.127857
546.268918	10877.315298
546.628019	10961.996600
546.987064	10821.282873
547.346053	10746.041131
547.704986	10845.810607
548.063863	10835.801396
548.422684	10824.216824
548.781449	10745.143806
549.140158	10841.936480
549.498811	10719.393592
549.857408	10582.201111
550.215949	10801.599688
550.574434	10657.773048
550.932864	10760.950344
551.291237	10820.839251
551.649555	10768.504513
552.007817	10782.710484
552.366022	10736.286498
552.724173	10730.902546
553.082267	10716.318488
553.440305	10856.659170
553.798288	10657.697431
554.156215	10813.060751
554.514086	10785.770465
554.871902	10627.962185
555.229661	10674.479432
555.587365	10649.394650
555.945014	10545.811542
556.302606	10667.774697
556.660143	10564.020189
557.017625	10715.592562
557.375050	10615.286203
557.732421	10747.918961
558.089735	10663.424181
558.446994	10659.275312
558.804197	10700.277537
559.161345	10705.895903
559.518437	10544.533609
559.875474	10630.838163
560.232455	10666.055664
560.589381	10615.455082
560.946251	10614.784608
561.303065	10721.974663
561.659825	10653.785495
562.016528	10590.019940
562.373177	10465.379932
562.729770	10583.592469
563.086307	10498.792700
563.442789	10588.926010
563.799216	10466.650303
564.155587	10511.445996
564.511904	10472.182969
564.868164	10464.215425
565.224370	10480.997427
565.580520	10400.906095
565.936615	10400.659078
566.292654	10276.019070
566.648638	10407.010932
567.004567	10360.644920
567.360441	10349.992962
567.716260	10265.394838
568.072023	10349.877015
568.427732	10303.863883
568.783385	10217.070337
569.138982	10281.642477
569.494525	10298.671495
569.850013	10181.913331
570.205445	10258.223797
570.560823	10156.770576
570.916145	10067.458974
571.271412	10139.461774
571.626625	10085.420605
571.981782	10064.618283
572.336884	10039.841012
572.691931	10045.033401
573.046923	9986.460234
573.401860	9946.700654
573.756743	9876.701712
574.111570	9923.637375
574.466342	9905.358151
574.821059	9936.273027
575.175722	9826.706069
575.530330	9840.765847
575.884882	9827.346295
576.239380	9753.117826
576.593823	9732.239887
576.948211	9755.598073
577.302544	9629.072673
577.656823	9645.854675
578.011047	9653.061004
578.365216	9618.040108
578.719330	9540.504642
579.073389	9559.345954
579.427394	9504.120114
579.781344	9479.680600
580.135239	9428.880892
580.489080	9439.311040
580.842866	9342.150361
581.196597	9351.254685
581.550273	9391.112568
581.903895	9354.042443
582.257463	9420.323534
582.610975	9303.025966
582.964434	9325.600253
583.317837	9243.328622
583.671186	9229.271365
584.024481	9223.695849
584.377721	9147.304724
584.730906	9125.161456
585.084037	9147.690372
585.437113	9087.723327
585.790135	9112.389692
586.143103	9002.908434
586.496016	8981.380186
586.848874	9035.940594
587.201679	9027.668061
587.554428	8907.363445
587.907124	8952.650650
588.259765	8925.216691
588.612352	8930.799769
588.964884	8812.030184
589.317362	8822.417482
589.669786	8820.884971
590.022155	8872.173670
590.374470	8884.920228
590.726731	8823.249272
591.078937	8679.228548
591.431090	8787.893140
591.783188	8658.280033
592.135232	8648.104464
592.487222	8652.959095
592.839157	8708.961273
593.191038	8638.349832
593.542866	8582.007376
593.894639	8485.658323
594.246358	8538.136734
594.598022	8556.415958
594.949633	8451.597767
595.301190	8421.688601
595.652692	8455.391235
596.004141	8568.126558
596.355535	8341.829162
596.706876	8329.611926
597.058162	8254.203826
597.409395	8336.432607
597.760573	8398.161536
598.111698	8303.942371
598.462768	8293.918036
598.813785	8256.759691
599.164748	8226.749702
599.515657	8216.261582
599.866511	8120.472097
600.217312	8253.319104
600.568060	8110.447762
600.918753	8214.025830
601.269392	8183.670522
601.619978	8091.606450
601.970510	8168.831886
602.320988	8155.687077
602.671412	8212.279070
603.021783	8145.645099
603.372100	8121.505533
603.722363	8125.334290
604.072572	8098.515351
604.422728	8109.409285
604.772830	8038.351701
605.122878	8048.370994
605.472872	8042.641723
605.822813	8068.344046
606.172701	8017.453597
606.522534	8091.634176
606.872314	8094.013601
607.222041	8059.743837
607.571714	8118.415306
607.921333	8076.152793
608.270899	8079.714368
608.620411	8168.433635
608.969870	8077.808812
609.319276	8069.160713
609.668627	8084.453053
610.017926	8118.380018
610.367171	8160.229157
610.716362	8142.680900
611.065500	8137.614541
611.414585	8157.494331
611.763616	8150.819843
612.112594	8131.686144
612.461518	8143.396744
612.810389	8202.728604
613.159207	8146.376066
613.507971	8091.810617
613.856682	8212.251344
614.205340	8168.955394
614.553945	8247.025223
614.902496	8146.277763
615.250994	8198.436062
615.599439	8178.989811
615.947830	8193.939353
616.296169	8163.846185
616.644454	8180.292949
616.992686	8182.420316
617.340864	8234.215651
617.688990	8139.285683
618.037063	8230.686843
618.385082	8177.641302
618.733048	8266.733614
619.080961	8199.570321
619.428821	8220.632262
619.776628	8222.056388
620.124382	8177.792537
620.472083	8157.040627
620.819731	8189.046913
621.167326	8080.465500
621.514868	8087.649144
621.862357	7974.021537
622.209793	7992.288157
622.557176	7925.641583
622.904506	7897.668220
623.251783	7833.201945
623.599007	7783.317207
623.946179	7791.146119
624.293297	7749.163390
624.640363	7664.978641
624.987376	7647.243862
625.334336	7595.665296
625.681243	7539.073303
626.028097	7535.912500
626.374899	7507.152717
626.721647	7503.442428
627.068343	7431.321160
627.414987	7404.056080
627.761577	7359.595623
628.108115	7401.520379
628.454600	7292.659183
628.801032	7343.214394
629.147412	7302.494474
629.493739	7293.117928
629.840014	7225.861374
630.186236	7282.662575
630.532405	7167.028588
630.878521	7218.985240
631.224585	7176.069897
631.570597	7102.015347
631.916556	7134.792929
632.262462	7130.512990
632.608316	7087.854746
632.954117	7065.131745
633.299866	7056.231588
633.645562	7051.618932
633.991206	6965.639533
634.336797	6912.036944
634.682336	6867.072372
635.027823	6839.434246
635.373257	6827.332956
635.718639	6760.129334
636.063968	6772.122239
636.409245	6668.123236
636.754470	6662.315826
637.099642	6625.719570
637.444762	6567.101033
637.789829	6579.935811
638.134845	6521.120669
638.479808	6499.862123
638.824719	6507.774214
639.169577	6437.792916
639.514383	6455.923426
639.859137	6383.764350
640.203839	6397.960239
640.548489	6379.935594
