Dividing Wavelength (nm)	Counts (n)	Blue Motor Position (mm): 41.900000	Red Motor Position (mm): 0.000000	
326.493990	2129.262397
326.888308	2129.262397
327.282561	2129.262397
327.676750	2097.387181
328.070874	2096.958683
328.464933	2099.819538
328.858929	2106.678028
329.252859	2116.019286
329.646726	2127.147633
330.040528	2142.281177
330.434265	2156.814823
330.827938	2171.638336
331.221547	2190.525019
331.615091	2211.677701
332.008571	2231.993551
332.401986	2250.519791
332.795338	2273.255395
333.188625	2289.611418
333.581847	2306.811835
333.975006	2325.128868
334.368100	2344.146621
334.761129	2360.371574
335.154095	2378.144162
335.546996	2400.078223
335.939833	2426.856832
336.332606	2442.822166
336.725315	2452.412961
337.117960	2464.116000
337.510540	2471.269397
337.903056	2483.166520
338.295508	2487.164155
338.687896	2500.434993
339.080220	2505.738287
339.472480	2514.489730
339.864676	2517.577437
340.256807	2522.638755
340.648875	2524.022552
341.040879	2525.950793
341.432818	2530.376926
341.824694	2530.802904
342.216506	2533.439427
342.608253	2528.829292
342.999937	2530.881042
343.391557	2529.396422
343.783113	2526.301153
344.174605	2529.041020
344.566033	2526.845598
344.957397	2525.789476
345.348697	2521.592716
345.739934	2521.706142
346.131106	2520.713034
346.522215	2518.714217
346.913260	2517.365708
347.304241	2513.385717
347.695159	2513.279853
348.086012	2510.945799
348.476802	2509.498987
348.867528	2508.314316
349.258191	2507.122083
349.648789	2505.352638
350.039324	2505.619820
350.429796	2503.557988
350.820203	2501.710405
351.210548	2502.635457
351.600828	2499.809890
351.991045	2499.157060
352.381198	2498.489108
352.771288	2497.488438
353.161314	2499.575476
353.551276	2498.680671
353.941175	2498.569766
354.331010	2496.810403
354.720782	2496.586072
355.110490	2497.140599
355.500135	2499.484735
355.889717	2497.410301
356.279235	2496.485249
356.668689	2497.788387
357.058080	2499.751917
357.447408	2496.147492
357.836672	2496.502893
358.225873	2496.558346
358.615010	2497.485918
359.004084	2500.760147
359.393095	2501.791063
359.782043	2504.924140
360.170927	2500.828203
360.559748	2502.748883
360.948505	2502.854747
361.337199	2502.698471
361.725830	2502.867350
362.114398	2506.149141
362.502903	2504.840961
362.891344	2506.121414
363.279722	2507.220386
363.668037	2509.413288
364.056289	2507.054028
364.444478	2507.301044
364.832603	2509.486385
365.220665	2510.592918
365.608665	2508.057217
365.996601	2510.000582
366.384474	2510.998731
366.772284	2513.501664
367.160031	2510.073679
367.547715	2510.971004
367.935336	2512.793382
368.322893	2512.604338
368.710388	2514.756911
369.097820	2517.138856
369.485189	2514.943434
369.872495	2516.065090
370.259738	2516.304545
370.646918	2511.979235
371.034035	2516.135667
371.421090	2518.885616
371.808081	2518.719258
372.195010	2515.681963
372.581875	2519.230935
372.968678	2518.378980
373.355418	2516.496109
373.742096	2519.377128
374.128710	2515.566016
374.515262	2517.486696
374.901751	2517.458969
375.288177	2520.687828
375.674540	2519.223373
376.060841	2521.199506
376.447079	2521.839732
376.833254	2523.258817
377.219367	2518.101717
377.605417	2519.341840
377.991404	2520.990298
378.377329	2520.241686
378.763191	2517.282529
379.148991	2523.873838
379.534727	2527.140505
379.920402	2526.117151
380.306013	2526.409538
380.691563	2527.115300
381.077049	2528.675537
381.462474	2527.369878
381.847835	2529.058664
382.233134	2536.970755
382.618371	2535.907072
383.003545	2540.991076
383.388657	2544.620706
383.773706	2553.455328
384.158693	2561.196020
384.543618	2568.760272
384.928480	2578.729153
385.313280	2593.010742
385.698017	2599.473501
386.082692	2617.989659
386.467305	2629.712863
386.851856	2648.281953
387.236344	2663.531443
387.620770	2683.587674
388.005133	2702.791949
388.389435	2728.305229
388.773674	2744.489853
389.157851	2768.868873
389.541965	2797.363996
389.926018	2806.357414
390.310008	2845.920389
390.693936	2876.167312
391.077802	2910.921027
391.461606	2933.210489
391.845348	2982.631441
392.229027	3009.599093
392.612645	3039.019267
392.996200	3099.606374
393.379694	3150.355670
393.763125	3207.051007
394.146494	3223.613718
394.529801	3286.131587
394.913047	3345.503777
395.296230	3355.376877
395.679351	3422.424223
396.062410	3471.106645
396.445408	3491.049450
396.828343	3543.321174
397.211217	3595.275306
397.594028	3571.206317
397.976778	3650.838903
398.359466	3700.234649
398.742092	3751.619131
399.124656	3722.493864
399.507158	3813.305210
399.889598	3854.690562
400.271977	3931.903395
400.654294	3931.018672
401.036549	3964.373467
401.418742	3964.444043
401.800874	4071.167791
402.182944	4112.437197
402.564952	4191.910987
402.946898	4200.538922
403.328783	4211.992423
403.710606	4153.842714
404.092367	4340.912371
404.474067	4326.713961
404.855705	4351.655070
405.237282	4292.028302
405.618797	4409.356117
406.000250	4449.113177
406.381642	4535.531157
406.762972	4512.626674
407.144240	4529.794323
407.525447	4541.474677
407.906593	4600.519191
408.287677	4649.592303
408.668700	4583.371707
409.049661	4640.334224
409.430560	4684.086399
409.811399	4617.293631
410.192176	4780.400163
410.572891	4718.988827
410.953545	4823.839786
411.334138	4709.723187
411.714669	4777.836737
412.095139	4674.346889
412.475547	4816.255370
412.855894	4799.838853
413.236180	4809.812776
413.616405	4762.514150
413.996568	4851.296431
414.376670	4794.109581
414.756711	4750.143158
415.136691	4782.504845
415.516609	4862.704562
415.896466	4899.300818
416.276262	4933.121919
416.655997	4913.698353
417.035670	5091.217545
417.415283	5186.767575
417.794834	5130.919152
418.174324	5084.351493
418.553753	4994.359336
418.933121	5176.798693
419.312428	5244.156070
419.691674	5183.702553
420.070859	5309.481862
420.449983	5223.409202
420.829045	5338.468497
421.208047	5241.491821
421.586988	5315.029652
421.965867	5329.258309
422.344686	5458.422753
422.723444	5314.490249
423.102141	5135.756139
423.480777	5432.639772
423.859352	5200.696283
424.237866	5461.364266
424.616319	5449.121824
424.994712	5559.865892
425.373044	5436.163538
425.751314	5581.414304
426.129524	5380.960383
426.507673	5574.381894
426.885762	5659.484133
427.263789	5591.940233
427.641756	5477.012008
428.019662	5594.871664
428.397508	5598.604638
428.775292	5549.264345
429.153016	5652.350900
429.530679	5575.652265
429.908282	5661.263660
430.285824	5528.961098
430.663305	5808.215815
431.040726	5537.334455
431.418086	5537.886461
431.795385	5646.936701
432.172624	5658.664945
432.549802	5650.573893
432.926920	5663.688455
433.303977	5670.690618
433.680974	5711.687802
434.057910	5729.626748
434.434786	5734.604887
434.811601	5704.468869
435.188355	5938.476710
435.565050	5811.485004
435.941683	5795.623013
436.318257	6005.622359
436.694770	5987.978320
437.071222	6025.507190
437.447614	5954.434483
437.823946	5869.521287
438.200218	6019.379668
438.576429	5890.358897
438.952580	5986.828937
439.328670	6032.862234
439.704700	5943.568276
440.080670	5927.234937
440.456580	6194.791657
440.832429	6077.960396
441.208218	5922.110604
441.583947	6083.853505
441.959616	6087.299133
442.335224	6011.505385
442.710773	6151.465460
443.086261	6178.105438
443.461689	5969.043747
443.837057	6120.033866
444.212365	6275.616477
444.587612	6172.325755
444.962800	6321.579197
445.337927	6304.116640
445.712995	5910.173152
446.088002	6489.820145
446.462949	6321.896789
446.837837	6250.640080
447.212664	6423.952428
447.587431	6569.336785
447.962139	7112.483303
448.336786	8036.736011
448.711374	7771.415043
449.085901	6849.914805
449.460369	6772.550738
449.834776	6703.779317
450.209124	7096.419666
450.583412	7249.214519
450.957640	7393.532671
451.331808	7155.348234
451.705917	6709.438012
452.079965	6633.664428
452.453954	6842.383321
452.827883	6722.214816
453.201752	6815.826523
453.575562	6617.489886
453.949311	6817.638818
454.323001	6706.022630
454.696632	6777.896881
455.070202	6921.088336
455.443713	7077.467448
455.817164	7172.079824
456.190556	7255.901609
456.563888	7328.519431
456.937160	7380.370218
457.310373	7031.169492
457.683526	7055.871145
458.056619	6947.894671
458.429653	6937.078876
458.802628	6872.133691
459.175542	6979.777449
459.548398	7332.113773
459.921194	7494.945563
460.293930	7499.054103
460.666607	8032.564456
461.039224	8334.859767
461.411782	8457.503478
461.784280	8477.201787
462.156719	8365.840178
462.529099	8246.876509
462.901419	7833.819486
463.273680	7724.761685
463.645882	7745.463183
464.018024	7611.456711
464.390106	7774.437215
464.762130	8161.968355
465.134094	8635.763720
465.505999	9658.540738
465.877845	10874.784639
466.249631	11520.301868
466.621358	11135.326593
466.993026	10510.732672
467.364634	10246.939174
467.736184	9890.426253
468.107674	9559.255213
468.479105	9589.320655
468.850477	9354.140746
469.221790	9128.231518
469.593043	8794.544942
469.964238	8657.791041
470.335373	8675.828290
470.706449	8730.176969
471.077467	8717.309424
471.448425	10018.869812
471.819324	11086.908831
472.190164	11111.159301
472.560945	9863.582109
472.931667	9079.415505
473.302330	8936.609699
473.672934	8591.454498
474.043479	8946.364332
474.413965	8887.781083
474.784393	8772.409236
475.154761	8928.800952
475.525070	9015.319754
475.895321	8842.801387
476.265513	9028.338534
476.635645	9193.884985
477.005719	9186.653450
477.375734	9303.086460
477.745691	9540.975989
478.115588	9679.358183
478.485427	9923.183671
478.855207	10456.575557
479.224928	11273.121492
479.594591	11905.992987
479.964194	11709.120806
480.333739	11649.070581
480.703226	11564.134701
481.072653	11650.540078
481.442022	11890.839279
481.811333	12082.524112
482.180584	11881.777805
482.549777	11594.905904
482.918912	11414.546022
483.287988	11440.732296
483.657005	11452.863832
484.025964	11139.500668
484.394864	11261.786458
484.763706	11236.406769
485.132489	10994.691003
485.501213	10957.467123
485.869879	11032.300532
486.238487	10871.497806
486.607036	10989.730508
486.975527	10768.010480
487.343959	10958.931579
487.712333	11004.281799
488.080648	10941.698394
488.448905	10974.410442
488.817104	10919.429097
489.185244	11187.210148
489.553326	11340.751092
489.921350	11872.035775
490.289315	12941.050257
490.657222	13279.883851
491.025070	13192.079553
491.392861	13058.574676
491.760593	12673.291891
492.128267	12332.794716
492.495883	12000.985970
492.863440	11668.416009
493.230939	11332.400420
493.598380	11262.588001
493.965763	11133.045471
494.333088	11026.896415
494.700354	10946.628643
495.067563	11006.111738
495.434713	10843.955462
495.801805	10970.712755
496.168839	10889.527493
496.535815	10832.101189
496.902733	10831.836528
497.269593	10765.028637
497.636395	10868.339523
498.003139	10855.625733
498.369825	10721.195804
498.736453	10881.585155
499.103023	10805.282251
499.469535	10836.479431
499.835989	10822.197842
500.202385	10785.609148
500.568723	10644.366099
500.935003	10854.655311
501.301226	10666.146404
501.667390	10931.641292
502.033497	11017.114056
502.399546	10882.641277
502.765537	10789.752976
503.131470	10856.449962
503.497345	11043.864939
503.863163	10645.291151
504.228923	10954.495363
504.594625	11015.337049
504.960269	10767.317321
505.325856	10987.580456
505.691385	10776.083888
506.056856	10934.363515
506.422270	10966.137908
506.787625	10845.772798
507.152924	10971.075718
507.518164	10948.859353
507.883347	10864.097393
508.248472	10794.433688
508.613540	11020.930209
508.978550	10909.049361
509.343503	10881.262521
509.708398	11005.947900
510.073236	11117.909406
510.438016	11120.883687
510.802738	11069.163969
511.167403	11121.312185
511.532010	11013.214723
511.896561	11251.873029
512.261053	11321.851806
512.625488	11189.183760
512.989866	11169.256079
513.354186	11157.273256
513.718449	11059.449666
514.082655	11255.285890
514.446803	11146.079374
514.810894	11270.563107
515.174927	11136.944803
515.538904	11158.258802
515.902822	11316.609006
516.266684	11203.621625
516.630488	11141.708694
516.994235	11198.313290
517.357925	11256.251271
517.721558	11346.331649
518.085133	11359.776406
518.448651	11377.092770
518.812112	11255.525345
519.175516	11270.477407
519.538863	11385.209027
519.902152	11308.187758
520.265385	11468.688014
520.628560	11373.203519
520.991678	11357.828000
521.354739	11420.668503
521.717743	11355.783812
522.080690	11328.075110
522.443580	11467.205915
522.806413	11425.467682
523.169189	11451.379213
523.531908	11513.960097
523.894569	11337.373518
524.257174	11334.517705
524.619722	11458.557816
524.982213	11399.561192
525.344647	11456.102774
525.707025	11406.520505
526.069345	11498.231697
526.431608	11416.282700
526.793815	11527.868640
527.155964	11308.916205
527.518057	11365.966943
527.880093	11312.250928
528.242072	11379.298274
528.603995	11289.137238
528.965860	11208.103210
529.327669	11260.891653
529.689421	11214.139992
530.051117	11181.516165
530.412755	11281.273038
530.774337	11171.297746
531.135862	11151.785960
531.497331	11177.213540
531.858743	11025.764676
532.220098	11189.907166
532.581396	11070.167159
532.942638	11053.238964
533.303824	11009.171718
533.664953	11028.247444
534.026025	10945.086050
534.387040	11037.429906
534.747999	11044.202696
535.108902	11105.228384
535.469748	10858.383245
535.830537	10964.527259
536.191270	10943.198138
536.551947	10967.214194
536.912567	10966.125305
537.273131	10888.741073
537.633638	10875.729855
537.994089	10861.130673
538.354483	10811.707201
538.714821	10950.447317
539.075103	10963.075407
539.435328	10924.306413
539.795497	10756.204097
540.155609	10912.167315
540.515665	10996.634368
540.875665	10739.840512
541.235609	10801.453494
541.595496	10793.768255
541.955328	10949.915475
542.315102	10826.208080
542.674821	10782.755855
543.034483	10783.401122
543.394090	10790.604931
543.753640	10716.988962
544.113134	10937.909967
544.472571	10796.424943
544.831953	10934.227404
545.191278	10744.062478
545.550548	10771.889647
545.909761	10907.905019
546.268918	10878.568025
546.628019	10966.921808
546.987064	10824.604993
547.346053	10744.453168
547.704986	10854.357883
548.063863	10841.639052
548.422684	10832.413741
548.781449	10752.488767
549.140158	10849.278921
549.498811	10723.310568
549.857408	10588.489950
550.215949	10811.452623
550.574434	10665.591877
550.932864	10765.716755
551.291237	10816.448406
551.649555	10770.263875
552.007817	10782.370206
552.366022	10743.820503
552.724173	10741.030224
553.082267	10728.553368
553.440305	10860.843328
553.798288	10661.443008
554.156215	10815.656945
554.514086	10791.945878
554.871902	10639.461057
555.229661	10669.239152
555.587365	10650.697788
555.945014	10542.670903
556.302606	10672.069760
556.660143	10571.448329
557.017625	10720.832841
557.375050	10625.539910
557.732421	10748.934753
558.089735	10661.921917
558.446994	10668.097331
558.804197	10701.568072
559.161345	10706.115193
559.518437	10552.443179
559.875474	10643.229319
560.232455	10669.718062
560.589381	10622.573191
560.946251	10618.447007
561.303065	10729.937165
561.659825	10654.763479
562.016528	10593.689900
562.373177	10467.547628
562.729770	10587.837121
563.086307	10504.491724
563.442789	10591.504560
563.799216	10474.574997
564.155587	10522.665084
564.511904	10479.921140
564.868164	10466.602412
565.224370	10482.711419
565.580520	10404.565972
565.936615	10411.908413
566.292654	10281.760944
566.648638	10415.956460
567.004567	10369.207319
567.360441	10354.822387
567.716260	10264.310990
568.072023	10363.604077
568.427732	10312.756479
568.783385	10216.367097
569.138982	10285.231779
569.494525	10306.691971
569.850013	10180.423670
570.205445	10266.140929
570.560823	10153.282097
570.916145	10079.676210
571.271412	10149.339915
571.626625	10084.992107
571.981782	10063.090814
572.336884	10039.566269
572.691931	10051.226458
573.046923	9990.999793
573.401860	9944.386764
573.756743	9885.856447
574.111570	9930.538715
574.466342	9911.062217
574.821059	9940.739489
575.175722	9834.368623
575.530330	9841.136372
575.884882	9834.451802
576.239380	9761.541594
576.593823	9738.352286
576.948211	9755.391386
577.302544	9633.584506
577.656823	9653.718875
578.011047	9659.546448
578.365216	9624.744843
578.719330	9551.227176
579.073389	9560.848218
579.427394	9502.012911
579.781344	9488.842897
580.135239	9434.370709
580.489080	9440.372203
580.842866	9343.191359
581.196597	9351.660498
581.550273	9389.925376
581.903895	9357.709883
582.257463	9420.668853
582.610975	9301.609402
582.964434	9328.478752
583.317837	9251.112164
583.671186	9237.571625
584.024481	9229.992250
584.377721	9147.390423
584.730906	9123.898647
585.084037	9161.871138
585.437113	9091.970499
585.790135	9113.647460
586.143103	9015.380248
586.496016	8985.312286
586.848874	9042.355462
587.201679	9032.391622
587.554428	8915.330988
587.907124	8959.178945
588.259765	8931.036703
588.612352	8931.596271
588.964884	8812.909866
589.317362	8828.708842
589.669786	8826.021907
590.022155	8872.188794
590.374470	8891.446002
590.726731	8827.219181
591.078937	8682.331378
591.431090	8793.098131
591.783188	8668.579111
592.135232	8659.865476
592.487222	8658.902616
592.839157	8712.338847
593.191038	8642.133217
593.542866	8591.585568
593.894639	8486.565730
594.246358	8540.075058
594.598022	8558.991988
594.949633	8451.915359
595.301190	8429.635980
595.652692	8459.235115
596.004141	8572.595541
596.355535	8343.097013
596.706876	8330.209303
597.058162	8257.523426
597.409395	8335.142072
597.760573	8401.002226
598.111698	8304.963204
598.462768	8299.521279
598.813785	8262.544415
599.164748	8227.798262
599.515657	8218.431798
599.866511	8127.007953
600.217312	8257.198272
600.568060	8116.063608
600.918753	8212.455511
601.269392	8183.428547
601.619978	8098.472502
601.970510	8163.861308
602.320988	8154.986357
602.671412	8215.389462
603.021783	8153.524422
603.372100	8123.998384
603.722363	8124.852860
604.072572	8100.355372
604.422728	8115.902291
604.772830	8040.035446
605.122878	8047.869399
605.472872	8047.995428
605.822813	8074.272442
606.172701	8017.047785
606.522534	8096.014939
606.872314	8096.561904
607.222041	8056.260400
607.571714	8113.691745
607.921333	8074.602638
608.270899	8081.400634
608.620411	8172.355652
608.969870	8071.212462
609.319276	8073.480981
609.668627	8085.554545
610.017926	8120.673743
610.367171	8163.425248
610.716362	8144.283987
611.065500	8134.879715
611.414585	8163.208479
611.763616	8150.693814
612.112594	8128.048951
612.461518	8147.734657
612.810389	8207.842855
613.159207	8147.883371
613.507971	8098.964014
613.856682	8217.358033
614.205340	8169.983789
614.553945	8250.334741
614.902496	8147.278433
615.250994	8198.546967
615.599439	8185.830657
615.947830	8197.395063
616.296169	8167.707708
616.644454	8180.892846
616.992686	8183.420985
617.340864	8239.314778
617.688990	8147.691807
618.037063	8235.617092
618.385082	8183.083228
618.733048	8272.145293
619.080961	8206.786733
619.428821	8223.828354
619.776628	8226.537974
620.124382	8180.182044
620.472083	8162.129672
620.819731	8194.524126
621.167326	8081.975326
621.514868	8086.658557
621.862357	7980.897670
622.209793	7991.534505
622.557176	7928.184845
622.904506	7901.807008
623.251783	7835.180598
623.599007	7788.938094
623.946179	7789.396839
624.293297	7748.366887
624.640363	7670.619692
624.987376	7649.640931
625.334336	7606.375228
625.681243	7542.201339
626.028097	7534.934516
626.374899	7518.943976
626.721647	7508.193715
627.068343	7438.678724
627.414987	7403.282263
627.761577	7363.202569
628.108115	7401.769917
628.454600	7293.811086
628.801032	7341.825556
629.147412	7307.409599
629.493739	7295.550284
629.840014	7234.320430
630.186236	7291.167001
630.532405	7177.932603
630.878521	7227.887918
631.224585	7176.884043
631.570597	7105.740760
631.916556	7138.006665
632.262462	7133.749411
632.608316	7094.572083
632.954117	7069.383958
633.299866	7058.512710
633.645562	7051.293778
633.991206	6971.378886
634.336797	6912.692294
634.682336	6868.879626
635.027823	6838.257137
635.373257	6827.232133
635.718639	6763.532113
636.063968	6780.571213
636.409245	6672.685480
636.754470	6666.452093
637.099642	6626.949612
637.444762	6567.577422
637.789829	6580.031593
638.134845	6516.661768
638.479808	6507.776735
638.824719	6512.258320
639.169577	6441.624193
639.514383	6459.283355
639.859137	6386.413476
640.203839	6395.149796
640.548489	6383.333331
