Dividing Wavelength (nm)	Counts (n)	Blue Motor Position (mm): 21.600000	Red Motor Position (mm): 0.000000	
326.493990	2134.485032
326.888308	2134.485032
327.282561	2134.485032
327.676750	2099.610330
328.070874	2099.955649
328.464933	2101.891452
328.858929	2109.715323
329.252859	2119.003649
329.646726	2131.001595
330.040528	2143.924593
330.434265	2159.403456
330.827938	2174.592452
331.221547	2193.960565
331.615091	2211.592001
332.008571	2233.803325
332.401986	2250.832343
332.795338	2273.273039
333.188625	2291.489248
333.581847	2311.323668
333.975006	2329.250011
334.368100	2349.399503
334.761129	2365.687471
335.154095	2384.521222
335.546996	2401.272976
335.939833	2422.609660
336.332606	2437.080292
336.725315	2452.236521
337.117960	2459.631894
337.510540	2469.381485
337.903056	2477.981694
338.295508	2489.228508
338.687896	2497.034735
339.080220	2503.563029
339.472480	2511.089472
339.864676	2514.313289
340.256807	2517.524504
340.648875	2522.545494
341.040879	2522.923580
341.432818	2524.103210
341.824694	2527.296781
342.216506	2530.656710
342.608253	2525.648324
342.999937	2528.524302
343.391557	2526.001205
343.783113	2527.826102
344.174605	2525.779394
344.566033	2523.760412
344.957397	2522.558097
345.348697	2519.883764
345.739934	2518.676408
346.131106	2517.252282
346.522215	2518.288239
346.913260	2513.408402
347.304241	2511.505367
347.695159	2511.833042
348.086012	2510.063597
348.476802	2507.452279
348.867528	2508.243740
349.258191	2504.694768
349.648789	2503.754593
350.039324	2502.912720
350.429796	2501.544047
350.820203	2497.246463
351.210548	2496.810403
351.600828	2496.271000
351.991045	2495.983654
352.381198	2496.434837
352.771288	2497.007008
353.161314	2493.795793
353.551276	2495.003150
353.941175	2491.602891
354.331010	2494.002481
354.720782	2494.259579
355.110490	2494.461226
355.500135	2496.117245
355.889717	2491.741523
356.279235	2493.730258
356.668689	2494.995588
357.058080	2497.574138
357.447408	2493.299240
357.836672	2494.423417
358.225873	2495.126658
358.615010	2490.488796
359.004084	2496.545743
359.393095	2496.525578
359.782043	2499.764519
360.170927	2497.165805
360.559748	2498.589931
360.948505	2502.285096
361.337199	2501.259222
361.725830	2502.322905
362.114398	2503.507576
362.502903	2501.758296
362.891344	2503.144613
363.279722	2504.316681
363.668037	2503.991527
364.056289	2503.399191
364.444478	2505.249295
364.832603	2503.931033
365.220665	2505.471106
365.608665	2503.643687
365.996601	2504.286434
366.384474	2504.946826
366.772284	2507.613596
367.160031	2506.968328
367.547715	2506.945643
367.935336	2504.341887
368.322893	2506.204593
368.710388	2507.807680
369.097820	2511.717095
369.485189	2507.853051
369.872495	2506.617968
370.259738	2508.505880
370.646918	2506.786847
371.034035	2509.057887
371.421090	2511.371776
371.808081	2508.510921
372.195010	2510.590397
372.581875	2509.851868
372.968678	2511.427229
373.355418	2510.882784
373.742096	2512.526200
374.128710	2511.152486
374.515262	2511.278515
374.901751	2511.674245
375.288177	2513.199194
375.674540	2512.223731
376.060841	2510.633247
376.447079	2512.364883
376.833254	2510.955881
377.219367	2509.350273
377.605417	2508.518483
377.991404	2510.393792
378.377329	2509.350273
378.763191	2508.105108
379.148991	2515.266068
379.534727	2513.786489
379.920402	2516.511232
380.306013	2517.375790
380.691563	2514.653567
381.077049	2514.862775
381.462474	2517.282529
381.847835	2512.742970
382.233134	2518.729340
382.618371	2513.693227
383.003545	2517.640451
383.388657	2519.140194
383.773706	2516.428053
384.158693	2517.927797
384.543618	2516.329751
384.928480	2517.272447
385.313280	2518.220184
385.698017	2517.307735
386.082692	2517.995852
386.467305	2519.062056
386.851856	2517.511902
387.236344	2517.577437
387.620770	2520.337468
388.005133	2516.453259
388.389435	2515.649195
388.773674	2519.964423
389.157851	2520.763446
389.541965	2521.711183
389.926018	2520.433250
390.310008	2517.708507
390.693936	2521.000380
391.077802	2523.596574
391.461606	2522.298477
391.845348	2519.278826
392.229027	2522.958868
392.612645	2520.592047
392.996200	2520.362674
393.379694	2519.561131
393.763125	2521.867458
394.146494	2523.223529
394.529801	2522.923580
394.913047	2521.691018
395.296230	2525.005577
395.679351	2522.376615
396.062410	2522.996677
396.445408	2521.348220
396.828343	2527.052285
397.211217	2518.741943
397.594028	2521.822088
397.976778	2519.188085
398.359466	2521.423837
398.742092	2520.350071
399.124656	2524.771163
399.507158	2522.737058
399.889598	2523.236132
400.271977	2526.084384
400.654294	2526.865763
401.036549	2524.249404
401.418742	2525.562624
401.800874	2526.021369
402.182944	2526.202851
402.564952	2524.163704
402.946898	2526.631349
403.328783	2530.019004
403.710606	2527.707635
404.092367	2528.912471
404.474067	2526.414579
404.855705	2526.840557
405.237282	2527.097656
405.618797	2525.673530
406.000250	2527.135464
406.381642	2525.129085
406.762972	2527.190917
407.144240	2530.573531
407.525447	2529.280475
407.906593	2527.848787
408.287677	2530.102183
408.668700	2529.794673
409.049661	2530.281144
409.430560	2527.871473
409.811399	2531.337266
410.192176	2528.816689
410.572891	2532.179139
410.953545	2530.263500
411.334138	2533.784746
411.714669	2533.557894
412.095139	2529.424148
412.475547	2529.346010
412.855894	2531.168387
413.236180	2528.627646
413.616405	2533.240302
413.996568	2533.951104
414.376670	2534.356917
414.756711	2531.201155
415.136691	2529.136802
415.516609	2531.692667
415.896466	2532.673172
416.276262	2532.471526
416.655997	2529.971113
417.035670	2530.064375
417.415283	2528.937677
417.794834	2527.027079
418.174324	2530.114786
418.553753	2534.044366
418.933121	2535.118131
419.312428	2532.877338
419.691674	2537.028729
420.070859	2531.932122
420.449983	2532.219468
420.829045	2531.644776
421.208047	2534.152750
421.586988	2533.976310
421.965867	2534.815662
422.344686	2537.121990
422.723444	2532.259797
423.102141	2534.034283
423.480777	2535.992772
423.859352	2536.716177
424.237866	2535.221475
424.616319	2535.980169
424.994712	2536.882535
425.373044	2535.037473
425.751314	2536.658204
426.129524	2534.213244
426.507673	2537.232895
426.885762	2534.062010
427.263789	2534.631660
427.641756	2537.616023
428.019662	2534.803059
428.397508	2534.450178
428.775292	2537.926054
429.153016	2539.082999
429.530679	2538.228523
429.908282	2537.205169
430.285824	2540.575180
430.663305	2536.300282
431.040726	2539.105684
431.418086	2540.796991
431.795385	2539.133410
432.172624	2537.711805
432.549802	2538.919161
432.926920	2537.915972
433.303977	2539.284645
433.680974	2536.454037
434.057910	2539.387989
434.434786	2539.660211
434.811601	2537.336239
435.188355	2537.484953
435.565050	2539.309851
435.941683	2539.173740
436.318257	2539.032587
436.694770	2535.115611
437.071222	2540.920499
437.447614	2537.197607
437.823946	2538.238606
438.200218	2540.408822
438.576429	2540.292876
438.952580	2543.244471
439.328670	2540.297917
439.704700	2540.277752
440.080670	2540.771785
440.456580	2540.396219
440.832429	2542.110212
441.208218	2539.720705
441.583947	2542.279090
441.959616	2540.580222
442.335224	2542.616848
442.710773	2542.059800
443.086261	2543.801519
443.461689	2541.475026
443.837057	2544.545089
444.212365	2541.792619
444.587612	2542.939482
444.962800	2542.263967
445.337927	2541.979142
445.712995	2541.790098
446.088002	2542.306817
446.462949	2543.834286
446.837837	2545.147507
447.212664	2544.940820
447.587431	2545.490305
447.962139	2545.117260
448.336786	2548.361243
448.711374	2546.990049
449.085901	2541.918648
449.460369	2545.704554
449.834776	2545.165151
450.209124	2544.061138
450.583412	2544.338402
450.957640	2544.842517
451.331808	2546.049873
451.705917	2545.402085
452.079965	2544.451828
452.453954	2545.260933
452.827883	2546.410316
453.201752	2545.074410
453.575562	2545.273536
453.949311	2545.974256
454.323001	2548.215049
454.696632	2547.007693
455.070202	2547.254709
455.443713	2546.007024
455.817164	2544.257743
456.190556	2544.340922
456.563888	2547.811757
456.937160	2541.414533
457.310373	2549.082128
457.683526	2548.958619
458.056619	2548.701520
458.429653	2547.405944
458.802628	2551.857283
459.175542	2547.748742
459.548398	2549.757642
459.921194	2549.815615
460.293930	2550.261757
460.666607	2550.055070
461.039224	2551.605225
461.411782	2553.654454
461.784280	2550.549103
462.156719	2552.041285
462.529099	2552.915925
462.901419	2551.403579
463.273680	2552.709238
463.645882	2550.632282
464.018024	2552.368960
464.390106	2552.744526
464.762130	2553.414999
465.134094	2553.067160
465.505999	2553.941800
465.877845	2559.114024
466.249631	2558.882131
466.621358	2556.790052
466.993026	2557.901626
467.364634	2562.720969
467.736184	2558.675443
468.107674	2555.285267
468.479105	2558.342727
468.850477	2557.936914
469.221790	2556.994218
469.593043	2558.607388
469.964238	2559.323232
470.335373	2557.394990
470.706449	2559.844991
471.077467	2559.955896
471.448425	2562.305074
471.819324	2570.696075
472.190164	2569.362689
472.560945	2567.111814
472.931667	2568.447720
473.302330	2567.925961
473.672934	2569.408060
474.043479	2573.173802
474.413965	2576.168247
474.784393	2572.016857
475.154761	2577.277301
475.525070	2577.640264
475.895321	2581.539597
476.265513	2583.374577
476.635645	2591.775659
477.005719	2595.677512
477.375734	2602.888883
477.745691	2606.203442
478.115588	2615.481685
478.485427	2619.577623
478.855207	2633.259314
479.224928	2652.088024
479.594591	2666.357010
479.964194	2671.889676
480.333739	2673.560819
480.703226	2684.069104
481.072653	2696.084694
481.442022	2713.995914
481.811333	2726.077039
482.180584	2731.939901
482.549777	2738.596745
482.918912	2745.777868
483.287988	2758.584920
483.657005	2772.271652
484.025964	2779.601490
484.394864	2795.579427
484.763706	2808.704071
485.132489	2813.742704
485.501213	2828.021773
485.869879	2844.234123
486.238487	2860.348172
486.607036	2878.203939
486.975527	2893.067781
487.343959	2913.678538
487.712333	2939.277518
488.080648	2952.422326
488.448905	2981.250164
488.817104	2998.914368
489.185244	3033.184131
489.553326	3071.302816
489.921350	3135.310347
490.289315	3243.213724
490.657222	3291.828091
491.025070	3325.573575
491.392861	3346.380938
491.760593	3352.362267
492.128267	3351.462421
492.495883	3357.022813
492.863440	3360.085314
493.230939	3369.807179
493.598380	3397.175604
493.965763	3422.913215
494.333088	3438.923919
494.700354	3474.189311
495.067563	3513.477543
495.434713	3541.501318
495.801805	3594.937548
496.168839	3627.326962
496.535815	3671.477387
496.902733	3700.025442
497.269593	3746.870364
497.636395	3793.143115
498.003139	3849.760314
498.369825	3867.280844
498.736453	3950.853092
499.103023	3979.133965
499.469535	4036.441802
499.835989	4076.942432
500.202385	4135.034169
500.568723	4156.683404
500.935003	4242.811517
501.301226	4280.156385
501.667390	4373.629460
502.033497	4456.727840
502.399546	4479.995285
502.765537	4514.701109
503.131470	4591.926545
503.497345	4694.453532
503.863163	4657.897604
504.228923	4795.689983
504.594625	4872.033217
504.960269	4867.168503
505.325856	4989.000589
505.691385	4999.098020
506.056856	5102.421509
506.422270	5179.102501
506.787625	5200.028330
507.152924	5309.456657
507.518164	5358.282752
507.883347	5402.740688
508.248472	5443.016987
508.613540	5593.003917
508.978550	5627.162775
509.343503	5675.635990
509.708398	5793.747704
510.073236	5905.868007
510.438016	5977.626311
510.802738	6027.939547
511.167403	6117.641838
511.532010	6156.385626
511.896561	6307.020344
512.261053	6413.633187
512.625488	6434.397699
512.989866	6500.025961
513.354186	6564.774541
513.718449	6594.023315
514.082655	6747.536532
514.446803	6780.437623
514.810894	6902.115953
515.174927	6923.520692
515.538904	6988.881773
515.902822	7147.042933
516.266684	7150.841443
516.630488	7201.918413
516.994235	7290.012577
517.357925	7411.741319
517.721558	7522.298864
518.085133	7616.669264
518.448651	7680.369284
518.812112	7688.823299
519.175516	7776.816639
519.538863	7914.838390
519.902152	7920.819719
520.265385	8103.276721
520.628560	8103.823686
520.991678	8168.509252
521.354739	8264.308819
521.717743	8286.958723
522.080690	8331.046134
522.443580	8500.194490
522.806413	8535.895941
523.169189	8615.878888
523.531908	8723.507523
523.894569	8660.614088
524.257174	8728.868790
524.619722	8870.321046
524.982213	8878.104588
525.344647	8989.763625
525.707025	9011.853961
526.069345	9140.458837
526.431608	9148.287749
526.793815	9282.337071
527.155964	9177.138272
527.518057	9268.695708
527.880093	9283.877143
528.242072	9385.247185
528.603995	9370.801759
528.965860	9358.576961
529.327669	9452.841497
529.689421	9451.760169
530.051117	9482.808636
530.412755	9619.141600
530.774337	9567.232839
531.135862	9606.425290
531.497331	9658.553341
531.858743	9586.716899
532.220098	9766.325649
532.581396	9703.303664
532.942638	9721.461900
533.303824	9727.707890
533.664953	9786.086972
534.026025	9753.591694
534.387040	9869.933963
534.747999	9908.841588
535.108902	9989.742025
535.469748	9822.819339
535.830537	9937.926526
536.191270	9955.799937
536.551947	10008.376651
536.912567	10033.645434
537.273131	10003.905147
537.633638	10007.600313
537.994089	10034.938490
538.354483	10020.177992
538.714821	10169.469242
539.075103	10208.132372
539.435328	10201.319252
539.795497	10059.657788
540.155609	10231.919056
540.515665	10336.598616
540.875665	10117.837745
541.235609	10201.956958
541.595496	10218.612931
541.955328	10384.900431
542.315102	10290.093972
542.674821	10273.894224
543.034483	10282.055852
543.394090	10304.995622
543.753640	10252.050904
544.113134	10487.792902
544.472571	10358.625937
544.831953	10516.298106
545.191278	10347.308547
545.550548	10383.204083
545.909761	10531.406444
546.268918	10517.470175
546.628019	10609.937539
546.987064	10495.112657
547.346053	10431.021948
547.704986	10545.307426
548.063863	10539.608402
548.422684	10540.261231
548.781449	10472.356889
549.140158	10582.286810
549.498811	10468.669285
549.857408	10342.267393
550.215949	10568.756353
550.574434	10441.363875
550.932864	10541.375326
551.291237	10597.926990
551.649555	10557.083562
552.007817	10578.324463
552.366022	10548.727849
552.724173	10552.627182
553.082267	10536.427434
553.440305	10680.801039
553.798288	10489.718623
554.156215	10637.326128
554.514086	10626.739705
554.871902	10482.824845
555.229661	10526.521566
555.587365	10502.122382
555.945014	10407.459595
556.302606	10537.254183
556.660143	10427.294015
557.017625	10590.471123
557.375050	10489.605197
557.732421	10621.350711
558.089735	10529.679849
558.446994	10543.157374
558.804197	10585.225803
559.161345	10584.141955
559.518437	10439.982599
559.875474	10529.747905
560.232455	10564.259644
560.589381	10512.701243
560.946251	10509.933650
561.303065	10619.820721
561.659825	10561.262678
562.016528	10489.910187
562.373177	10371.422907
562.729770	10486.575463
563.086307	10408.490511
563.442789	10496.070477
563.799216	10378.324246
564.155587	10423.175392
564.511904	10386.261543
564.868164	10376.501869
565.224370	10384.736594
565.580520	10318.745369
565.936615	10321.520525
566.292654	10193.046719
566.648638	10325.770217
567.004567	10292.097830
567.360441	10273.899265
567.716260	10178.261015
568.072023	10274.864646
568.427732	10231.782945
568.783385	10140.706939
569.138982	10210.395850
569.494525	10226.943437
569.850013	10102.961300
570.205445	10187.597232
570.560823	10081.856509
570.916145	9997.515485
571.271412	10077.816024
571.626625	10021.317292
571.981782	9995.136060
572.336884	9969.539601
572.691931	9976.113266
573.046923	9923.017313
573.401860	9882.430983
573.756743	9817.125356
574.111570	9861.142191
574.466342	9842.396660
574.821059	9874.372699
575.175722	9764.077294
575.530330	9779.898955
575.884882	9771.271021
576.239380	9696.127581
576.593823	9676.109159
576.948211	9697.166059
577.302544	9570.146626
577.656823	9591.770656
578.011047	9592.667981
578.365216	9558.710769
578.719330	9491.423968
579.073389	9502.811934
579.427394	9451.669428
579.781344	9421.200695
580.135239	9376.281493
580.489080	9378.950784
580.842866	9281.782544
581.196597	9286.584243
581.550273	9336.221964
581.903895	9302.476480
582.257463	9368.563487
582.610975	9245.733253
582.964434	9271.390205
583.317837	9191.094707
583.671186	9175.938478
584.024481	9173.049897
584.377721	9091.108461
584.730906	9066.489987
585.084037	9098.443340
585.437113	9041.092653
585.790135	9055.520436
586.143103	8952.547307
586.496016	8926.686187
586.848874	8988.762956
587.201679	8977.506059
587.554428	8867.445068
587.907124	8909.979804
588.259765	8877.003096
588.612352	8883.909477
588.964884	8756.181762
589.317362	8770.906972
589.669786	8774.259339
590.022155	8823.546700
590.374470	8834.022218
590.726731	8777.397457
591.078937	8632.890262
591.431090	8740.584432
591.783188	8612.682797
592.135232	8604.700130
592.487222	8600.168132
592.839157	8657.801124
593.191038	8588.918798
593.542866	8534.996095
593.894639	8435.715612
594.246358	8488.982964
594.598022	8508.613217
594.949633	8404.132783
595.301190	8379.509267
595.652692	8404.047083
596.004141	8519.476903
596.355535	8295.626987
596.706876	8281.413454
597.058162	8216.435502
597.409395	8290.671533
597.760573	8344.868978
598.111698	8259.739013
598.462768	8243.972804
598.813785	8213.713278
599.164748	8182.311931
599.515657	8167.566556
599.866511	8082.804595
600.217312	8198.927574
600.568060	8067.852533
600.918753	8166.167636
601.269392	8140.394737
601.619978	8054.087662
601.970510	8116.968495
602.320988	8114.667208
602.671412	8168.403388
603.021783	8102.369313
603.372100	8075.835200
603.722363	8076.737567
604.072572	8055.332827
604.422728	8071.817401
604.772830	7995.272521
605.122878	8002.050352
605.472872	8001.649580
605.822813	8028.481122
606.172701	7974.205539
606.522534	8047.713123
606.872314	8048.005510
607.222041	8021.567179
607.571714	8073.523831
607.921333	8030.900875
608.270899	8037.192235
608.620411	8124.925956
608.969870	8026.973817
609.319276	8021.859566
609.668627	8040.950416
610.017926	8076.677073
610.367171	8121.513095
610.716362	8104.935261
611.065500	8091.813137
611.414585	8117.575954
611.763616	8105.230168
612.112594	8090.552849
612.461518	8104.693285
612.810389	8163.389960
613.159207	8101.179601
613.507971	8046.248668
613.856682	8168.244591
614.205340	8124.058878
614.553945	8203.273049
614.902496	8105.580528
615.250994	8159.087335
615.599439	8139.598235
615.947830	8148.019482
616.296169	8124.638611
616.644454	8135.988768
616.992686	8131.635732
617.340864	8194.738375
617.688990	8096.337573
618.037063	8191.144033
618.385082	8138.789129
618.733048	8215.127322
619.080961	8162.550608
619.428821	8180.242537
619.776628	8182.014503
620.124382	8134.756206
620.472083	8116.681149
620.819731	8143.701734
621.167326	8038.974283
621.514868	8045.837814
621.862357	7933.004188
622.209793	7953.662837
622.557176	7887.664051
622.904506	7857.296140
623.251783	7797.107283
623.599007	7746.693224
623.946179	7750.756394
624.293297	7706.900877
624.640363	7626.544884
624.987376	7611.630631
625.334336	7559.006026
625.681243	7501.693147
626.028097	7492.528330
626.374899	7472.411605
626.721647	7462.893907
627.068343	7394.848412
627.414987	7373.138683
627.761577	7331.549164
628.108115	7362.103598
628.454600	7251.261227
628.801032	7307.933879
629.147412	7269.374093
629.493739	7254.389263
629.840014	7190.041455
630.186236	7253.169304
630.532405	7131.115408
630.878521	7185.930394
631.224585	7142.810885
631.570597	7073.237920
631.916556	7093.362207
632.262462	7095.703822
632.608316	7058.764768
632.954117	7036.616458
633.299866	7023.050713
633.645562	7011.246852
633.991206	6934.346570
634.336797	6877.053857
634.682336	6838.438618
635.027823	6801.305479
635.373257	6794.661238
635.718639	6727.538275
636.063968	6739.460604
636.409245	6633.203163
636.754470	6631.700899
637.099642	6590.555001
637.444762	6534.474685
637.789829	6549.590585
638.134845	6489.545402
638.479808	6472.919676
638.824719	6480.617518
639.169577	6401.862092
639.514383	6426.021822
639.859137	6357.678899
640.203839	6369.659202
640.548489	6352.622622
640.893086	6327.126987
641.237632	6295.811339
641.582125	6317.785728
641.926566	6292.705988
642.270955	6297.941226
642.615292	6298.125228
642.959576	6309.437578
