Dividing Wavelength (nm)	Counts (n)	Blue Motor Position (mm): 34.800000	Red Motor Position (mm): 0.000000	
326.493990	2132.385392
326.888308	2132.385392
327.282561	2132.385392
327.676750	2098.793663
328.070874	2095.826944
328.464933	2102.140989
328.858929	2105.770620
329.252859	2113.821343
329.646726	2129.048148
330.040528	2137.532410
330.434265	2158.611995
330.827938	2173.422905
331.221547	2191.782787
331.615091	2211.738194
332.008571	2229.921636
332.401986	2252.616911
332.795338	2270.533172
333.188625	2292.129475
333.581847	2306.050621
333.975006	2325.232212
334.368100	2345.454800
334.761129	2363.154291
335.154095	2377.032588
335.546996	2398.465053
335.939833	2426.163673
336.332606	2440.974583
336.725315	2452.453291
337.117960	2463.682461
337.510540	2472.741414
337.903056	2482.165851
338.295508	2487.701038
338.687896	2495.504744
339.080220	2507.772392
339.472480	2514.519977
339.864676	2516.808661
340.256807	2520.781090
340.648875	2523.286543
341.040879	2524.098169
341.432818	2528.199148
341.824694	2526.832995
342.216506	2527.289219
342.608253	2529.724097
342.999937	2530.583613
343.391557	2529.073788
343.783113	2526.689322
344.174605	2528.403314
344.566033	2525.088756
344.957397	2521.993487
345.348697	2523.790659
345.739934	2520.266892
346.131106	2520.947448
346.522215	2517.895029
346.913260	2513.950326
347.304241	2514.656088
347.695159	2511.923783
348.086012	2509.345232
348.476802	2508.316837
348.867528	2504.906496
349.258191	2505.221568
349.648789	2506.149141
350.039324	2501.080261
350.429796	2503.283245
350.820203	2500.724859
351.210548	2501.201248
351.600828	2499.025990
351.991045	2497.614467
352.381198	2496.475167
352.771288	2496.235712
353.161314	2499.482215
353.551276	2500.142606
353.941175	2496.016422
354.331010	2496.815444
354.720782	2496.815444
355.110490	2498.428614
355.500135	2497.130517
355.889717	2497.291833
356.279235	2495.298057
356.668689	2499.744355
357.058080	2496.054230
357.447408	2497.448109
357.836672	2493.248828
358.225873	2496.661689
358.615010	2495.265290
359.004084	2499.457009
359.393095	2497.039776
359.782043	2499.207472
360.170927	2500.283758
360.559748	2500.679489
360.948505	2502.138903
361.337199	2503.701661
361.725830	2501.110508
362.114398	2503.404233
362.502903	2505.622340
362.891344	2504.974552
363.279722	2502.141423
363.668037	2504.800632
364.056289	2505.592093
364.444478	2507.543020
364.832603	2507.051507
365.220665	2505.869357
365.608665	2504.931702
365.996601	2507.800119
366.384474	2508.258864
366.772284	2509.246930
367.160031	2509.108298
367.547715	2509.403206
367.935336	2509.067969
368.322893	2509.945130
368.710388	2510.403875
369.097820	2512.642147
369.485189	2510.280366
369.872495	2512.304390
370.259738	2510.870181
370.646918	2510.363545
371.034035	2512.198525
371.421090	2513.128618
371.808081	2512.690038
372.195010	2512.425377
372.581875	2512.765655
372.968678	2514.257837
373.355418	2512.664832
373.742096	2514.421674
374.128710	2514.593073
374.515262	2516.289422
374.901751	2514.749349
375.288177	2516.175996
375.674540	2515.840759
376.060841	2516.599453
376.447079	2517.015348
376.833254	2515.238341
377.219367	2510.300531
377.605417	2513.272291
377.991404	2513.980573
378.377329	2514.608197
378.763191	2512.231293
379.148991	2515.613907
379.534727	2517.819412
379.920402	2519.125071
380.306013	2516.007117
380.691563	2518.021058
381.077049	2519.498116
381.462474	2518.131963
381.847835	2519.077180
382.233134	2521.391069
382.618371	2517.524504
383.003545	2521.232273
383.388657	2519.392252
383.773706	2519.614063
384.158693	2519.916532
384.543618	2521.388549
384.928480	2521.799403
385.313280	2520.644979
385.698017	2522.096831
386.082692	2523.941893
386.467305	2522.853004
386.851856	2521.229752
387.236344	2521.229753
387.620770	2525.416431
388.005133	2525.799558
388.389435	2525.494569
388.773674	2524.947603
389.157851	2521.993487
389.541965	2525.774353
389.926018	2525.025741
390.310008	2523.367202
390.693936	2526.618746
391.077802	2525.035824
391.461606	2527.279137
391.845348	2528.771319
392.229027	2528.287368
392.612645	2527.765608
392.996200	2528.920033
393.379694	2530.697039
393.763125	2530.586134
394.146494	2531.165867
394.529801	2530.513037
394.913047	2528.506658
395.296230	2530.770136
395.679351	2532.494211
396.062410	2533.076464
396.445408	2532.184180
396.828343	2533.477236
397.211217	2528.799045
397.594028	2530.573531
397.976778	2529.885414
398.359466	2532.763913
398.742092	2530.384488
399.124656	2536.953111
399.507158	2534.646783
399.889598	2536.219623
400.271977	2535.907072
400.654294	2537.656352
401.036549	2536.716177
401.418742	2537.926054
401.800874	2540.852444
402.182944	2538.712474
402.564952	2539.660211
402.946898	2540.623071
403.328783	2541.550644
403.710606	2547.312682
404.092367	2547.622713
404.474067	2552.162272
404.855705	2553.145297
405.237282	2560.996895
405.618797	2563.651062
406.000250	2569.342525
406.381642	2578.991293
406.762972	2586.411872
407.144240	2596.947883
407.525447	2606.412650
407.906593	2614.879267
408.287677	2629.533902
408.668700	2640.568987
409.049661	2655.634476
409.430560	2671.390602
409.811399	2684.416944
410.192176	2710.764534
410.572891	2722.374312
410.953545	2750.609814
411.334138	2760.815630
411.714669	2786.482665
412.095139	2797.169911
412.475547	2835.701971
412.855894	2855.027234
413.236180	2883.872716
413.616405	2900.901734
413.996568	2937.203083
414.376670	2957.846608
414.756711	2977.655822
415.136691	3014.478930
415.516609	3058.699932
415.896466	3101.169132
416.276262	3143.618168
416.655997	3171.253773
417.035670	3255.136053
417.415283	3322.380004
417.794834	3344.578725
418.174324	3369.552601
418.553753	3378.349415
418.933121	3483.218018
419.312428	3552.443142
419.691674	3577.089343
420.070859	3668.654341
420.449983	3678.837472
420.829045	3775.073099
421.208047	3776.298099
421.586988	3861.705328
421.965867	3911.655601
422.344686	4033.981719
422.723444	4005.221937
423.102141	3949.857464
423.480777	4155.745749
423.859352	4077.461671
424.237866	4275.236219
424.616319	4317.536541
424.994712	4429.833284
425.373044	4399.288933
425.751314	4542.676992
426.129524	4459.923931
426.507673	4636.548318
426.885762	4733.892999
427.263789	4735.289398
427.641756	4686.410371
428.019662	4819.108663
428.397508	4866.303946
428.775292	4871.415676
429.153016	4987.276514
429.530679	4964.246003
429.908282	5071.340275
430.285824	4995.170961
430.663305	5260.746508
431.040726	5074.158280
431.418086	5103.714565
431.795385	5218.234457
432.172624	5262.828504
432.549802	5281.639570
432.926920	5323.201363
433.303977	5354.980797
433.680974	5411.300567
434.057910	5450.220796
434.434786	5479.285568
434.811601	5471.020596
435.188355	5711.400456
435.565050	5613.443275
435.941683	5604.260813
436.318257	5833.487120
436.694770	5827.563764
437.071222	5877.123347
437.447614	5829.126522
437.823946	5757.297641
438.200218	5913.512916
438.576429	5793.798115
438.952580	5904.375825
439.328670	5956.899607
439.704700	5873.103027
440.080670	5865.871492
440.456580	6134.847297
440.832429	6028.456265
441.208218	5885.647938
441.583947	6042.609305
441.959616	6050.052568
442.335224	5983.307691
442.710773	6116.774760
443.086261	6146.434389
443.461689	5945.836795
443.837057	6098.603921
444.212365	6251.179483
444.587612	6150.323639
444.962800	6302.352236
445.337927	6285.658455
445.712995	5900.050515
446.088002	6475.470500
446.462949	6307.433719
446.837837	6241.235807
447.212664	6411.009266
447.587431	6555.085443
447.962139	7097.165757
448.336786	8019.386880
448.711374	7764.445648
449.085901	6838.315110
449.460369	6764.043790
449.834776	6697.137597
450.209124	7088.300888
450.583412	7242.189671
450.957640	7385.295426
451.331808	7154.571897
451.705917	6702.335026
452.079965	6626.170753
452.453954	6838.632703
452.827883	6716.881276
453.201752	6809.036088
453.575562	6613.109124
453.949311	6813.961296
454.323001	6702.037598
454.696632	6778.060719
455.070202	6915.853097
455.443713	7068.499236
455.817164	7170.874988
456.190556	7251.752740
456.563888	7331.433218
456.937160	7374.681276
457.310373	7032.780140
457.683526	7054.086577
458.056619	6947.264527
458.429653	6928.632422
458.802628	6867.037084
459.175542	6975.137067
459.548398	7333.759710
459.921194	7494.131417
460.293930	7493.259297
460.666607	8018.247579
461.039224	8326.688057
461.411782	8456.492727
461.784280	8467.396743
462.156719	8362.752471
462.529099	8243.556909
462.901419	7829.073240
463.273680	7726.773105
463.645882	7738.645022
464.018024	7605.268694
464.390106	7771.455372
464.762130	8160.103128
465.134094	8621.797203
465.505999	9649.549840
465.877845	10863.220232
466.249631	11511.321053
466.621358	11128.460541
466.993026	10498.422175
467.364634	10243.942208
467.736184	9882.804029
468.107674	9554.876971
468.479105	9587.954502
468.850477	9347.070527
469.221790	9121.650292
469.593043	8795.079305
469.964238	8650.259557
470.335373	8667.850664
470.706449	8727.469870
471.077467	8709.397333
471.448425	10014.733546
471.819324	11083.899262
472.190164	11095.083062
472.560945	9861.784938
472.931667	9071.231192
473.302330	8933.509389
473.672934	8588.041637
474.043479	8941.338301
474.413965	8882.109785
474.784393	8764.280375
475.154761	8917.503726
475.525070	9007.314402
475.895321	8836.283176
476.265513	9014.392182
476.635645	9184.097585
477.005719	9182.275208
477.375734	9297.677302
477.745691	9528.534422
478.115588	9662.311521
478.485427	9904.319673
478.855207	10448.071130
479.224928	11255.051476
479.594591	11882.581869
479.964194	11689.702281
480.333739	11633.642130
480.703226	11545.926053
481.072653	11634.017696
481.442022	11879.763864
481.811333	12062.810680
482.180584	11868.713654
482.549777	11580.100035
482.918912	11402.585885
483.287988	11421.757393
483.657005	11431.872468
484.025964	11115.240115
484.394864	11253.279511
484.763706	11226.367311
485.132489	10977.321708
485.501213	10944.009763
485.869879	11018.848213
486.238487	10861.904491
486.607036	10972.459515
486.975527	10748.476008
487.343959	10948.546802
487.712333	10991.396609
488.080648	10924.815570
488.448905	10967.614966
488.817104	10901.729606
489.185244	11168.535194
489.553326	11325.120994
489.921350	11863.296935
490.289315	12924.358996
490.657222	13262.214606
491.025070	13167.408147
491.392861	13045.928942
491.760593	12662.624809
492.128267	12318.487921
492.495883	11987.836120
492.863440	11652.785912
493.230939	11316.888790
493.598380	11253.957546
493.965763	11122.932916
494.333088	11020.849551
494.700354	10942.033631
495.067563	11003.044195
495.434713	10837.255769
495.801805	10956.602566
496.168839	10884.597245
496.535815	10819.004271
496.902733	10826.336630
497.269593	10756.642678
497.636395	10859.580519
498.003139	10839.491521
498.369825	10710.001922
498.736453	10872.488393
499.103023	10796.669439
499.469535	10821.660959
499.835989	10813.118724
500.202385	10774.901737
500.568723	10631.496033
500.935003	10851.658345
501.301226	10658.599797
501.667390	10912.820144
502.033497	11008.919660
502.399546	10872.087621
502.765537	10775.373085
503.131470	10850.009888
503.497345	11029.323730
503.863163	10637.439554
504.228923	10943.190576
504.594625	11014.621205
504.960269	10757.890363
505.325856	10978.730710
505.691385	10770.969637
506.056856	10926.143914
506.422270	10952.229365
506.787625	10836.708804
507.152924	10951.067379
507.518164	10927.923441
507.883347	10851.648263
508.248472	10777.548343
508.613540	11012.211534
508.978550	10898.904039
509.343503	10871.906140
509.708398	10991.104223
510.073236	11094.044584
510.438016	11104.502458
510.802738	11052.507997
511.167403	11109.949424
511.532010	11003.087045
511.896561	11241.009342
512.261053	11307.484517
512.625488	11179.663541
512.989866	11159.256950
513.354186	11145.033335
513.718449	11050.957842
514.082655	11238.521533
514.446803	11139.604012
514.810894	11258.270253
515.174927	11120.588780
515.538904	11146.916206
515.902822	11303.912860
516.266684	11181.276710
516.630488	11128.674790
516.994235	11184.399705
517.357925	11250.345559
517.721558	11337.746564
518.085133	11350.457833
518.448651	11363.181706
518.812112	11248.389591
519.175516	11258.232444
519.538863	11381.914633
519.902152	11294.198556
520.265385	11452.647063
520.628560	11371.839887
520.991678	11347.803666
521.354739	11409.744323
521.717743	11338.694301
522.080690	11322.615541
522.443580	11461.824483
522.806413	11410.404714
523.169189	11440.455032
523.531908	11505.569096
523.894569	11320.873822
524.257174	11328.307003
524.619722	11442.176586
524.982213	11391.679348
525.344647	11436.638879
525.707025	11392.669935
526.069345	11488.136786
526.431608	11408.388253
526.793815	11509.884324
527.155964	11301.664505
527.518057	11356.963442
527.880093	11303.668364
528.242072	11370.713189
528.603995	11275.974785
528.965860	11200.049967
529.327669	11254.696075
529.689421	11195.928824
530.051117	11165.608804
530.412755	11271.863724
530.774337	11164.824905
531.135862	11148.463840
531.497331	11167.443784
531.858743	11018.379385
532.220098	11182.849550
532.581396	11054.484129
532.942638	11047.292923
533.303824	11005.935297
533.664953	11017.746721
534.026025	10929.846642
534.387040	11034.783300
534.747999	11033.318845
535.108902	11095.705644
535.469748	10855.429128
535.830537	10950.321288
536.191270	10926.731208
536.551947	10956.905035
536.912567	10956.597524
537.273131	10878.658765
537.633638	10857.538851
537.994089	10849.591472
538.354483	10795.396548
538.714821	10949.239960
539.075103	10948.549322
539.435328	10913.873746
539.795497	10738.383618
540.155609	10899.226673
540.515665	10986.622637
540.875665	10722.904756
541.235609	10796.946703
541.595496	10786.030084
541.955328	10941.267376
542.315102	10821.872688
542.674821	10779.247212
543.034483	10773.439802
543.394090	10778.803590
543.753640	10706.871366
544.113134	10929.579460
544.472571	10786.176278
544.831953	10928.344378
545.191278	10731.094110
545.550548	10761.981260
545.909761	10902.364791
546.268918	10872.354803
546.628019	10958.785385
546.987064	10821.134159
547.346053	10746.595658
547.704986	10842.377581
548.063863	10829.583133
548.422684	10818.800105
548.781449	10735.129554
549.140158	10841.812972
549.498811	10717.437624
549.857408	10578.276572
550.215949	10800.941817
550.574434	10657.979735
550.932864	10758.228121
551.291237	10815.293982
551.649555	10760.957905
552.007817	10777.508013
552.366022	10739.177600
552.724173	10732.818185
553.082267	10710.127951
553.440305	10854.005003
553.798288	10649.006481
554.156215	10799.782352
554.514086	10785.767944
554.871902	10635.314708
555.229661	10666.211939
555.587365	10648.704012
555.945014	10538.854749
556.302606	10668.634214
556.660143	10553.441328
557.017625	10713.777747
557.375050	10607.595923
557.732421	10742.464433
558.089735	10660.888481
558.446994	10648.305761
558.804197	10692.824191
559.161345	10697.580519
559.518437	10547.563343
559.875474	10632.859666
560.232455	10666.910139
560.589381	10616.881728
560.946251	10608.518454
561.303065	10717.659435
561.659825	10652.318519
562.016528	10589.087327
562.373177	10462.138470
562.729770	10581.210524
563.086307	10493.217183
563.442789	10588.615979
563.799216	10459.287698
564.155587	10511.009936
564.511904	10471.328493
564.868164	10457.006575
565.224370	10470.869748
565.580520	10398.216639
565.936615	10404.863401
566.292654	10268.122102
566.648638	10404.623946
567.004567	10362.976453
567.360441	10348.944402
567.716260	10257.835628
568.072023	10349.866933
568.427732	10299.765425
568.783385	10213.455830
569.138982	10277.642322
569.494525	10298.671495
569.850013	10168.816413
570.205445	10250.883877
570.560823	10146.045521
570.916145	10070.110621
571.271412	10142.761209
571.626625	10082.431201
571.981782	10064.545187
572.336884	10036.281958
572.691931	10036.959993
573.046923	9984.305141
573.401860	9938.609602
573.756743	9879.923009
574.111570	9921.114277
574.466342	9905.393439
574.821059	9927.075442
575.175722	9832.652110
575.530330	9835.966668
575.884882	9824.752622
576.239380	9755.073793
576.593823	9731.793745
576.948211	9747.297813
577.302544	9626.743660
577.656823	9644.387699
578.011047	9646.479778
578.365216	9619.353329
578.719330	9546.276763
579.073389	9553.878823
579.427394	9500.936625
579.781344	9480.106577
580.135239	9429.669833
580.489080	9442.378582
580.842866	9336.957973
581.196597	9343.425773
581.550273	9379.969097
581.903895	9356.719296
582.257463	9415.206763
582.610975	9299.540008
582.964434	9322.923400
583.317837	9243.857943
583.671186	9230.042661
584.024481	9226.223987
584.377721	9142.649218
584.730906	9119.898491
585.084037	9154.289243
585.437113	9083.143438
585.790135	9108.850802
586.143103	9000.017332
586.496016	8978.768868
586.848874	9030.682671
587.201679	9022.929376
587.554428	8909.856295
587.907124	8961.825550
588.259765	8930.651055
588.612352	8933.857229
588.964884	8810.227972
589.317362	8817.628386
589.669786	8820.078387
590.022155	8871.881283
590.374470	8885.419302
590.726731	8822.936721
591.078937	8675.089761
591.431090	8785.163355
591.783188	8661.513933
592.135232	8651.741657
592.487222	8649.899115
592.839157	8703.771406
593.191038	8636.222465
593.542866	8583.343281
593.894639	8480.367632
594.246358	8535.573308
594.598022	8546.222745
594.949633	8450.208929
595.301190	8431.299561
595.652692	8450.642468
596.004141	8567.461126
596.355535	8339.913524
596.706876	8321.851070
597.058162	8253.246007
597.409395	8330.713418
597.760573	8393.606853
598.111698	8305.510169
598.462768	8293.504662
598.813785	8253.583764
599.164748	8224.382881
599.515657	8212.992393
599.866511	8120.283054
600.217312	8251.068228
600.568060	8108.038091
600.918753	8212.707568
601.269392	8188.257972
601.619978	8092.024866
601.970510	8163.359713
602.320988	8151.301273
602.671412	8207.903349
603.021783	8150.242631
603.372100	8116.267775
603.722363	8120.396480
604.072572	8100.030218
604.422728	8111.972712
604.772830	8039.637195
605.122878	8044.194398
605.472872	8043.695324
605.822813	8074.680776
606.172701	8007.953543
606.522534	8086.661078
606.872314	8094.132068
607.222041	8056.212509
607.571714	8114.243751
607.921333	8069.231289
608.270899	8078.481806
608.620411	8166.376844
608.969870	8069.679951
609.319276	8065.420176
609.668627	8080.717558
610.017926	8113.989173
610.367171	8168.058069
610.716362	8141.050087
611.065500	8129.881411
611.414585	8157.441399
611.763616	8147.212897
612.112594	8125.457798
612.461518	8141.836507
612.810389	8205.662556
613.159207	8144.190726
613.507971	8089.617715
613.856682	8211.590953
614.205340	8166.155033
614.553945	8249.195440
614.902496	8145.304821
615.250994	8195.255094
615.599439	8181.830501
615.947830	8185.782766
616.296169	8164.362903
616.644454	8180.497116
616.992686	8172.572422
617.340864	8230.384374
617.688990	8139.162175
618.037063	8229.129127
618.385082	8177.744646
618.733048	8268.301413
619.080961	8202.083337
619.428821	8219.316521
619.776628	8222.099238
620.124382	8171.123090
620.472083	8157.950555
620.819731	8188.613373
621.167326	8080.321827
621.514868	8085.899864
621.862357	7975.377607
622.209793	7990.788414
622.557176	7930.647449
622.904506	7893.148826
623.251783	7830.187335
623.599007	7784.577496
623.946179	7783.844008
624.293297	7743.613079
624.640363	7662.652149
624.987376	7648.541959
625.334336	7597.303671
625.681243	7542.140845
626.028097	7531.786315
626.374899	7508.712954
626.721647	7496.099987
627.068343	7436.667304
627.414987	7407.673108
627.761577	7355.902978
628.108115	7395.962507
628.454600	7290.413349
628.801032	7340.756832
629.147412	7305.254506
629.493739	7294.473998
629.840014	7229.773309
630.186236	7287.083667
630.532405	7170.413722
630.878521	7215.489200
631.224585	7179.170207
631.570597	7101.768331
631.916556	7136.809391
632.262462	7128.660366
632.608316	7093.551250
632.954117	7069.492343
633.299866	7057.214613
633.645562	7041.284567
633.991206	6966.579708
634.336797	6913.312356
634.682336	6869.587908
635.027823	6835.653381
635.373257	6827.983265
635.718639	6757.714622
636.063968	6774.748681
636.409245	6669.917886
636.754470	6667.266239
637.099642	6625.419621
637.444762	6566.196146
637.789829	6579.172076
638.134845	6513.702611
638.479808	6501.452607
638.824719	6509.906622
639.169577	6434.160765
639.514383	6453.899403
639.859137	6387.900617
640.203839	6389.849023
640.548489	6376.144646
