Dividing Wavelength (nm)	Counts (n)	Blue Motor Position (mm): 44.800000	Red Motor Position (mm): 0.000000	
326.493990	2128.430607
326.888308	2128.430607
327.282561	2128.430607
327.676750	2097.815679
328.070874	2095.305185
328.464933	2098.758375
328.858929	2105.639550
329.252859	2116.286467
329.646726	2124.574124
330.040528	2139.017030
330.434265	2154.997487
330.827938	2174.892401
331.221547	2190.441840
331.615091	2209.694007
332.008571	2229.825854
332.401986	2248.946951
332.795338	2269.204828
333.188625	2288.061264
333.581847	2308.732515
333.975006	2322.885554
334.368100	2345.381703
334.761129	2362.521627
335.154095	2376.664584
335.546996	2397.726524
335.939833	2424.903385
336.332606	2441.067845
336.725315	2452.793568
337.117960	2462.273458
337.510540	2470.538430
337.903056	2478.180819
338.295508	2488.777325
338.687896	2498.426093
339.080220	2505.327433
339.472480	2510.446724
339.864676	2516.473424
340.256807	2521.771677
340.648875	2521.907788
341.040879	2524.425844
341.432818	2526.616225
341.824694	2528.395753
342.216506	2530.878521
342.608253	2528.549508
342.999937	2530.167718
343.391557	2531.233922
343.783113	2530.145033
344.174605	2528.347862
344.566033	2526.412059
344.957397	2527.087573
345.348697	2521.496934
345.739934	2523.294105
346.131106	2517.290091
346.522215	2519.735050
346.913260	2515.089627
347.304241	2511.815398
347.695159	2511.502846
348.086012	2511.318844
348.476802	2509.693072
348.867528	2508.563853
349.258191	2507.048987
349.648789	2506.479336
350.039324	2503.578152
350.429796	2504.016733
350.820203	2502.206958
351.210548	2501.009684
351.600828	2499.396515
351.991045	2500.016577
352.381198	2497.354848
352.771288	2497.559015
353.161314	2498.852071
353.551276	2498.413490
353.941175	2497.422903
354.331010	2499.300733
354.720782	2496.593634
355.110490	2499.693943
355.500135	2496.709580
355.889717	2496.233191
356.279235	2497.352327
356.668689	2499.978768
357.058080	2499.424242
357.447408	2497.175887
357.836672	2494.751092
358.225873	2499.381392
358.615010	2497.271669
359.004084	2500.863491
359.393095	2500.238388
359.782043	2504.311640
360.170927	2502.259891
360.559748	2503.817607
360.948505	2505.559326
361.337199	2505.682834
361.725830	2505.609737
362.114398	2503.452123
362.502903	2506.723832
362.891344	2505.559326
363.279722	2509.219203
363.668037	2507.225427
364.056289	2509.904800
364.444478	2509.342712
364.832603	2510.426560
365.220665	2510.335819
365.608665	2510.812208
365.996601	2511.326406
366.384474	2511.724657
366.772284	2511.596108
367.160031	2515.676922
367.547715	2513.179030
367.935336	2514.860255
368.322893	2513.047960
368.710388	2513.110974
369.097820	2518.021058
369.485189	2516.773373
369.872495	2514.139370
370.259738	2514.136849
370.646918	2516.453259
371.034035	2515.664319
371.421090	2517.653054
371.808081	2516.670029
372.195010	2518.568023
372.581875	2518.368898
372.968678	2516.607014
373.355418	2520.934845
373.742096	2521.254958
374.128710	2524.415762
374.515262	2525.066071
374.901751	2526.401976
375.288177	2526.966586
375.674540	2530.699560
376.060841	2533.807431
376.447079	2537.331198
376.833254	2543.829245
377.219367	2546.828732
377.605417	2557.725186
377.991404	2563.764488
378.377329	2574.073648
378.763191	2581.784092
379.148991	2597.915785
379.534727	2613.064452
379.920402	2626.725979
380.306013	2638.741569
380.691563	2661.270486
381.077049	2678.954853
381.462474	2694.297605
381.847835	2718.172510
382.233134	2739.385685
382.618371	2751.900350
383.003545	2791.566669
383.388657	2808.673824
383.773706	2841.375789
384.158693	2862.253728
384.543618	2893.299674
384.928480	2928.643203
385.313280	2969.474029
385.698017	2989.953717
386.082692	3040.145965
386.467305	3059.211609
386.851856	3099.243411
387.236344	3131.622742
387.620770	3174.865760
388.005133	3215.225238
388.389435	3253.167482
388.773674	3281.465999
389.157851	3328.343689
389.541965	3363.455326
389.926018	3354.451825
390.310008	3429.398659
390.693936	3462.503916
391.077802	3513.974097
391.461606	3522.783513
391.845348	3594.980398
392.229027	3608.301647
392.612645	3638.483035
392.996200	3721.707444
393.379694	3768.907768
393.763125	3843.632791
394.146494	3827.465811
394.529801	3899.758478
394.913047	3954.008855
395.296230	3935.051596
395.679351	3998.955782
396.062410	4028.108775
396.445408	4020.577291
396.828343	4056.921490
397.211217	4088.627827
397.594028	4021.772045
397.976778	4094.034464
398.359466	4123.931027
398.742092	4155.745749
399.124656	4081.983586
399.507158	4165.439888
399.889598	4193.738405
400.271977	4253.740739
400.654294	4225.497674
401.036549	4241.359665
401.418742	4212.894790
401.800874	4310.529337
402.182944	4332.155887
402.564952	4401.260024
402.946898	4385.771079
403.328783	4382.552302
403.710606	4297.414775
404.092367	4491.892408
404.474067	4456.712716
404.855705	4466.348882
405.237282	4393.947830
405.618797	4504.417155
406.000250	4539.488462
406.381642	4618.543837
406.762972	4581.103187
407.144240	4590.555351
407.525447	4588.576698
407.906593	4650.529958
408.287677	4695.539900
408.668700	4624.689003
409.049661	4675.309750
409.430560	4712.115214
409.811399	4640.309019
410.192176	4802.770284
410.572891	4746.755503
410.953545	4847.308878
411.334138	4723.452769
411.714669	4793.345847
412.095139	4687.358107
412.475547	4830.448739
412.855894	4809.638856
413.236180	4821.258715
413.616405	4778.338332
413.996568	4863.488461
414.376670	4800.809275
414.756711	4754.798664
415.136691	4788.491215
415.516609	4868.045664
415.896466	4909.829268
416.276262	4939.075522
416.655997	4919.397378
417.035670	5099.341364
417.415283	5195.289646
417.794834	5137.555831
418.174324	5087.368624
418.553753	5001.258155
418.933121	5183.659704
419.312428	5246.041462
419.691674	5185.598027
420.070859	5312.262059
420.449983	5227.898349
420.829045	5347.719014
421.208047	5249.585393
421.586988	5321.434438
421.965867	5335.879865
422.344686	5467.358198
422.723444	5324.353266
423.102141	5138.077591
423.480777	5435.740081
423.859352	5207.206933
424.237866	5464.313341
424.616319	5457.865705
424.994712	5562.830090
425.373044	5439.052119
425.751314	5583.403039
426.129524	5392.005551
426.507673	5582.120065
426.885762	5666.294732
427.263789	5595.950471
427.641756	5476.097038
428.019662	5599.673363
428.397508	5607.681236
428.775292	5554.514707
429.153016	5654.382485
429.530679	5579.493624
429.908282	5664.797509
430.285824	5538.420823
430.663305	5809.783614
431.040726	5541.246390
431.418086	5545.080187
431.795385	5650.372247
432.172624	5659.703423
432.549802	5654.407691
432.926920	5671.474517
433.303977	5679.121948
433.680974	5715.745930
434.057910	5732.046501
434.434786	5741.798613
434.811601	5706.384508
435.188355	5943.535508
435.565050	5815.258307
435.941683	5793.966994
436.318257	6015.802969
436.694770	5995.807232
437.071222	6025.033322
437.447614	5963.208611
437.823946	5871.444488
438.200218	6030.901225
438.576429	5896.456172
438.952580	5995.822356
439.328670	6039.304828
439.704700	5948.274193
440.080670	5933.211225
440.456580	6205.241969
440.832429	6085.736376
441.208218	5936.326658
441.583947	6087.062199
441.959616	6093.250216
442.335224	6020.037538
442.710773	6150.858001
443.086261	6178.014697
443.461689	5976.587833
443.837057	6120.681654
444.212365	6283.110152
444.587612	6176.383884
444.962800	6329.486247
445.337927	6306.972453
445.712995	5919.373258
446.088002	6495.806515
446.462949	6328.604045
446.837837	6256.497901
447.212664	6431.113387
447.587431	6569.475417
447.962139	7117.640403
448.336786	8047.017444
448.711374	7777.262781
449.085901	6854.245156
449.460369	6777.992663
449.834776	6713.602005
450.209124	7101.617096
450.583412	7254.379181
450.957640	7403.851913
451.331808	7161.238822
451.705917	6720.170628
452.079965	6637.551158
452.453954	6849.277099
452.827883	6724.853860
453.201752	6822.001936
453.575562	6617.424351
453.949311	6824.323388
454.323001	6712.611418
454.696632	6785.912316
455.070202	6929.738956
455.443713	7082.659837
455.817164	7184.188675
456.190556	7261.819924
456.563888	7337.850606
456.937160	7384.597226
457.310373	7036.669390
457.683526	7057.030611
458.056619	6954.818696
458.429653	6941.888136
458.802628	6878.167952
459.175542	6981.856925
459.548398	7340.847572
459.921194	7499.127200
460.293930	7506.590628
460.666607	8033.517234
461.039224	8349.355605
461.411782	8467.928585
461.784280	8485.204619
462.156719	8373.076754
462.529099	8252.704083
462.901419	7839.606731
463.273680	7739.663335
463.645882	7750.474090
464.018024	7616.427288
464.390106	7787.715614
464.762130	8173.119387
465.134094	8641.886201
465.505999	9666.994753
465.877845	10885.406350
466.249631	11531.967098
466.621358	11151.236474
466.993026	10527.076093
467.364634	10258.891750
467.736184	9899.336493
468.107674	9569.420700
468.479105	9597.681408
468.850477	9366.146253
469.221790	9143.607038
469.593043	8810.782499
469.964238	8665.032659
470.335373	8677.123866
470.706449	8738.842713
471.077467	8720.548366
471.448425	10033.990753
471.819324	11115.527461
472.190164	11128.894081
472.560945	9873.341783
472.931667	9090.173327
473.302330	8951.569323
473.672934	8600.856250
474.043479	8960.696332
474.413965	8894.216116
474.784393	8781.992469
475.154761	8935.016694
475.525070	9029.717290
475.895321	8855.074077
476.265513	9032.827682
476.635645	9196.433289
477.005719	9198.273310
477.375734	9316.574067
477.745691	9547.612668
478.115588	9694.617756
478.485427	9933.155073
478.855207	10470.267331
479.224928	11282.755137
479.594591	11909.972978
479.964194	11725.902807
480.333739	11658.742035
480.703226	11585.204203
481.072653	11668.355515
481.442022	11906.040878
481.811333	12093.342429
482.180584	11900.929148
482.549777	11605.199940
482.918912	11425.404667
483.287988	11446.489293
483.657005	11466.018723
484.025964	11142.578293
484.394864	11272.360278
484.763706	11246.410938
485.132489	11006.172231
485.501213	10970.589247
485.869879	11049.505990
486.238487	10881.645649
486.607036	10991.200004
486.975527	10780.978848
487.343959	10965.812754
487.712333	11023.904490
488.080648	10948.871956
488.448905	10985.745476
488.817104	10925.750704
489.185244	11198.003259
489.553326	11345.096566
489.921350	11891.718960
490.289315	12954.863018
490.657222	13299.108291
491.025070	13204.848796
491.392861	13076.722830
491.760593	12697.023122
492.128267	12342.350223
492.495883	12010.022238
492.863440	11670.170331
493.230939	11335.536018
493.598380	11278.626432
493.965763	11142.837912
494.333088	11041.840915
494.700354	10959.022319
495.067563	11022.815601
495.434713	10852.964004
495.801805	10979.166770
496.168839	10907.204299
496.535815	10846.400422
496.902733	10837.858187
497.269593	10775.408373
497.636395	10879.069619
498.003139	10863.845335
498.369825	10729.785931
498.736453	10889.235106
499.103023	10819.520990
499.469535	10844.419248
499.835989	10839.433547
500.202385	10799.096755
500.568723	10647.000102
500.935003	10871.026458
501.301226	10679.649135
501.667390	10936.415265
502.033497	11032.507219
502.399546	10889.333409
502.765537	10798.418720
503.131470	10872.072498
503.497345	11049.216123
503.863163	10658.183902
504.228923	10964.799482
504.594625	11025.200067
504.960269	10777.306367
505.325856	11000.327013
505.691385	10788.666608
506.056856	10943.780391
506.422270	10973.745009
506.787625	10859.328461
507.152924	10983.703809
507.518164	10953.648449
507.883347	10878.048786
508.248472	10799.167331
508.613540	11036.343537
508.978550	10916.492625
509.343503	10895.518904
509.708398	11009.005360
510.073236	11126.630602
510.438016	11131.631427
510.802738	11077.764178
511.167403	11133.111006
511.532010	11026.472958
511.896561	11260.833680
512.261053	11334.817653
512.625488	11201.635410
512.989866	11189.884480
513.354186	11173.951914
513.718449	11078.154867
514.082655	11268.476069
514.446803	11165.555872
514.810894	11280.499221
515.174927	11149.411577
515.538904	11170.312201
515.902822	11320.871301
516.266684	11209.343334
516.630488	11151.748152
516.994235	11209.605474
517.357925	11273.068560
517.721558	11357.875891
518.085133	11372.835515
518.448651	11391.046683
518.812112	11270.369022
519.175516	11283.597010
519.538863	11400.690411
519.902152	11318.590179
520.265385	11476.776546
520.628560	11387.389326
520.991678	11366.471058
521.354739	11434.549321
521.717743	11369.427695
522.080690	11352.960766
522.443580	11481.512710
522.806413	11435.270206
523.169189	11472.584826
523.531908	11524.236489
523.894569	11345.003305
524.257174	11354.863802
524.619722	11470.442336
524.982213	11412.116186
525.344647	11465.106275
525.707025	11417.306054
526.069345	11513.317349
526.431608	11426.450707
526.793815	11541.285671
527.155964	11321.332567
527.518057	11379.628470
527.880093	11329.824391
528.242072	11400.002293
528.603995	11305.954527
528.965860	11217.036135
529.327669	11273.232397
529.689421	11226.831097
530.051117	11199.276150
530.412755	11298.869185
530.774337	11188.115035
531.135862	11165.785244
531.497331	11192.591580
531.858743	11046.463653
532.220098	11213.719056
532.581396	11082.709550
532.942638	11061.869420
533.303824	11031.327589
533.664953	11042.307222
534.026025	10958.238420
534.387040	11054.186701
534.747999	11062.053422
535.108902	11114.612492
535.469748	10872.201047
535.830537	10982.193983
536.191270	10956.708430
536.551947	10977.704836
536.912567	10977.770371
537.273131	10903.007538
537.633638	10879.881245
537.994089	10873.819258
538.354483	10822.860754
538.714821	10969.187806
539.075103	10976.242901
539.435328	10931.348905
539.795497	10761.714078
540.155609	10921.279201
540.515665	11008.413024
540.875665	10752.866853
541.235609	10819.528551
541.595496	10807.510441
541.955328	10963.652619
542.315102	10847.638025
542.674821	10798.030551
543.034483	10794.625251
543.394090	10806.298043
543.753640	10723.010620
544.113134	10948.609816
544.472571	10805.746037
544.831953	10950.870774
545.191278	10759.085117
545.550548	10783.940526
545.909761	10926.315313
546.268918	10899.667774
546.628019	10983.431586
546.987064	10838.165697
547.346053	10767.403021
547.704986	10868.894050
548.063863	10852.207831
548.422684	10846.455875
548.781449	10760.962947
549.140158	10861.286949
549.498811	10746.406615
549.857408	10596.071845
550.215949	10822.439818
550.574434	10679.354228
550.932864	10772.958372
551.291237	10836.708804
551.649555	10782.707964
552.007817	10799.222784
552.366022	10755.959601
552.724173	10751.571277
553.082267	10736.218443
553.440305	10880.687830
553.798288	10673.095635
554.156215	10826.346712
554.514086	10798.264964
554.871902	10649.775257
555.229661	10688.914776
555.587365	10669.755871
555.945014	10564.068080
556.302606	10690.233037
556.660143	10572.428834
557.017625	10731.900695
557.375050	10631.740529
557.732421	10767.526529
558.089735	10677.632673
558.446994	10684.796153
558.804197	10721.145393
559.161345	10721.488191
559.518437	10566.026568
559.875474	10653.873715
560.232455	10684.755824
560.589381	10636.393514
560.946251	10632.836980
561.303065	10736.054605
561.659825	10667.152115
562.016528	10602.663154
562.373177	10483.225617
562.729770	10598.829357
563.086307	10514.077478
563.442789	10603.532753
563.799216	10483.994393
564.155587	10531.209839
564.511904	10489.060752
564.868164	10483.404577
565.224370	10497.411423
565.580520	10426.129508
565.936615	10430.278378
566.292654	10292.148242
566.648638	10421.524414
567.004567	10386.407736
567.360441	10370.455005
567.716260	10274.080746
568.072023	10367.926866
568.427732	10326.014713
568.783385	10232.428213
569.138982	10299.183172
569.494525	10319.284773
569.850013	10192.766935
570.205445	10275.817424
570.560823	10167.543522
570.916145	10087.946223
571.271412	10159.109671
571.626625	10103.195713
571.981782	10075.146733
572.336884	10053.686541
572.691931	10061.391945
573.046923	10006.597123
573.401860	9964.059867
573.756743	9889.909535
574.111570	9939.015415
574.466342	9918.639071
574.821059	9956.548548
575.175722	9840.360034
575.530330	9851.659780
575.884882	9840.614612
576.239380	9775.263614
576.593823	9752.573381
576.948211	9768.175752
577.302544	9642.588007
577.656823	9663.622221
578.011047	9665.187500
578.365216	9635.018714
578.719330	9560.654133
579.073389	9571.664013
579.427394	9518.638637
579.781344	9502.418724
580.135239	9441.574518
580.489080	9453.829563
580.842866	9352.479685
581.196597	9357.621662
581.550273	9404.693436
581.903895	9371.106749
582.257463	9434.751316
582.610975	9312.533582
582.964434	9345.361576
583.317837	9266.006253
583.671186	9244.601514
584.024481	9244.820804
584.377721	9158.634717
584.730906	9129.547259
585.084037	9162.939863
585.437113	9091.005118
585.790135	9122.333368
586.143103	9014.654322
586.496016	8991.908636
586.848874	9050.554899
587.201679	9034.589565
587.554428	8921.592102
587.907124	8969.107497
588.259765	8942.981717
588.612352	8940.768651
588.964884	8819.284405
589.317362	8834.743103
589.669786	8837.344338
590.022155	8884.111123
590.374470	8902.332373
590.726731	8838.962549
591.078937	8688.411010
591.431090	8803.440058
591.783188	8676.879370
592.135232	8671.697064
592.487222	8669.242022
592.839157	8721.203716
593.191038	8654.786514
593.542866	8596.120086
593.894639	8499.934870
594.246358	8546.749546
594.598022	8568.582783
594.949633	8464.457750
595.301190	8438.052186
595.652692	8474.126683
596.004141	8576.585615
596.355535	8349.713527
596.706876	8340.321857
597.058162	8269.861650
597.409395	8344.722785
597.760573	8409.851972
598.111698	8316.938465
598.462768	8303.546640
598.813785	8268.059437
599.164748	8234.452585
599.515657	8228.428407
599.866511	8140.709809
600.217312	8266.108511
600.568060	8127.133982
600.918753	8225.370947
601.269392	8193.987243
601.619978	8114.122764
601.970510	8169.915734
602.320988	8167.327101
602.671412	8217.970533
603.021783	8162.974065
603.372100	8127.534753
603.722363	8135.870301
604.072572	8115.811550
604.422728	8120.439329
604.772830	8053.596150
605.122878	8052.275368
605.472872	8052.671098
605.822813	8077.755880
606.172701	8023.944083
606.522534	8097.302954
606.872314	8103.531299
607.222041	8070.690703
607.571714	8123.285061
607.921333	8085.428516
608.270899	8091.387160
608.620411	8179.604832
608.969870	8082.212260
609.319276	8078.711178
609.668627	8091.311543
610.017926	8129.286554
610.367171	8178.702465
610.716362	8153.773959
611.065500	8151.568454
611.414585	8166.765013
611.763616	8160.435844
612.112594	8137.629664
612.461518	8161.076071
612.810389	8215.712096
613.159207	8157.721183
613.507971	8107.140766
613.856682	8223.563693
614.205340	8184.552724
614.553945	8255.973271
614.902496	8156.062643
615.250994	8213.562044
615.599439	8190.070267
615.947830	8207.807567
616.296169	8176.317999
616.644454	8193.508334
616.992686	8192.084208
617.340864	8250.294411
617.688990	8146.192064
618.037063	8245.659070
618.385082	8188.278137
618.733048	8271.822659
619.080961	8217.116057
619.428821	8234.646670
619.776628	8238.898883
620.124382	8183.831839
620.472083	8169.653594
620.819731	8203.250364
621.167326	8091.954290
621.514868	8099.543747
621.862357	7984.797003
622.209793	8003.948346
622.557176	7939.655991
622.904506	7906.079386
623.251783	7845.633430
623.599007	7795.723487
623.946179	7796.729197
624.293297	7758.663444
624.640363	7673.150352
624.987376	7656.138978
625.334336	7604.615865
625.681243	7550.471352
626.028097	7535.113477
626.374899	7519.657299
626.721647	7510.280753
627.068343	7440.536390
627.414987	7412.376504
627.761577	7373.945268
628.108115	7408.875423
628.454600	7298.937940
628.801032	7354.612443
629.147412	7314.056360
629.493739	7300.382230
629.840014	7237.082982
630.186236	7294.829399
630.532405	7177.776328
630.878521	7228.790284
631.224585	7185.688419
631.570597	7109.294773
631.916556	7143.864486
632.262462	7144.991184
632.608316	7100.074503
632.954117	7078.828560
633.299866	7068.995789
633.645562	7061.912968
633.991206	6977.708055
634.336797	6922.933398
634.682336	6881.820268
635.027823	6845.791141
635.373257	6835.766807
635.718639	6769.954543
636.063968	6778.191789
636.409245	6671.342012
636.754470	6672.057856
637.099642	6629.593697
637.444762	6576.674184
637.789829	6585.894455
638.134845	6525.919847
638.479808	6513.513568
638.824719	6519.507500
639.169577	6438.392814
639.514383	6462.671011
639.859137	6392.399847
640.203839	6399.215487
640.548489	6391.396657
