Dividing Wavelength (nm)	Counts (n)	Blue Motor Position (mm): 32.800000	Red Motor Position (mm): 0.000000	
326.493990	2128.682664
326.888308	2128.682664
327.282561	2128.682664
327.676750	2096.265524
328.070874	2094.586820
328.464933	2099.174270
328.858929	2104.686772
329.252859	2114.736312
329.646726	2126.260390
330.040528	2140.141207
330.434265	2154.503454
330.827938	2171.902997
331.221547	2191.477797
331.615091	2210.094778
332.008571	2229.833416
332.401986	2252.004411
332.795338	2269.156937
333.188625	2289.886161
333.581847	2306.637916
333.975006	2324.667602
334.368100	2343.821466
334.761129	2362.146061
335.154095	2376.049563
335.546996	2398.679303
335.939833	2424.525298
336.332606	2438.600200
336.725315	2448.604370
337.117960	2461.850001
337.510540	2470.379634
337.903056	2481.860862
338.295508	2486.402941
338.687896	2494.357882
339.080220	2505.118225
339.472480	2509.491426
339.864676	2515.729854
340.256807	2520.488703
340.648875	2520.922242
341.040879	2527.727800
341.432818	2525.366019
341.824694	2529.769467
342.216506	2529.890455
342.608253	2527.753006
342.999937	2527.276617
343.391557	2523.974661
343.783113	2523.483148
344.174605	2526.480114
344.566033	2524.655217
344.957397	2520.466018
345.348697	2522.616070
345.739934	2518.580626
346.131106	2517.461490
346.522215	2515.515605
346.913260	2512.679956
347.304241	2513.249606
347.695159	2510.189626
348.086012	2509.935047
348.476802	2505.798781
348.867528	2507.263236
349.258191	2505.657628
349.648789	2504.581342
350.039324	2499.880466
350.429796	2501.274345
350.820203	2497.337204
351.210548	2496.099601
351.600828	2498.373161
351.991045	2496.512975
352.381198	2495.063643
352.771288	2493.304281
353.161314	2496.414673
353.551276	2495.101452
353.941175	2495.086329
354.331010	2495.713952
354.720782	2493.626915
355.110490	2495.585403
355.500135	2494.995588
355.889717	2494.950218
356.279235	2494.294867
356.668689	2496.896103
357.058080	2494.831750
357.447408	2494.804024
357.836672	2491.915443
358.225873	2494.511637
358.615010	2493.115238
359.004084	2498.947852
359.393095	2499.247801
359.782043	2498.416011
360.170927	2499.315857
360.559748	2500.485404
360.948505	2500.394664
361.337199	2499.451968
361.725830	2503.429438
362.114398	2504.730056
362.502903	2502.532113
362.891344	2501.843995
363.279722	2506.302896
363.668037	2502.453975
364.056289	2502.491784
364.444478	2504.956908
364.832603	2505.352638
365.220665	2506.900273
365.608665	2505.254336
365.996601	2504.712412
366.384474	2505.307268
366.772284	2505.662669
367.160031	2506.658297
367.547715	2506.441528
367.935336	2507.462361
368.322893	2509.609893
368.710388	2509.526714
369.097820	2511.580984
369.485189	2508.168123
369.872495	2509.002434
370.259738	2507.364059
370.646918	2510.388751
371.034035	2507.459841
371.421090	2510.315654
371.808081	2509.451097
372.195010	2509.433452
372.581875	2512.624503
372.968678	2511.296159
373.355418	2511.825480
373.742096	2513.622651
374.128710	2511.643998
374.515262	2512.233813
374.901751	2512.788340
375.288177	2512.647188
375.674540	2511.608710
376.060841	2513.393279
376.447079	2513.317662
376.833254	2512.664832
377.219367	2509.370438
377.605417	2510.121570
377.991404	2510.050994
378.377329	2514.290604
378.763191	2508.752897
379.148991	2513.960409
379.534727	2517.889988
379.920402	2516.022241
380.306013	2515.329082
380.691563	2514.620800
381.077049	2515.389576
381.462474	2516.246572
381.847835	2514.439318
382.233134	2516.695235
382.618371	2517.048115
383.003545	2516.765811
383.388657	2517.514422
383.773706	2517.511902
384.158693	2520.294618
384.543618	2516.952333
384.928480	2519.377128
385.313280	2516.385204
385.698017	2516.912004
386.082692	2521.539783
386.467305	2521.804444
386.851856	2518.550379
387.236344	2520.387880
387.620770	2519.359484
388.005133	2518.731861
388.389435	2522.154804
388.773674	2521.113806
389.157851	2519.813188
389.541965	2523.246214
389.926018	2521.035668
390.310008	2523.228570
390.693936	2523.258817
391.077802	2522.023734
391.461606	2521.481810
391.845348	2523.316790
392.229027	2523.677233
392.612645	2524.211595
392.996200	2525.323169
393.379694	2525.234949
393.763125	2525.232429
394.146494	2522.815195
394.529801	2525.436595
394.913047	2526.414579
395.296230	2527.090094
395.679351	2526.991791
396.062410	2528.017666
396.445408	2528.794004
396.828343	2527.667306
397.211217	2521.625483
397.594028	2526.054137
397.976778	2525.338293
398.359466	2527.092614
398.742092	2526.119672
399.124656	2529.063706
399.507158	2530.069416
399.889598	2530.964221
400.271977	2527.410207
400.654294	2533.915816
401.036549	2531.896834
401.418742	2532.569828
401.800874	2531.990095
402.182944	2534.664427
402.564952	2532.088398
402.946898	2531.859025
403.328783	2531.715353
403.710606	2532.877338
404.092367	2533.948584
404.474067	2535.902031
404.855705	2533.104190
405.237282	2534.898841
405.618797	2535.685261
406.000250	2534.619057
406.381642	2537.212731
406.762972	2536.943029
407.144240	2539.904707
407.525447	2538.901517
407.906593	2538.394881
408.287677	2540.696168
408.668700	2537.248019
409.049661	2541.638864
409.430560	2540.202135
409.811399	2540.592824
410.192176	2542.768082
410.572891	2547.733619
410.953545	2547.171530
411.334138	2549.180430
411.714669	2553.309135
412.095139	2555.045812
412.475547	2556.981616
412.855894	2562.587379
413.236180	2569.249263
413.616405	2573.914851
413.996568	2583.127560
414.376670	2587.263827
414.756711	2590.437233
415.136691	2604.867536
415.516609	2615.600152
415.896466	2623.537449
416.276262	2637.541775
416.655997	2647.432518
417.035670	2665.162257
417.415283	2686.771162
417.794834	2697.133254
418.174324	2707.157589
418.553753	2721.305587
418.933121	2747.252406
419.312428	2772.085130
419.691674	2786.447377
420.070859	2818.156235
420.449983	2830.517144
420.829045	2865.258256
421.208047	2880.411964
421.586988	2912.342633
421.965867	2942.415636
422.344686	2993.555621
422.723444	2995.627535
423.102141	2994.140395
423.480777	3073.200811
423.859352	3064.809810
424.237866	3150.388438
424.616319	3181.600742
424.994712	3241.519896
425.373044	3249.810074
425.751314	3327.753874
426.129524	3319.015034
426.507673	3410.171698
426.885762	3470.947849
427.263789	3502.165194
427.641756	3498.457426
428.019662	3589.356991
428.397508	3636.612767
428.775292	3670.464115
429.153016	3749.960591
429.530679	3767.513889
429.908282	3849.190663
430.285824	3838.332018
430.663305	4011.488091
431.040726	3944.198769
431.418086	3990.292559
431.795385	4091.077828
432.172624	4145.333246
432.549802	4195.749826
432.926920	4251.658742
433.303977	4299.864776
433.680974	4373.634501
434.057910	4434.536680
434.434786	4489.200432
434.811601	4512.571221
435.188355	4708.074729
435.565050	4679.400646
435.941683	4710.050862
436.318257	4904.137805
436.694770	4939.075522
437.071222	5013.480432
437.447614	5011.171584
437.823946	4988.995548
438.200218	5149.430269
438.576429	5090.184108
438.952580	5209.057037
439.328670	5284.422287
439.704700	5247.054734
440.080670	5277.468015
440.456580	5535.814547
440.832429	5478.680630
441.208218	5382.979365
441.583947	5545.213778
441.959616	5579.637297
442.335224	5550.391043
442.710773	5698.263209
443.086261	5757.458958
443.461689	5597.147745
443.837057	5757.000213
444.212365	5925.465492
444.587612	5847.045303
444.962800	6019.641808
445.337927	6020.692888
445.712995	5684.853740
446.088002	6242.664974
446.462949	6096.680721
446.837837	6051.695984
447.212664	6231.440845
447.587431	6389.425566
447.962139	6917.315032
448.336786	7820.914133
448.711374	7584.607525
449.085901	6712.185441
449.460369	6646.095914
449.834776	6594.386278
450.209124	6986.159549
450.583412	7147.378170
450.957640	7293.995088
451.331808	7068.867240
451.705917	6642.804040
452.079965	6571.806950
452.453954	6785.418283
452.827883	6672.211611
453.201752	6768.774913
453.575562	6569.808133
453.949311	6778.161542
454.323001	6672.151118
454.696632	6747.687767
455.070202	6888.653552
455.443713	7044.137860
455.817164	7144.227449
456.190556	7228.437403
456.563888	7308.269116
456.937160	7351.575148
457.310373	7012.350864
457.683526	7039.661315
458.056619	6925.695950
458.429653	6919.086997
458.802628	6852.979827
459.175542	6960.348842
459.548398	7321.693708
459.921194	7477.876216
460.293930	7486.060529
460.666607	8011.169799
461.039224	8315.552148
461.411782	8446.296993
461.784280	8461.546484
462.156719	8355.415072
462.529099	8233.293120
462.901419	7825.839340
463.273680	7715.985036
463.645882	7731.652942
464.018024	7598.891635
464.390106	7767.480422
464.762130	8152.201119
465.134094	8625.419272
465.505999	9639.051637
465.877845	10855.020795
466.249631	11505.644713
466.621358	11121.629778
466.993026	10491.455300
467.364634	10238.699408
467.736184	9877.868739
468.107674	9550.229027
468.479105	9575.812883
468.850477	9344.723870
469.221790	9115.946226
469.593043	8788.674519
469.964238	8654.214343
470.335373	8663.341352
470.706449	8723.434426
471.077467	8706.130666
471.448425	10006.176187
471.819324	11082.407080
472.190164	11099.158835
472.560945	9853.484678
472.931667	9063.918998
473.302330	8934.903268
473.672934	8576.164678
474.043479	8938.384185
474.413965	8884.002738
474.784393	8765.654090
475.154761	8912.858302
475.525070	9007.112756
475.895321	8832.058689
476.265513	9008.771296
476.635645	9175.706585
477.005719	9178.915279
477.375734	9293.203278
477.745691	9520.992856
478.115588	9664.327983
478.485427	9900.690043
478.855207	10440.348082
479.224928	11253.022412
479.594591	11879.370654
479.964194	11690.052642
480.333739	11622.251643
480.703226	11546.702391
481.072653	11632.775052
481.442022	11871.743388
481.811333	12057.081409
482.180584	11871.675332
482.549777	11575.946124
482.918912	11402.724516
483.287988	11421.548185
483.657005	11433.231059
484.025964	11121.246650
484.394864	11254.451579
484.763706	11222.014274
485.132489	10966.112702
485.501213	10939.959196
485.869879	11011.324291
486.238487	10860.369459
486.607036	10970.032199
486.975527	10746.031049
487.343959	10947.677203
487.712333	10985.579118
488.080648	10919.676114
488.448905	10958.787906
488.817104	10902.082487
489.185244	11163.423464
489.553326	11323.076806
489.921350	11865.073941
490.289315	12925.594079
490.657222	13257.334769
491.025070	13169.283456
491.392861	13042.415257
491.760593	12661.392247
492.128267	12316.133702
492.495883	11988.698157
492.863440	11646.403811
493.230939	11311.499796
493.598380	11253.619788
493.965763	11111.020670
494.333088	11016.075578
494.700354	10936.417786
495.067563	10998.534883
495.434713	10830.672022
495.801805	10958.732453
496.168839	10883.087419
496.535815	10818.250619
496.902733	10823.735394
497.269593	10751.377193
497.636395	10852.646412
498.003139	10843.027890
498.369825	10705.414472
498.736453	10865.448422
499.103023	10792.492843
499.469535	10823.768162
499.835989	10814.759620
500.202385	10774.785790
500.568723	10624.947575
500.935003	10852.795126
501.301226	10652.631071
501.667390	10917.513459
502.033497	11012.730773
502.399546	10867.132167
502.765537	10776.083888
503.131470	10848.011071
503.497345	11023.894408
503.863163	10636.554831
504.228923	10942.615884
504.594625	11011.140288
504.960269	10747.800494
505.325856	10971.461367
505.691385	10768.317990
506.056856	10921.932030
506.422270	10951.924375
506.787625	10838.165697
507.152924	10960.101126
507.518164	10935.021386
507.883347	10855.666063
508.248472	10784.547985
508.613540	11007.699701
508.978550	10896.171734
509.343503	10868.725172
509.708398	10988.371917
510.073236	11097.989287
510.438016	11104.739392
510.802738	11049.437934
511.167403	11117.105342
511.532010	11009.660710
511.896561	11231.968033
512.261053	11303.040740
512.625488	11178.350320
512.989866	11163.541931
513.354186	11150.865950
513.718449	11047.058510
514.082655	11241.843653
514.446803	11135.820626
514.810894	11263.376942
515.174927	11121.614654
515.538904	11149.887966
515.902822	11306.060391
516.266684	11187.076558
516.630488	11132.783331
516.994235	11187.091681
517.357925	11244.308777
517.721558	11338.245638
518.085133	11353.333812
518.448651	11356.255160
518.812112	11237.183106
519.175516	11259.901066
519.538863	11380.714839
519.902152	11302.352623
520.265385	11458.081427
520.628560	11371.232428
520.991678	11347.589417
521.354739	11410.387070
521.717743	11344.295023
522.080690	11323.916158
522.443580	11459.603855
522.806413	11409.867831
523.169189	11439.958479
523.531908	11495.083496
523.894569	11312.470218
524.257174	11326.587970
524.619722	11446.015425
524.982213	11389.758669
525.344647	11444.487955
525.707025	11391.495346
526.069345	11488.497228
526.431608	11405.633262
526.793815	11509.697801
527.155964	11301.631738
527.518057	11355.960253
527.880093	11299.834566
528.242072	11372.205371
528.603995	11269.040678
528.965860	11200.453259
529.327669	11249.158367
529.689421	11197.050481
530.051117	11171.116265
530.412755	11272.982860
530.774337	11161.076807
531.135862	11140.385391
531.497331	11170.108034
531.858743	11026.301559
532.220098	11184.198059
532.581396	11055.741897
532.942638	11044.056503
533.303824	11002.396407
533.664953	11016.191525
534.026025	10934.265213
534.387040	11028.519666
534.747999	11031.504029
535.108902	11082.361710
535.469748	10846.937305
535.830537	10951.125352
536.191270	10930.312948
536.551947	10957.900663
536.912567	10953.303130
537.273131	10879.533406
537.633638	10855.834941
537.994089	10851.907883
538.354483	10795.348657
538.714821	10940.216295
539.075103	10947.324322
539.435328	10910.816286
539.795497	10737.667775
540.155609	10898.263813
540.515665	10988.321506
540.875665	10718.627337
541.235609	10786.771134
541.595496	10782.531523
541.955328	10935.916191
542.315102	10824.335292
542.674821	10771.592219
543.034483	10776.542633
543.394090	10778.128075
543.753640	10712.419156
544.113134	10921.304406
544.472571	10779.491708
544.831953	10922.526886
545.191278	10730.504295
545.550548	10759.962278
545.909761	10894.979501
546.268918	10871.800276
546.628019	10956.305138
546.987064	10816.922275
547.346053	10750.835268
547.704986	10840.325832
548.063863	10824.204222
548.422684	10817.502008
548.781449	10739.018804
549.140158	10841.739875
549.498811	10715.532068
549.857408	10571.844060
550.215949	10800.069697
550.574434	10648.162088
550.932864	10751.886349
551.291237	10811.455143
551.649555	10760.010168
552.007817	10769.795048
552.366022	10730.693338
552.724173	10728.384490
553.082267	10708.749196
553.440305	10843.900010
553.798288	10654.279528
554.156215	10801.657661
554.514086	10782.720567
554.871902	10622.598397
555.229661	10664.644141
555.587365	10651.925309
555.945014	10537.244101
556.302606	10658.070476
556.660143	10557.149097
557.017625	10715.494259
557.375050	10610.325708
557.732421	10739.769936
558.089735	10658.768676
558.446994	10654.594600
558.804197	10689.199601
559.161345	10691.009375
559.518437	10544.047138
559.875474	10627.354726
560.232455	10660.419654
560.589381	10610.809659
560.946251	10609.272107
561.303065	10720.202697
561.659825	10650.380196
562.016528	10578.700029
562.373177	10461.321803
562.729770	10581.727242
563.086307	10487.787861
563.442789	10585.245967
563.799216	10461.909097
564.155587	10514.712663
564.511904	10462.156114
564.868164	10454.178488
565.224370	10467.880344
565.580520	10394.017358
565.936615	10403.119161
566.292654	10274.423545
566.648638	10400.275951
567.004567	10360.586946
567.360441	10341.559111
567.716260	10250.273897
568.072023	10353.925062
568.427732	10305.013266
568.783385	10206.521723
569.138982	10277.985120
569.494525	10300.002359
569.850013	10166.139560
570.205445	10256.577860
570.560823	10147.653649
570.916145	10066.191123
571.271412	10138.146033
571.626625	10081.682589
571.981782	10059.274660
572.336884	10026.431543
572.691931	10033.088387
573.046923	9981.892949
573.401860	9934.790928
573.756743	9873.677020
574.111570	9914.192773
574.466342	9901.176514
574.821059	9931.632645
575.175722	9821.324637
575.530330	9833.730917
575.884882	9818.148710
576.239380	9748.303524
576.593823	9732.381039
576.948211	9747.262525
577.302544	9624.671746
577.656823	9639.268407
578.011047	9638.930650
578.365216	9616.328637
578.719330	9537.210247
579.073389	9553.031909
579.427394	9498.554680
579.781344	9478.407708
580.135239	9426.148587
580.489080	9434.229557
580.842866	9333.852622
581.196597	9339.985186
581.550273	9380.634530
581.903895	9347.017595
582.257463	9412.489581
582.610975	9292.205129
582.964434	9321.123708
583.317837	9238.700843
583.671186	9220.827432
584.024481	9221.656702
584.377721	9139.448086
584.730906	9120.165672
585.084037	9144.585021
585.437113	9082.251154
585.790135	9099.673382
586.143103	9007.029577
586.496016	8977.780802
586.848874	9034.042600
587.201679	9021.288481
587.554428	8908.250688
587.907124	8954.684756
588.259765	8924.132843
588.612352	8926.204757
588.964884	8800.296899
589.317362	8821.366401
589.669786	8812.493971
590.022155	8868.773412
590.374470	8882.198005
590.726731	8819.612080
591.078937	8673.834513
591.431090	8783.913149
591.783188	8662.562493
592.135232	8645.848548
592.487222	8650.050350
592.839157	8700.610602
593.191038	8636.081312
593.542866	8580.774813
593.894639	8482.656316
594.246358	8531.671454
594.598022	8547.972025
594.949633	8442.443031
595.301190	8425.897964
595.652692	8443.937733
596.004141	8561.288233
596.355535	8340.677259
596.706876	8318.057601
597.058162	8252.507478
597.409395	8330.670568
597.760573	8394.083243
598.111698	8303.849109
598.462768	8286.991491
598.813785	8250.450687
599.164748	8217.476500
599.515657	8211.800161
599.866511	8120.661140
600.217312	8248.411540
600.568060	8101.630784
600.918753	8204.576187
601.269392	8171.644850
601.619978	8092.266841
601.970510	8154.134402
602.320988	8148.299266
602.671412	8205.244140
603.021783	8144.563771
603.372100	8112.325592
603.722363	8118.158207
604.072572	8093.537212
604.422728	8106.268646
604.772830	8037.177112
605.122878	8042.803040
605.472872	8033.905403
605.822813	8068.414622
606.172701	8013.970160
606.522534	8086.540090
606.872314	8079.444666
607.222041	8053.780152
607.571714	8112.209646
607.921333	8067.124086
608.270899	8073.649860
608.620411	8162.691760
608.969870	8072.848317
609.319276	8053.996922
609.668627	8074.582473
610.017926	8111.292156
610.367171	8159.248652
610.716362	8135.149416
611.065500	8129.939384
611.414585	8157.726224
611.763616	8141.871795
612.112594	8131.025753
612.461518	8148.057291
612.810389	8196.154940
613.159207	8146.759194
613.507971	8088.579237
613.856682	8206.481743
614.205340	8164.683016
614.553945	8240.254953
614.902496	8139.809963
615.250994	8197.269035
615.599439	8175.390427
615.947830	8189.220832
616.296169	8161.996081
616.644454	8177.686672
616.992686	8173.043770
617.340864	8229.572748
617.688990	8136.225703
618.037063	8225.980926
618.385082	8173.552926
618.733048	8262.471318
619.080961	8196.154940
619.428821	8216.377528
619.776628	8224.922284
620.124382	8170.550919
620.472083	8154.782190
620.819731	8179.680449
621.167326	8074.216990
621.514868	8083.860717
621.862357	7970.883418
622.209793	7987.841860
622.557176	7923.486490
622.904506	7893.645380
623.251783	7821.919843
623.599007	7781.406610
623.946179	7786.888865
624.293297	7740.306082
624.640363	7658.707446
624.987376	7640.191288
625.334336	7586.097186
625.681243	7540.608335
626.028097	7527.150974
626.374899	7506.041143
626.721647	7500.972263
627.068343	7431.059020
627.414987	7402.523569
627.761577	7359.666200
628.108115	7399.443424
628.454600	7290.458719
628.801032	7335.440935
629.147412	7297.486088
629.493739	7287.106352
629.840014	7221.130251
630.186236	7283.469159
630.532405	7167.570512
630.878521	7218.657565
631.224585	7173.128384
631.570597	7097.964780
631.916556	7128.718339
632.262462	7125.552494
632.608316	7085.739982
632.954117	7069.119298
633.299866	7048.178345
633.645562	7038.839607
633.991206	6965.077444
634.336797	6903.106540
634.682336	6864.032556
635.027823	6832.555592
635.373257	6825.739952
635.718639	6756.071206
636.063968	6771.807167
636.409245	6666.242885
636.754470	6661.405898
637.099642	6620.184383
637.444762	6564.603141
637.789829	6568.469706
638.134845	6513.558938
638.479808	6499.526886
638.824719	6503.123750
639.169577	6430.271515
639.514383	6456.044414
639.859137	6384.321397
640.203839	6391.084105
640.548489	6373.482917
