Dividing Wavelength (nm)	Counts (n)	Blue Motor Position (mm): 19.200000	Red Motor Position (mm): 0.000000	
326.493990	2133.554939
326.888308	2133.554939
327.282561	2133.554939
327.676750	2103.842379
328.070874	2099.643098
328.464933	2102.642584
328.858929	2109.554006
329.252859	2120.127826
329.646726	2133.038221
330.040528	2142.934006
330.434265	2161.525782
330.827938	2179.283246
331.221547	2196.773529
331.615091	2215.786241
332.008571	2235.887842
332.401986	2253.121026
332.795338	2274.886208
333.188625	2293.140226
333.581847	2312.780562
333.975006	2328.519044
334.368100	2346.873885
334.761129	2367.330887
335.154095	2382.960985
335.546996	2403.435631
335.939833	2423.776687
336.332606	2440.241095
336.725315	2451.500512
337.117960	2461.512244
337.510540	2467.392750
337.903056	2480.330871
338.295508	2487.348158
338.687896	2497.440547
339.080220	2503.875580
339.472480	2510.416478
339.864676	2513.201715
340.256807	2521.275123
340.648875	2520.755884
341.040879	2521.945596
341.432818	2528.025228
341.824694	2528.965403
342.216506	2528.841895
342.608253	2529.777029
342.999937	2525.260155
343.391557	2528.925074
343.783113	2526.548170
344.174605	2524.009949
344.566033	2519.961902
344.957397	2519.460308
345.348697	2520.332427
345.739934	2518.870493
346.131106	2517.849659
346.522215	2514.971160
346.913260	2514.552744
347.304241	2512.453104
347.695159	2507.724501
348.086012	2509.153668
348.476802	2507.623678
348.867528	2505.123266
349.258191	2502.615292
349.648789	2499.971207
350.039324	2498.395846
350.429796	2503.434479
350.820203	2499.867863
351.210548	2498.821824
351.600828	2497.311998
351.991045	2495.101452
352.381198	2496.477687
352.771288	2494.413335
353.161314	2496.071874
353.551276	2495.169508
353.941175	2492.626246
354.331010	2492.117089
354.720782	2492.641369
355.110490	2494.234374
355.500135	2492.757316
355.889717	2493.725217
356.279235	2495.540033
356.668689	2495.703870
357.058080	2496.449961
357.447408	2496.107162
357.836672	2493.909219
358.225873	2492.653972
358.615010	2494.486431
359.004084	2499.749396
359.393095	2496.003819
359.782043	2499.865343
360.170927	2499.119252
360.559748	2500.863491
360.948505	2498.718480
361.337199	2500.472802
361.725830	2500.450116
362.114398	2500.888697
362.502903	2500.676968
362.891344	2502.713594
363.279722	2500.218223
363.668037	2503.830210
364.056289	2503.910868
364.444478	2505.463544
364.832603	2506.018071
365.220665	2504.558657
365.608665	2505.198883
365.996601	2504.891373
366.384474	2505.342556
366.772284	2507.555623
367.160031	2505.521517
367.547715	2506.832217
367.935336	2504.755262
368.322893	2505.564367
368.710388	2508.216014
369.097820	2510.091323
369.485189	2509.458658
369.872495	2507.240551
370.259738	2508.780623
370.646918	2510.350943
371.034035	2509.680469
371.421090	2511.376817
371.808081	2508.226096
372.195010	2508.616786
372.581875	2507.795078
372.968678	2511.470079
373.355418	2511.104595
373.742096	2510.018226
374.128710	2510.693741
374.515262	2509.861951
374.901751	2512.886643
375.288177	2510.971004
375.674540	2511.613752
376.060841	2513.108454
376.447079	2514.242713
376.833254	2513.078207
377.219367	2505.294665
377.605417	2509.156189
377.991404	2507.169974
378.377329	2511.212980
378.763191	2510.519821
379.148991	2512.380007
379.534727	2512.667353
379.920402	2514.693897
380.306013	2514.036026
380.691563	2514.956037
381.077049	2515.387055
381.462474	2514.167096
381.847835	2514.222549
382.233134	2517.380832
382.618371	2516.241531
383.003545	2516.304545
383.388657	2514.759432
383.773706	2517.900070
384.158693	2518.774711
384.543618	2518.041223
384.928480	2514.779596
385.313280	2517.363187
385.698017	2513.922600
386.082692	2518.046264
386.467305	2516.851510
386.851856	2519.094824
387.236344	2520.397962
387.620770	2520.387880
388.005133	2517.368229
388.389435	2519.765297
388.773674	2517.514422
389.157851	2518.409227
389.541965	2519.833353
389.926018	2518.983918
390.310008	2520.881913
390.693936	2517.680780
391.077802	2521.980884
391.461606	2521.126409
391.845348	2520.163548
392.229027	2520.551717
392.612645	2520.808816
392.996200	2520.652540
393.379694	2521.796882
393.763125	2521.539783
394.146494	2521.499454
394.529801	2523.218488
394.913047	2520.322345
395.296230	2523.016842
395.679351	2524.052799
396.062410	2525.534898
396.445408	2520.549197
396.828343	2523.442819
397.211217	2517.839577
397.594028	2521.648168
397.976778	2521.396111
398.359466	2521.149094
398.742092	2521.154135
399.124656	2524.745957
399.507158	2525.807120
399.889598	2524.365350
400.271977	2523.785617
400.654294	2526.573376
401.036549	2523.067253
401.418742	2526.273427
401.800874	2523.979702
402.182944	2523.788138
402.564952	2521.675895
402.946898	2526.520443
403.328783	2524.995494
403.710606	2527.891637
404.092367	2528.272244
404.474067	2526.883407
404.855705	2526.815351
405.237282	2526.807789
405.618797	2527.047244
406.000250	2525.975999
406.381642	2525.829805
406.762972	2528.196627
407.144240	2525.794517
407.525447	2530.470187
407.906593	2527.528674
408.287677	2527.498427
408.668700	2528.443644
409.049661	2531.506145
409.430560	2528.317615
409.811399	2530.298788
410.192176	2529.794673
410.572891	2529.575383
410.953545	2528.189065
411.334138	2531.803573
411.714669	2529.421627
412.095139	2527.992460
412.475547	2529.840043
412.855894	2527.737882
413.236180	2531.775846
413.616405	2532.113604
413.996568	2532.602596
414.376670	2528.998171
414.756711	2531.758202
415.136691	2532.731145
415.516609	2529.676206
415.896466	2532.567308
416.276262	2531.901875
416.655997	2527.659744
417.035670	2529.630835
417.415283	2527.977337
417.794834	2526.643952
418.174324	2532.101001
418.553753	2531.392719
418.933121	2532.461443
419.312428	2531.246525
419.691674	2534.941691
420.070859	2533.832637
420.449983	2533.663758
420.829045	2534.709798
421.208047	2533.366330
421.586988	2535.198790
421.965867	2534.278779
422.344686	2531.521268
422.723444	2535.559232
423.102141	2537.260622
423.480777	2533.847761
423.859352	2533.867925
424.237866	2536.817000
424.616319	2533.797349
424.994712	2534.878677
425.373044	2534.724921
425.751314	2535.173584
426.129524	2534.210724
426.507673	2535.433203
426.885762	2535.259284
427.263789	2535.292051
427.641756	2536.328008
428.019662	2537.515200
428.397508	2538.614172
428.775292	2535.924716
429.153016	2538.604089
429.530679	2538.717515
429.908282	2535.395395
430.285824	2536.161650
430.663305	2535.090405
431.040726	2537.426980
431.418086	2535.566794
431.795385	2538.359593
432.172624	2537.366486
432.549802	2536.496887
432.926920	2536.123842
433.303977	2539.982845
433.680974	2537.747093
434.057910	2539.451003
434.434786	2536.902700
434.811601	2537.830272
435.188355	2539.682896
435.565050	2538.021836
435.941683	2538.067206
436.318257	2533.817514
436.694770	2532.514375
437.071222	2535.604603
437.447614	2534.717360
437.823946	2536.136444
438.200218	2539.234233
438.576429	2538.914120
438.952580	2539.372865
439.328670	2539.526620
439.704700	2538.992258
440.080670	2540.426466
440.456580	2539.733308
440.832429	2539.211548
441.208218	2539.221631
441.583947	2539.627443
441.959616	2538.740200
442.335224	2544.008206
442.710773	2538.548637
443.086261	2539.836651
443.461689	2540.287835
443.837057	2540.202135
444.212365	2538.825900
444.587612	2540.113915
444.962800	2542.216076
445.337927	2540.965870
445.712995	2541.409491
446.088002	2542.447969
446.462949	2541.764893
446.837837	2540.335726
447.212664	2542.647095
447.587431	2541.759852
447.962139	2540.688606
448.336786	2545.777651
448.711374	2544.875285
449.085901	2542.987372
449.460369	2542.984852
449.834776	2543.206663
450.209124	2541.787578
450.583412	2545.512991
450.957640	2540.842362
451.331808	2544.802188
451.705917	2544.366128
452.079965	2544.114070
452.453954	2545.714637
452.827883	2544.751776
453.201752	2542.881508
453.575562	2544.187167
453.949311	2542.233720
454.323001	2542.989893
454.696632	2544.353525
455.070202	2545.137425
455.443713	2543.607434
455.817164	2544.845038
456.190556	2541.291024
456.563888	2542.949564
456.937160	2539.617361
457.310373	2545.208001
457.683526	2544.451828
458.056619	2544.522404
458.429653	2543.211704
458.802628	2544.948381
459.175542	2543.579708
459.548398	2543.262115
459.921194	2546.238917
460.293930	2545.576005
460.666607	2548.157076
461.039224	2548.719164
461.411782	2546.748073
461.784280	2547.557178
462.156719	2544.998793
462.529099	2548.290666
462.901419	2545.465100
463.273680	2545.500388
463.645882	2547.136242
464.018024	2547.776469
464.390106	2547.274874
464.762130	2547.005172
465.134094	2547.113557
465.505999	2550.440718
465.877845	2547.930224
466.249631	2550.571788
466.621358	2550.460883
466.993026	2549.455173
467.364634	2554.322407
467.736184	2551.716130
468.107674	2550.370142
468.479105	2548.141952
468.850477	2547.557178
469.221790	2551.131357
469.593043	2548.194884
469.964238	2551.080945
470.335373	2548.242775
470.706449	2551.302756
471.077467	2548.615821
471.448425	2549.379556
471.819324	2551.333003
472.190164	2550.276881
472.560945	2553.026830
472.931667	2548.978784
473.302330	2550.942313
473.672934	2550.072714
474.043479	2552.409289
474.413965	2551.569937
474.784393	2546.362425
475.154761	2549.959288
475.525070	2548.051212
475.895321	2547.400903
476.265513	2545.578526
476.635645	2554.226625
477.005719	2550.975081
477.375734	2551.655637
477.745691	2553.377191
478.115588	2552.280740
478.485427	2554.387942
478.855207	2554.849207
479.224928	2554.771070
479.594591	2557.304249
479.964194	2556.001111
480.333739	2556.573282
480.703226	2555.852397
481.072653	2556.273333
481.442022	2559.867676
481.811333	2556.444733
482.180584	2557.631924
482.549777	2558.226781
482.918912	2557.367264
483.287988	2558.884651
483.657005	2558.531770
484.025964	2555.391132
484.394864	2560.936401
484.763706	2560.255845
485.132489	2557.160577
485.501213	2559.512275
485.869879	2561.130485
486.238487	2559.993705
486.607036	2559.051009
486.975527	2560.119734
487.343959	2560.598643
487.712333	2560.001267
488.080648	2561.054868
488.448905	2560.313818
488.817104	2564.334138
489.185244	2565.024777
489.553326	2565.869170
489.921350	2566.010322
490.289315	2567.638615
490.657222	2571.268246
491.025070	2572.979717
491.392861	2572.336970
491.760593	2571.842937
492.128267	2575.349060
492.495883	2573.614903
492.863440	2575.122208
493.230939	2576.780747
493.598380	2577.710840
493.965763	2574.837382
494.333088	2575.984245
494.700354	2576.425346
495.067563	2581.466500
495.434713	2582.305852
495.801805	2589.754157
496.168839	2591.876482
496.535815	2595.375043
496.902733	2591.846236
497.269593	2602.241095
497.636395	2604.885180
498.003139	2606.062289
498.369825	2610.775768
498.736453	2620.628703
499.103023	2618.327417
499.469535	2626.471401
499.835989	2628.835702
500.202385	2634.098667
500.568723	2639.812814
500.935003	2647.334216
501.301226	2651.248672
501.667390	2661.610764
502.033497	2671.370437
502.399546	2674.553926
502.765537	2681.641788
503.131470	2687.953313
503.497345	2695.535208
503.863163	2703.041487
504.228923	2715.926676
504.594625	2724.151318
504.960269	2730.445199
505.325856	2742.206211
505.691385	2747.905235
506.056856	2763.868049
506.422270	2775.271139
506.787625	2784.446039
507.152924	2798.606640
507.518164	2810.244144
507.883347	2821.216215
508.248472	2831.311126
508.613540	2854.036647
508.978550	2865.711959
509.343503	2877.530945
509.708398	2901.642783
510.073236	2920.118612
510.438016	2935.554625
510.802738	2951.537604
511.167403	2972.523927
511.532010	2990.145280
511.896561	3013.763086
512.261053	3041.665873
512.625488	3055.622307
512.989866	3075.396233
513.354186	3093.998091
513.718449	3112.307562
514.082655	3147.348622
514.446803	3168.763443
514.810894	3204.079247
515.174927	3223.192782
515.538904	3247.428129
515.902822	3290.759367
516.266684	3304.927529
516.630488	3333.619257
516.994235	3360.511292
517.357925	3409.244126
517.721558	3439.995164
518.085133	3480.480671
518.448651	3509.500073
518.812112	3529.551262
519.175516	3567.032241
519.538863	3615.515538
519.902152	3637.295844
520.265385	3698.505534
520.628560	3717.823235
520.991678	3764.113630
521.354739	3802.431441
521.717743	3830.528312
522.080690	3866.055843
522.443580	3934.055968
522.806413	3968.837409
523.169189	4009.562370
523.531908	4062.678488
523.894569	4079.737752
524.257174	4124.412458
524.619722	4195.200340
524.982213	4217.920820
525.344647	4292.492088
525.707025	4317.206345
526.069345	4382.859812
526.431608	4423.690638
526.793815	4494.395341
527.155964	4497.999766
527.518057	4552.111512
527.880093	4594.941155
528.242072	4652.828724
528.603995	4692.792471
528.965860	4723.362028
529.327669	4789.607831
529.689421	4823.239889
530.051117	4870.233525
530.412755	4961.211228
530.774337	4966.640551
531.135862	5032.311662
531.497331	5078.526440
531.858743	5096.475468
532.220098	5199.398186
532.581396	5212.633735
532.942638	5255.191156
533.303824	5302.167148
533.664953	5371.273806
534.026025	5388.920365
534.387040	5484.546012
534.747999	5532.043764
535.108902	5616.248677
535.469748	5583.342545
535.830537	5674.221946
536.191270	5722.929575
536.551947	5787.947856
536.912567	5843.758471
537.273131	5869.276791
537.633638	5911.561990
537.994089	5970.573737
538.354483	6008.437843
538.714821	6114.430623
539.075103	6172.116547
539.435328	6219.027004
539.795497	6194.342994
540.155609	6324.296379
540.515665	6410.837867
540.875665	6355.634712
541.235609	6439.096055
541.595496	6489.346276
541.955328	6636.520242
542.315102	6621.177490
542.674821	6659.351628
543.034483	6711.693928
543.394090	6772.966633
543.753640	6787.512882
544.113134	6962.277083
544.472571	6933.048473
544.831953	7074.450318
545.191278	7022.874273
545.550548	7084.499858
545.909761	7216.240332
546.268918	7262.613906
546.628019	7359.920778
546.987064	7346.309663
547.346053	7338.216090
547.704986	7462.052034
548.063863	7503.825556
548.422684	7542.145887
548.781449	7554.421096
549.140158	7663.005029
549.498811	7646.969119
549.857408	7593.059020
550.215949	7803.307903
550.574434	7752.752691
550.932864	7875.653502
551.291237	7947.263092
551.649555	7979.561765
552.007817	8033.050927
552.366022	8045.711785
552.724173	8093.880010
553.082267	8123.101059
553.440305	8284.601984
553.798288	8171.138214
554.156215	8334.537133
554.514086	8368.680868
554.871902	8302.051938
555.229661	8374.697485
555.587365	8394.768839
555.945014	8355.732665
556.302606	8497.666351
556.660143	8453.037016
557.017625	8618.049105
557.375050	8581.775483
557.732421	8719.509888
558.089735	8698.886527
558.446994	8735.351714
558.804197	8803.989544
559.161345	8850.753808
559.518437	8763.342721
559.875474	8880.887305
560.232455	8935.803114
560.589381	8928.342207
560.946251	8980.487902
561.303065	9086.962112
561.659825	9077.709074
562.016528	9049.299652
562.373177	8981.271801
562.729770	9119.462431
563.086307	9083.536648
563.442789	9187.321403
563.799216	9131.795614
564.155587	9190.683853
564.511904	9192.859111
564.868164	9212.527172
565.224370	9250.388758
565.580520	9224.280623
565.936615	9238.572294
566.292654	9173.117952
566.648638	9304.301378
567.004567	9295.350809
567.360441	9312.294128
567.716260	9258.371425
568.072023	9367.174649
568.427732	9348.877781
568.783385	9287.552144
569.138982	9377.251915
569.494525	9413.238192
569.850013	9325.161673
570.205445	9420.532742
570.560823	9347.199077
570.916145	9299.550091
571.271412	9382.819870
571.626625	9346.765538
571.981782	9346.488274
572.336884	9346.402574
572.691931	9362.413279
573.046923	9339.642387
573.401860	9311.091812
573.756743	9273.174774
574.111570	9326.689142
574.466342	9331.556376
574.821059	9369.029793
575.175722	9289.747567
575.530330	9312.836052
575.884882	9318.580446
576.239380	9267.914330
576.593823	9258.056353
576.948211	9286.773286
577.302544	9182.653295
577.656823	9218.498419
578.011047	9224.250376
578.365216	9217.235610
578.719330	9149.283377
579.073389	9173.528806
579.427394	9138.023960
579.781344	9124.821178
580.135239	9087.516639
580.489080	9101.737734
580.842866	9013.144497
581.196597	9032.762147
581.550273	9082.228469
581.903895	9055.109582
582.257463	9130.167321
582.610975	9023.204119
582.964434	9050.998521
583.317837	8992.745467
583.671186	8976.790216
584.024481	8973.657138
584.377721	8903.133917
584.730906	8891.080518
585.084037	8926.451774
585.437113	8872.970173
585.790135	8894.085046
586.143103	8809.602869
586.496016	8785.047408
586.848874	8849.274229
587.201679	8844.049073
587.554428	8733.675530
587.907124	8781.226214
588.259765	8764.439172
588.612352	8765.129810
588.964884	8645.475502
589.317362	8667.875870
589.669786	8666.134151
590.022155	8723.273109
590.374470	8741.484278
590.726731	8683.440432
591.078937	8541.141262
591.431090	8651.794589
591.783188	8535.853092
592.135232	8529.138275
592.487222	8529.526443
592.839157	8586.330165
593.191038	8519.345833
593.542866	8474.421591
593.894639	8378.508598
594.246358	8429.605733
594.598022	8445.823125
594.949633	8345.131118
595.301190	8330.237029
595.652692	8354.318621
596.004141	8466.360786
596.355535	8245.207887
596.706876	8234.243377
597.058162	8168.473964
597.409395	8251.035461
597.760573	8305.948750
598.111698	8218.267961
598.462768	8212.533648
598.813785	8172.300200
599.164748	8146.134091
599.515657	8133.168243
599.866511	8047.834111
600.217312	8176.827156
600.568060	8035.271556
600.918753	8137.589335
601.269392	8111.377855
601.619978	8025.980709
601.970510	8089.874814
602.320988	8082.451715
602.671412	8136.860888
603.021783	8079.600942
603.372100	8053.054226
603.722363	8055.143784
604.072572	8028.692850
604.422728	8050.148001
604.772830	7978.548493
605.122878	7986.054771
605.472872	7973.134293
605.822813	8004.296186
606.172701	7951.807692
606.522534	8029.396091
606.872314	8023.167745
607.222041	7999.678489
607.571714	8052.981129
607.921333	8015.568206
608.270899	8020.674895
608.620411	8107.110519
608.969870	8013.387907
609.319276	8011.951178
609.668627	8028.597068
610.017926	8057.845843
610.367171	8105.338553
610.716362	8084.629493
611.065500	8075.270591
611.414585	8103.644725
611.763616	8092.229032
612.112594	8073.879232
612.461518	8087.215605
612.810389	8150.396386
613.159207	8087.639062
613.507971	8036.544447
613.856682	8151.674319
614.205340	8109.913400
614.553945	8185.379473
614.902496	8088.485976
615.250994	8143.679049
615.599439	8121.654247
615.947830	8141.760890
616.296169	8112.454142
616.644454	8125.500648
616.992686	8121.830688
617.340864	8180.610542
617.688990	8090.310873
618.037063	8174.306579
618.385082	8130.776215
618.733048	8212.828556
619.080961	8151.414699
619.428821	8166.238212
619.776628	8169.693923
620.124382	8121.177858
620.472083	8112.156714
620.819731	8138.355590
621.167326	8027.913992
621.514868	8039.135600
621.862357	7924.676202
622.209793	7944.223276
622.557176	7878.922690
622.904506	7848.779110
623.251783	7781.746888
623.599007	7739.582677
623.946179	7744.336485
624.293297	7704.002213
624.640363	7616.656661
624.987376	7604.973787
625.334336	7550.441105
625.681243	7504.496029
626.028097	7487.537588
626.374899	7465.648898
626.721647	7458.644214
627.068343	7391.861529
627.414987	7364.619133
627.761577	7319.669685
628.108115	7357.553956
628.454600	7250.946155
628.801032	7298.317878
629.147412	7259.130468
629.493739	7251.815754
629.840014	7190.023811
630.186236	7244.869044
630.532405	7129.575335
630.878521	7181.027872
631.224585	7135.549102
631.570597	7064.612506
631.916556	7093.836075
632.262462	7084.860301
632.608316	7053.753861
632.954117	7032.134873
633.299866	7018.208685
633.645562	7008.068404
633.991206	6930.079233
634.336797	6876.217025
634.682336	6831.292783
635.027823	6798.197608
635.373257	6788.115300
635.718639	6724.947122
636.063968	6733.726291
636.409245	6635.244830
636.754470	6626.798377
637.099642	6584.067036
637.444762	6527.210383
637.789829	6538.991559
638.134845	6486.661862
638.479808	6473.045705
638.824719	6476.342620
639.169577	6401.874695
639.514383	6421.804897
639.859137	6349.000553
640.203839	6360.449013
640.548489	6349.295461
640.893086	6320.833106
641.237632	6293.116842
641.582125	6315.318084
641.926566	6283.427744
642.270955	6300.703779
642.615292	6293.613396
642.959576	6308.971271
643.303809	6296.101205
643.647990	6306.695190
643.992118	6295.299662
644.336195	6244.736889
