Dividing Wavelength (nm)	Counts (n)	Blue Motor Position (mm): 45.900000	Red Motor Position (mm): 0.000000	
326.493990	2129.504372
326.888308	2129.504372
327.282561	2129.504372
327.676750	2096.797366
328.070874	2098.087902
328.464933	2097.659403
328.858929	2105.435383
329.252859	2115.273195
329.646726	2126.517489
330.040528	2141.184726
330.434265	2159.274906
330.827938	2173.785868
331.221547	2192.107941
331.615091	2209.452031
332.008571	2230.027501
332.401986	2250.247569
332.795338	2268.506628
333.188625	2286.679988
333.581847	2306.514407
333.975006	2326.820175
334.368100	2342.861127
334.761129	2364.071781
335.154095	2378.791951
335.546996	2399.717780
335.939833	2425.790628
336.332606	2441.486260
336.725315	2454.860442
337.117960	2461.875207
337.510540	2472.375931
337.903056	2481.618886
338.295508	2490.791266
338.687896	2499.325939
339.080220	2508.173164
339.472480	2512.246416
339.864676	2517.277488
340.256807	2520.120699
340.648875	2526.452388
341.040879	2525.315608
341.432818	2527.198479
341.824694	2530.986906
342.216506	2530.586134
342.608253	2531.296937
342.999937	2530.132430
343.391557	2528.478932
343.783113	2529.240146
344.174605	2528.262162
344.566033	2528.073119
344.957397	2526.094466
345.348697	2522.767304
345.739934	2523.314270
346.131106	2521.098682
346.522215	2519.684639
346.913260	2516.791017
347.304241	2514.058711
347.695159	2509.670387
348.086012	2514.114164
348.476802	2509.844307
348.867528	2510.943278
349.258191	2507.202742
349.648789	2504.820797
350.039324	2501.148316
350.429796	2503.172339
350.820203	2503.575632
351.210548	2500.881135
351.600828	2500.102277
351.991045	2500.412308
352.381198	2498.446258
352.771288	2500.785353
353.161314	2500.445075
353.551276	2500.094715
353.941175	2498.380723
354.331010	2498.446258
354.720782	2496.742348
355.110490	2500.929026
355.500135	2497.095228
355.889717	2499.819972
356.279235	2501.488594
356.668689	2500.336690
357.058080	2501.712925
357.447408	2500.964314
357.836672	2498.168994
358.225873	2500.908861
358.615010	2493.087511
359.004084	2502.955570
359.393095	2501.889366
359.782043	2505.907165
360.170927	2501.470950
360.559748	2503.121928
360.948505	2503.068996
361.337199	2508.894049
361.725830	2506.938081
362.114398	2507.666528
362.502903	2509.345232
362.891344	2508.762979
363.279722	2508.054697
363.668037	2510.366066
364.056289	2511.311282
364.444478	2510.194667
364.832603	2511.412105
365.220665	2509.960253
365.608665	2511.505367
365.996601	2515.354288
366.384474	2513.509225
366.772284	2512.503515
367.160031	2515.649195
367.547715	2514.257837
367.935336	2515.563496
368.322893	2515.858403
368.710388	2515.190450
369.097820	2519.127591
369.485189	2514.950995
369.872495	2514.842611
370.259738	2517.844618
370.646918	2519.326717
371.034035	2517.005266
371.421090	2518.757067
371.808081	2519.094824
372.195010	2521.834691
372.581875	2522.358971
372.968678	2523.246214
373.355418	2528.327697
373.742096	2533.013450
374.128710	2533.346166
374.515262	2536.799356
374.901751	2541.679193
375.288177	2549.235883
375.674540	2557.747871
376.060841	2569.085426
376.447079	2575.560788
376.833254	2588.393045
377.219367	2594.989395
377.605417	2614.896912
377.991404	2624.283540
378.377329	2638.948257
378.763191	2653.776811
379.148991	2677.019050
379.534727	2696.099818
379.920402	2717.192005
380.306013	2732.401167
380.691563	2766.161774
381.077049	2786.444856
381.462474	2807.249698
381.847835	2839.681962
382.233134	2867.688092
382.618371	2878.501367
383.003545	2931.241918
383.388657	2950.138683
383.773706	2991.652585
384.158693	3013.200998
384.543618	3045.862633
384.928480	3087.096751
385.313280	3136.197590
385.698017	3150.748880
386.082692	3206.662838
386.467305	3225.297463
386.851856	3263.103597
387.236344	3298.459729
387.620770	3338.922550
388.005133	3377.371431
388.389435	3410.786719
388.773674	3434.452416
389.157851	3485.917555
389.541965	3512.028212
389.926018	3494.253103
390.310008	3570.956780
390.693936	3594.428392
391.077802	3645.565857
391.461606	3643.148623
391.845348	3717.213256
392.229027	3721.044533
392.612645	3741.141092
392.996200	3822.306190
393.379694	3864.941748
393.763125	3935.913633
394.146494	3908.794746
394.529801	3974.687668
394.913047	4027.536604
395.296230	3999.033920
395.679351	4056.916449
396.062410	4079.520983
396.445408	4066.275351
396.828343	4101.901185
397.211217	4126.406234
397.594028	4050.839338
397.976778	4120.669401
398.359466	4143.215961
398.742092	4173.011701
399.124656	4099.398252
399.507158	4179.875232
399.889598	4204.692833
400.271977	4269.915281
400.654294	4237.107452
401.036549	4246.549533
401.418742	4216.264801
401.800874	4321.032581
402.182944	4339.029500
402.564952	4405.280344
402.946898	4395.820619
403.328783	4385.314854
403.710606	4302.163542
404.092367	4496.298377
404.474067	4459.732367
404.855705	4468.188903
405.237282	4392.188468
405.618797	4506.597454
406.000250	4541.998957
406.381642	4621.916369
406.762972	4582.179474
407.144240	4591.256071
407.525447	4594.111885
407.906593	4654.734280
408.287677	4694.728274
408.668700	4621.744970
409.049661	4678.054658
409.430560	4715.853230
409.811399	4638.796673
410.192176	4803.977640
410.572891	4742.843567
410.953545	4844.979865
411.334138	4726.593408
411.714669	4793.902894
412.095139	4690.914642
412.475547	4828.490251
412.855894	4811.398218
413.236180	4824.207790
413.616405	4773.120737
413.996568	4863.707751
414.376670	4805.477383
414.756711	4758.755969
415.136691	4791.626813
415.516609	4867.793607
415.896466	4907.051592
416.276262	4943.292447
416.655997	4920.219086
417.035670	5103.152477
417.415283	5192.569943
417.794834	5136.474504
418.174324	5087.298048
418.553753	4998.319162
418.933121	5181.096277
419.312428	5248.360393
419.691674	5188.877298
420.070859	5316.181556
420.449983	5226.590170
420.829045	5343.744065
421.208047	5250.535651
421.586988	5321.744469
421.965867	5335.479093
422.344686	5467.496830
422.723444	5321.419315
423.102141	5138.304443
423.480777	5437.844763
423.859352	5206.511254
424.237866	5465.976922
424.616319	5458.019461
424.994712	5567.357046
425.373044	5443.195948
425.751314	5586.876394
426.129524	5391.327516
426.507673	5582.770374
426.885762	5665.873795
427.263789	5596.661274
427.641756	5481.798583
428.019662	5599.721254
428.397508	5605.508499
428.775292	5554.970931
429.153016	5652.880221
429.530679	5583.526547
429.908282	5664.116953
430.285824	5536.530391
430.663305	5813.781249
431.040726	5544.379467
431.418086	5547.794849
431.795385	5652.222351
432.172624	5666.277088
432.549802	5657.825593
432.926920	5668.585936
433.303977	5678.355692
433.680974	5716.880190
434.057910	5733.682356
434.434786	5739.048664
434.811601	5706.238314
435.188355	5943.714469
435.565050	5818.673689
435.941683	5798.942613
436.318257	6017.859760
436.694770	5999.930896
437.071222	6032.224528
437.447614	5963.639630
437.823946	5878.446650
438.200218	6032.007758
438.576429	5894.217900
438.952580	5996.381924
439.328670	6039.216608
439.704700	5949.375685
440.080670	5933.644764
440.456580	6207.805396
440.832429	6082.124389
441.208218	5938.201967
441.583947	6088.539257
441.959616	6093.073775
442.335224	6021.139030
442.710773	6157.484598
443.086261	6182.823958
443.461689	5979.466332
443.837057	6127.240195
444.212365	6282.046468
444.587612	6173.598646
444.962800	6332.538665
445.337927	6308.028575
445.712995	5920.076499
446.088002	6501.069479
446.462949	6324.929043
446.837837	6257.029742
447.212664	6432.116577
447.587431	6576.850625
447.962139	7115.500434
448.336786	8041.073924
448.711374	7780.993235
449.085901	6855.888572
449.460369	6781.536594
449.834776	6713.181069
450.209124	7104.256140
450.583412	7252.904643
450.957640	7399.503918
451.331808	7168.165368
451.705917	6720.783129
452.079965	6635.360777
452.453954	6856.516196
452.827883	6730.905766
453.201752	6821.938922
453.575562	6626.112780
453.949311	6824.474622
454.323001	6716.611574
454.696632	6788.702594
455.070202	6928.856754
455.443713	7084.424241
455.817164	7180.473345
456.190556	7264.607682
456.563888	7338.435380
456.937160	7383.296608
457.310373	7039.948661
457.683526	7066.139976
458.056619	6958.037473
458.429653	6948.363498
458.802628	6883.181379
459.175542	6989.650548
459.548398	7342.508632
459.921194	7505.161461
460.293930	7503.142479
460.666607	8039.924541
461.039224	8340.543668
461.411782	8473.680541
461.784280	8490.762491
462.156719	8383.358188
462.529099	8259.323118
462.901419	7841.461876
463.273680	7740.696772
463.645882	7757.453567
464.018024	7615.678677
464.390106	7785.895757
464.762130	8175.624841
465.134094	8643.665728
465.505999	9672.008181
465.877845	10886.550692
466.249631	11535.342151
466.621358	11148.262194
466.993026	10518.564105
467.364634	10266.738306
467.736184	9904.644828
468.107674	9569.085463
468.479105	9608.948387
468.850477	9371.920895
469.221790	9140.415987
469.593043	8813.232500
469.964238	8677.169237
470.335373	8678.598404
470.706449	8738.953618
471.077467	8726.600271
471.448425	10036.478563
471.819324	11111.184507
472.190164	11132.420368
472.560945	9882.884687
472.931667	9088.492103
473.302330	8958.195920
473.672934	8602.088812
474.043479	8966.912075
474.413965	8905.495697
474.784393	8781.884084
475.154761	8945.570350
475.525070	9024.771918
475.895321	8854.847225
476.265513	9039.058548
476.635645	9201.335811
477.005719	9201.174494
477.375734	9311.086771
477.745691	9549.624089
478.115588	9684.268267
478.485427	9932.083828
478.855207	10475.797476
479.224928	11282.886207
479.594591	11919.873804
479.964194	11719.795449
480.333739	11667.871565
480.703226	11575.880589
481.072653	11671.475990
481.442022	11908.001887
481.811333	12098.607914
482.180584	11894.206769
482.549777	11611.309818
482.918912	11437.987388
483.287988	11457.073196
483.657005	11465.648199
484.025964	11143.135340
484.394864	11281.068871
484.763706	11251.681465
485.132489	11005.116110
485.501213	10972.290636
485.869879	11046.705629
486.238487	10892.300128
486.607036	11001.438588
486.975527	10779.426172
487.343959	10970.652261
487.712333	11018.976762
488.080648	10948.284662
488.448905	10995.651343
488.817104	10930.577609
489.185244	11205.431399
489.553326	11351.342556
489.921350	11893.115360
490.289315	12955.798152
490.657222	13297.903455
491.025070	13207.397099
491.392861	13080.589395
491.760593	12699.329450
492.128267	12346.405831
492.495883	12018.430882
492.863440	11681.296157
493.230939	11352.595283
493.598380	11271.654516
493.965763	11141.502006
494.333088	11044.084229
494.700354	10963.511467
495.067563	11020.650425
495.434713	10856.974242
495.801805	10985.006947
496.168839	10912.857953
496.535815	10845.835813
496.902733	10843.474032
497.269593	10776.472056
497.636395	10877.199351
498.003139	10866.307938
498.369825	10737.997970
498.736453	10895.465972
499.103023	10817.179374
499.469535	10852.180105
499.835989	10837.711993
500.202385	10803.825357
500.568723	10657.707513
500.935003	10876.695236
501.301226	10683.205669
501.667390	10939.697056
502.033497	11033.727178
502.399546	10898.916642
502.765537	10804.233691
503.131470	10869.861952
503.497345	11054.441279
503.863163	10662.453759
504.228923	10966.795779
504.594625	11032.865141
504.960269	10780.212592
505.325856	11000.813485
505.691385	10793.324634
506.056856	10952.337749
506.422270	10971.930194
506.787625	10859.721671
507.152924	10989.531383
507.518164	10962.886364
507.883347	10875.162725
508.248472	10800.888885
508.613540	11034.531242
508.978550	10921.579149
509.343503	10894.760211
509.708398	11020.075734
510.073236	11129.551951
510.438016	11136.458332
510.802738	11083.342214
511.167403	11132.740481
511.532010	11030.785665
511.896561	11260.589184
512.261053	11335.561224
512.625488	11209.978520
512.989866	11185.591938
513.354186	11178.118427
513.718449	11079.311812
514.082655	11274.838005
514.446803	11165.845738
514.810894	11289.906014
515.174927	11151.052472
515.538904	11180.875938
515.902822	11329.584936
516.266684	11211.886596
516.630488	11161.074286
516.994235	11210.182686
517.357925	11272.811461
517.721558	11360.615758
518.085133	11380.203162
518.448651	11392.906869
518.812112	11276.128540
519.175516	11281.762030
519.538863	11403.866338
519.902152	11317.208903
520.265385	11479.443316
520.628560	11387.805222
520.991678	11382.643080
521.354739	11438.168869
521.717743	11369.878878
522.080690	11349.943636
522.443580	11487.133596
522.806413	11438.413365
523.169189	11468.186420
523.531908	11529.549865
523.894569	11342.318890
524.257174	11349.379026
524.619722	11471.311935
524.982213	11411.208778
525.344647	11470.311266
525.707025	11425.727301
526.069345	11520.632064
526.431608	11429.853486
526.793815	11547.496372
527.155964	11334.421923
527.518057	11388.107691
527.880093	11336.234218
528.242072	11398.540359
528.603995	11302.473610
528.965860	11228.514842
529.327669	11274.880855
529.689421	11224.567619
530.051117	11192.987311
530.412755	11300.457149
530.774337	11191.951353
531.135862	11168.875472
531.497331	11195.293638
531.858743	11046.871987
532.220098	11214.901206
532.581396	11090.188101
532.942638	11069.710934
533.303824	11027.024964
533.664953	11042.619774
534.026025	10960.007865
534.387040	11049.460619
534.747999	11060.624255
535.108902	11118.461413
535.469748	10870.164421
535.830537	10976.636111
536.191270	10951.821031
536.551947	10982.955197
536.912567	10975.353137
537.273131	10901.923690
537.633638	10884.435928
537.994089	10868.185768
538.354483	10822.830507
538.714821	10967.967847
539.075103	10978.231636
539.435328	10939.450040
539.795497	10767.012331
540.155609	10926.852196
540.515665	11008.370174
540.875665	10742.676161
541.235609	10813.338014
541.595496	10809.458847
541.955328	10962.263781
542.315102	10853.294200
542.674821	10798.431323
543.034483	10798.887547
543.394090	10800.034409
543.753640	10736.349513
544.113134	10952.572163
544.472571	10809.226953
544.831953	10949.373551
545.191278	10755.886505
545.550548	10784.656370
545.909761	10920.835579
546.268918	10900.071066
546.628019	10978.604682
546.987064	10843.771460
547.346053	10763.354974
547.704986	10869.362878
548.063863	10850.458551
548.422684	10846.080309
548.781449	10758.742318
549.140158	10869.088135
549.498811	10741.602395
549.857408	10598.496640
550.215949	10828.443832
550.574434	10683.745073
550.932864	10777.213106
551.291237	10837.603608
551.649555	10789.647112
552.007817	10801.140943
552.366022	10760.153841
552.724173	10748.289486
553.082267	10738.837322
553.440305	10878.951152
553.798288	10676.422797
554.156215	10826.273615
554.514086	10809.479011
554.871902	10655.411267
555.229661	10694.656650
555.587365	10663.527525
555.945014	10566.260982
556.302606	10686.000989
556.660143	10579.136089
557.017625	10740.876469
557.375050	10631.173400
557.732421	10763.077711
558.089735	10681.118631
558.446994	10685.804384
558.804197	10717.566174
559.161345	10719.509538
559.518437	10563.780734
559.875474	10659.572740
560.232455	10691.044663
560.589381	10646.589248
560.946251	10635.125664
561.303065	10744.707746
561.659825	10682.593169
562.016528	10609.917374
562.373177	10481.284772
562.729770	10599.318348
563.086307	10513.706953
563.442789	10606.476787
563.799216	10485.612603
564.155587	10535.235201
564.511904	10495.699952
564.868164	10476.329318
565.224370	10505.517599
565.580520	10422.585577
565.936615	10429.849880
566.292654	10300.272061
566.648638	10432.320045
567.004567	10381.361541
567.360441	10369.721517
567.716260	10281.735738
568.072023	10373.094049
568.427732	10325.354322
568.783385	10227.656761
569.138982	10307.158277
569.494525	10319.151182
569.850013	10188.653353
570.205445	10282.156675
570.560823	10169.186938
570.916145	10084.722405
571.271412	10155.979115
571.626625	10103.508265
571.981782	10075.383668
572.336884	10053.676459
572.691931	10063.572244
573.046923	10005.833388
573.401860	9964.286719
573.756743	9899.107120
574.111570	9936.426782
574.466342	9922.634185
574.821059	9955.389083
575.175722	9841.317853
575.530330	9862.331903
575.884882	9845.444038
576.239380	9772.009550
576.593823	9752.472558
576.948211	9763.663919
577.302544	9647.102360
577.656823	9661.477210
578.011047	9663.052571
578.365216	9642.194797
578.719330	9557.400069
579.073389	9582.257998
579.427394	9524.471252
579.781344	9497.269186
580.135239	9446.993758
580.489080	9451.019120
580.842866	9352.018420
581.196597	9366.473928
581.550273	9408.953211
581.903895	9370.617757
582.257463	9435.852808
582.610975	9317.194129
582.964434	9339.874280
583.317837	9266.306202
583.671186	9244.384744
584.024481	9238.592458
584.377721	9163.126385
584.730906	9140.027818
585.084037	9166.937498
585.437113	9102.778733
585.790135	9125.461404
586.143103	9025.255869
586.496016	8991.913677
586.848874	9057.889778
587.201679	9039.658445
587.554428	8924.349613
587.907124	8971.383578
588.259765	8945.484650
588.612352	8947.654867
588.964884	8824.849839
589.317362	8837.634205
589.669786	8838.839041
590.022155	8884.607676
590.374470	8900.111745
590.726731	8842.861881
591.078937	8695.090539
591.431090	8803.402250
591.783188	8671.424842
592.135232	8669.708329
592.487222	8673.244698
592.839157	8718.478972
593.191038	8656.346751
593.542866	8599.540509
593.894639	8502.979727
594.246358	8554.066780
594.598022	8566.659583
594.949633	8462.958007
595.301190	8434.336856
595.652692	8474.093916
596.004141	8581.097447
596.355535	8350.217642
596.706876	8338.675921
597.058162	8275.169985
597.409395	8350.598249
597.760573	8409.269718
598.111698	8318.864186
598.462768	8306.379768
598.813785	8266.836958
599.164748	8238.485508
599.515657	8226.661482
599.866511	8136.407184
600.217312	8260.893437
600.568060	8123.491748
600.918753	8225.350782
601.269392	8194.388015
601.619978	8109.411805
601.970510	8173.011002
602.320988	8166.152512
602.671412	8229.960917
603.021783	8157.799321
603.372100	8131.587841
603.722363	8138.796691
604.072572	8116.940769
604.422728	8126.826471
604.772830	8051.746047
605.122878	8061.452788
605.472872	8053.512971
605.822813	8085.529339
606.172701	8022.968620
606.522534	8100.907379
606.872314	8097.532326
607.222041	8068.288593
607.571714	8124.681460
607.921333	8091.354392
608.270899	8089.446316
608.620411	8184.653547
608.969870	8085.741067
609.319276	8078.131446
609.668627	8094.300947
610.017926	8131.623129
610.367171	8176.847320
610.716362	8156.922160
611.065500	8146.885222
611.414585	8174.372114
611.763616	8165.610588
612.112594	8144.959502
612.461518	8154.575503
612.810389	8216.027168
613.159207	8156.143302
613.507971	8107.896939
613.856682	8224.652582
614.205340	8181.417126
614.553945	8256.890761
614.902496	8158.356368
615.250994	8206.575005
615.599439	8193.263838
615.947830	8208.288997
616.296169	8179.350253
616.644454	8192.931122
616.992686	8189.684619
617.340864	8247.665450
617.688990	8155.752612
618.037063	8247.201663
618.385082	8190.080349
618.733048	8274.648226
619.080961	8214.469452
619.428821	8237.278152
619.776628	8237.396619
620.124382	8187.882406
620.472083	8168.589910
620.819731	8203.416722
621.167326	8094.442099
621.514868	8103.891742
621.862357	7989.959144
622.209793	8007.542689
622.557176	7941.496012
622.904506	7911.004593
623.251783	7843.231321
623.599007	7796.638456
623.946179	7799.141389
624.293297	7760.195955
624.640363	7675.416350
624.987376	7657.091756
625.334336	7610.488809
625.681243	7557.292033
626.028097	7542.695372
626.374899	7518.765015
626.721647	7517.101434
627.068343	7440.760721
627.414987	7422.995695
627.761577	7371.144907
628.108115	7409.268633
628.454600	7301.196377
628.801032	7354.748554
629.147412	7317.300343
629.493739	7299.585728
629.840014	7235.311017
630.186236	7297.584390
630.532405	7181.864703
630.878521	7232.245995
631.224585	7186.532812
631.570597	7108.309228
631.916556	7139.874412
632.262462	7143.428426
632.608316	7106.217149
632.954117	7079.670433
633.299866	7065.716519
633.645562	7058.968934
633.991206	6977.637479
634.336797	6918.446771
634.682336	6879.019907
635.027823	6844.346851
635.373257	6836.434760
635.718639	6769.911693
636.063968	6781.118178
636.409245	6680.509351
636.754470	6675.105234
637.099642	6632.870447
637.444762	6576.349030
637.789829	6585.894455
638.134845	6526.716350
638.479808	6510.962744
638.824719	6514.153794
639.169577	6446.304905
639.514383	6464.707637
639.859137	6390.884980
640.203839	6397.556947
640.548489	6388.979424
