Dividing Wavelength (nm)	Counts (n)	Blue Motor Position (mm): 31.500000	Red Motor Position (mm): 0.000000	
326.493990	2129.864815
326.888308	2129.864815
327.282561	2129.864815
327.676750	2097.830803
328.070874	2100.076637
328.464933	2099.552357
328.858929	2107.242637
329.252859	2114.438884
329.646726	2129.330453
330.040528	2139.430404
330.434265	2157.792807
330.827938	2176.298883
331.221547	2193.859742
331.615091	2211.881867
332.008571	2230.093036
332.401986	2252.478279
332.795338	2270.949067
333.188625	2287.383228
333.581847	2307.573050
333.975006	2326.217757
334.368100	2343.203925
334.761129	2362.299816
335.154095	2377.123329
335.546996	2399.627039
335.939833	2424.462284
336.332606	2436.477874
336.725315	2452.347426
337.117960	2462.679271
337.510540	2469.646146
337.903056	2479.763742
338.295508	2488.782366
338.687896	2496.732265
339.080220	2502.867350
339.472480	2508.674759
339.864676	2516.286901
340.256807	2519.767818
340.648875	2524.740916
341.040879	2523.324352
341.432818	2528.829292
341.824694	2528.458767
342.216506	2529.449354
342.608253	2528.947759
342.999937	2527.750485
343.391557	2529.202337
343.783113	2527.160670
344.174605	2527.984899
344.566033	2523.707480
344.957397	2524.302336
345.348697	2523.384846
345.739934	2519.830832
346.131106	2517.111130
346.522215	2518.835204
346.913260	2515.923938
347.304241	2515.560975
347.695159	2512.485871
348.086012	2510.348422
348.476802	2506.527227
348.867528	2507.931189
349.258191	2501.304592
349.648789	2501.914572
350.039324	2502.552278
350.429796	2503.303409
350.820203	2499.565394
351.210548	2500.293841
351.600828	2499.033552
351.991045	2496.802842
352.381198	2492.399394
352.771288	2493.518530
353.161314	2494.746051
353.551276	2496.117245
353.941175	2498.852071
354.331010	2494.831750
354.720782	2498.373161
355.110490	2497.400218
355.500135	2496.268479
355.889717	2494.224291
356.279235	2494.965341
356.668689	2499.409118
357.058080	2494.277223
357.447408	2496.255876
357.836672	2495.794611
358.225873	2496.071874
358.615010	2492.719507
359.004084	2499.013388
359.393095	2499.600682
359.782043	2498.531957
360.170927	2500.356855
360.559748	2499.328460
360.948505	2501.007164
361.337199	2503.865498
361.725830	2504.490601
362.114398	2500.515651
362.502903	2503.361383
362.891344	2504.319202
363.279722	2501.513800
363.668037	2504.687206
364.056289	2504.974552
364.444478	2504.369613
364.832603	2501.763337
365.220665	2505.448420
365.608665	2505.859274
365.996601	2509.824142
366.384474	2505.912207
366.772284	2508.387413
367.160031	2507.129645
367.547715	2509.120901
367.935336	2508.216014
368.322893	2507.822804
368.710388	2508.142917
369.097820	2511.517970
369.485189	2506.663338
369.872495	2511.250788
370.259738	2509.012516
370.646918	2509.609893
371.034035	2510.534945
371.421090	2511.391941
371.808081	2508.906652
372.195010	2512.596777
372.581875	2511.356653
372.968678	2512.795902
373.355418	2513.594925
373.742096	2512.798423
374.128710	2511.465038
374.515262	2511.124760
374.901751	2511.417147
375.288177	2514.731705
375.674540	2511.989317
376.060841	2514.192302
376.447079	2512.556447
376.833254	2515.356808
377.219367	2509.516632
377.605417	2513.791530
377.991404	2513.226921
378.377329	2511.303721
378.763191	2512.132990
379.148991	2515.704648
379.534727	2515.485358
379.920402	2515.505522
380.306013	2515.321520
380.691563	2518.081552
381.077049	2518.726820
381.462474	2515.563496
381.847835	2517.673218
382.233134	2518.000893
382.618371	2517.209432
383.003545	2517.884947
383.388657	2519.765297
383.773706	2516.891840
384.158693	2518.840246
384.543618	2520.271933
384.928480	2520.221522
385.313280	2518.323527
385.698017	2519.752694
386.082692	2521.196985
386.467305	2519.455266
386.851856	2520.957530
387.236344	2519.568692
387.620770	2523.468025
388.005133	2522.222860
388.389435	2519.679598
388.773674	2521.161697
389.157851	2519.886285
389.541965	2521.005421
389.926018	2523.742768
390.310008	2520.420647
390.693936	2525.129085
391.077802	2523.629342
391.461606	2522.482479
391.845348	2521.202026
392.229027	2521.610360
392.612645	2526.316277
392.996200	2524.940042
393.379694	2523.468025
393.763125	2525.731503
394.146494	2526.974147
394.529801	2525.101359
394.913047	2527.420289
395.296230	2525.930628
395.679351	2524.302336
396.062410	2526.964065
396.445408	2527.453057
396.828343	2529.358613
397.211217	2524.551873
397.594028	2522.802593
397.976778	2523.954496
398.359466	2526.243180
398.742092	2524.408200
399.124656	2531.370033
399.507158	2529.754344
399.889598	2532.559746
400.271977	2530.089580
400.654294	2529.386339
401.036549	2531.412883
401.418742	2529.159487
401.800874	2530.939015
402.182944	2534.903882
402.564952	2529.759385
402.946898	2532.494211
403.328783	2533.094108
403.710606	2528.899868
404.092367	2533.409180
404.474067	2535.975127
404.855705	2533.063861
405.237282	2532.297606
405.618797	2535.012267
406.000250	2536.741383
406.381642	2534.732483
406.762972	2533.903213
407.144240	2534.775333
407.525447	2539.007382
407.906593	2535.223996
408.287677	2537.303472
408.668700	2538.135262
409.049661	2539.834131
409.430560	2537.285827
409.811399	2539.206507
410.192176	2539.012423
410.572891	2538.299099
410.953545	2538.664583
411.334138	2537.144675
411.714669	2539.335057
412.095139	2539.816487
412.475547	2540.169368
412.855894	2539.181301
413.236180	2542.011909
413.616405	2542.689944
413.996568	2542.415202
414.376670	2543.294883
414.756711	2544.572815
415.136691	2546.054915
415.516609	2545.742363
415.896466	2547.264792
416.276262	2550.476007
416.655997	2550.881819
417.035670	2552.774773
417.415283	2556.795093
417.794834	2560.369271
418.174324	2564.518141
418.553753	2569.864284
418.933121	2576.236303
419.312428	2583.669484
419.691674	2591.513519
420.070859	2599.115579
420.449983	2604.192021
420.829045	2617.437653
421.208047	2625.117851
421.586988	2636.778040
421.965867	2649.650626
422.344686	2664.151505
422.723444	2669.984120
423.102141	2674.591735
423.480777	2704.034594
423.859352	2707.737321
424.237866	2737.719584
424.616319	2753.750453
424.994712	2779.140224
425.373044	2785.842438
425.751314	2820.850731
426.129524	2823.429282
426.507673	2863.493852
426.885762	2895.585837
427.263789	2911.636871
427.641756	2922.528284
428.019662	2966.136785
428.397508	2992.411279
428.775292	3016.802902
429.153016	3060.189593
429.530679	3078.909917
429.908282	3126.372381
430.285824	3133.339255
430.663305	3222.371073
431.040726	3204.631253
431.418086	3235.359606
431.795385	3300.698001
432.172624	3343.419260
432.549802	3376.703478
432.926920	3421.446239
433.303977	3466.720842
433.680974	3519.123636
434.057910	3569.719176
434.434786	3614.842544
434.811601	3651.547186
435.188355	3772.577728
435.565050	3779.199283
435.941683	3817.854851
436.318257	3955.763176
436.694770	3993.682735
437.071222	4062.393662
437.447614	4085.260336
437.823946	4090.959361
438.200218	4213.759348
438.576429	4205.322977
438.952580	4308.654028
439.328670	4381.327302
439.704700	4384.228486
440.080670	4424.920679
440.456580	4628.767297
440.832429	4620.983755
441.208218	4574.496755
441.583947	4718.923292
441.959616	4776.455461
442.335224	4778.310605
442.710773	4909.345317
443.086261	4986.308613
443.461689	4891.620620
443.837057	5040.997570
444.212365	5197.676632
444.587612	5165.418288
444.962800	5326.117670
445.337927	5351.167164
445.712995	5111.195638
446.088002	5592.653556
446.462949	5496.995142
446.837837	5490.000541
447.212664	5655.546992
447.587431	5825.985883
447.962139	6305.323996
448.336786	7091.776764
448.711374	6929.197032
449.085901	6206.701383
449.460369	6182.697929
449.834776	6165.205125
450.209124	6533.564757
450.583412	6703.030705
450.957640	6847.966399
451.331808	6686.339445
451.705917	6314.902188
452.079965	6269.816629
452.453954	6494.813407
452.827883	6404.339819
453.201752	6513.143043
453.575562	6347.531057
453.949311	6560.446710
454.323001	6475.841025
454.696632	6563.065589
455.070202	6711.532611
455.443713	6870.956581
455.817164	6985.274827
456.190556	7079.259579
456.563888	7170.310379
456.937160	7222.521609
457.310373	6900.696868
457.683526	6939.327230
458.056619	6843.310893
458.429653	6843.683939
458.802628	6786.814682
459.175542	6896.502628
459.548398	7256.748523
459.921194	7420.028976
460.293930	7425.256652
460.666607	7954.676109
461.039224	8261.742872
461.411782	8392.492758
461.784280	8416.130729
462.156719	8311.735994
462.529099	8205.695323
462.901419	7799.209445
463.273680	7698.288065
463.645882	7710.500260
464.018024	7580.340189
464.390106	7750.668174
464.762130	8135.419118
465.134094	8603.661652
465.505999	9613.813101
465.877845	10834.964564
466.249631	11486.238792
466.621358	11108.991605
466.993026	10484.352314
467.364634	10228.912008
467.736184	9866.982368
468.107674	9544.577894
468.479105	9570.002953
468.850477	9342.382254
469.221790	9112.019168
469.593043	8781.664794
469.964238	8644.053897
470.335373	8658.983274
470.706449	8719.131801
471.077467	8707.983290
471.448425	10009.483184
471.819324	11071.561038
472.190164	11093.197670
472.560945	9851.566519
472.931667	9064.443278
473.302330	8931.404707
473.672934	8582.458559
474.043479	8937.111294
474.413965	8880.244558
474.784393	8765.475129
475.154761	8918.269981
475.525070	9008.907407
475.895321	8832.041045
476.265513	9012.174074
476.635645	9179.860495
477.005719	9176.147686
477.375734	9290.208833
477.745691	9530.394607
478.115588	9661.746912
478.485427	9910.023739
478.855207	10445.479977
479.224928	11251.474778
479.594591	11881.918957
479.964194	11689.014164
480.333739	11629.394958
480.703226	11548.892772
481.072653	11639.391566
481.442022	11878.001980
481.811333	12063.987790
482.180584	11871.899664
482.549777	11581.388050
482.918912	11406.545711
483.287988	11428.681417
483.657005	11433.641913
484.025964	11122.280087
484.394864	11251.192473
484.763706	11227.126004
485.132489	10974.932201
485.501213	10947.949425
485.869879	11018.623881
486.238487	10867.664009
486.607036	10974.990174
486.975527	10757.111505
487.343959	10943.553539
487.712333	10990.090951
488.080648	10922.826835
488.448905	10967.756118
488.817104	10907.184134
489.185244	11169.485451
489.553326	11328.301962
489.921350	11867.738191
490.289315	12922.408070
490.657222	13266.938167
491.025070	13162.866067
491.392861	13041.853169
491.760593	12660.464675
492.128267	12316.521871
492.495883	11988.922488
492.863440	11656.196252
493.230939	11315.943573
493.598380	11250.108625
493.965763	11122.685900
494.333088	11024.486743
494.700354	10945.791811
495.067563	11001.796510
495.434713	10835.829122
495.801805	10965.313679
496.168839	10883.788139
496.535815	10819.934364
496.902733	10831.271919
497.269593	10758.422205
497.636395	10849.155413
498.003139	10844.557880
498.369825	10713.190452
498.736453	10869.110820
499.103023	10798.726230
499.469535	10827.596918
499.835989	10812.687706
500.202385	10783.501945
500.568723	10635.039965
500.935003	10852.964004
501.301226	10657.498305
501.667390	10914.443396
502.033497	11010.958807
502.399546	10871.901099
502.765537	10780.368868
503.131470	10859.333502
503.497345	11029.684173
503.863163	10638.742692
504.228923	10948.947573
504.594625	11013.287820
504.960269	10761.983780
505.325856	10979.675927
505.691385	10769.948803
506.056856	10927.449573
506.422270	10952.912441
506.787625	10839.138640
507.152924	10954.409664
507.518164	10942.119331
507.883347	10861.148318
508.248472	10781.430031
508.613540	11016.085660
508.978550	10896.063349
509.343503	10875.659279
509.708398	10993.362659
510.073236	11108.172418
510.438016	11113.417738
510.802738	11060.054604
511.167403	11107.030596
511.532010	11006.310863
511.896561	11241.762995
512.261053	11316.445168
512.625488	11182.859632
512.989866	11157.600931
513.354186	11146.462502
513.718449	11054.673173
514.082655	11245.105280
514.446803	11140.345062
514.810894	11265.002714
515.174927	11131.397013
515.538904	11160.565130
515.902822	11302.075359
516.266684	11189.584532
516.630488	11130.804678
516.994235	11190.272649
517.357925	11251.613409
517.721558	11342.719662
518.085133	11354.067299
518.448651	11367.345699
518.812112	11239.093704
519.175516	11258.955850
519.538863	11383.200128
519.902152	11303.073508
520.265385	11459.717281
520.628560	11367.259999
520.991678	11348.519510
521.354739	11418.294120
521.717743	11349.689057
522.080690	11326.656025
522.443580	11462.063938
522.806413	11417.202710
523.169189	11450.350817
523.531908	11499.174392
523.894569	11327.462610
524.257174	11324.576549
524.619722	11446.411156
524.982213	11394.837631
525.344647	11449.939963
525.707025	11395.558516
526.069345	11491.060655
526.431608	11407.075032
526.793815	11511.016063
527.155964	11301.208281
527.518057	11361.656757
527.880093	11304.563169
528.242072	11371.771832
528.603995	11279.158274
528.965860	11204.261851
529.327669	11251.986455
529.689421	11197.378156
530.051117	11168.182313
530.412755	11275.884044
530.774337	11169.112406
531.135862	11144.609878
531.497331	11169.722386
531.858743	11030.773062
532.220098	11186.857267
532.581396	11054.138810
532.942638	11045.621781
533.303824	11006.809937
533.664953	11016.602379
534.026025	10933.897209
534.387040	11035.287415
534.747999	11037.984433
535.108902	11092.189439
535.469748	10850.778664
535.830537	10958.336723
536.191270	10940.899371
536.551947	10953.338418
536.912567	10952.055445
537.273131	10883.425176
537.633638	10861.914573
537.994089	10852.757317
538.354483	10791.146855
538.714821	10947.657038
539.075103	10954.744900
539.435328	10913.684702
539.795497	10740.692467
540.155609	10899.708103
540.515665	10991.832669
540.875665	10725.047246
541.235609	10795.951075
541.595496	10783.809456
541.955328	10942.497417
542.315102	10825.958543
542.674821	10777.974320
543.034483	10774.800914
543.394090	10785.682244
543.753640	10707.342714
544.113134	10930.900243
544.472571	10788.832966
544.831953	10922.743656
545.191278	10738.761705
545.550548	10761.711558
545.909761	10896.184337
546.268918	10874.313291
546.628019	10960.353184
546.987064	10824.794037
547.346053	10742.545091
547.704986	10839.730975
548.063863	10828.889974
548.422684	10823.059880
548.781449	10740.135419
549.140158	10842.024700
549.498811	10717.603982
549.857408	10580.766902
550.215949	10804.258896
550.574434	10651.199383
550.932864	10757.643347
551.291237	10813.393467
551.649555	10760.801630
552.007817	10780.749475
552.366022	10737.254400
552.724173	10731.177289
553.082267	10711.388240
553.440305	10847.302788
553.798288	10650.362552
554.156215	10805.889710
554.514086	10774.478280
554.871902	10631.125509
555.229661	10669.836529
555.587365	10644.040945
555.945014	10538.413648
556.302606	10668.737557
556.660143	10560.009951
557.017625	10713.044259
557.375050	10612.974834
557.732421	10744.112890
558.089735	10655.121401
558.446994	10655.731381
558.804197	10696.776455
559.161345	10695.760663
559.518437	10545.173836
559.875474	10635.637341
560.232455	10664.417289
560.589381	10616.294434
560.946251	10611.265883
561.303065	10715.128776
561.659825	10649.724846
562.016528	10587.033057
562.373177	10461.407503
562.729770	10576.497045
563.086307	10491.732564
563.442789	10580.507283
563.799216	10462.491351
564.155587	10508.567497
564.511904	10466.514192
564.868164	10454.672521
565.224370	10476.120110
565.580520	10399.965920
565.936615	10405.430530
566.292654	10273.632084
566.648638	10402.456250
567.004567	10360.566782
567.360441	10344.109935
567.716260	10259.811760
568.072023	10343.275624
568.427732	10300.483790
568.783385	10205.934429
569.138982	10283.306058
569.494525	10296.377770
569.850013	10168.612246
570.205445	10258.435525
570.560823	10153.256892
570.916145	10068.114324
571.271412	10136.366506
571.626625	10086.517056
571.981782	10063.582326
572.336884	10022.421305
572.691931	10041.751610
573.046923	9984.975614
573.401860	9943.998595
573.756743	9878.438390
574.111570	9924.449001
574.466342	9906.547863
574.821059	9934.942162
575.175722	9825.120626
575.530330	9836.334673
575.884882	9825.808743
576.239380	9753.165717
576.593823	9732.983457
576.948211	9748.467361
577.302544	9631.051326
577.656823	9633.783632
578.011047	9645.090940
578.365216	9617.142783
578.719330	9539.473726
579.073389	9553.160458
579.427394	9505.277058
579.781344	9474.440320
580.135239	9426.514071
580.489080	9435.557901
580.842866	9332.481428
581.196597	9344.476854
581.550273	9384.007062
581.903895	9351.317699
582.257463	9418.483513
582.610975	9293.979616
582.964434	9324.604625
583.317837	9247.905990
583.671186	9226.029903
584.024481	9223.065704
584.377721	9138.737283
584.730906	9121.690621
585.084037	9148.794385
585.437113	9087.496475
585.790135	9104.991799
586.143103	9009.998817
586.496016	8972.774937
586.848874	9035.985965
587.201679	9027.408441
587.554428	8909.652129
587.907124	8956.313049
588.259765	8924.636958
588.612352	8926.476980
588.964884	8805.758989
589.317362	8824.000404
589.669786	8822.172986
590.022155	8869.882466
590.374470	8878.084423
590.726731	8819.755753
591.078937	8671.908793
591.431090	8788.677039
591.783188	8657.808685
592.135232	8655.915732
592.487222	8647.925503
592.839157	8708.527734
593.191038	8640.056262
593.542866	8585.571471
593.894639	8481.249834
594.246358	8535.454840
594.598022	8551.669712
594.949633	8447.277498
595.301190	8422.127181
595.652692	8452.167417
596.004141	8561.172287
596.355535	8339.205242
596.706876	8319.360740
597.058162	8256.679033
597.409395	8334.718615
597.760573	8396.429900
598.111698	8299.788460
598.462768	8291.460474
598.813785	8256.096779
599.164748	8224.614774
599.515657	8214.282929
599.866511	8126.821430
600.217312	8248.666119
600.568060	8105.212524
600.918753	8212.795788
601.269392	8182.130450
601.619978	8092.899506
601.970510	8157.622880
602.320988	8147.608628
602.671412	8211.837969
603.021783	8144.707444
603.372100	8115.516643
603.722363	8118.067467
604.072572	8093.895134
604.422728	8107.780992
604.772830	8036.216772
605.122878	8042.460241
605.472872	8039.122997
605.822813	8072.321516
606.172701	8017.330089
606.522534	8087.162673
606.872314	8090.411697
607.222041	8057.384577
607.571714	8116.383721
607.921333	8074.698420
608.270899	8078.867454
608.620411	8168.400867
608.969870	8069.246412
609.319276	8067.265239
609.668627	8077.060201
610.017926	8115.889688
610.367171	8161.181935
610.716362	8141.937330
611.065500	8131.991133
611.414585	8157.958117
611.763616	8144.102506
612.112594	8125.999722
612.461518	8144.122670
612.810389	8200.011422
613.159207	8144.394892
613.507971	8088.385153
613.856682	8210.597845
614.205340	8164.998088
614.553945	8240.428873
614.902496	8141.415571
615.250994	8201.813635
615.599439	8178.959564
615.947830	8194.403139
616.296169	8167.105291
616.644454	8179.330089
616.992686	8178.115171
617.340864	8234.492915
617.688990	8141.239130
618.037063	8227.339517
618.385082	8178.750356
618.733048	8260.288499
619.080961	8197.926905
619.428821	8217.355512
619.776628	8220.092859
620.124382	8175.403030
620.472083	8154.331007
620.819731	8183.370573
621.167326	8080.644461
621.514868	8088.944721
621.862357	7972.504149
622.209793	7988.744226
622.557176	7928.149557
622.904506	7896.917088
623.251783	7828.571645
623.599007	7788.623022
623.946179	7786.777959
624.293297	7745.392607
624.640363	7668.951070
624.987376	7649.010786
625.334336	7600.976152
625.681243	7548.384314
626.028097	7533.522993
626.374899	7509.078438
626.721647	7507.787903
627.068343	7433.382992
627.414987	7401.863178
627.761577	7362.096036
628.108115	7398.442755
628.454600	7297.717981
628.801032	7340.192222
629.147412	7305.279711
629.493739	7296.172867
629.840014	7229.387661
630.186236	7282.443284
630.532405	7164.074472
630.878521	7220.142185
631.224585	7173.771131
631.570597	7101.609534
631.916556	7134.422405
632.262462	7126.931250
632.608316	7089.266269
632.954117	7069.898156
633.299866	7051.815537
633.645562	7048.788324
633.991206	6971.459545
634.336797	6906.007724
634.682336	6865.917948
635.027823	6834.730850
635.373257	6828.321023
635.718639	6758.216217
636.063968	6773.788341
636.409245	6665.902607
636.754470	6664.044942
637.099642	6623.075485
637.444762	6564.736732
637.789829	6572.394245
638.134845	6516.578589
638.479808	6502.755745
638.824719	6510.519122
639.169577	6434.064983
639.514383	6456.745134
639.859137	6381.518516
640.203839	6391.137037
640.548489	6376.583226
