Dividing Wavelength (nm)	Counts (n)	Blue Motor Position (mm): 29.400000	Red Motor Position (mm): 0.000000	
326.493990	2129.872377
326.888308	2129.872377
327.282561	2129.872377
327.676750	2097.825762
328.070874	2095.952973
328.464933	2100.797522
328.858929	2106.935127
329.252859	2115.958792
329.646726	2124.501027
330.040528	2140.897380
330.434265	2158.841367
330.827938	2174.698317
331.221547	2193.252283
331.615091	2212.307845
332.008571	2231.260063
332.401986	2251.706983
332.795338	2270.046700
333.188625	2288.943466
333.581847	2307.709161
333.975006	2324.813796
334.368100	2344.832218
334.761129	2362.642614
335.154095	2378.005531
335.546996	2399.506052
335.939833	2425.636873
336.332606	2442.353339
336.725315	2449.365584
337.117960	2463.518623
337.510540	2468.844602
337.903056	2478.047229
338.295508	2488.121975
338.687896	2494.831750
339.080220	2503.167298
339.472480	2513.602487
339.864676	2514.721623
340.256807	2518.651202
340.648875	2523.818385
341.040879	2524.319980
341.432818	2527.516071
341.824694	2528.131092
342.216506	2526.096987
342.608253	2528.526823
342.999937	2527.894158
343.391557	2528.441123
343.783113	2527.783253
344.174605	2527.163191
344.566033	2525.723941
344.957397	2524.839219
345.348697	2522.943745
345.739934	2521.139012
346.131106	2519.281347
346.522215	2513.103413
346.913260	2513.864627
347.304241	2512.692558
347.695159	2510.328257
348.086012	2513.053001
348.476802	2507.558143
348.867528	2506.146620
349.258191	2502.088491
349.648789	2505.766013
350.039324	2501.665034
350.429796	2503.298368
350.820203	2498.600013
351.210548	2498.942811
351.600828	2497.700167
351.991045	2496.959117
352.381198	2495.787049
352.771288	2495.159425
353.161314	2494.110865
353.551276	2494.620022
353.941175	2492.049033
354.331010	2498.463902
354.720782	2495.958448
355.110490	2496.202944
355.500135	2494.020125
355.889717	2493.541215
356.279235	2496.371823
356.668689	2496.308808
357.058080	2494.965341
357.447408	2496.175218
357.836672	2492.991729
358.225873	2494.864518
358.615010	2492.996770
359.004084	2497.972389
359.393095	2499.754437
359.782043	2500.608913
360.170927	2499.522544
360.559748	2498.292502
360.948505	2498.380723
361.337199	2502.201917
361.725830	2498.773933
362.114398	2501.912051
362.502903	2501.521362
362.891344	2502.607730
363.279722	2502.844664
363.668037	2505.045128
364.056289	2504.230982
364.444478	2504.029336
364.832603	2505.420694
365.220665	2507.626199
365.608665	2505.168636
365.996601	2506.088647
366.384474	2505.740807
366.772284	2503.840292
367.160031	2506.318019
367.547715	2507.031343
367.935336	2508.710047
368.322893	2506.728873
368.710388	2507.270798
369.097820	2510.897908
369.485189	2507.071672
369.872495	2508.218534
370.259738	2509.640140
370.646918	2511.364214
371.034035	2510.363545
371.421090	2510.799605
371.808081	2510.792043
372.195010	2509.824142
372.581875	2511.689369
372.968678	2511.452435
373.355418	2511.480161
373.742096	2510.139214
374.128710	2512.662312
374.515262	2515.034174
374.901751	2511.901097
375.288177	2514.409071
375.674540	2515.094668
376.060841	2516.100378
376.447079	2511.795233
376.833254	2514.585512
377.219367	2509.861951
377.605417	2511.049142
377.991404	2508.493277
378.377329	2511.422188
378.763191	2509.771210
379.148991	2513.365553
379.534727	2516.007117
379.920402	2516.478465
380.306013	2513.909997
380.691563	2514.971160
381.077049	2518.194978
381.462474	2514.749349
381.847835	2516.506191
382.233134	2515.371932
382.618371	2519.014165
383.003545	2519.130112
383.388657	2518.522653
383.773706	2521.416275
384.158693	2520.087931
384.543618	2520.471059
384.928480	2516.712879
385.313280	2518.429392
385.698017	2519.278826
386.082692	2520.264372
386.467305	2520.171110
386.851856	2520.579444
387.236344	2519.510719
387.620770	2522.701769
388.005133	2520.982736
388.389435	2522.273271
388.773674	2522.900895
389.157851	2516.496109
389.541965	2522.132119
389.926018	2521.280164
390.310008	2520.554238
390.693936	2523.601615
391.077802	2523.979702
391.461606	2523.215967
391.845348	2523.183200
392.229027	2523.215967
392.612645	2521.862417
392.996200	2524.229239
393.379694	2523.384846
393.763125	2526.722090
394.146494	2523.347037
394.529801	2527.178314
394.913047	2525.600433
395.296230	2524.458612
395.679351	2526.528005
396.062410	2525.360978
396.445408	2523.833508
396.828343	2523.420134
397.211217	2521.668333
397.594028	2524.146060
397.976778	2521.378467
398.359466	2525.146729
398.742092	2522.285874
399.124656	2525.086235
399.507158	2526.709487
399.889598	2527.841226
400.271977	2526.490197
400.654294	2529.714014
401.036549	2529.905578
401.418742	2527.717717
401.800874	2530.989426
402.182944	2528.299971
402.564952	2527.432892
402.946898	2527.899199
403.328783	2529.492204
403.710606	2528.998171
404.092367	2529.963552
404.474067	2532.264838
404.855705	2530.472708
405.237282	2531.508665
405.618797	2529.517409
406.000250	2530.921371
406.381642	2534.092257
406.762972	2531.828778
407.144240	2531.929602
407.525447	2534.271218
407.906593	2535.297092
408.287677	2531.526309
408.668700	2531.634694
409.049661	2532.524458
409.430560	2532.663089
409.811399	2535.390354
410.192176	2533.441948
410.572891	2532.093439
410.953545	2534.835827
411.334138	2535.478574
411.714669	2534.377082
412.095139	2538.102494
412.475547	2534.427493
412.855894	2538.563760
413.236180	2537.421939
413.616405	2538.485622
413.996568	2537.197607
414.376670	2537.797505
414.756711	2537.195087
415.136691	2539.997968
415.516609	2537.752134
415.896466	2539.201466
416.276262	2537.369007
416.655997	2536.774150
417.035670	2535.826413
417.415283	2538.856147
417.794834	2535.960004
418.174324	2539.274563
418.553753	2541.885880
418.933121	2540.746580
419.312428	2540.454193
419.691674	2540.222300
420.070859	2540.020653
420.449983	2541.422094
420.829045	2540.996117
421.208047	2543.491488
421.586988	2542.379913
421.965867	2545.636499
422.344686	2546.110367
422.723444	2546.586756
423.102141	2548.061294
423.480777	2546.354863
423.859352	2548.499874
424.237866	2548.797302
424.616319	2550.125646
424.994712	2551.650595
425.373044	2552.918446
425.751314	2552.764690
426.129524	2553.392314
426.507673	2557.886503
426.885762	2558.683005
427.263789	2563.041082
427.641756	2563.739282
428.019662	2567.378995
428.397508	2573.085582
428.775292	2577.975501
429.153016	2583.266192
429.530679	2589.814651
429.908282	2596.935280
430.285824	2601.177411
430.663305	2612.116715
431.040726	2617.909001
431.418086	2624.772532
431.795385	2637.498925
432.172624	2646.371356
432.549802	2661.643531
432.926920	2669.159892
433.303977	2684.051460
433.680974	2697.292051
434.057910	2710.777137
434.434786	2726.787842
434.811601	2741.603793
435.188355	2766.670930
435.565050	2775.447579
435.941683	2794.246042
436.318257	2827.633604
436.694770	2845.628002
437.071222	2870.685058
437.447614	2882.993035
437.823946	2897.027607
438.200218	2937.475305
438.576429	2949.659774
438.952580	2986.787872
439.328670	3020.319107
439.704700	3038.331149
440.080670	3061.442319
440.456580	3136.162302
440.832429	3152.747698
441.208218	3157.045281
441.583947	3214.378324
441.959616	3248.501894
442.335224	3276.818056
442.710773	3333.425172
443.086261	3383.677914
443.461689	3371.687530
443.837057	3450.173254
444.212365	3532.621325
444.587612	3542.625495
444.962800	3629.149339
445.337927	3669.733148
445.712995	3602.290071
446.088002	3822.026406
446.462949	3815.230930
446.837837	3844.623378
447.212664	3939.518058
447.587431	4058.176737
447.962139	4322.353363
448.336786	4735.891816
448.711374	4690.801216
449.085901	4380.084657
449.460369	4408.829316
449.834776	4433.687246
450.209124	4671.785983
450.583412	4815.007685
450.957640	4927.904325
451.331808	4884.280700
451.705917	4724.231627
452.079965	4736.960541
452.453954	4908.614350
452.827883	4894.363008
453.201752	5004.020707
453.575562	4947.209424
453.949311	5120.857009
454.323001	5101.085604
454.696632	5200.892888
455.070202	5345.367316
455.443713	5497.249720
455.817164	5620.132886
456.190556	5728.651284
456.563888	5838.077090
456.937160	5916.383853
457.310373	5736.016410
457.683526	5810.038192
458.056619	5779.269510
458.429653	5819.588658
458.802628	5818.386343
459.175542	5943.845539
459.548398	6258.567294
459.921194	6428.993582
460.293930	6465.042873
460.666607	6919.039107
461.039224	7198.750048
461.411782	7359.630912
461.784280	7431.351407
462.156719	7398.992241
462.529099	7353.432813
462.901419	7055.727472
463.273680	7007.846593
463.645882	7057.388533
464.018024	6989.446382
464.390106	7168.046901
464.762130	7538.128087
465.134094	7987.756160
465.505999	8902.929750
465.877845	10016.797898
466.249631	10652.830197
466.621358	10380.234843
466.993026	9866.415238
467.364634	9682.304737
467.736184	9382.056135
468.107674	9102.294782
468.479105	9165.067229
468.850477	8970.456006
469.221790	8780.966594
469.593043	8488.768715
469.964238	8382.864155
470.335373	8413.088393
470.706449	8487.722675
471.077467	8485.247469
471.448425	9762.418754
471.819324	10804.959617
472.190164	10835.168731
472.560945	9653.802054
472.931667	8902.672651
473.302330	8782.839383
473.672934	8449.840925
474.043479	8805.600193
474.413965	8753.441894
474.784393	8654.980598
475.154761	8810.263260
475.525070	8904.701716
475.895321	8738.542764
476.265513	8917.491123
476.635645	9091.196682
477.005719	9094.034851
477.375734	9211.680258
477.745691	9444.498387
478.115588	9581.398482
478.485427	9829.856790
478.855207	10366.142298
479.224928	11171.849752
479.594591	11787.745162
479.964194	11610.619180
480.333739	11544.834643
480.703226	11468.070473
481.072653	11564.328785
481.442022	11796.889815
481.811333	11985.300419
482.180584	11801.593212
482.549777	11515.853050
482.918912	11337.983498
483.287988	11365.815708
483.657005	11376.427337
484.025964	11069.007693
484.394864	11191.757269
484.763706	11162.669811
485.132489	10921.604355
485.501213	10894.016641
485.869879	10963.488782
486.238487	10809.095883
486.607036	10921.659808
486.975527	10705.590913
487.343959	10891.299459
487.712333	10945.181832
488.080648	10875.641635
488.448905	10916.341390
488.817104	10859.204953
489.185244	11126.272681
489.553326	11278.132399
489.921350	11821.044504
490.289315	12870.053166
490.657222	13207.523128
491.025070	13106.992438
491.392861	12983.940393
491.760593	12600.316148
492.128267	12267.380703
492.495883	11940.948348
492.863440	11606.840836
493.230939	11272.105700
493.598380	11207.382325
493.965763	11076.997922
494.333088	10981.064765
494.700354	10893.618389
495.067563	10961.573143
495.434713	10789.538727
495.801805	10921.241392
496.168839	10842.002015
496.535815	10781.573704
496.902733	10778.743096
497.269593	10708.177025
497.636395	10813.781636
498.003139	10803.810234
498.369825	10667.938535
498.736453	10829.482310
499.103023	10754.167471
499.469535	10784.941195
499.835989	10779.670668
500.202385	10733.768442
500.568723	10592.953892
500.935003	10810.134361
501.301226	10620.239137
501.667390	10876.982582
502.033497	10977.210802
502.399546	10826.750004
502.765537	10737.090562
503.131470	10812.884311
503.497345	10982.352779
503.863163	10596.986815
504.228923	10910.569269
504.594625	10974.586882
504.960269	10724.646474
505.325856	10945.265011
505.691385	10740.516027
506.056856	10892.544624
506.422270	10910.619681
506.787625	10808.115379
507.152924	10917.563870
507.518164	10904.305636
507.883347	10827.894346
508.248472	10738.421427
508.613540	10978.397994
508.978550	10863.011024
509.343503	10832.585140
509.708398	10951.125352
510.073236	11066.388814
510.438016	11070.026007
510.802738	11018.575990
511.167403	11076.282078
511.532010	10968.746705
511.896561	11200.057529
512.261053	11268.140832
512.625488	11137.101079
512.989866	11118.816814
513.354186	11113.347162
513.718449	11018.772595
514.082655	11206.129599
514.446803	11102.952303
514.810894	11226.682383
515.174927	11098.574061
515.538904	11118.862184
515.902822	11264.420461
516.266684	11155.811322
516.630488	11092.970818
516.994235	11150.205558
517.357925	11206.490041
517.721558	11301.974536
518.085133	11309.821092
518.448651	11328.972436
518.812112	11205.098683
519.175516	11222.679707
519.538863	11348.290137
519.902152	11264.271747
520.265385	11425.712178
520.628560	11333.688435
520.991678	11314.302678
521.354739	11373.569003
521.717743	11308.404528
522.080690	11289.069182
522.443580	11422.387537
522.806413	11376.601257
523.169189	11401.953220
523.531908	11461.043105
523.894569	11286.730087
524.257174	11287.813935
524.619722	11406.210474
524.982213	11349.157216
525.344647	11402.404403
525.707025	11357.959070
526.069345	11452.576487
526.431608	11369.120185
526.793815	11475.818727
527.155964	11269.766604
527.518057	11320.198307
527.880093	11266.968764
528.242072	11336.148518
528.603995	11245.768191
528.965860	11166.259113
529.327669	11219.655014
529.689421	11164.761890
530.051117	11138.779783
530.412755	11237.629248
530.774337	11127.046498
531.135862	11106.425658
531.497331	11134.880451
531.858743	10983.240023
532.220098	11154.356949
532.581396	11027.282063
532.942638	11009.786739
533.303824	10968.300563
533.664953	10980.563170
534.026025	10898.591488
534.387040	10994.930458
534.747999	10999.180151
535.108902	11053.438090
535.469748	10816.100567
535.830537	10915.197048
536.191270	10899.347661
536.551947	10913.409959
536.912567	10917.710064
537.273131	10847.320432
537.633638	10826.039202
537.994089	10813.315329
538.354483	10759.150652
538.714821	10909.704711
539.075103	10917.253839
539.435328	10881.360824
539.795497	10710.236336
540.155609	10860.344253
540.515665	10945.131420
540.875665	10683.636688
541.235609	10758.424726
541.595496	10753.973387
541.955328	10904.250183
542.315102	10794.116095
542.674821	10741.549463
543.034483	10746.083981
543.394090	10748.838972
543.753640	10671.429534
544.113134	10896.028061
544.472571	10753.426422
544.831953	10893.532690
545.191278	10698.409789
545.550548	10725.979859
545.909761	10862.519511
546.268918	10831.418113
546.628019	10923.295662
546.987064	10784.197625
547.346053	10708.013187
547.704986	10809.882303
548.063863	10792.066866
548.422684	10788.598552
548.781449	10698.702176
549.140158	10808.271655
549.498811	10683.271204
549.857408	10536.830726
550.215949	10770.223546
550.574434	10619.424991
550.932864	10717.916534
551.291237	10776.451892
551.649555	10720.338808
552.007817	10735.253062
552.366022	10695.009531
552.724173	10694.873420
553.082267	10682.255412
553.440305	10815.732563
553.798288	10621.383479
554.156215	10770.866293
554.514086	10738.242466
554.871902	10592.187636
555.229661	10631.896805
555.587365	10608.591551
555.945014	10506.480459
556.302606	10631.962340
556.660143	10517.835658
557.017625	10676.042189
557.375050	10580.870246
557.732421	10709.235667
558.089735	10624.360280
558.446994	10623.641916
558.804197	10662.088276
559.161345	10658.640126
559.518437	10503.869142
559.875474	10600.603843
560.232455	10629.078800
560.589381	10580.492159
560.946251	10573.356406
561.303065	10677.710811
561.659825	10616.080185
562.016528	10540.147805
562.373177	10428.849211
562.729770	10547.044104
563.086307	10458.075300
563.442789	10546.045955
563.799216	10430.270816
564.155587	10473.420572
564.511904	10426.331154
564.868164	10421.932748
565.224370	10435.259038
565.580520	10361.176761
565.936615	10353.456234
566.292654	10237.023224
566.648638	10357.602583
567.004567	10317.830400
567.360441	10316.469288
567.716260	10218.391120
568.072023	10312.905193
568.427732	10268.979099
568.783385	10167.861114
569.138982	10242.571014
569.494525	10258.604404
569.850013	10140.248194
570.205445	10215.560512
570.560823	10109.925654
570.916145	10030.451863
571.271412	10103.036917
571.626625	10047.155727
571.981782	10026.275267
572.336884	10001.727369
572.691931	9999.451288
573.046923	9952.397158
573.401860	9903.208099
573.756743	9842.779788
574.111570	9886.189164
574.466342	9867.947748
574.821059	9898.774404
575.175722	9785.119070
575.530330	9794.190627
575.884882	9788.116036
576.239380	9713.207011
576.593823	9697.655051
576.948211	9712.085354
577.302544	9589.257640
577.656823	9612.540209
578.011047	9610.284293
578.365216	9580.652391
578.719330	9507.515331
579.073389	9516.201239
579.427394	9459.667219
579.781344	9440.702398
580.135239	9396.204133
580.489080	9403.758302
580.842866	9299.320718
581.196597	9311.434611
581.550273	9354.589408
581.903895	9319.008944
582.257463	9375.051452
582.610975	9258.948638
582.964434	9284.867730
583.317837	9207.274290
583.671186	9189.932721
584.024481	9186.524901
584.377721	9105.657231
584.730906	9081.850382
585.084037	9113.183674
585.437113	9049.536586
585.790135	9065.496879
586.143103	8970.445923
586.496016	8939.344525
586.848874	9003.752827
587.201679	8985.027461
587.554428	8877.852530
587.907124	8926.726517
588.259765	8892.053461
588.612352	8893.969099
588.964884	8776.434597
589.317362	8783.028426
589.669786	8790.892626
590.022155	8841.324329
590.374470	8850.098458
590.726731	8790.847256
591.078937	8639.789081
591.431090	8748.516687
591.783188	8626.861042
592.135232	8621.691339
592.487222	8616.914845
592.839157	8671.276128
593.191038	8605.544523
593.542866	8551.057212
593.894639	8451.446532
594.246358	8504.247578
594.598022	8519.736523
594.949633	8416.823888
595.301190	8393.742965
595.652692	8421.920494
596.004141	8529.430662
596.355535	8308.340777
596.706876	8293.539950
597.058162	8225.141574
597.409395	8300.063203
597.760573	8366.011577
598.111698	8274.592773
598.462768	8261.271524
598.813785	8220.811223
599.164748	8191.625463
599.515657	8182.818567
599.866511	8091.228363
600.217312	8217.491623
600.568060	8073.833862
600.918753	8179.181375
601.269392	8148.137949
601.619978	8061.697284
601.970510	8123.174155
602.320988	8126.405535
602.671412	8176.373452
603.021783	8113.684183
603.372100	8085.710821
603.722363	8089.229546
604.072572	8065.684837
604.422728	8082.066066
604.772830	8006.214345
605.122878	8017.874534
605.472872	8007.640992
605.822813	8039.286835
606.172701	7983.181313
606.522534	8058.304588
606.872314	8058.904485
607.222041	8028.796194
607.571714	8083.323834
607.921333	8040.100981
608.270899	8046.735140
608.620411	8140.924058
608.969870	8043.516363
609.319276	8035.047224
609.668627	8048.635655
610.017926	8086.504802
610.367171	8132.631360
610.716362	8114.137887
611.065500	8098.984179
611.414585	8131.600444
611.763616	8114.047146
612.112594	8099.500897
612.461518	8114.389945
612.810389	8174.200715
613.159207	8113.280891
613.507971	8062.219044
613.856682	8177.931168
614.205340	8134.799056
614.553945	8213.519194
614.902496	8113.361549
615.250994	8166.008840
615.599439	8145.783730
615.947830	8162.366606
616.296169	8133.458109
616.644454	8151.573496
616.992686	8146.789441
617.340864	8204.679531
617.688990	8102.739838
618.037063	8194.907254
618.385082	8150.580388
618.733048	8228.451092
619.080961	8173.013523
619.428821	8192.152263
619.776628	8192.225360
620.124382	8139.699058
620.472083	8127.113817
620.819731	8154.073908
621.167326	8046.044502
621.514868	8055.093373
621.862357	7945.657484
622.209793	7962.618447
622.557176	7900.745845
622.904506	7870.592183
623.251783	7806.340157
623.599007	7763.155112
623.946179	7758.764267
624.293297	7715.518729
624.640363	7631.117211
624.987376	7616.649099
625.334336	7567.618837
625.681243	7516.536825
626.028097	7507.298911
626.374899	7482.488872
626.721647	7478.763459
627.068343	7412.454642
627.414987	7378.419292
627.761577	7329.310892
628.108115	7373.521811
628.454600	7265.779750
628.801032	7320.214130
629.147412	7274.256451
629.493739	7261.661128
629.840014	7203.264402
630.186236	7259.974862
630.532405	7144.960937
630.878521	7190.744696
631.224585	7148.051164
631.570597	7077.926193
631.916556	7109.045236
632.262462	7105.667663
632.608316	7066.412198
632.954117	7043.018724
633.299866	7036.447580
633.645562	7023.650611
633.991206	6944.073477
634.336797	6889.634056
634.682336	6845.614701
635.027823	6811.657488
635.373257	6802.500233
635.718639	6735.818370
636.063968	6751.698005
636.409245	6649.470966
636.754470	6639.970912
637.099642	6599.414829
637.444762	6543.493310
637.789829	6552.416152
638.134845	6493.346432
638.479808	6478.187682
638.824719	6486.845864
639.169577	6413.378608
639.514383	6437.293842
639.859137	6362.503284
640.203839	6368.721547
640.548489	6362.493201
