Dividing Wavelength (nm)	Counts (n)	Blue Motor Position (mm): 42.600000	Red Motor Position (mm): 0.000000	
326.493990	2132.002264
326.888308	2132.002264
327.282561	2132.002264
327.676750	2096.719228
328.070874	2098.085381
328.464933	2096.479773
328.858929	2107.119129
329.252859	2115.439553
329.646726	2128.319701
330.040528	2141.721609
330.434265	2155.476397
330.827938	2176.639161
331.221547	2190.595595
331.615091	2209.875488
332.008571	2230.748386
332.401986	2251.578433
332.795338	2269.872781
333.188625	2291.277520
333.581847	2307.769655
333.975006	2324.982674
334.368100	2343.077896
334.761129	2360.865608
335.154095	2377.193905
335.546996	2400.952863
335.939833	2426.488828
336.332606	2441.612289
336.725315	2450.671243
337.117960	2462.316308
337.510540	2468.779067
337.903056	2481.651654
338.295508	2489.881337
338.687896	2497.569097
339.080220	2506.239882
339.472480	2512.954698
339.864676	2516.544000
340.256807	2518.938548
340.648875	2523.699918
341.040879	2527.528674
341.432818	2529.043541
341.824694	2529.192255
342.216506	2530.722245
342.608253	2534.303985
342.999937	2529.466998
343.391557	2531.750641
343.783113	2529.111597
344.174605	2527.667306
344.566033	2525.776873
344.957397	2526.205371
345.348697	2524.229239
345.739934	2519.730009
346.131106	2519.331758
346.522215	2519.006604
346.913260	2516.165913
347.304241	2516.533918
347.695159	2514.141890
348.086012	2511.215500
348.476802	2509.340191
348.867528	2506.512104
349.258191	2504.750221
349.648789	2507.565705
350.039324	2503.540344
350.429796	2502.632936
350.820203	2502.486743
351.210548	2499.174704
351.600828	2502.390961
351.991045	2500.049345
352.381198	2500.629077
352.771288	2498.577328
353.161314	2499.303254
353.551276	2496.386946
353.941175	2497.488438
354.331010	2498.297544
354.720782	2497.183449
355.110490	2498.184118
355.500135	2494.957779
355.889717	2495.003150
356.279235	2496.676813
356.668689	2500.916423
357.058080	2497.674961
357.447408	2495.867707
357.836672	2492.490134
358.225873	2496.676813
358.615010	2496.850732
359.004084	2500.785353
359.393095	2499.799808
359.782043	2503.457165
360.170927	2504.278873
360.559748	2502.148985
360.948505	2504.810714
361.337199	2504.442710
361.725830	2506.154182
362.114398	2507.578308
362.502903	2506.199552
362.891344	2508.092506
363.279722	2507.162413
363.668037	2507.117042
364.056289	2509.302383
364.444478	2509.685510
364.832603	2508.276508
365.220665	2510.726508
365.608665	2511.240706
365.996601	2510.633247
366.384474	2513.673063
366.772284	2510.131652
367.160031	2511.573422
367.547715	2510.512259
367.935336	2514.797240
368.322893	2515.639113
368.710388	2514.794720
369.097820	2516.896881
369.485189	2516.057529
369.872495	2513.909997
370.259738	2519.646830
370.646918	2514.744308
371.034035	2515.508043
371.421090	2517.821933
371.808081	2516.107940
372.195010	2517.032992
372.581875	2519.493075
372.968678	2519.349402
373.355418	2521.237314
373.742096	2520.549197
374.128710	2518.759587
374.515262	2520.115657
374.901751	2520.518950
375.288177	2520.939886
375.674540	2520.019876
376.060841	2522.427027
376.447079	2520.115658
376.833254	2524.657737
377.219367	2520.040040
377.605417	2521.819568
377.991404	2518.792355
378.377329	2523.347037
378.763191	2521.673374
379.148991	2525.847449
379.534727	2524.811492
379.920402	2530.392050
380.306013	2530.177801
380.691563	2536.091074
381.077049	2539.614841
381.462474	2544.461910
381.847835	2552.149670
382.233134	2556.341389
382.618371	2563.446895
383.003545	2574.227403
383.388657	2585.254927
383.773706	2598.888727
384.158693	2612.230141
384.543618	2625.213633
384.928480	2641.158802
385.313280	2659.743016
385.698017	2671.284738
386.082692	2695.711649
386.467305	2712.052549
386.851856	2734.342011
387.236344	2756.084507
387.620770	2783.939403
388.005133	2809.442600
388.389435	2836.911848
388.773674	2860.970754
389.157851	2899.407032
389.541965	2928.403749
389.926018	2937.830706
390.310008	2989.285764
390.693936	3021.904550
391.077802	3065.172773
391.461606	3086.892584
391.845348	3145.783344
392.229027	3170.873166
392.612645	3207.154351
392.996200	3279.625978
393.379694	3325.901250
393.763125	3392.605798
394.146494	3404.543250
394.529801	3476.220896
394.913047	3537.733055
395.296230	3545.667831
395.679351	3613.100826
396.062410	3657.412568
396.445408	3675.079292
396.828343	3729.090214
397.211217	3773.906072
397.594028	3738.297882
397.976778	3816.748318
398.359466	3864.974516
398.742092	3910.352462
399.124656	3868.170607
399.507158	3959.415492
399.889598	3997.882017
400.271977	4070.134354
400.654294	4062.809558
401.036549	4088.431222
401.418742	4075.052000
401.800874	4187.341181
402.182944	4221.525245
402.564952	4291.002428
402.946898	4292.918066
403.328783	4298.876710
403.710606	4230.574116
404.092367	4422.450514
404.474067	4396.816247
404.855705	4410.626488
405.237282	4348.743804
405.618797	4460.430567
406.000250	4500.527905
406.381642	4579.134617
406.762972	4552.650915
407.144240	4562.355136
407.525447	4569.591713
407.906593	4627.486844
408.287677	4675.120707
408.668700	4605.769553
409.049661	4658.011030
409.430560	4701.490982
409.811399	4628.951299
410.192176	4789.776710
410.572891	4728.544334
410.953545	4835.305891
411.334138	4715.107139
411.714669	4784.896873
412.095139	4684.346018
412.475547	4822.599662
412.855894	4798.991939
413.236180	4814.647242
413.616405	4767.192340
413.996568	4853.718705
414.376670	4792.940034
414.756711	4751.156430
415.136691	4784.188591
415.516609	4862.558368
415.896466	4902.174276
416.276262	4934.432619
416.655997	4912.286830
417.035670	5096.795582
417.415283	5183.415208
417.794834	5127.221466
418.174324	5080.739507
418.553753	4992.088296
418.933121	5171.419782
419.312428	5242.618518
419.691674	5180.919837
420.070859	5312.294826
420.449983	5218.907451
420.829045	5338.113096
421.208047	5237.355554
421.586988	5313.781967
421.965867	5328.655891
422.344686	5456.333195
422.723444	5313.522347
423.102141	5131.047702
423.480777	5426.345891
423.859352	5196.038257
424.237866	5461.228155
424.616319	5447.806083
424.994712	5552.944387
425.373044	5436.080359
425.751314	5578.429941
426.129524	5382.918871
426.507673	5573.030865
426.885762	5657.777702
427.263789	5590.228761
427.641756	5470.859279
428.019662	5592.978711
428.397508	5599.169248
428.775292	5548.906423
429.153016	5648.633049
429.530679	5579.113017
429.908282	5653.134800
430.285824	5528.517477
430.663305	5801.264064
431.040726	5540.941400
431.418086	5537.626842
431.795385	5646.099869
432.172624	5654.339635
432.549802	5650.326877
432.926920	5665.289022
433.303977	5671.073746
433.680974	5710.097317
434.057910	5726.168516
434.434786	5736.134877
434.811601	5699.949475
435.188355	5937.919663
435.565050	5810.663296
435.941683	5792.474813
436.318257	6005.708058
436.694770	5985.792980
437.071222	6025.625657
437.447614	5953.199400
437.823946	5868.581112
438.200218	6022.371593
438.576429	5890.457199
438.952580	5985.712322
439.328670	6031.193612
439.704700	5937.521412
440.080670	5924.981541
440.456580	6198.070927
440.832429	6078.265386
441.208218	5927.582777
441.583947	6081.423669
441.959616	6085.900213
442.335224	6014.789697
442.710773	6147.485469
443.086261	6169.011196
443.461689	5969.066432
443.837057	6119.179390
444.212365	6267.641371
444.587612	6169.374159
444.962800	6321.218754
445.337927	6302.725281
445.712995	5915.320170
446.088002	6490.480536
446.462949	6324.044321
446.837837	6252.709473
447.212664	6420.882366
447.587431	6566.738070
447.962139	7105.985256
448.336786	8031.838530
448.711374	7769.401102
449.085901	6843.517581
449.460369	6763.857268
449.834776	6696.104160
450.209124	7094.282217
450.583412	7239.399392
450.957640	7385.534881
451.331808	7150.838922
451.705917	6707.073711
452.079965	6623.990454
452.453954	6847.641245
452.827883	6718.978396
453.201752	6812.998435
453.575562	6608.924966
453.949311	6816.738972
454.323001	6698.856630
454.696632	6779.978878
455.070202	6917.688077
455.443713	7073.626089
455.817164	7170.328023
456.190556	7252.420693
456.563888	7329.862898
456.937160	7371.144907
457.310373	7028.870725
457.683526	7049.095835
458.056619	6939.642302
458.429653	6933.802126
458.802628	6865.602876
459.175542	6982.015721
459.548398	7328.224523
459.921194	7486.093297
460.293930	7492.170408
460.666607	8022.242694
461.039224	8332.465219
461.411782	8457.337120
461.784280	8469.498904
462.156719	8362.278603
462.529099	8240.935509
462.901419	7830.159609
463.273680	7719.644913
463.645882	7735.378355
464.018024	7600.862726
464.390106	7769.154085
464.762130	8158.260586
465.134094	8638.407805
465.505999	9650.699223
465.877845	10868.939421
466.249631	11519.560818
466.621358	11127.961467
466.993026	10504.337969
467.364634	10244.665614
467.736184	9885.412826
468.107674	9550.430673
468.479105	9586.248072
468.850477	9340.983334
469.221790	9124.566599
469.593043	8798.403946
469.964238	8655.298191
470.335373	8661.725662
470.706449	8724.165393
471.077467	8703.511786
471.448425	10019.613383
471.819324	11079.483211
472.190164	11102.213774
472.560945	9860.285195
472.931667	9078.684538
473.302330	8944.584804
473.672934	8592.097245
474.043479	8944.272253
474.413965	8884.411071
474.784393	8765.817927
475.154761	8923.285929
475.525070	9010.117284
475.895321	8836.174791
476.265513	9017.948716
476.635645	9183.613634
477.005719	9186.282925
477.375734	9302.559659
477.745691	9537.482470
478.115588	9668.996091
478.485427	9917.651005
478.855207	10451.448703
479.224928	11264.629668
479.594591	11890.309958
479.964194	11698.753673
480.333739	11635.582974
480.703226	11557.987014
481.072653	11644.762915
481.442022	11887.842313
481.811333	12074.969943
482.180584	11879.635314
482.549777	11584.216137
482.918912	11409.076370
483.287988	11435.902870
483.657005	11439.325814
484.025964	11131.086983
484.394864	11259.386868
484.763706	11226.155582
485.132489	10990.940385
485.501213	10956.486619
485.869879	11030.936900
486.238487	10865.070335
486.607036	10982.264559
486.975527	10758.765003
487.343959	10944.690319
487.712333	10998.663433
488.080648	10926.849676
488.448905	10971.743671
488.817104	10912.852912
489.185244	11179.908037
489.553326	11332.821357
489.921350	11870.977133
490.289315	12933.130604
490.657222	13274.832614
491.025070	13177.750074
491.392861	13052.328687
491.760593	12676.205678
492.128267	12324.991010
492.495883	11991.412818
492.863440	11661.393682
493.230939	11317.448358
493.598380	11251.903276
493.965763	11124.425098
494.333088	11023.775941
494.700354	10942.588158
495.067563	11006.653662
495.434713	10842.654845
495.801805	10959.241610
496.168839	10890.704602
496.535815	10827.302011
496.902733	10826.770169
497.269593	10758.404561
497.636395	10860.752587
498.003139	10843.816831
498.369825	10710.006963
498.736453	10872.445543
499.103023	10798.327979
499.469535	10830.001548
499.835989	10817.862450
500.202385	10776.865266
500.568723	10634.369491
500.935003	10857.392658
501.301226	10655.635599
501.667390	10923.668707
502.033497	11015.339570
502.399546	10872.311953
502.765537	10783.512028
503.131470	10854.809067
503.497345	11025.016064
503.863163	10647.373147
504.228923	10951.889087
504.594625	11011.581389
504.960269	10765.449573
505.325856	10975.645524
505.691385	10779.632860
506.056856	10931.527866
506.422270	10947.493201
506.787625	10840.545122
507.152924	10962.349481
507.518164	10939.565986
507.883347	10864.525891
508.248472	10779.189238
508.613540	11017.587924
508.978550	10899.113247
509.343503	10871.812878
509.708398	10988.870991
510.073236	11106.768456
510.438016	11111.592841
510.802738	11066.328320
511.167403	11119.792277
511.532010	11011.591472
511.896561	11240.137222
512.261053	11314.514406
512.625488	11186.254850
512.989866	11163.814153
513.354186	11152.557257
513.718449	11058.885057
514.082655	11246.736093
514.446803	11137.716100
514.810894	11265.451377
515.174927	11134.774587
515.538904	11158.374748
515.902822	11313.120527
516.266684	11187.086640
516.630488	11135.661830
516.994235	11189.214007
517.357925	11251.323543
517.721558	11344.191679
518.085133	11350.137720
518.448651	11363.272446
518.812112	11253.534089
519.175516	11255.391754
519.538863	11384.195755
519.902152	11298.823815
520.265385	11460.233999
520.628560	11372.588499
520.991678	11357.079389
521.354739	11410.838253
521.717743	11346.760147
522.080690	11320.218472
522.443580	11470.031482
522.806413	11414.669530
523.169189	11450.257556
523.531908	11509.473470
523.894569	11332.544093
524.257174	11332.947385
524.619722	11449.551794
524.982213	11400.019937
525.344647	11449.501383
525.707025	11398.399206
526.069345	11492.010913
526.431608	11409.890517
526.793815	11520.253977
527.155964	11311.832513
527.518057	11362.228927
527.880093	11306.718262
528.242072	11378.922708
528.603995	11281.842688
528.965860	11197.471417
529.327669	11253.798749
529.689421	11203.346882
530.051117	11174.972747
530.412755	11284.310333
530.774337	11167.602580
531.135862	11144.809003
531.497331	11168.998980
531.858743	11025.739470
532.220098	11193.647702
532.581396	11062.098792
532.942638	11047.093798
533.303824	11014.348983
533.664953	11020.310147
534.026025	10932.815881
534.387040	11034.921932
534.747999	11043.418797
535.108902	11096.948289
535.469748	10851.580208
535.830537	10959.768410
536.191270	10937.052971
536.551947	10961.807557
536.912567	10960.285128
537.273131	10880.823941
537.633638	10862.522032
537.994089	10847.993427
538.354483	10794.312700
538.714821	10947.614188
539.075103	10955.564088
539.435328	10918.806515
539.795497	10746.973745
540.155609	10910.614640
540.515665	10990.095992
540.875665	10724.742256
541.235609	10800.788062
541.595496	10790.713316
541.955328	10951.684920
542.315102	10826.200518
542.674821	10779.882397
543.034483	10777.026583
543.394090	10787.630650
543.753640	10711.244567
544.113134	10934.544997
544.472571	10783.116297
544.831953	10935.217991
545.191278	10739.507796
545.550548	10765.867989
545.909761	10903.809082
546.268918	10875.014011
546.628019	10956.491660
546.987064	10822.507873
547.346053	10747.006512
547.704986	10843.801707
548.063863	10832.897691
548.422684	10825.063738
548.781449	10741.332693
549.140158	10850.725732
549.498811	10728.044212
549.857408	10580.953425
550.215949	10808.143105
550.574434	10659.174489
550.932864	10760.148800
551.291237	10816.581997
551.649555	10767.110634
552.007817	10778.669999
552.366022	10736.788093
552.724173	10730.297608
553.082267	10714.735566
553.440305	10853.465599
553.798288	10651.945474
554.156215	10809.569752
554.514086	10781.321646
554.871902	10635.889399
555.229661	10675.129741
555.587365	10652.089147
555.945014	10534.897443
556.302606	10669.445840
556.660143	10561.960878
557.017625	10711.930164
557.375050	10608.324370
557.732421	10750.184960
558.089735	10658.057873
558.446994	10656.048973
558.804197	10697.487258
559.161345	10695.044819
559.518437	10547.510410
559.875474	10637.479883
560.232455	10656.663994
560.589381	10612.558939
560.946251	10610.643301
561.303065	10713.676923
561.659825	10654.163582
562.016528	10583.216903
562.373177	10461.503285
562.729770	10580.923178
563.086307	10496.647689
563.442789	10587.751421
563.799216	10467.661054
564.155587	10514.831131
564.511904	10468.190375
564.868164	10461.591505
565.224370	10472.268669
565.580520	10399.444160
565.936615	10404.797866
566.292654	10278.554770
566.648638	10406.204347
567.004567	10359.520742
567.360441	10345.922230
567.716260	10262.455846
568.072023	10354.472027
568.427732	10299.936824
568.783385	10215.850378
569.138982	10285.564495
569.494525	10297.564962
569.850013	10179.211272
570.205445	10254.342108
570.560823	10154.227314
570.916145	10071.960724
571.271412	10137.606629
571.626625	10087.285832
571.981782	10056.134022
572.336884	10034.925887
572.691931	10039.967041
573.046923	9980.405808
573.401860	9937.319067
573.756743	9871.925219
574.111570	9920.746273
574.466342	9904.607019
574.821059	9931.085680
575.175722	9823.174741
575.530330	9829.095576
575.884882	9831.285957
576.239380	9750.352753
576.593823	9734.437830
576.948211	9749.304193
577.302544	9628.666861
577.656823	9643.162698
578.011047	9654.472527
578.365216	9619.164286
578.719330	9536.512048
579.073389	9550.171054
579.427394	9501.218930
579.781344	9478.833686
580.135239	9431.099000
580.489080	9438.741389
580.842866	9337.835133
581.196597	9347.216721
581.550273	9382.318275
581.903895	9352.870375
582.257463	9417.626517
582.610975	9298.864494
582.964434	9328.075460
583.317837	9242.209486
583.671186	9231.224812
584.024481	9224.336075
584.377721	9137.958425
584.730906	9120.347154
585.084037	9148.562492
585.437113	9091.317669
585.790135	9103.610523
586.143103	9005.149227
586.496016	8979.399013
586.848874	9037.185759
587.201679	9026.294346
587.554428	8910.120956
587.907124	8953.421947
588.259765	8927.880941
588.612352	8929.579810
588.964884	8806.449627
589.317362	8819.097882
589.669786	8824.446546
590.022155	8869.587558
590.374470	8885.343685
590.726731	8819.269281
591.078937	8673.703443
591.431090	8789.571844
591.783188	8657.695259
592.135232	8649.193353
592.487222	8654.337851
592.839157	8704.782157
593.191038	8631.095611
593.542866	8584.469979
593.894639	8478.537693
594.246358	8534.648256
594.598022	8552.173827
594.949633	8451.759084
595.301190	8428.347965
595.652692	8452.835370
596.004141	8570.228720
596.355535	8341.103236
596.706876	8321.677150
597.058162	8248.280470
597.409395	8333.788522
597.760573	8396.508038
598.111698	8296.857029
598.462768	8286.568034
598.813785	8251.093434
599.164748	8221.184268
599.515657	8211.716982
599.866511	8125.785473
600.217312	8248.703927
600.568060	8104.877287
600.918753	8209.624903
601.269392	8186.165893
601.619978	8093.131399
601.970510	8150.865213
602.320988	8153.660533
602.671412	8211.595994
603.021783	8143.351374
603.372100	8120.404041
603.722363	8125.878734
604.072572	8095.263807
604.422728	8106.288811
604.772830	8039.380096
605.122878	8042.656846
605.472872	8036.602420
605.822813	8067.030825
606.172701	8012.969491
606.522534	8087.192920
606.872314	8085.864576
607.222041	8054.271665
607.571714	8114.155531
607.921333	8069.127945
608.270899	8082.055984
608.620411	8167.112852
608.969870	8072.255981
609.319276	8059.917757
609.668627	8077.990293
610.017926	8113.727033
610.367171	8158.006008
610.716362	8135.885425
611.065500	8128.764795
611.414585	8155.772777
611.763616	8148.692476
612.112594	8128.966441
612.461518	8143.830283
612.810389	8203.371351
613.159207	8140.029253
613.507971	8092.019825
613.856682	8210.134059
614.205340	8168.219386
614.553945	8244.948268
614.902496	8141.700396
615.250994	8194.897172
615.599439	8175.269439
615.947830	8194.004888
616.296169	8168.700816
616.644454	8180.872682
616.992686	8168.330291
617.340864	8233.343532
617.688990	8141.990262
618.037063	8229.499652
618.385082	8177.197681
618.733048	8263.756813
619.080961	8199.421607
619.428821	8223.152839
619.776628	8223.417500
620.124382	8177.870675
620.472083	8156.760843
620.819731	8181.467538
621.167326	8074.811846
621.514868	8086.199812
621.862357	7974.278635
622.209793	7990.758167
622.557176	7924.351048
622.904506	7895.460195
623.251783	7825.776325
623.599007	7788.670912
623.946179	7789.432127
624.293297	7744.268429
624.640363	7660.940677
624.987376	7644.874520
625.334336	7591.871828
625.681243	7538.440638
626.028097	7529.863115
626.374899	7506.920824
626.721647	7506.678849
627.068343	7432.137827
627.414987	7404.885350
627.761577	7361.516303
628.108115	7392.887403
628.454600	7294.516848
628.801032	7342.130546
629.147412	7299.348794
629.493739	7287.600385
629.840014	7228.664255
630.186236	7282.382791
630.532405	7166.867271
630.878521	7226.730973
631.224585	7172.374731
631.570597	7097.422856
631.916556	7130.613813
632.262462	7129.051055
632.608316	7088.600837
632.954117	7066.712147
633.299866	7053.910137
633.645562	7045.887140
633.991206	6967.335881
634.336797	6909.135760
634.682336	6862.968873
635.027823	6831.537279
635.373257	6824.751886
635.718639	6758.841320
636.063968	6768.411950
636.409245	6660.213665
636.754470	6662.207442
637.099642	6618.530885
637.444762	6565.266053
637.789829	6571.998514
638.134845	6517.589341
638.479808	6502.657443
638.824719	6506.319841
639.169577	6433.628923
639.514383	6451.187262
639.859137	6382.524226
640.203839	6394.154168
640.548489	6377.780500
