Dividing Wavelength (nm)	Counts (n)	Blue Motor Position (mm): 31.100000	Red Motor Position (mm): 0.000000	
326.493990	2131.135186
326.888308	2131.135186
327.282561	2131.135186
327.676750	2100.114445
328.070874	2095.521954
328.464933	2101.483119
328.858929	2107.280446
329.252859	2115.174893
329.646726	2128.082767
330.040528	2140.693213
330.434265	2159.831954
330.827938	2177.990190
331.221547	2192.788497
331.615091	2211.965046
332.008571	2230.516493
332.401986	2250.910480
332.795338	2271.095260
333.188625	2289.739968
333.581847	2309.934830
333.975006	2326.164825
334.368100	2344.781806
334.761129	2365.150588
335.154095	2380.901673
335.546996	2401.577966
335.939833	2426.090577
336.332606	2440.173040
336.725315	2454.726851
337.117960	2459.140381
337.510540	2471.982721
337.903056	2481.782724
338.295508	2489.304125
338.687896	2500.336690
339.080220	2507.376662
339.472480	2511.144924
339.864676	2516.478465
340.256807	2518.835204
340.648875	2523.609177
341.040879	2528.110927
341.432818	2526.931297
341.824694	2530.351720
342.216506	2530.117307
342.608253	2532.680733
342.999937	2529.900537
343.391557	2531.228881
343.783113	2529.409025
344.174605	2527.712676
344.566033	2526.835516
344.957397	2525.066071
345.348697	2523.420134
345.739934	2520.345030
346.131106	2518.741943
346.522215	2518.293280
346.913260	2515.497961
347.304241	2514.036026
347.695159	2512.526200
348.086012	2509.105778
348.476802	2508.987310
348.867528	2507.837927
349.258191	2507.059069
349.648789	2505.450941
350.039324	2505.428256
350.429796	2505.929851
350.820203	2503.346259
351.210548	2502.038080
351.600828	2498.131186
351.991045	2499.008346
352.381198	2496.782677
352.771288	2499.086484
353.161314	2498.252173
353.551276	2497.727893
353.941175	2496.341576
354.331010	2498.020280
354.720782	2496.366782
355.110490	2495.068685
355.500135	2495.318222
355.889717	2496.810403
356.279235	2496.903665
356.668689	2498.542040
357.058080	2496.361741
357.447408	2497.322080
357.836672	2494.574652
358.225873	2492.767398
358.615010	2493.289157
359.004084	2501.506238
359.393095	2499.809890
359.782043	2502.345590
360.170927	2499.721670
360.559748	2502.965652
360.948505	2500.455158
361.337199	2504.805673
361.725830	2502.832062
362.114398	2503.797443
362.502903	2502.970693
362.891344	2504.641836
363.279722	2504.616630
363.668037	2507.013699
364.056289	2506.018071
364.444478	2506.108812
364.832603	2507.177536
365.220665	2506.529748
365.608665	2509.738442
365.996601	2508.624347
366.384474	2509.592249
366.772284	2509.108298
367.160031	2508.901611
367.547715	2512.480830
367.935336	2508.901611
368.322893	2510.103926
368.710388	2509.325068
369.097820	2513.196674
369.485189	2506.668380
369.872495	2513.143742
370.259738	2508.450428
370.646918	2511.926303
371.034035	2512.868999
371.421090	2512.304390
371.808081	2510.734070
372.195010	2512.022085
372.581875	2512.808505
372.968678	2510.918072
373.355418	2513.632734
373.742096	2514.086438
374.128710	2514.532580
374.515262	2515.903773
374.901751	2513.824298
375.288177	2513.978053
375.674540	2513.242044
376.060841	2515.671880
376.447079	2515.117353
376.833254	2515.432426
377.219367	2509.990500
377.605417	2516.559123
377.991404	2508.798267
378.377329	2515.366891
378.763191	2513.168948
379.148991	2517.935358
379.534727	2515.477796
379.920402	2515.820594
380.306013	2516.677591
380.691563	2517.975688
381.077049	2518.883095
381.462474	2520.518950
381.847835	2519.006604
382.233134	2517.398476
382.618371	2518.746984
383.003545	2518.099196
383.388657	2520.617252
383.773706	2521.358302
384.158693	2520.687828
384.543618	2521.754033
384.928480	2522.069105
385.313280	2521.895185
385.698017	2518.948630
386.082692	2521.564989
386.467305	2523.415093
386.851856	2522.449712
387.236344	2523.084897
387.620770	2520.236645
388.005133	2521.801923
388.389435	2522.860566
388.773674	2522.893333
389.157851	2520.206398
389.541965	2523.730165
389.926018	2524.453570
390.310008	2523.331914
390.693936	2524.980371
391.077802	2525.847449
391.461606	2527.800897
391.845348	2524.425844
392.229027	2524.367871
392.612645	2522.963909
392.996200	2525.454239
393.379694	2526.051616
393.763125	2525.560104
394.146494	2525.983561
394.529801	2526.056657
394.913047	2528.070598
395.296230	2528.342821
395.679351	2526.472553
396.062410	2526.719569
396.445408	2528.478932
396.828343	2529.835002
397.211217	2523.994825
397.594028	2527.153108
397.976778	2526.880886
398.359466	2528.050434
398.742092	2525.103879
399.124656	2531.627132
399.507158	2530.944056
399.889598	2529.088911
400.271977	2530.538243
400.654294	2531.937163
401.036549	2532.642925
401.418742	2532.247194
401.800874	2534.041845
402.182944	2531.803573
402.564952	2534.782895
402.946898	2533.497400
403.328783	2533.683923
403.710606	2531.899355
404.092367	2534.437576
404.474067	2532.796680
404.855705	2534.813142
405.237282	2536.355735
405.618797	2533.489839
406.000250	2536.799356
406.381642	2536.451517
406.762972	2535.274407
407.144240	2537.411856
407.525447	2536.993441
407.906593	2537.868081
408.287677	2537.371527
408.668700	2537.752134
409.049661	2537.706764
409.430560	2536.945550
409.811399	2536.204500
410.192176	2537.432021
410.572891	2535.561753
410.953545	2538.962011
411.334138	2540.645757
411.714669	2539.380427
412.095139	2539.960160
412.475547	2540.653318
412.855894	2541.437218
413.236180	2542.878988
413.616405	2544.167003
413.996568	2543.304965
414.376670	2543.201622
414.756711	2542.702547
415.136691	2544.598021
415.516609	2544.182126
415.896466	2543.804039
416.276262	2546.959802
416.655997	2545.611293
417.035670	2545.649102
417.415283	2546.629606
417.794834	2544.766900
418.174324	2551.050698
418.553753	2553.538507
418.933121	2558.655279
419.312428	2561.964796
419.691674	2565.627194
420.070859	2570.965776
420.449983	2572.717577
420.829045	2582.746953
421.208047	2588.375401
421.586988	2593.870259
421.965867	2603.584562
422.344686	2615.106119
422.723444	2619.282715
423.102141	2623.156842
423.480777	2643.689462
423.859352	2645.842034
424.237866	2669.212824
424.616319	2679.693382
424.994712	2700.720035
425.373044	2705.607434
425.751314	2729.646176
426.129524	2734.818400
426.507673	2762.282606
426.885762	2785.441667
427.263789	2799.982875
427.641756	2806.354893
428.019662	2837.000068
428.397508	2859.811289
428.775292	2882.073024
429.153016	2914.830442
429.530679	2932.769388
429.908282	2966.547639
430.285824	2974.217755
430.663305	3044.133518
431.040726	3036.508772
431.418086	3063.330231
431.795385	3111.490895
432.172624	3147.739311
432.549802	3177.792150
432.926920	3215.137018
433.303977	3251.670260
433.680974	3297.078453
434.057910	3340.984382
434.434786	3379.715567
434.811601	3414.986000
435.188355	3517.475178
435.565050	3526.198895
435.941683	3561.769277
436.318257	3674.761699
436.694770	3718.924727
437.071222	3775.557050
437.447614	3800.994712
437.823946	3814.426866
438.200218	3921.140532
438.576429	3918.763627
438.952580	4015.828524
439.328670	4080.405705
439.704700	4087.594390
440.080670	4129.962768
440.456580	4317.241633
440.832429	4314.393381
441.208218	4285.368938
441.583947	4414.677055
441.959616	4467.150425
442.335224	4480.088547
442.710773	4610.730048
443.086261	4682.243857
443.461689	4605.043627
443.837057	4745.301130
444.212365	4899.492382
444.587612	4876.708887
444.962800	5027.550293
445.337927	5061.941044
445.712995	4850.504969
446.088002	5289.034942
446.462949	5222.070775
446.837837	5222.199325
447.212664	5383.783429
447.587431	5543.857708
447.962139	5995.466954
448.336786	6729.317802
448.711374	6587.232881
449.085901	5939.721875
449.460369	5927.330719
449.834776	5915.007618
450.209124	6276.977588
450.583412	6449.193486
450.957640	6590.872594
451.331808	6447.406397
451.705917	6109.278564
452.079965	6076.271609
452.453954	6293.910824
452.827883	6222.031532
453.201752	6333.700651
453.575562	6181.107445
453.949311	6397.723305
454.323001	6320.255894
454.696632	6410.757208
455.070202	6565.059366
455.443713	6733.292752
455.817164	6843.361305
456.190556	6946.014321
456.563888	7039.840276
456.937160	7100.099709
457.310373	6795.460261
457.683526	6836.449883
458.056619	6752.038283
458.429653	6755.451144
458.802628	6711.174689
459.175542	6827.489232
459.548398	7178.812285
459.921194	7349.120106
460.293930	7357.160746
460.666607	7880.303966
461.039224	8189.881224
461.411782	8320.547931
461.784280	8351.974484
462.156719	8258.854291
462.529099	8152.927045
462.901419	7754.479287
463.273680	7657.290882
463.645882	7673.019282
464.018024	7552.901188
464.390106	7719.014769
464.762130	8108.156558
465.134094	8573.170233
465.505999	9584.266898
465.877845	10801.856787
466.249631	11445.425610
466.621358	11069.065667
466.993026	10450.450555
467.364634	10202.609788
467.736184	9848.398154
468.107674	9519.732567
468.479105	9546.571670
468.850477	9316.405188
469.221790	9095.544677
469.593043	8767.718442
469.964238	8634.745407
470.335373	8643.567426
470.706449	8704.008340
471.077467	8691.556690
471.448425	9996.010700
471.819324	11063.104502
472.190164	11075.225957
472.560945	9837.650414
472.931667	9055.994304
473.302330	8924.969675
473.672934	8570.768123
474.043479	8928.014532
474.413965	8873.007981
474.784393	8749.469465
475.154761	8910.962829
475.525070	8995.949121
475.895321	8826.210950
476.265513	8998.096652
476.635645	9171.897993
477.005719	9169.989916
477.375734	9282.059807
477.745691	9521.897743
478.115588	9648.405498
478.485427	9890.358198
478.855207	10435.576630
479.224928	11250.864798
479.594591	11867.685259
479.964194	11678.798266
480.333739	11625.198197
480.703226	11537.061184
481.072653	11618.831220
481.442022	11866.898839
481.811333	12048.317363
482.180584	11858.033970
482.549777	11571.325907
482.918912	11390.071220
483.287988	11418.452916
483.657005	11420.539954
484.025964	11110.229208
484.394864	11238.902140
484.763706	11213.015815
485.132489	10968.545059
485.501213	10930.940572
485.869879	11011.294044
486.238487	10847.262459
486.607036	10959.733122
486.975527	10741.423434
487.343959	10934.073649
487.712333	10985.662297
488.080648	10914.065309
488.448905	10960.075921
488.817104	10896.186857
489.185244	11158.727629
489.553326	11309.811010
489.921350	11852.834020
490.289315	12911.035227
490.657222	13253.949635
491.025070	13154.243173
491.392861	13030.649204
491.760593	12657.117348
492.128267	12297.352884
492.495883	11985.000471
492.863440	11637.952317
493.230939	11311.393932
493.598380	11248.389591
493.965763	11112.059147
494.333088	11012.957624
494.700354	10925.992679
495.067563	10992.198153
495.434713	10823.672380
495.801805	10951.974786
496.168839	10876.337314
496.535815	10811.782818
496.902733	10811.586213
497.269593	10749.852243
497.636395	10849.682213
498.003139	10837.086890
498.369825	10703.415655
498.736453	10858.204284
499.103023	10783.809456
499.469535	10816.216513
499.835989	10805.652775
500.202385	10763.342371
500.568723	10622.122008
500.935003	10842.493528
501.301226	10651.963118
501.667390	10900.489482
502.033497	10999.747281
502.399546	10863.641168
502.765537	10770.299163
503.131470	10840.656027
503.497345	11018.828048
503.863163	10635.392845
504.228923	10939.334093
504.594625	11005.431182
504.960269	10753.378531
505.325856	10968.998763
505.691385	10769.754719
506.056856	10923.537638
506.422270	10943.051944
506.787625	10828.032978
507.152924	10948.193921
507.518164	10929.145921
507.883347	10855.613131
508.248472	10774.745461
508.613540	11008.947387
508.978550	10888.675538
509.343503	10861.155879
509.708398	10984.860753
510.073236	11097.056673
510.438016	11104.109248
510.802738	11044.505165
511.167403	11104.847777
511.532010	10999.223001
511.896561	11228.303114
512.261053	11301.513271
512.625488	11170.483600
512.989866	11160.759214
513.354186	11153.948615
513.718449	11043.491893
514.082655	11234.967519
514.446803	11130.252672
514.810894	11257.060376
515.174927	11118.552153
515.538904	11145.237501
515.902822	11304.439660
516.266684	11182.844509
516.630488	11119.610796
516.994235	11175.186996
517.357925	11237.730072
517.721558	11331.399751
518.085133	11348.040600
518.448651	11355.541837
518.812112	11242.516647
519.175516	11256.158009
519.538863	11370.347706
519.902152	11292.328288
520.265385	11451.994233
520.628560	11363.947961
520.991678	11337.728920
521.354739	11397.625389
521.717743	11340.473828
522.080690	11315.441979
522.443580	11452.006836
522.806413	11403.407593
523.169189	11438.005032
523.531908	11493.354380
523.894569	11313.995168
524.257174	11318.179325
524.619722	11432.764752
524.982213	11383.537885
525.344647	11429.987076
525.707025	11388.783205
526.069345	11478.296454
526.431608	11400.680328
526.793815	11504.066832
527.155964	11293.326437
527.518057	11348.615292
527.880093	11297.195522
528.242072	11366.287056
528.603995	11272.617377
528.965860	11198.857734
529.327669	11241.984805
529.689421	11189.070334
530.051117	11161.754842
530.412755	11268.171079
530.774337	11155.544140
531.135862	11139.762808
531.497331	11159.133442
531.858743	11013.416369
532.220098	11175.549959
532.581396	11050.299972
532.942638	11027.065293
533.303824	10997.393062
533.664953	11012.100628
534.026025	10926.726167
534.387040	11023.796105
534.747999	11024.481702
535.108902	11082.795249
535.469748	10847.731287
535.830537	10943.510689
536.191270	10924.371948
536.551947	10947.261308
536.912567	10944.833992
537.273131	10868.896571
537.633638	10848.295896
537.994089	10838.758033
538.354483	10787.476895
538.714821	10932.077352
539.075103	10939.770153
539.435328	10908.273024
539.795497	10734.448998
540.155609	10889.406505
540.515665	10979.789353
540.875665	10717.233458
541.235609	10785.142841
541.595496	10777.626481
541.955328	10933.773700
542.315102	10814.799949
542.674821	10768.953175
543.034483	10769.013669
543.394090	10774.828640
543.753640	10703.357682
544.113134	10926.811867
544.472571	10779.456419
544.831953	10921.833727
545.191278	10731.303318
545.550548	10752.713098
545.909761	10892.834490
546.268918	10866.020593
546.628019	10948.138468
546.987064	10813.706019
547.346053	10733.544111
547.704986	10836.978505
548.063863	10818.530403
548.422684	10814.265587
548.781449	10725.931968
549.140158	10829.268061
549.498811	10710.538805
549.857408	10563.508512
550.215949	10796.281270
550.574434	10650.241564
550.932864	10742.305636
551.291237	10804.805862
551.649555	10752.745866
552.007817	10761.346074
552.366022	10734.910263
552.724173	10716.890659
553.082267	10701.132012
553.440305	10840.517395
553.798288	10647.216872
554.156215	10797.120623
554.514086	10771.690522
554.871902	10624.173758
555.229661	10660.250775
555.587365	10635.758329
555.945014	10524.018633
556.302606	10661.125415
556.660143	10551.266070
557.017625	10702.394821
557.375050	10603.144584
557.732421	10730.254758
558.089735	10645.170163
558.446994	10647.904989
558.804197	10686.502584
559.161345	10688.521566
559.518437	10540.198217
559.875474	10622.598397
560.232455	10654.191308
560.589381	10605.934863
560.946251	10599.698956
561.303065	10709.361696
561.659825	10640.353341
562.016528	10576.895296
562.373177	10451.239495
562.729770	10559.871320
563.086307	10481.952725
563.442789	10570.808103
563.799216	10453.757552
564.155587	10503.312094
564.511904	10457.114960
564.868164	10441.273134
565.224370	10461.233583
565.580520	10389.099712
565.936615	10387.153827
566.292654	10265.961968
566.648638	10397.641948
567.004567	10349.985400
567.360441	10328.535290
567.716260	10243.969934
568.072023	10344.971972
568.427732	10288.284197
568.783385	10203.635662
569.138982	10270.297360
569.494525	10285.645153
569.850013	10166.144601
570.205445	10242.475232
570.560823	10143.119131
570.916145	10059.483868
571.271412	10125.709506
571.626625	10076.482639
571.981782	10048.708402
572.336884	10018.617755
572.691931	10028.702583
573.046923	9974.195107
573.401860	9927.019989
573.756743	9865.807779
574.111570	9912.443493
574.466342	9894.658302
574.821059	9920.511860
575.175722	9815.416405
575.530330	9822.710954
575.884882	9821.516201
576.239380	9750.970294
576.593823	9720.867044
576.948211	9740.124252
577.302544	9622.758628
577.656823	9630.811872
578.011047	9634.073498
578.365216	9616.603379
578.719330	9538.079847
579.073389	9545.220641
579.427394	9490.453546
579.781344	9472.360844
580.135239	9414.337164
580.489080	9425.198330
580.842866	9328.514040
581.196597	9338.727418
581.550273	9369.256645
581.903895	9342.530968
582.257463	9409.522862
582.610975	9283.761197
582.964434	9310.007964
583.317837	9232.263290
583.671186	9219.420950
584.024481	9207.622130
584.377721	9130.953741
584.730906	9108.369372
585.084037	9138.775092
585.437113	9071.132889
585.790135	9098.390408
586.143103	8992.763112
586.496016	8967.653124
586.848874	9023.925004
587.201679	9013.240278
587.554428	8898.002022
587.907124	8944.443652
588.259765	8919.628572
588.612352	8922.628059
588.964884	8793.977812
589.317362	8807.803177
589.669786	8809.323085
590.022155	8860.137916
590.374470	8872.413125
590.726731	8811.097571
591.078937	8665.493924
591.431090	8779.804608
591.783188	8653.291812
592.135232	8647.522211
592.487222	8646.461048
592.839157	8693.762195
593.191038	8630.805745
593.542866	8568.885252
593.894639	8476.564081
594.246358	8524.676853
594.598022	8540.614461
594.949633	8438.558822
595.301190	8416.949916
595.652692	8442.609389
596.004141	8550.258189
596.355535	8333.788522
596.706876	8315.552148
597.058162	8247.380624
597.409395	8324.795103
597.760573	8383.585040
598.111698	8293.648334
598.462768	8281.647868
598.813785	8246.193433
599.164748	8211.225469
599.515657	8209.713123
599.866511	8114.311807
600.217312	8243.108247
600.568060	8100.267152
600.918753	8203.298255
601.269392	8169.358686
601.619978	8086.353568
601.970510	8149.400758
602.320988	8146.736508
602.671412	8197.954632
603.021783	8139.288204
603.372100	8111.135880
603.722363	8110.281404
604.072572	8091.906399
604.422728	8099.455527
604.772830	8025.567335
605.122878	8033.340794
605.472872	8031.402470
605.822813	8062.932367
606.172701	8009.339860
606.522534	8077.042557
606.872314	8079.053977
607.222041	8050.115233
607.571714	8097.696164
607.921333	8067.683654
608.270899	8070.839417
608.620411	8160.070360
608.969870	8064.069147
609.319276	8056.252838
609.668627	8065.455464
610.017926	8104.922658
610.367171	8151.812950
610.716362	8130.312429
611.065500	8124.343703
611.414585	8150.776993
611.763616	8134.567163
612.112594	8115.178885
612.461518	8138.113615
612.810389	8194.665279
613.159207	8134.257132
613.507971	8081.090603
613.856682	8201.377575
614.205340	8158.061461
614.553945	8236.428718
614.902496	8136.470199
615.250994	8191.491872
615.599439	8171.183584
615.947830	8185.336623
616.296169	8158.421903
616.644454	8166.649066
616.992686	8160.703025
617.340864	8222.129485
617.688990	8125.598950
618.037063	8222.822643
618.385082	8167.594282
618.733048	8251.474041
619.080961	8193.883900
619.428821	8209.952578
619.776628	8213.047846
620.124382	8163.589086
620.472083	8148.992425
620.819731	8174.440169
621.167326	8066.287255
621.514868	8083.119667
621.862357	7965.945608
622.209793	7983.503947
622.557176	7914.861076
622.904506	7893.380719
623.251783	7821.009914
623.599007	7771.757841
623.946179	7778.081969
624.293297	7733.908858
624.640363	7658.215933
624.987376	7639.714899
625.334336	7588.227074
625.681243	7538.231431
626.028097	7526.533433
626.374899	7498.174422
626.721647	7494.146540
627.068343	7424.286230
627.414987	7399.640029
627.761577	7354.289809
628.108115	7389.361116
628.454600	7282.211391
628.801032	7338.430339
629.147412	7297.150851
629.493739	7282.221474
629.840014	7223.547484
630.186236	7275.887264
630.532405	7160.890983
630.878521	7212.628345
631.224585	7169.483630
631.570597	7093.400015
631.916556	7125.116435
632.262462	7123.664582
632.608316	7077.464928
632.954117	7056.695374
633.299866	7048.369908
633.645562	7038.063269
633.991206	6957.682071
634.336797	6907.968733
634.682336	6864.924841
635.027823	6833.394944
635.373257	6818.649569
635.718639	6749.857983
636.063968	6766.831548
636.409245	6658.754251
636.754470	6660.788357
637.099642	6617.885617
637.444762	6561.550723
637.789829	6567.035498
638.134845	6512.641448
638.479808	6495.395661
638.824719	6498.964798
639.169577	6428.524755
639.514383	6444.205264
639.859137	6376.857969
640.203839	6386.602520
640.548489	6373.740016
