Dividing Wavelength (nm)	Counts (n)	Blue Motor Position (mm): 33.400000	Red Motor Position (mm): 0.000000	
326.493990	2131.059568
326.888308	2131.059568
327.282561	2131.059568
327.676750	2099.098653
328.070874	2097.493045
328.464933	2099.002871
328.858929	2107.197267
329.252859	2115.908380
329.646726	2125.738630
330.040528	2141.156999
330.434265	2159.970586
330.827938	2174.544561
331.221547	2191.503003
331.615091	2213.101827
332.008571	2231.423900
332.401986	2252.490882
332.795338	2269.376227
333.188625	2289.107303
333.581847	2309.997845
333.975006	2324.718014
334.368100	2343.458503
334.761129	2362.630011
335.154095	2378.013092
335.546996	2401.139386
335.939833	2423.796852
336.332606	2438.622885
336.725315	2451.679473
337.117960	2462.074333
337.510540	2471.972638
337.903056	2483.544607
338.295508	2486.128198
338.687896	2496.250835
339.080220	2504.987155
339.472480	2511.434791
339.864676	2516.231448
340.256807	2522.142201
340.648875	2522.593385
341.040879	2525.265196
341.432818	2526.051616
341.824694	2531.574200
342.216506	2528.100845
342.608253	2527.488345
342.999937	2528.494055
343.391557	2527.687471
343.783113	2527.029600
344.174605	2525.416431
344.566033	2523.619259
344.957397	2523.173117
345.348697	2522.661440
345.739934	2521.040709
346.131106	2519.636748
346.522215	2517.259844
346.913260	2514.056191
347.304241	2512.995028
347.695159	2511.409585
348.086012	2511.563340
348.476802	2508.208452
348.867528	2506.799450
349.258191	2503.036228
349.648789	2504.672083
350.039324	2501.594458
350.429796	2502.073368
350.820203	2500.853409
351.210548	2499.237719
351.600828	2495.759323
351.991045	2498.708398
352.381198	2500.805518
352.771288	2494.723366
353.161314	2497.261587
353.551276	2496.747389
353.941175	2497.848881
354.331010	2498.756289
354.720782	2494.642707
355.110490	2497.158243
355.500135	2496.770074
355.889717	2493.261431
356.279235	2496.603716
356.668689	2497.697646
357.058080	2496.986844
357.447408	2499.472133
357.836672	2495.721514
358.225873	2497.238901
358.615010	2492.444764
359.004084	2497.674961
359.393095	2497.581700
359.782043	2502.007833
360.170927	2500.172853
360.559748	2503.671414
360.948505	2501.339880
361.337199	2499.956083
361.725830	2503.512617
362.114398	2506.063441
362.502903	2504.934223
362.891344	2502.275014
363.279722	2503.893224
363.668037	2505.786178
364.056289	2506.819614
364.444478	2505.075375
364.832603	2505.957577
365.220665	2505.750890
365.608665	2508.654594
365.996601	2509.017557
366.384474	2508.735253
366.772284	2507.404388
367.160031	2507.928668
367.547715	2508.838596
367.935336	2507.727022
368.322893	2510.655932
368.710388	2509.962774
369.097820	2511.805315
369.485189	2510.703823
369.872495	2512.168278
370.259738	2511.812877
370.646918	2511.341529
371.034035	2514.222549
371.421090	2513.279853
371.808081	2511.591066
372.195010	2512.506036
372.581875	2513.128618
372.968678	2512.115346
373.355418	2511.028978
373.742096	2513.428567
374.128710	2514.144411
374.515262	2515.450070
374.901751	2514.305728
375.288177	2515.903773
375.674540	2514.477127
376.060841	2515.840759
376.447079	2513.499143
376.833254	2516.397807
377.219367	2509.314985
377.605417	2515.077024
377.991404	2510.971004
378.377329	2513.305059
378.763191	2511.223062
379.148991	2515.744977
379.534727	2513.617610
379.920402	2519.407375
380.306013	2518.053826
380.691563	2521.375946
381.077049	2517.895029
381.462474	2517.063239
381.847835	2517.577437
382.233134	2521.300329
382.618371	2519.409896
383.003545	2520.526512
383.388657	2519.493075
383.773706	2521.751512
384.158693	2521.171779
384.543618	2520.458456
384.928480	2519.598939
385.313280	2519.609022
385.698017	2523.231091
386.082692	2522.018693
386.467305	2521.552386
386.851856	2523.039527
387.236344	2524.158663
387.620770	2521.731347
388.005133	2521.096162
388.389435	2524.491379
388.773674	2522.633714
389.157851	2522.195133
389.541965	2526.167563
389.926018	2526.472552
390.310008	2523.271420
390.693936	2524.284692
391.077802	2523.957017
391.461606	2525.991122
391.845348	2524.168745
392.229027	2526.638911
392.612645	2525.492048
392.996200	2527.324507
393.379694	2527.831143
393.763125	2527.503468
394.146494	2529.736700
394.529801	2529.887934
394.913047	2529.724097
395.296230	2527.755526
395.679351	2529.729138
396.062410	2530.752492
396.445408	2528.524302
396.828343	2528.899868
397.211217	2526.490197
397.594028	2526.056657
397.976778	2528.473891
398.359466	2530.571011
398.742092	2525.827285
399.124656	2534.916485
399.507158	2531.919519
399.889598	2535.022349
400.271977	2536.391023
400.654294	2534.616537
401.036549	2533.567977
401.418742	2534.989582
401.800874	2534.402287
402.182944	2536.663245
402.564952	2538.092412
402.946898	2535.655014
403.328783	2535.869263
403.710606	2535.191228
404.092367	2540.149203
404.474067	2538.256250
404.855705	2541.222969
405.237282	2538.788091
405.618797	2538.556198
406.000250	2542.034594
406.381642	2542.090047
406.762972	2541.711961
407.144240	2540.431508
407.525447	2544.406457
407.906593	2543.632640
408.287677	2546.468289
408.668700	2546.415357
409.049661	2553.944320
409.430560	2553.493137
409.811399	2558.067984
410.192176	2563.842626
410.572891	2566.658110
410.953545	2569.922257
411.334138	2577.443659
411.714669	2584.183682
412.095139	2588.690473
412.475547	2601.313522
412.855894	2610.654781
413.236180	2618.972684
413.616405	2627.424179
413.996568	2643.104688
414.376670	2652.771100
414.756711	2662.011535
415.136691	2677.820594
415.516609	2697.057637
415.896466	2715.364587
416.276262	2735.461147
416.655997	2744.643609
417.035670	2783.344547
417.415283	2812.890749
417.794834	2827.560507
418.174324	2844.493743
418.553753	2855.443129
418.933121	2906.257960
419.312428	2941.349432
419.691674	2962.570169
420.070859	3008.477436
420.449983	3025.367822
420.829045	3074.423290
421.208047	3088.286463
421.586988	3136.671458
421.965867	3174.593538
422.344686	3250.041967
422.723444	3246.460227
423.102141	3234.671489
423.480777	3350.197091
423.859352	3332.187569
424.237866	3449.835497
424.616319	3486.184737
424.994712	3569.280596
425.373044	3570.775298
425.751314	3666.857170
426.129524	3644.401350
426.507673	3762.525667
426.885762	3839.695650
427.263789	3870.915516
427.641756	3859.492261
428.019662	3967.395639
428.397508	4017.280377
428.775292	4052.041653
429.153016	4147.296775
429.530679	4154.487981
429.908282	4252.193105
430.285824	4226.894074
430.663305	4430.685239
431.040726	4331.760156
431.418086	4378.163978
431.795385	4488.323271
432.172624	4544.748906
432.549802	4581.408177
432.926920	4640.273731
433.303977	4693.180640
433.680974	4762.829222
434.057910	4823.640661
434.434786	4874.299216
434.811601	4889.767996
435.188355	5104.276654
435.565050	5049.093663
435.941683	5072.046037
436.318257	5283.288027
436.694770	5308.224095
437.071222	5378.908633
437.447614	5359.495150
437.823946	5322.099871
438.200218	5483.804962
438.576429	5405.228497
438.952580	5525.984297
439.328670	5595.078351
439.704700	5540.616246
440.080670	5556.987393
440.456580	5828.153579
440.832429	5750.242546
441.208218	5634.089320
441.583947	5796.782478
441.959616	5825.219627
442.335224	5777.610970
442.710773	5923.552374
443.086261	5972.242359
443.461689	5791.580008
443.837057	5949.990706
444.212365	6113.084635
444.587612	6021.723804
444.962800	6187.688671
445.337927	6179.206930
445.712995	5816.059851
446.088002	6383.449278
446.462949	6228.330453
446.837837	6172.035888
447.212664	6346.157342
447.587431	6495.819118
447.962139	7032.644029
448.336786	7951.366591
448.711374	7695.772529
449.085901	6793.952956
449.460369	6723.308747
449.834776	6667.742628
450.209124	7058.235447
450.583412	7210.261523
450.957640	7356.702001
451.331808	7126.717001
451.705917	6685.648807
452.079965	6611.248938
452.453954	6821.263407
452.827883	6703.781837
453.201752	6798.764737
453.575562	6594.940805
453.949311	6800.526621
454.323001	6694.922009
454.696632	6763.461537
455.070202	6905.362456
455.443713	7063.243833
455.817164	7164.301323
456.190556	7244.967347
456.563888	7320.400652
456.937160	7366.524689
457.310373	7025.490632
457.683526	7043.774897
458.056619	6940.698424
458.429653	6928.123266
458.802628	6863.422577
459.175542	6977.380380
459.548398	7332.688465
459.921194	7490.428689
460.293930	7492.684606
460.666607	8018.000563
461.039224	8325.551277
461.411782	8461.117986
461.784280	8471.885890
462.156719	8365.356227
462.529099	8238.162875
462.901419	7834.653797
463.273680	7723.703042
463.645882	7739.189467
464.018024	7607.123839
464.390106	7774.636340
464.762130	8160.405597
465.134094	8624.837019
465.505999	9646.076485
465.877845	10860.109840
466.249631	11513.894562
466.621358	11128.551282
466.993026	10503.919553
467.364634	10251.899669
467.736184	9884.661694
468.107674	9551.189367
468.479105	9583.851003
468.850477	9355.436322
469.221790	9124.937124
469.593043	8797.183986
469.964238	8658.635435
470.335373	8665.012494
470.706449	8729.393070
471.077467	8707.358187
471.448425	10016.228248
471.819324	11087.463358
472.190164	11106.471028
472.560945	9858.684628
472.931667	9069.028208
473.302330	8938.283362
473.672934	8582.244310
474.043479	8938.676572
474.413965	8885.081545
474.784393	8764.008153
475.154761	8920.238552
475.525070	9011.629630
475.895321	8835.615223
476.265513	9017.784879
476.635645	9182.043315
477.005719	9178.378396
477.375734	9297.059761
477.745691	9530.563486
478.115588	9665.290843
478.485427	9910.565663
478.855207	10449.638929
479.224928	11263.233269
479.594591	11885.089843
479.964194	11698.204187
480.333739	11639.048767
480.703226	11543.856659
481.072653	11645.254428
481.442022	11881.114893
481.811333	12067.398130
482.180584	11874.793286
482.549777	11574.965620
482.918912	11401.517160
483.287988	11428.953640
483.657005	11443.010897
484.025964	11123.923503
484.394864	11252.324212
484.763706	11223.163657
485.132489	10984.709519
485.501213	10946.235433
485.869879	11023.773420
486.238487	10862.232166
486.607036	10974.957407
486.975527	10757.134190
487.343959	10950.855650
487.712333	10990.763945
488.080648	10923.335991
488.448905	10968.877775
488.817104	10902.803372
489.185244	11167.756336
489.553326	11328.924545
489.921350	11869.051412
490.289315	12920.709201
490.657222	13269.118467
491.025070	13171.138600
491.392861	13046.097820
491.760593	12660.331084
492.128267	12323.299703
492.495883	11989.146820
492.863440	11654.323464
493.230939	11324.591673
493.598380	11257.304872
493.965763	11123.827721
494.333088	11023.730570
494.700354	10946.812645
495.067563	11007.150215
495.434713	10839.751140
495.801805	10966.820984
496.168839	10884.027594
496.535815	10821.411422
496.902733	10823.022071
497.269593	10755.155537
497.636395	10855.527431
498.003139	10845.709784
498.369825	10712.721625
498.736453	10870.698783
499.103023	10796.550972
499.469535	10830.591363
499.835989	10814.416821
500.202385	10784.462285
500.568723	10625.202153
500.935003	10855.867709
501.301226	10661.692545
501.667390	10915.678479
502.033497	11015.722697
502.399546	10872.296829
502.765537	10779.038004
503.131470	10853.422749
503.497345	11021.038594
503.863163	10636.411158
504.228923	10946.232912
504.594625	11015.838644
504.960269	10760.378173
505.325856	10981.629374
505.691385	10774.934504
506.056856	10926.582494
506.422270	10950.679210
506.787625	10839.063023
507.152924	10952.993099
507.518164	10936.195975
507.883347	10865.392969
508.248472	10781.188056
508.613540	11018.452482
508.978550	10900.862527
509.343503	10875.122396
509.708398	11000.574030
510.073236	11104.275606
510.438016	11110.158632
510.802738	11058.779192
511.167403	11106.110586
511.532010	11005.431182
511.896561	11240.233004
512.261053	11305.979733
512.625488	11181.317039
512.989866	11160.257619
513.354186	11152.330405
513.718449	11054.219469
514.082655	11245.314487
514.446803	11142.122068
514.810894	11270.311049
515.174927	11121.355035
515.538904	11155.191260
515.902822	11303.088631
516.266684	11191.701816
516.630488	11131.901129
516.994235	11183.739314
517.357925	11250.385888
517.721558	11340.420896
518.085133	11360.822446
518.448651	11366.075328
518.812112	11249.254149
519.175516	11256.866292
519.538863	11373.949610
519.902152	11299.713579
520.265385	11466.061573
520.628560	11366.849145
520.991678	11343.637152
521.354739	11408.494117
521.717743	11344.269817
522.080690	11329.874802
522.443580	11456.112856
522.806413	11419.138513
523.169189	11448.982144
523.531908	11507.545228
523.894569	11323.560757
524.257174	11337.915443
524.619722	11437.269023
524.982213	11385.834130
525.344647	11446.822010
525.707025	11394.356201
526.069345	11487.128555
526.431608	11403.548745
526.793815	11516.226095
527.155964	11307.799589
527.518057	11355.672907
527.880093	11303.207098
528.242072	11372.769980
528.603995	11285.598348
528.965860	11206.384177
529.327669	11259.898546
529.689421	11199.523167
530.051117	11177.367295
530.412755	11269.101172
530.774337	11164.681232
531.135862	11144.100721
531.497331	11174.813951
531.858743	11021.804849
532.220098	11194.391272
532.581396	11060.954450
532.942638	11044.487521
533.303824	11004.569144
533.664953	11018.901145
534.026025	10936.669843
534.387040	11031.350274
534.747999	11039.395956
535.108902	11090.785478
535.469748	10855.348470
535.830537	10963.380397
536.191270	10936.329565
536.551947	10953.461927
536.912567	10959.324789
537.273131	10879.510720
537.633638	10855.194715
537.994089	10846.849085
538.354483	10801.082969
538.714821	10941.378281
539.075103	10955.465785
539.435328	10917.342059
539.795497	10743.923847
540.155609	10896.045705
540.515665	10987.386372
540.875665	10729.533873
541.235609	10791.282966
541.595496	10787.464292
541.955328	10947.220978
542.315102	10825.245220
542.674821	10781.215782
543.034483	10780.126893
543.394090	10781.031780
543.753640	10708.681140
544.113134	10933.067939
544.472571	10789.493357
544.831953	10928.921590
545.191278	10738.917981
545.550548	10765.928483
545.909761	10906.115410
546.268918	10869.622497
546.628019	10958.152720
546.987064	10822.737246
547.346053	10744.972407
547.704986	10848.495021
548.063863	10828.993318
548.422684	10823.248923
548.781449	10738.759184
549.140158	10846.221461
549.498811	10720.779909
549.857408	10580.393857
550.215949	10797.264295
550.574434	10650.856585
550.932864	10755.352142
551.291237	10816.513941
551.649555	10756.468758
552.007817	10779.063209
552.366022	10737.070398
552.724173	10734.847249
553.082267	10718.213962
553.440305	10854.861999
553.798288	10658.279684
554.156215	10809.693260
554.514086	10788.422112
554.871902	10629.320776
555.229661	10670.224698
555.587365	10638.359564
555.945014	10542.907837
556.302606	10671.404328
556.660143	10559.009282
557.017625	10708.865142
557.375050	10607.875707
557.732421	10746.593138
558.089735	10655.580146
558.446994	10660.903604
558.804197	10695.256547
559.161345	10700.748884
559.518437	10549.925123
559.875474	10633.792279
560.232455	10671.351396
560.589381	10615.152613
560.946251	10617.776533
561.303065	10716.646163
561.659825	10650.549074
562.016528	10586.561709
562.373177	10466.657864
562.729770	10578.959649
563.086307	10491.629220
563.442789	10593.841135
563.799216	10471.683895
564.155587	10516.048569
564.511904	10465.936979
564.868164	10454.901894
565.224370	10473.728083
565.580520	10399.615559
565.936615	10401.523636
566.292654	10273.997567
566.648638	10413.418239
567.004567	10365.418892
567.360441	10348.468013
567.716260	10251.178784
568.072023	10351.255771
568.427732	10305.640890
568.783385	10211.295696
569.138982	10280.243557
569.494525	10297.204519
569.850013	10175.427886
570.205445	10260.767059
570.560823	10150.317899
570.916145	10066.959899
571.271412	10144.414708
571.626625	10081.748124
571.981782	10061.966637
572.336884	10031.865907
572.691931	10036.508810
573.046923	9987.266819
573.401860	9935.917626
573.756743	9881.889059
574.111570	9922.094782
574.466342	9906.048789
574.821059	9932.368653
575.175722	9827.116923
575.530330	9834.756792
575.884882	9826.320421
576.239380	9751.741591
576.593823	9730.780473
576.948211	9754.262167
577.302544	9632.876224
577.656823	9644.201176
578.011047	9647.349377
578.365216	9617.717474
578.719330	9548.724243
579.073389	9552.167351
579.427394	9502.645576
579.781344	9476.010640
580.135239	9422.889481
580.489080	9439.621071
580.842866	9338.924023
581.196597	9344.126493
581.550273	9391.435202
581.903895	9349.253347
582.257463	9420.802443
582.610975	9303.124269
582.964434	9321.867279
583.317837	9239.588086
583.671186	9223.232063
584.024481	9221.102175
584.377721	9147.191298
584.730906	9118.121484
585.084037	9150.178182
585.437113	9088.265251
585.790135	9104.419628
586.143103	9004.624947
586.496016	8977.284249
586.848874	9037.745327
587.201679	9026.168317
587.554428	8911.993745
587.907124	8955.950086
588.259765	8930.217516
588.612352	8929.045448
588.964884	8809.819638
589.317362	8820.020413
589.669786	8823.007297
590.022155	8871.659473
590.374470	8889.631186
590.726731	8827.259510
591.078937	8675.029267
591.431090	8789.357595
591.783188	8660.180548
592.135232	8655.048654
592.487222	8654.035382
592.839157	8704.207465
593.191038	8638.062486
593.542866	8581.137777
593.894639	8488.315011
594.246358	8537.753607
594.598022	8554.339003
594.949633	8447.106099
595.301190	8419.168024
595.652692	8457.480793
596.004141	8569.475067
596.355535	8341.836724
596.706876	8320.220256
597.058162	8259.187007
597.409395	8337.259356
597.760573	8393.253973
598.111698	8306.699882
598.462768	8289.534753
598.813785	8258.503930
599.164748	8220.034885
599.515657	8214.696303
599.866511	8124.502499
600.217312	8249.618897
600.568060	8109.908359
600.918753	8211.215387
601.269392	8182.591715
601.619978	8098.351514
601.970510	8155.321593
602.320988	8153.784042
602.671412	8211.588432
603.021783	8145.851786
603.372100	8117.807847
603.722363	8125.997202
604.072572	8097.010567
604.422728	8112.789378
604.772830	8036.446145
605.122878	8049.316210
605.472872	8042.210704
605.822813	8067.484529
606.172701	8013.367742
606.522534	8094.600895
606.872314	8085.715862
607.222041	8059.093528
607.571714	8116.129143
607.921333	8072.165240
608.270899	8077.418122
608.620411	8160.750916
608.969870	8075.545334
609.319276	8062.168632
609.668627	8087.460101
610.017926	8118.785831
610.367171	8167.977410
610.716362	8141.642422
611.065500	8128.691698
611.414585	8165.850043
611.763616	8140.361969
612.112594	8131.313098
612.461518	8144.790623
612.810389	8206.917803
613.159207	8149.456211
613.507971	8097.010567
613.856682	8209.382927
614.205340	8168.552102
614.553945	8242.904080
614.902496	8147.742219
615.250994	8199.151906
615.599439	8182.256478
615.947830	8192.565638
616.296169	8164.231833
616.644454	8183.705810
616.992686	8180.154317
617.340864	8238.039366
617.688990	8138.214438
618.037063	8232.058037
618.385082	8176.060900
618.733048	8265.364941
619.080961	8202.945374
619.428821	8222.520174
619.776628	8222.772232
620.124382	8179.193977
620.472083	8161.670927
620.819731	8189.646810
621.167326	8082.794513
621.514868	8086.903053
621.862357	7975.801064
622.209793	7990.957293
622.557176	7926.092766
622.904506	7894.391470
623.251783	7835.069693
623.599007	7789.825337
623.946179	7788.280223
624.293297	7747.106599
624.640363	7665.724732
624.987376	7647.001887
625.334336	7593.278310
625.681243	7539.857203
626.028097	7529.006119
626.374899	7505.983169
626.721647	7502.154413
627.068343	7433.715708
627.414987	7405.923827
627.761577	7363.706684
628.108115	7395.344966
628.454600	7294.912578
628.801032	7344.913263
629.147412	7302.819628
629.493739	7290.279758
629.840014	7226.819193
630.186236	7287.035776
630.532405	7170.723753
630.878521	7222.118317
631.224585	7181.411000
631.570597	7100.767662
631.916556	7137.124463
632.262462	7129.419059
632.608316	7086.143274
632.954117	7067.967394
633.299866	7056.879376
633.645562	7045.428395
633.991206	6965.107691
634.336797	6909.279433
634.682336	6868.216714
635.027823	6836.679256
635.373257	6828.033677
635.718639	6759.932729
636.063968	6772.507888
636.409245	6666.381517
636.754470	6663.634088
637.099642	6625.417101
637.444762	6572.419450
637.789829	6572.177475
638.134845	6523.762233
638.479808	6503.443863
638.824719	6509.478124
639.169577	6437.724861
639.514383	6456.165402
639.859137	6382.430965
640.203839	6392.384723
640.548489	6378.100614
