Dividing Wavelength (nm)	Counts (n)	Blue Motor Position (mm): 39.500000	Red Motor Position (mm): 0.000000	
326.493990	2246.922928
326.888308	2246.922928
327.282561	2246.922928
327.676750	2208.640405
328.070874	2203.775692
328.464933	2203.861392
328.858929	2208.342977
329.252859	2211.692824
329.646726	2220.063660
330.040528	2235.003119
330.434265	2247.026271
330.827938	2265.862543
331.221547	2284.091355
331.615091	2299.295475
332.008571	2318.368681
332.401986	2336.970538
332.795338	2354.707838
333.188625	2376.599049
333.581847	2395.705022
333.975006	2413.520459
334.368100	2432.444951
334.761129	2448.775769
335.154095	2467.922071
335.546996	2493.221102
335.939833	2535.793646
336.332606	2548.656150
336.725315	2561.274158
337.117960	2575.059193
337.510540	2586.172417
337.903056	2595.823706
338.295508	2608.555140
338.687896	2612.812394
339.080220	2620.709362
339.472480	2630.489200
339.864676	2634.625467
340.256807	2641.476395
340.648875	2640.609317
341.040879	2646.789771
341.432818	2649.065852
341.824694	2651.168013
342.216506	2650.920997
342.608253	2653.156749
342.999937	2653.688590
343.391557	2651.352016
343.783113	2652.239259
344.174605	2650.089207
344.566033	2650.792447
344.957397	2652.282108
345.348697	2649.300266
345.739934	2647.039308
346.131106	2643.616365
346.522215	2641.683082
346.913260	2641.380613
347.304241	2639.701909
347.695159	2639.464975
348.086012	2639.018833
348.476802	2634.990951
348.867528	2631.469705
349.258191	2627.119189
349.648789	2628.240846
350.039324	2622.199023
350.429796	2627.492234
350.820203	2626.352934
351.210548	2627.088942
351.600828	2624.878396
351.991045	2623.474435
352.381198	2623.088787
352.771288	2621.132819
353.161314	2621.505864
353.551276	2621.231121
353.941175	2619.234824
354.331010	2622.496451
354.720782	2617.750205
355.110490	2618.501337
355.500135	2619.633076
355.889717	2620.737088
356.279235	2618.445884
356.668689	2619.244907
357.058080	2621.941924
357.447408	2619.912860
357.836672	2618.619804
358.225873	2619.358333
358.615010	2621.415123
359.004084	2622.246914
359.393095	2622.587192
359.782043	2622.388066
360.170927	2624.563324
360.559748	2623.139198
360.948505	2626.478962
361.337199	2626.552059
361.725830	2624.336472
362.114398	2624.669188
362.502903	2626.841926
362.891344	2625.884106
363.279722	2630.325363
363.668037	2629.538943
364.056289	2630.494242
364.444478	2627.976185
364.832603	2629.385188
365.220665	2632.440127
365.608665	2631.139509
365.996601	2633.549181
366.384474	2634.703605
366.772284	2631.494911
367.160031	2633.836527
367.547715	2634.393574
367.935336	2635.663945
368.322893	2633.297123
368.710388	2631.499952
369.097820	2633.597072
369.485189	2633.889459
369.872495	2637.922382
370.259738	2638.739049
370.646918	2638.066055
371.034035	2637.433390
371.421090	2639.865747
371.808081	2638.166878
372.195010	2638.529841
372.581875	2639.202835
372.968678	2642.749287
373.355418	2642.076292
373.742096	2641.831797
374.128710	2640.437917
374.515262	2644.468320
374.901751	2644.730460
375.288177	2645.620224
375.674540	2644.110398
376.060841	2644.455717
376.447079	2646.560399
376.833254	2647.790440
377.219367	2649.393527
377.605417	2647.256078
377.991404	2645.489154
378.377329	2646.888074
378.763191	2649.136428
379.148991	2649.224649
379.534727	2649.348157
379.920402	2651.553662
380.306013	2649.544762
380.691563	2650.565596
381.077049	2654.144815
381.462474	2652.393014
381.847835	2654.059115
382.233134	2656.393169
382.618371	2654.578354
383.003545	2653.978457
383.388657	2655.523570
383.773706	2658.724703
384.158693	2657.111534
384.543618	2658.389466
384.928480	2659.120434
385.313280	2656.718324
385.698017	2660.652944
386.082692	2660.670588
386.467305	2660.557162
386.851856	2661.724190
387.236344	2659.480876
387.620770	2660.226967
388.005133	2662.621515
388.389435	2664.252328
388.773674	2665.058913
389.157851	2672.197187
389.541965	2675.753721
389.926018	2681.304031
390.310008	2689.541277
390.693936	2697.692822
391.077802	2710.378886
391.461606	2724.516802
391.845348	2743.423649
392.229027	2764.727566
392.612645	2791.072636
392.996200	2826.516988
393.379694	2867.582227
393.763125	2919.206163
394.146494	2965.675520
394.529801	3022.552338
394.913047	3091.187647
395.296230	3130.453195
395.679351	3211.850185
396.062410	3282.958181
396.445408	3335.892817
396.828343	3416.427770
397.211217	3497.166890
397.594028	3523.728730
397.976778	3632.703353
398.359466	3718.408009
398.742092	3796.682005
399.124656	3819.515911
399.507158	3945.985858
399.889598	4047.794481
400.271977	4180.853216
400.654294	4238.551742
401.036549	4339.427751
401.418742	4355.501470
401.800874	4553.356677
402.182944	4659.737626
402.564952	4800.673164
402.946898	4907.023866
403.328783	4856.009909
403.710606	4925.315692
404.092367	5229.594697
404.474067	5305.612777
404.855705	5284.220641
405.237282	5280.792656
405.618797	5534.133322
406.000250	5571.752932
406.381642	5782.742865
406.762972	5843.856773
407.144240	5939.351350
407.525447	5962.548220
407.906593	6031.085227
408.287677	6206.267844
408.668700	6144.564121
409.049661	6293.777233
409.430560	6345.050809
409.811399	6229.936061
410.192176	6516.286202
410.572891	6529.403285
410.953545	6753.021308
411.334138	6506.733216
411.714669	6687.735845
412.095139	6491.060268
412.475547	6751.398056
412.855894	6818.042110
413.236180	7000.171437
413.616405	6697.177926
413.996568	6924.826351
414.376670	6954.236443
414.756711	6861.093564
415.136691	6962.846733
415.516609	7165.811149
415.896466	7162.821745
416.276262	7354.892227
416.655997	7336.313054
417.035670	7527.879421
417.415283	7869.213427
417.794834	7912.766476
418.174324	7784.549769
418.553753	7697.315123
418.933121	8019.908639
419.312428	8119.912529
419.691674	7899.236019
420.070859	8371.365283
420.449983	8054.692601
420.829045	8419.651975
421.208047	8197.957152
421.586988	8495.095363
421.965867	8508.582970
422.344686	8620.320145
422.723444	8653.044795
423.102141	8028.891976
423.480777	8774.909648
423.859352	8302.581259
424.237866	8920.679653
424.616319	8784.346688
424.994712	9201.875214
425.373044	8769.583669
425.751314	9221.457576
426.129524	9093.165252
426.507673	9216.338285
426.885762	9369.423003
427.263789	9289.654306
427.641756	9202.076860
428.019662	9304.944125
428.397508	9542.180825
428.775292	9237.770750
429.153016	9610.337225
429.530679	9447.432339
429.908282	9487.822063
430.285824	9205.146923
430.663305	9886.559688
431.040726	9335.435544
431.418086	9322.394079
431.795385	9645.292586
432.172624	9736.204754
432.549802	9650.726950
432.926920	9732.607891
433.303977	9607.887224
433.680974	9814.443462
434.057910	9900.148119
434.434786	9968.889293
434.811601	9804.824941
435.188355	10375.100428
435.565050	10099.891237
435.941683	10028.165700
436.318257	10518.400268
436.694770	10658.193984
437.071222	10723.050949
437.447614	10565.053626
437.823946	10462.778697
438.200218	10597.800961
438.576429	10415.999309
438.952580	10656.175002
439.328670	10707.226767
439.704700	10485.287448
440.080670	10477.526592
440.456580	11031.488906
440.832429	10793.753132
441.208218	10393.198171
441.583947	10714.039887
441.959616	10868.001766
442.335224	10676.526140
442.710773	10815.115021
443.086261	11023.012206
443.461689	10306.155088
443.837057	10958.210694
444.212365	11231.864689
444.587612	10863.439522
444.962800	11096.834863
445.337927	10857.685045
445.712995	10467.146856
446.088002	11536.680577
446.462949	11204.072808
446.837837	11177.339569
447.212664	11148.010136
447.587431	11685.064420
447.962139	12413.294381
448.336786	14686.423747
448.711374	15215.684407
449.085901	13060.558370
449.460369	12682.867562
449.834776	12124.542130
450.209124	13012.455680
450.583412	13435.143827
450.957640	14376.044946
451.331808	13490.838495
451.705917	12496.181033
452.079965	11783.447578
452.453954	12699.445397
452.827883	12331.428563
453.201752	12626.903193
453.575562	12147.955769
453.949311	12567.876323
454.323001	12529.984490
454.696632	12767.488371
455.070202	13047.811813
455.443713	13273.471503
455.817164	13744.050612
456.190556	13723.255852
456.563888	14096.192852
456.937160	14258.018931
457.310373	13598.265483
457.683526	13694.324670
458.056619	13239.731060
458.429653	13400.052355
458.802628	12818.025938
459.175542	13196.639277
459.548398	14145.898629
459.921194	14487.870341
460.293930	14548.429722
460.666607	15423.579071
461.039224	16471.584544
461.411782	17183.614757
461.784280	17025.476282
462.156719	17098.603259
462.529099	16779.830937
462.901419	15705.624067
463.273680	15487.137939
463.645882	15373.611154
464.018024	15108.448982
464.390106	15325.631972
464.762130	16047.474792
465.134094	16818.148747
465.505999	18838.524742
465.877845	22102.644131
466.249631	24922.622743
466.621358	24585.762760
466.993026	23153.525582
467.364634	22575.043096
467.736184	21121.988473
468.107674	20316.759928
468.479105	20442.090575
468.850477	19902.430014
469.221790	19498.013529
469.593043	18817.203182
469.964238	18256.069827
470.335373	17900.063542
470.706449	18368.111991
471.077467	17922.131193
471.448425	19778.054667
471.819324	23849.174566
472.190164	25797.106659
472.560945	22204.041899
472.931667	19864.341576
473.302330	19237.191791
473.672934	18801.668866
474.043479	19088.442464
474.413965	18901.587056
474.784393	18513.914763
475.154761	19232.609382
475.525070	19198.231233
475.895321	18890.214213
476.265513	19474.816660
476.635645	20069.599717
477.005719	19843.995479
477.375734	20015.379587
477.745691	20512.134887
478.115588	21041.458561
478.485427	21590.480544
478.855207	22661.146004
479.224928	24437.772127
479.594591	26664.437178
479.964194	26632.761088
480.333739	26870.648097
480.703226	26421.239314
481.072653	26125.726876
481.442022	26724.575623
481.811333	27649.244226
482.180584	27540.166260
482.549777	26595.136437
482.918912	26256.300322
483.287988	26381.462090
483.657005	26023.577975
484.025964	25800.345601
484.394864	25691.817120
484.763706	25364.081626
485.132489	24805.844414
485.501213	24979.648275
485.869879	24886.691919
486.238487	24730.229627
486.607036	24868.034608
486.975527	24588.623615
487.343959	24899.778754
487.712333	24828.015408
488.080648	24496.884697
488.448905	24981.100127
488.817104	24743.674384
489.185244	25433.422697
489.553326	25378.554779
489.921350	26402.680306
490.289315	28706.313694
490.657222	30474.074949
491.025070	30970.477368
491.392861	30739.000186
491.760593	29874.137312
492.128267	28980.436517
492.495883	27909.980265
492.863440	27056.747333
493.230939	26177.796954
493.598380	26016.512798
493.965763	25633.896783
494.333088	25153.555480
494.700354	25103.557316
495.067563	24976.497554
495.434713	24720.492638
495.801805	24880.093048
496.168839	24681.953017
496.535815	24531.789647
496.902733	24747.752678
497.269593	24435.256592
497.636395	24613.156390
498.003139	24555.846033
498.369825	24306.626510
498.736453	24510.465566
499.103023	24381.603591
499.469535	24386.932091
499.835989	24603.996614
500.202385	24627.926971
500.568723	24145.337313
500.935003	24362.822773
501.301226	24013.637169
501.667390	24854.627660
502.033497	25064.022067
502.399546	24796.609020
502.765537	24363.132804
503.131470	24734.015533
503.497345	24880.980291
503.863163	24111.743064
504.228923	24681.736247
504.594625	24902.122891
504.960269	24441.752118
505.325856	24929.037611
505.691385	24330.027546
506.056856	24942.686535
506.422270	24920.671816
506.787625	24456.651249
507.152924	24887.173349
507.518164	24929.897128
507.883347	24739.686831
508.248472	24415.863273
508.613540	25192.760533
508.978550	24988.979451
509.343503	24994.907848
509.708398	25223.670368
510.073236	25385.738423
510.438016	25599.211124
510.802738	25256.783187
511.167403	25520.223805
511.532010	25244.437401
511.896561	26011.620358
512.261053	25966.370961
512.625488	25807.441025
512.989866	25693.359713
513.354186	25536.209304
513.718449	25658.711863
514.082655	26034.988627
514.446803	25760.515444
514.810894	26240.108136
515.174927	25726.288530
515.538904	25753.152839
515.902822	26259.849294
516.266684	26005.228175
516.630488	25903.366621
516.994235	25869.303544
517.357925	26190.455291
517.721558	26356.682298
518.085133	26472.031460
518.448651	26362.325870
518.812112	26107.029236
519.175516	26340.681676
519.538863	26485.246844
519.902152	26266.065037
520.265385	26542.456379
520.628560	26324.222308
520.991678	26329.933936
521.354739	26394.115386
521.717743	26465.825799
522.080690	26254.490548
522.443580	26584.252585
522.806413	26569.043424
523.169189	26672.654259
523.531908	26709.820166
523.894569	26327.163822
524.257174	26429.400942
524.619722	26575.831338
524.982213	26271.602744
525.344647	26317.015979
525.707025	26466.783618
526.069345	26437.935616
526.431608	26407.098878
526.793815	26584.111433
527.155964	26073.787867
527.518057	26243.538641
527.880093	26159.179973
528.242072	26384.973253
528.603995	26095.089263
528.965860	25887.411369
529.327669	25943.748783
529.689421	25928.642966
530.051117	25762.194148
530.412755	25937.089419
530.774337	25732.408491
531.135862	25604.121208
531.497331	25806.334491
531.858743	25386.691201
532.220098	25846.305800
532.581396	25546.561313
532.942638	25454.507323
533.303824	25566.985548
533.664953	25561.853653
534.026025	25224.870163
534.387040	25470.845703
534.747999	25520.785893
535.108902	25686.896954
535.469748	25179.600601
535.830537	25355.836819
536.191270	25490.332283
536.551947	25342.240827
536.912567	24960.426355
537.273131	25362.985175
537.633638	25052.404728
537.994089	25265.360710
538.354483	24787.388750
538.714821	25289.288547
539.075103	25337.855023
539.435328	25106.808860
539.795497	24690.064233
540.155609	25050.988164
540.515665	25368.298551
540.875665	24592.802732
541.235609	24905.523149
541.595496	24853.606826
541.955328	25206.774941
542.315102	25129.909948
542.674821	24659.275386
543.034483	24529.558936
543.394090	24708.986204
543.753640	24513.843139
544.113134	25134.094105
544.472571	24732.089812
544.831953	25039.882502
545.191278	24665.455841
545.550548	24573.018723
545.909761	24761.497383
546.268918	25011.389900
546.628019	24980.343954
546.987064	24663.086499
547.346053	24414.144239
547.704986	24517.518140
548.063863	24681.126268
548.422684	24705.485123
548.781449	24213.153436
549.140158	24621.547391
549.498811	24200.623648
549.857408	23943.983547
550.215949	24359.641805
550.574434	24052.428848
550.932864	24251.244394
551.291237	24430.114615
551.649555	24283.696822
552.007817	24335.040974
552.366022	24192.875394
552.724173	24215.409352
553.082267	24189.081926
553.440305	24662.995758
553.798288	23916.990688
554.156215	24415.331431
554.514086	24534.181674
554.871902	23917.000771
555.229661	24191.272307
555.587365	24038.532908
555.945014	23937.704789
556.302606	24156.808459
556.660143	24137.271467
557.017625	24374.913980
557.375050	23892.336925
557.732421	24273.727940
558.089735	24095.744963
558.446994	24159.815507
558.804197	24191.325239
559.161345	24098.830149
559.518437	23876.653896
559.875474	24056.771802
560.232455	24249.157356
560.589381	24054.717532
560.946251	24062.024684
561.303065	24354.729200
561.659825	24456.318533
562.016528	24058.304313
562.373177	23796.975939
562.729770	24162.396578
563.086307	24003.126363
563.442789	24181.399208
563.799216	24008.974102
564.155587	24026.787019
564.511904	23992.214786
564.868164	23948.883548
565.224370	23914.046654
565.580520	23841.620397
565.936615	23960.347132
566.292654	23659.400330
566.648638	23928.295476
567.004567	23763.968984
567.360441	23702.597977
567.716260	23419.945522
568.072023	23738.763215
568.427732	23522.064175
568.783385	23283.189100
569.138982	23532.837121
569.494525	23558.650349
569.850013	23329.048477
570.205445	23412.348503
570.560823	23238.390887
570.916145	22994.625892
571.271412	23183.817876
571.626625	22924.974790
571.981782	23044.059447
572.336884	22841.427748
572.691931	22991.502898
573.046923	22720.893759
573.401860	22599.522939
573.756743	22627.229121
574.111570	22517.727697
574.466342	22446.476029
574.821059	22518.582173
575.175722	22239.050192
575.530330	22204.160367
575.884882	22227.243810
576.239380	22135.298205
576.593823	22021.710927
576.948211	21998.027586
577.302544	21858.354857
577.656823	21726.455587
578.011047	21820.100061
578.365216	21690.406296
578.719330	21563.991801
579.073389	21450.603648
579.427394	21621.208898
579.781344	21371.190352
580.135239	21257.114082
580.489080	21213.543389
580.842866	20989.562403
581.196597	21203.450999
581.550273	21156.553145
581.903895	21034.519413
582.257463	21353.841221
582.610975	20885.142463
582.964434	21216.046322
583.317837	20885.034078
583.671186	20976.679734
584.024481	20969.677572
584.377721	20732.335007
584.730906	20796.524019
585.084037	20795.351951
585.437113	20719.449818
585.790135	20928.672826
586.143103	20385.879189
586.496016	20399.016436
586.848874	20632.348762
587.201679	20556.920498
587.554428	20246.108157
587.907124	20577.561502
588.259765	20351.130515
588.612352	20418.213149
588.964884	19977.220573
589.317362	20159.992647
589.669786	20231.269521
590.022155	20229.951259
590.374470	20457.652617
590.726731	20232.630632
591.078937	20010.008237
591.431090	20092.496638
591.783188	19853.760194
592.135232	19824.602161
592.487222	19930.569735
592.839157	19937.004768
593.191038	19815.575975
593.542866	19710.553617
593.894639	19414.128729
594.246358	19634.374220
594.598022	19524.393887
594.949633	19274.387945
595.301190	19261.704402
595.652692	19422.547456
596.004141	19644.272526
596.355535	18987.122834
596.706876	19009.671915
597.058162	18890.930057
597.409395	19136.671183
597.760573	19186.760088
598.111698	18968.238672
598.462768	18906.686183
598.813785	18874.505977
599.164748	18683.670578
599.515657	18739.312314
599.866511	18525.733749
600.217312	18877.341627
600.568060	18395.548471
600.918753	18708.899032
601.269392	18605.023537
601.619978	18397.421260
601.970510	18588.314633
602.320988	18537.754380
602.671412	18742.067304
603.021783	18671.281943
603.372100	18372.570892
603.722363	18530.626188
604.072572	18471.463207
604.422728	18625.440210
604.772830	18366.418164
605.122878	18334.447166
605.472872	18310.592426
605.822813	18300.888205
606.172701	18276.277292
606.522534	18464.541703
606.872314	18486.979878
607.222041	18320.785639
607.571714	18536.297487
607.921333	18364.878091
608.270899	18443.699052
608.620411	18604.393393
608.969870	18394.560405
609.319276	18386.819713
609.668627	18413.268127
610.017926	18547.509013
610.367171	18668.347991
610.716362	18715.082008
611.065500	18528.564357
611.414585	18681.598664
611.763616	18666.669287
612.112594	18593.277648
612.461518	18558.198779
612.810389	18744.988653
613.159207	18611.125854
613.507971	18531.427732
613.856682	18786.308470
614.205340	18708.142859
614.553945	18864.111118
614.902496	18612.171893
615.250994	18825.009408
615.599439	18776.982336
615.947830	18762.332743
616.296169	18827.368668
616.644454	18788.395508
616.992686	18752.835209
617.340864	18977.741247
617.688990	18725.305468
618.037063	18899.633609
618.385082	18747.662985
618.733048	19032.725112
619.080961	18919.649510
619.428821	18939.874619
619.776628	18822.191403
620.124382	18752.298326
620.472083	18807.340164
620.819731	18801.575605
621.167326	18494.065220
621.514868	18539.223876
621.862357	18328.445672
622.209793	18321.924940
622.557176	18158.543664
622.904506	17985.332139
623.251783	17915.915450
623.599007	17668.306576
623.946179	17605.574458
624.293297	17534.751287
624.640363	17276.422400
624.987376	17304.194116
625.334336	17095.656705
625.681243	16952.432483
626.028097	16975.344527
626.374899	16879.925567
626.721647	16744.784836
627.068343	16580.503714
627.414987	16511.099628
627.761577	16491.015672
628.108115	16521.446597
628.454600	16248.941984
628.801032	16355.942995
629.147412	16288.005886
629.493739	16293.858665
629.840014	16105.523678
630.186236	16203.944645
630.532405	15955.405678
630.878521	16161.213305
631.224585	16067.170580
631.570597	15881.003289
631.916556	15919.593321
632.262462	15886.813218
632.608316	15811.735314
632.954117	15749.366159
633.299866	15735.785290
633.645562	15650.529297
633.991206	15424.015131
634.336797	15283.046825
634.682336	15259.948258
635.027823	15125.523370
635.373257	15010.839641
635.718639	14915.080403
636.063968	14864.268093
