Dividing Wavelength (nm)	Counts (n)	Blue Motor Position (mm): 13.200000	Red Motor Position (mm): 0.000000	
326.493990	2136.912348
326.888308	2136.912348
327.282561	2136.912348
327.676750	2106.350353
328.070874	2105.377410
328.464933	2107.431680
328.858929	2113.687752
329.252859	2123.011366
329.646726	2134.283386
330.040528	2147.150931
330.434265	2166.272028
330.827938	2181.433298
331.221547	2200.020032
331.615091	2218.989894
332.008571	2237.372462
332.401986	2258.356265
332.795338	2279.100613
333.188625	2295.411266
333.581847	2315.359112
333.975006	2331.924343
334.368100	2351.862107
334.761129	2369.334746
335.154095	2384.538866
335.546996	2404.665673
335.939833	2421.513209
336.332606	2437.410488
336.725315	2449.622683
337.117960	2460.468725
337.510540	2469.366362
337.903056	2479.073103
338.295508	2483.481592
338.687896	2494.342758
339.080220	2504.346928
339.472480	2507.999244
339.864676	2513.103413
340.256807	2517.917714
340.648875	2524.461132
341.040879	2524.065402
341.432818	2524.156142
341.824694	2525.436595
342.216506	2527.581606
342.608253	2528.604961
342.999937	2526.243180
343.391557	2528.375588
343.783113	2524.398118
344.174605	2524.375432
344.566033	2522.308559
344.957397	2521.605318
345.348697	2518.661285
345.739934	2519.137674
346.131106	2517.421161
346.522215	2513.579802
346.913260	2512.057373
347.304241	2512.402692
347.695159	2511.091992
348.086012	2508.742814
348.476802	2507.064110
348.867528	2507.303565
349.258191	2503.474809
349.648789	2504.311640
350.039324	2499.739314
350.429796	2501.357524
350.820203	2496.089518
351.210548	2497.213696
351.600828	2497.599344
351.991045	2497.027173
352.381198	2498.141268
352.771288	2494.244456
353.161314	2495.494662
353.551276	2495.194713
353.941175	2491.144146
354.331010	2495.073726
354.720782	2493.344610
355.110490	2493.364775
355.500135	2494.562049
355.889717	2492.979126
356.279235	2495.277893
356.668689	2496.074395
357.058080	2493.843684
357.447408	2491.159270
357.836672	2493.581544
358.225873	2492.467449
358.615010	2490.841677
359.004084	2497.473315
359.393095	2494.993067
359.782043	2496.787718
360.170927	2497.455671
360.559748	2497.962307
360.948505	2499.903151
361.337199	2499.149499
361.725830	2500.356855
362.114398	2499.714108
362.502903	2502.514469
362.891344	2500.651763
363.279722	2501.481032
363.668037	2504.740138
364.056289	2502.179232
364.444478	2500.752586
364.832603	2503.323574
365.220665	2502.010353
365.608665	2507.588390
365.996601	2507.606034
366.384474	2505.481188
366.772284	2506.108812
367.160031	2504.530930
367.547715	2504.435148
367.935336	2504.838441
368.322893	2507.835407
368.710388	2503.167298
369.097820	2507.651405
369.485189	2506.955725
369.872495	2504.304078
370.259738	2507.792557
370.646918	2507.381703
371.034035	2508.364728
371.421090	2508.596621
371.808081	2507.275839
372.195010	2508.883967
372.581875	2509.677948
372.968678	2508.566374
373.355418	2507.348935
373.742096	2508.551251
374.128710	2510.383710
374.515262	2511.253309
374.901751	2513.365553
375.288177	2511.454955
375.674540	2507.222907
376.060841	2511.833042
376.447079	2511.260871
376.833254	2511.051663
377.219367	2510.839934
377.605417	2509.466220
377.991404	2508.248781
378.377329	2507.830366
378.763191	2510.242558
379.148991	2515.356808
379.534727	2509.771210
379.920402	2512.690038
380.306013	2512.506036
380.691563	2514.083917
381.077049	2511.822959
381.462474	2515.182888
381.847835	2514.071314
382.233134	2514.726664
382.618371	2514.484689
383.003545	2515.008969
383.388657	2516.629700
383.773706	2513.572240
384.158693	2514.368742
384.543618	2517.874865
384.928480	2517.111130
385.313280	2518.930986
385.698017	2517.597601
386.082692	2518.424350
386.467305	2517.491737
386.851856	2514.966119
387.236344	2517.400996
387.620770	2518.641120
388.005133	2517.779083
388.389435	2519.838394
388.773674	2519.863600
389.157851	2518.557941
389.541965	2519.437622
389.926018	2517.819412
390.310008	2519.465349
390.693936	2519.689680
391.077802	2516.526356
391.461606	2523.440298
391.845348	2518.537776
392.229027	2521.998528
392.612645	2521.711183
392.996200	2521.408713
393.379694	2522.371574
393.763125	2520.758405
394.146494	2521.958199
394.529801	2521.335617
394.913047	2524.390556
395.296230	2522.114475
395.679351	2521.247397
396.062410	2521.680936
396.445408	2522.709331
396.828343	2520.821419
397.211217	2518.154649
397.594028	2522.656399
397.976778	2519.898888
398.359466	2520.634896
398.742092	2518.867972
399.124656	2525.759229
399.507158	2524.950124
399.889598	2525.303005
400.271977	2522.550535
400.654294	2523.866276
401.036549	2525.618077
401.418742	2525.610515
401.800874	2526.202851
402.182944	2525.628159
402.564952	2524.791328
402.946898	2525.222346
403.328783	2526.906092
403.710606	2523.369722
404.092367	2525.313087
404.474067	2528.267203
404.855705	2527.498427
405.237282	2527.606812
405.618797	2525.529857
406.000250	2526.371729
406.381642	2526.369209
406.762972	2527.795855
407.144240	2527.173273
407.525447	2531.060003
407.906593	2527.286699
408.287677	2528.610002
408.668700	2527.143026
409.049661	2524.559435
409.430560	2530.954138
409.811399	2528.920033
410.192176	2527.188396
410.572891	2529.030938
410.953545	2528.816689
411.334138	2529.714014
411.714669	2530.455064
412.095139	2527.231246
412.475547	2531.329704
412.855894	2528.173942
413.236180	2529.444313
413.616405	2531.954807
413.996568	2527.760567
414.376670	2528.015146
414.756711	2530.999509
415.136691	2531.226361
415.516609	2530.558408
415.896466	2532.007739
416.276262	2531.370033
416.655997	2525.865093
417.035670	2525.376102
417.415283	2530.129910
417.794834	2526.782583
418.174324	2529.688809
418.553753	2531.090249
418.933121	2530.933974
419.312428	2532.264838
419.691674	2532.569828
420.070859	2533.651156
420.449983	2530.414735
420.829045	2533.177287
421.208047	2532.360620
421.586988	2533.678882
421.965867	2532.398429
422.344686	2531.480939
422.723444	2534.109901
423.102141	2530.525640
423.480777	2533.721732
423.859352	2533.842719
424.237866	2534.934129
424.616319	2534.704757
424.994712	2533.779705
425.373044	2533.429345
425.751314	2532.262318
426.129524	2533.386495
426.507673	2535.718029
426.885762	2533.923378
427.263789	2532.567307
427.641756	2534.379602
428.019662	2535.173584
428.397508	2534.263656
428.775292	2534.157792
429.153016	2535.607123
429.530679	2534.193080
429.908282	2536.973276
430.285824	2534.225847
430.663305	2533.474715
431.040726	2534.351876
431.418086	2536.302803
431.795385	2535.889428
432.172624	2535.634850
432.549802	2536.524613
432.926920	2534.833306
433.303977	2535.667617
433.680974	2538.742721
434.057910	2534.679551
434.434786	2537.137113
434.811601	2538.241126
435.188355	2536.857329
435.565050	2537.482433
435.941683	2539.519059
436.318257	2535.216434
436.694770	2533.439427
437.071222	2534.591331
437.447614	2534.082174
437.823946	2534.631660
438.200218	2539.806404
438.576429	2537.036290
438.952580	2537.396733
439.328670	2537.227854
439.704700	2535.982689
440.080670	2537.389171
440.456580	2537.835313
440.832429	2539.082999
441.208218	2539.201466
441.583947	2539.902186
441.959616	2539.647608
442.335224	2536.832124
442.710773	2536.937988
443.086261	2538.651980
443.461689	2539.541744
443.837057	2538.067206
444.212365	2537.361445
444.587612	2539.831610
444.962800	2542.117773
445.337927	2539.473688
445.712995	2539.773637
446.088002	2540.567619
446.462949	2539.635005
446.837837	2543.862013
447.212664	2537.704243
447.587431	2538.092412
447.962139	2540.071065
448.336786	2540.093750
448.711374	2540.436549
449.085901	2541.643905
449.460369	2543.400747
449.834776	2538.931764
450.209124	2542.536189
450.583412	2541.149872
450.957640	2538.962011
451.331808	2541.429656
451.705917	2542.558874
452.079965	2540.348328
452.453954	2539.970242
452.827883	2541.555685
453.201752	2541.686755
453.575562	2542.541230
453.949311	2541.369162
454.323001	2540.754141
454.696632	2540.847403
455.070202	2544.255223
455.443713	2540.907897
455.817164	2538.382278
456.190556	2538.215920
456.563888	2540.338246
456.937160	2538.936805
457.310373	2542.279090
457.683526	2539.405633
458.056619	2542.679862
458.429653	2540.595345
458.802628	2544.595501
459.175542	2541.563247
459.548398	2543.400747
459.921194	2540.517207
460.293930	2546.105326
460.666607	2543.466282
461.039224	2541.623740
461.411782	2542.402599
461.784280	2542.727753
462.156719	2543.831766
462.529099	2542.954605
462.901419	2544.829914
463.273680	2546.057435
463.645882	2545.563402
464.018024	2546.362425
464.390106	2544.073741
464.762130	2546.811088
465.134094	2545.525593
465.505999	2546.806047
465.877845	2546.438042
466.249631	2545.477703
466.621358	2544.587939
466.993026	2548.401572
467.364634	2548.517518
467.736184	2545.825542
468.107674	2545.122301
468.479105	2544.169523
468.850477	2545.228165
469.221790	2543.501570
469.593043	2544.570295
469.964238	2546.959802
470.335373	2544.078782
470.706449	2548.537683
471.077467	2546.185985
471.448425	2547.121119
471.819324	2547.010213
472.190164	2545.823022
472.560945	2543.430994
472.931667	2544.605583
473.302330	2545.641540
473.672934	2547.476520
474.043479	2547.834442
474.413965	2547.796633
474.784393	2541.391847
475.154761	2545.704554
475.525070	2541.336395
475.895321	2543.037784
476.265513	2540.033256
476.635645	2546.773279
477.005719	2547.499205
477.375734	2545.311344
477.745691	2547.095913
478.115588	2547.252189
478.485427	2543.824204
478.855207	2545.555840
479.224928	2548.467107
479.594591	2548.885522
479.964194	2548.419216
480.333739	2549.306459
480.703226	2545.076931
481.072653	2547.143804
481.442022	2549.200595
481.811333	2550.791079
482.180584	2548.860317
482.549777	2546.617003
482.918912	2548.106664
483.287988	2549.243444
483.657005	2550.770914
484.025964	2547.826880
484.394864	2549.069525
484.763706	2551.849721
485.132489	2550.299566
485.501213	2549.477858
485.869879	2549.336706
486.238487	2547.254709
486.607036	2550.269319
486.975527	2547.262271
487.343959	2549.079607
487.712333	2548.555327
488.080648	2551.232180
488.448905	2550.095399
488.817104	2548.709082
489.185244	2552.860472
489.553326	2547.471479
489.921350	2550.508774
490.289315	2550.952396
490.657222	2550.927190
491.025070	2548.477189
491.392861	2549.588763
491.760593	2552.744526
492.128267	2552.273178
492.495883	2548.502395
492.863440	2548.857796
493.230939	2551.421223
493.598380	2547.476520
493.965763	2545.442414
494.333088	2548.414175
494.700354	2547.647919
495.067563	2547.993238
495.434713	2545.268495
495.801805	2548.988866
496.168839	2548.225131
496.535815	2550.559186
496.902733	2549.702189
497.269593	2554.428271
497.636395	2549.712272
498.003139	2549.245965
498.369825	2552.686552
498.736453	2550.539021
499.103023	2550.929710
499.469535	2548.094061
499.835989	2551.436346
500.202385	2551.640513
500.568723	2551.945503
500.935003	2550.329813
501.301226	2551.267468
501.667390	2551.970709
502.033497	2551.441388
502.399546	2552.116902
502.765537	2550.854093
503.131470	2549.508105
503.497345	2551.227138
503.863163	2552.220246
504.228923	2553.525905
504.594625	2552.797458
504.960269	2551.325441
505.325856	2551.517005
505.691385	2549.689587
506.056856	2555.242418
506.422270	2553.316697
506.787625	2553.414999
507.152924	2552.744526
507.518164	2550.329813
507.883347	2551.998435
508.248472	2551.690925
508.613540	2550.889381
508.978550	2551.769062
509.343503	2552.547921
509.708398	2555.310473
510.073236	2553.362067
510.438016	2554.682849
510.802738	2551.174206
511.167403	2555.560010
511.532010	2554.879454
511.896561	2553.707386
512.261053	2555.562531
512.625488	2552.409289
512.989866	2548.709082
513.354186	2553.714948
513.718449	2554.138405
514.082655	2554.100596
514.446803	2555.013045
514.810894	2554.302242
515.174927	2552.772252
515.538904	2557.732747
515.902822	2558.032696
516.266684	2556.142263
516.630488	2556.353992
516.994235	2555.978426
517.357925	2556.409445
517.721558	2560.558314
518.085133	2557.735268
518.448651	2561.009497
518.812112	2558.090669
519.175516	2558.219219
519.538863	2557.745350
519.902152	2560.046637
520.265385	2561.664847
520.628560	2561.813562
520.991678	2559.330793
521.354739	2563.499827
521.717743	2562.484035
522.080690	2562.970506
522.443580	2561.538819
522.806413	2561.211144
523.169189	2562.849519
523.531908	2563.172152
523.894569	2563.406566
524.257174	2563.635939
524.619722	2563.646021
524.982213	2565.818758
525.344647	2562.584858
525.707025	2562.705846
526.069345	2564.321536
526.431608	2565.743141
526.793815	2565.143244
527.155964	2566.516958
527.518057	2563.656103
527.880093	2566.123748
528.242072	2566.741289
528.603995	2567.832699
528.965860	2566.869839
529.327669	2568.276321
529.689421	2565.428069
530.051117	2568.079716
530.412755	2564.399673
530.774337	2567.613409
531.135862	2566.098542
531.497331	2567.898234
531.858743	2564.820610
532.220098	2565.513768
532.581396	2566.103583
532.942638	2568.465364
533.303824	2567.986454
533.664953	2568.591393
534.026025	2570.433935
534.387040	2570.290262
534.747999	2569.831517
535.108902	2568.979562
535.469748	2569.370251
535.830537	2571.636250
536.191270	2571.802608
536.551947	2570.189439
536.912567	2570.635581
537.273131	2572.054666
537.633638	2573.277145
537.994089	2574.325705
538.354483	2571.648853
538.714821	2574.030798
539.075103	2573.413257
539.435328	2572.021898
539.795497	2574.522310
540.155609	2576.049780
540.515665	2572.818400
540.875665	2573.972825
541.235609	2572.210941
541.595496	2578.184709
541.955328	2575.845613
542.315102	2578.313258
542.674821	2574.497105
543.034483	2577.781416
543.394090	2577.181519
543.753640	2577.264698
544.113134	2578.041036
544.472571	2576.803433
544.831953	2577.383165
545.191278	2579.155131
545.550548	2575.558268
545.909761	2577.436097
546.268918	2576.531210
546.628019	2577.756211
546.987064	2580.304514
547.346053	2578.383834
547.704986	2578.890470
548.063863	2578.877867
548.422684	2580.017168
548.781449	2577.088258
549.140158	2579.692014
549.498811	2581.774010
549.857408	2579.203022
550.215949	2580.261664
550.574434	2579.223186
550.932864	2577.541962
551.291237	2577.776375
551.649555	2581.085893
552.007817	2581.345512
552.366022	2583.233424
552.724173	2583.246027
553.082267	2582.452045
553.440305	2583.243507
553.798288	2584.869279
554.156215	2587.515884
554.514086	2583.455235
554.871902	2581.983218
555.229661	2583.493044
555.587365	2585.229721
555.945014	2584.186202
556.302606	2587.861203
556.660143	2583.871130
557.017625	2586.472366
557.375050	2588.115782
557.732421	2586.235431
558.089735	2588.854311
558.446994	2588.204002
558.804197	2588.700556
559.161345	2588.486307
559.518437	2588.781214
559.875474	2589.461770
560.232455	2592.748602
560.589381	2590.853128
560.946251	2596.978130
561.303065	2591.596698
561.659825	2592.277254
562.016528	2593.792121
562.373177	2595.140630
562.729770	2596.317739
563.086307	2596.869745
563.442789	2596.345465
563.799216	2600.484253
564.155587	2599.256732
564.511904	2601.973914
564.868164	2602.780498
565.224370	2601.863008
565.580520	2604.159254
565.936615	2602.125148
566.292654	2604.398709
566.648638	2604.950715
567.004567	2609.013885
567.360441	2611.501694
567.716260	2611.065635
568.072023	2615.186778
568.427732	2611.085799
568.783385	2611.100923
569.138982	2615.101078
569.494525	2618.685339
569.850013	2615.935389
570.205445	2624.268417
570.560823	2621.810854
570.916145	2625.213633
571.271412	2628.487862
571.626625	2628.006432
571.981782	2632.634211
572.336884	2635.497587
572.691931	2635.497587
573.046923	2640.047228
573.401860	2638.819707
573.756743	2642.421612
574.111570	2647.009062
574.466342	2647.538383
574.821059	2650.989052
575.175722	2650.406799
575.530330	2654.439722
575.884882	2655.974754
576.239380	2658.434837
576.593823	2659.748057
576.948211	2664.713594
577.302544	2667.836589
577.656823	2670.339522
578.011047	2673.069306
578.365216	2677.704647
578.719330	2680.404185
579.073389	2683.824608
579.427394	2679.917714
579.781344	2687.786955
580.135239	2691.635876
580.489080	2692.339117
580.842866	2696.359437
581.196597	2704.624409
581.550273	2710.620861
581.903895	2713.436346
582.257463	2719.377346
582.610975	2723.737944
582.964434	2727.329766
583.317837	2734.316805
583.671186	2736.121538
584.024481	2740.847620
584.377721	2745.447673
584.730906	2747.204515
585.084037	2754.894795
585.437113	2757.430495
585.790135	2768.251332
586.143103	2770.751744
586.496016	2776.927158
586.848874	2782.064094
587.201679	2789.043571
587.554428	2789.136832
587.907124	2802.193421
588.259765	2803.683082
588.612352	2818.315031
588.964884	2815.199598
589.317362	2830.076043
589.669786	2839.961746
590.022155	2843.394771
590.374470	2855.450691
590.726731	2858.666947
591.078937	2859.581916
591.431090	2878.375338
591.783188	2875.103629
592.135232	2885.687532
592.487222	2889.657440
592.839157	2907.951788
593.191038	2906.981365
593.542866	2914.487643
593.894639	2919.657347
594.246358	2932.063626
594.598022	2942.657611
594.949633	2944.091819
595.301190	2951.025927
595.652692	2958.209571
596.004141	2982.069352
596.355535	2972.607106
596.706876	2981.792088
597.058162	2987.763335
597.409395	3000.162053
597.760573	3019.303314
598.111698	3020.697193
598.462768	3033.042979
598.813785	3033.252187
599.164748	3049.794733
599.515657	3054.246072
599.866511	3063.930129
600.217312	3081.455700
600.568060	3081.102819
600.918753	3102.452106
601.269392	3111.231275
601.619978	3119.299642
601.970510	3138.463588
602.320988	3147.479692
602.671412	3168.319822
603.021783	3175.495904
603.372100	3183.004703
603.722363	3201.402394
604.072572	3207.282900
604.422728	3222.219839
604.772830	3227.061867
605.122878	3240.589803
605.472872	3250.662029
605.822813	3270.428393
606.172701	3277.972480
606.522534	3303.533650
606.872314	3319.856907
607.222041	3329.903926
607.571714	3351.210363
607.921333	3358.817464
608.270899	3380.726319
608.620411	3406.789084
608.969870	3411.179929
609.319276	3423.876075
609.668627	3451.161320
610.017926	3469.007005
610.367171	3498.838033
610.716362	3506.359434
611.065500	3522.581867
611.414585	3551.283677
611.763616	3557.822053
612.112594	3569.555339
612.461518	3590.496292
612.810389	3618.409161
613.159207	3628.667909
613.507971	3633.207468
613.856682	3676.510979
614.205340	3682.930889
614.553945	3716.878019
614.902496	3719.723750
615.250994	3745.171495
615.599439	3760.118516
615.947830	3784.245478
616.296169	3800.687202
616.644454	3818.134635
616.992686	3838.125331
617.340864	3876.929612
617.688990	3873.461298
618.037063	3914.002258
618.385082	3925.896860
618.733048	3970.279179
619.080961	3973.636587
619.428821	4000.954600
619.776628	4020.602497
620.124382	4028.625493
620.472083	4044.500087
620.819731	4069.148808
621.167326	4057.385276
621.514868	4075.498142
621.862357	4064.616811
622.209793	4088.227055
622.557176	4090.644288
622.904506	4096.333231
623.251783	4093.187551
623.599007	4103.705918
623.946179	4115.908031
624.293297	4126.191985
624.640363	4116.984317
624.987376	4132.601812
625.334336	4131.402017
625.681243	4142.545488
626.028097	4148.736025
626.374899	4156.811953
626.721647	4178.861960
627.068343	4170.596988
627.414987	4182.753731
627.761577	4180.633926
628.108115	4206.056465
628.454600	4192.077345
628.801032	4233.792893
629.147412	4227.617480
629.493739	4248.150099
629.840014	4241.359665
630.186236	4280.587404
630.532405	4253.269391
630.878521	4291.993014
631.224585	4296.036020
631.570597	4277.504738
631.916556	4313.382630
632.262462	4322.698682
632.608316	4337.451619
632.954117	4338.006146
633.299866	4350.165409
633.645562	4365.354406
633.991206	4346.233309
634.336797	4340.463708
634.682336	4340.572093
635.027823	4343.760623
635.373257	4346.535778
635.718639	4337.605374
636.063968	4360.837532
636.409245	4326.101461
636.754470	4343.251467
637.099642	4336.249304
637.444762	4335.064633
637.789829	4353.311089
638.134845	4340.163760
638.479808	4355.929968
638.824719	4366.841546
639.169577	4343.374975
639.514383	4372.076784
639.859137	4353.333774
640.203839	4367.633007
640.548489	4379.111714
640.893086	4383.285790
641.237632	4381.513824
641.582125	4402.343872
641.926566	4403.228594
642.270955	4425.281122
642.615292	4435.683543
642.959576	4462.109271
643.303809	4463.989622
643.647990	4485.933764
643.992118	4494.518849
644.336195	4474.407166
