Dividing Wavelength (nm)	Counts (n)	Blue Motor Position (mm): 2.600000	Red Motor Position (mm): 0.000000	
326.493990	2162.256749
326.888308	2162.256749
327.282561	2162.256749
327.676750	2121.294853
328.070874	2120.581530
328.464933	2119.464914
328.858929	2120.231170
329.252859	2129.481687
329.646726	2136.882101
330.040528	2146.561116
330.434265	2162.970072
330.827938	2180.273833
331.221547	2195.377130
331.615091	2215.314893
332.008571	2234.846844
332.401986	2252.004411
332.795338	2270.276073
333.188625	2287.171500
333.581847	2308.190591
333.975006	2323.404793
334.368100	2344.065962
334.761129	2360.101873
335.154095	2379.008720
335.546996	2396.209137
335.939833	2408.348236
336.332606	2424.379105
336.725315	2438.688420
337.117960	2449.567230
337.510540	2466.394602
337.903056	2474.256281
338.295508	2484.295739
338.687896	2492.603560
339.080220	2498.320229
339.472480	2506.212155
339.864676	2509.327588
340.256807	2516.385204
340.648875	2521.844773
341.040879	2523.944414
341.432818	2527.047244
341.824694	2528.428520
342.216506	2529.522451
342.608253	2528.693181
342.999937	2533.628470
343.391557	2527.954652
343.783113	2530.392050
344.174605	2527.909281
344.566033	2530.157636
344.957397	2528.889786
345.348697	2526.966586
345.739934	2525.852491
346.131106	2523.780576
346.522215	2522.248066
346.913260	2520.188754
347.304241	2518.565503
347.695159	2514.151972
348.086012	2514.887981
348.476802	2511.454955
348.867528	2508.354646
349.258191	2501.874242
349.648789	2502.869870
350.039324	2500.896258
350.429796	2505.564367
350.820203	2499.935919
351.210548	2503.868019
351.600828	2499.179746
351.991045	2499.484735
352.381198	2497.024652
352.771288	2499.346104
353.161314	2495.345948
353.551276	2496.686895
353.941175	2497.206134
354.331010	2494.640187
354.720782	2495.782008
355.110490	2496.278562
355.500135	2496.679333
355.889717	2495.166987
356.279235	2494.367964
356.668689	2496.860815
357.058080	2494.032727
357.447408	2497.821155
357.836672	2496.291164
358.225873	2498.466422
358.615010	2495.298057
359.004084	2499.071361
359.393095	2496.031545
359.782043	2498.383243
360.170927	2495.272851
360.559748	2499.709067
360.948505	2498.418531
361.337199	2501.662514
361.725830	2499.701505
362.114398	2499.686382
362.502903	2500.314005
362.891344	2501.919613
363.279722	2502.632936
363.668037	2501.833913
364.056289	2505.718122
364.444478	2505.191322
364.832603	2504.339367
365.220665	2504.475478
365.608665	2505.967659
365.996601	2506.265087
366.384474	2507.848010
366.772284	2506.010509
367.160031	2509.801457
367.547715	2511.041581
367.935336	2508.175685
368.322893	2506.900273
368.710388	2502.874911
369.097820	2507.396826
369.485189	2503.341218
369.872495	2509.514111
370.259738	2507.482526
370.646918	2509.861951
371.034035	2507.769872
371.421090	2511.109636
371.808081	2510.703823
372.195010	2513.068124
372.581875	2513.547034
372.968678	2512.155676
373.355418	2512.606859
373.742096	2513.748680
374.128710	2512.314472
374.515262	2513.116015
374.901751	2514.250275
375.288177	2514.988804
375.674540	2513.189112
376.060841	2514.197343
376.447079	2512.735408
376.833254	2514.499812
377.219367	2513.272291
377.605417	2514.514936
377.991404	2514.295645
378.377329	2513.912518
378.763191	2514.396468
379.148991	2516.768331
379.534727	2514.255316
379.920402	2517.942920
380.306013	2516.125584
380.691563	2517.239679
381.077049	2517.549710
381.462474	2514.703979
381.847835	2519.006604
382.233134	2514.698938
382.618371	2515.991994
383.003545	2516.483506
383.388657	2517.721109
383.773706	2517.232117
384.158693	2519.404855
384.543618	2516.869154
384.928480	2518.646161
385.313280	2519.916532
385.698017	2519.465349
386.082692	2519.210770
386.467305	2516.728002
386.851856	2520.032478
387.236344	2518.840246
387.620770	2517.826974
388.005133	2517.930317
388.389435	2517.045595
388.773674	2515.800430
389.157851	2519.145235
389.541965	2519.982067
389.926018	2519.850997
390.310008	2520.987777
390.693936	2520.670184
391.077802	2524.667819
391.461606	2523.664630
391.845348	2522.313601
392.229027	2521.580113
392.612645	2523.694877
392.996200	2524.312418
393.379694	2525.509692
393.763125	2521.078518
394.146494	2523.238652
394.529801	2525.018180
394.913047	2523.084897
395.296230	2524.572038
395.679351	2523.518436
396.062410	2524.468694
396.445408	2525.108920
396.828343	2524.423323
397.211217	2527.190917
397.594028	2525.819723
397.976778	2523.921729
398.359466	2526.452388
398.742092	2525.383663
399.124656	2525.560104
399.507158	2526.699404
399.889598	2526.076822
400.271977	2525.255114
400.654294	2524.874507
401.036549	2526.661596
401.418742	2525.655886
401.800874	2525.282840
402.182944	2526.036493
402.564952	2525.718900
402.946898	2528.448685
403.328783	2528.259642
403.710606	2526.991791
404.092367	2527.737882
404.474067	2526.790145
404.855705	2528.297450
405.237282	2528.962882
405.618797	2527.332069
406.000250	2530.230733
406.381642	2529.351051
406.762972	2526.563293
407.144240	2523.820906
407.525447	2526.449867
407.906593	2523.652027
408.287677	2528.408356
408.668700	2529.310722
409.049661	2531.964890
409.430560	2530.387008
409.811399	2529.779549
410.192176	2533.462112
410.572891	2529.071267
410.953545	2530.560928
411.334138	2530.563449
411.714669	2531.627132
412.095139	2531.543953
412.475547	2532.852133
412.855894	2532.219468
413.236180	2531.319622
413.616405	2530.064375
413.996568	2532.894982
414.376670	2532.688295
414.756711	2532.710980
415.136691	2531.826258
415.516609	2531.518747
415.896466	2530.167718
416.276262	2533.822555
416.655997	2531.581762
417.035670	2531.977493
417.415283	2532.050589
417.794834	2532.274921
418.174324	2534.566125
418.553753	2535.236598
418.933121	2534.616537
419.312428	2534.314067
419.691674	2537.827752
420.070859	2533.245343
420.449983	2535.453368
420.829045	2532.872297
421.208047	2536.922864
421.586988	2533.958666
421.965867	2533.930940
422.344686	2533.517565
422.723444	2533.469674
423.102141	2533.779705
423.480777	2535.221475
423.859352	2533.426824
424.237866	2534.886238
424.616319	2535.685261
424.994712	2535.062679
425.373044	2537.489994
425.751314	2536.504449
426.129524	2530.268541
426.507673	2533.061341
426.885762	2529.651000
427.263789	2538.914120
427.641756	2533.522606
428.019662	2534.389685
428.397508	2536.769109
428.775292	2537.595858
429.153016	2536.582587
429.530679	2535.350024
429.908282	2538.611651
430.285824	2540.252547
430.663305	2536.731301
431.040726	2538.503266
431.418086	2538.034439
431.795385	2539.173740
432.172624	2537.764737
432.549802	2540.386137
432.926920	2535.987730
433.303977	2537.164840
433.680974	2538.258770
434.057910	2540.255067
434.434786	2537.363965
434.811601	2538.672145
435.188355	2539.418236
435.565050	2539.456044
435.941683	2540.103833
436.318257	2536.769109
436.694770	2539.740869
437.071222	2538.820859
437.447614	2540.071065
437.823946	2541.898483
438.200218	2536.993441
438.576429	2538.548637
438.952580	2538.397402
439.328670	2539.362783
439.704700	2538.624254
440.080670	2542.306817
440.456580	2540.507125
440.832429	2539.887063
441.208218	2540.050900
441.583947	2541.341436
441.959616	2539.335057
442.335224	2542.624409
442.710773	2541.414532
443.086261	2542.324461
443.461689	2537.646270
443.837057	2540.277752
444.212365	2540.766744
444.587612	2538.732639
444.962800	2536.892618
445.337927	2539.735828
445.712995	2535.191228
446.088002	2540.398740
446.462949	2540.421425
446.837837	2542.737835
447.212664	2542.624409
447.587431	2543.604914
447.962139	2540.686086
448.336786	2539.922351
448.711374	2542.001827
449.085901	2539.982845
449.460369	2541.364121
449.834776	2540.860006
450.209124	2543.315048
450.583412	2540.970911
450.957640	2543.451159
451.331808	2541.764893
451.705917	2541.041487
452.079965	2544.020809
452.453954	2544.618186
452.827883	2542.805891
453.201752	2541.066693
453.575562	2541.601055
453.949311	2544.267826
454.323001	2540.638195
454.696632	2545.460058
455.070202	2543.539379
455.443713	2541.459903
455.817164	2540.169368
456.190556	2544.371169
456.563888	2543.710778
456.937160	2541.558205
457.310373	2544.403937
457.683526	2544.103988
458.056619	2544.414019
458.429653	2545.641540
458.802628	2544.582898
459.175542	2543.453679
459.548398	2543.688093
459.921194	2543.942671
460.293930	2546.382590
460.666607	2545.888557
461.039224	2544.512322
461.411782	2543.438556
461.784280	2547.342929
462.156719	2545.117260
462.529099	2544.098947
462.901419	2542.765562
463.273680	2541.893442
463.645882	2540.676003
464.018024	2545.714637
464.390106	2541.442259
464.762130	2543.597352
465.134094	2542.427804
465.505999	2545.276056
465.877845	2543.115922
466.249631	2547.917621
466.621358	2544.580377
466.993026	2547.209339
467.364634	2551.300235
467.736184	2546.853938
468.107674	2544.441745
468.479105	2546.518701
468.850477	2545.271015
469.221790	2544.335881
469.593043	2546.241437
469.964238	2546.828732
470.335373	2543.468803
470.706449	2546.952240
471.077467	2545.263453
471.448425	2548.330996
471.819324	2545.611293
472.190164	2546.927034
472.560945	2546.107847
472.931667	2546.173382
473.302330	2545.202960
473.672934	2548.003321
474.043479	2547.811757
474.413965	2547.526932
474.784393	2548.444422
475.154761	2549.679504
475.525070	2546.674977
475.895321	2548.076417
476.265513	2548.146993
476.635645	2547.040460
477.005719	2549.130018
477.375734	2547.915100
477.745691	2548.686397
478.115588	2548.867878
478.485427	2551.212015
478.855207	2548.514998
479.224928	2546.228834
479.594591	2547.594987
479.964194	2546.725388
480.333739	2548.671273
480.703226	2545.797816
481.072653	2548.971222
481.442022	2546.901828
481.811333	2545.434853
482.180584	2544.477033
482.549777	2545.051725
482.918912	2541.958977
483.287988	2545.003834
483.657005	2548.731767
484.025964	2548.918290
484.394864	2546.145655
484.763706	2547.131201
485.132489	2551.020451
485.501213	2550.380225
485.869879	2551.774104
486.238487	2548.807385
486.607036	2548.469627
486.975527	2547.098433
487.343959	2550.518856
487.712333	2548.260419
488.080648	2549.114895
488.448905	2547.937786
488.817104	2547.741181
489.185244	2548.129349
489.553326	2549.286294
489.921350	2548.983825
490.289315	2548.552806
490.657222	2549.719833
491.025070	2548.356201
491.392861	2549.641696
491.760593	2550.370142
492.128267	2550.281922
492.495883	2546.914431
492.863440	2550.352498
493.230939	2549.155224
493.598380	2550.546583
493.965763	2551.136398
494.333088	2549.003990
494.700354	2549.568599
495.067563	2549.132539
495.434713	2548.678835
495.801805	2548.825029
496.168839	2550.390307
496.535815	2551.333003
496.902733	2547.249668
497.269593	2551.854762
497.636395	2545.835624
498.003139	2551.466593
498.369825	2547.839483
498.736453	2549.034237
499.103023	2548.341078
499.469535	2550.022303
499.835989	2548.363763
500.202385	2544.356046
500.568723	2543.625078
500.935003	2546.793444
501.301226	2547.902497
501.667390	2548.673794
502.033497	2548.850234
502.399546	2550.092879
502.765537	2549.019113
503.131470	2550.675132
503.497345	2552.469783
503.863163	2549.762683
504.228923	2549.742519
504.594625	2550.866696
504.960269	2547.786551
505.325856	2551.254865
505.691385	2550.644885
506.056856	2550.589433
506.422270	2549.863506
506.787625	2551.622869
507.152924	2550.602035
507.518164	2549.271171
507.883347	2550.596994
508.248472	2550.841490
508.613540	2550.007179
508.978550	2552.610935
509.343503	2549.913918
509.708398	2550.246634
510.073236	2552.043805
510.438016	2552.313507
510.802738	2551.829556
511.167403	2551.000287
511.532010	2549.324103
511.896561	2551.098589
512.261053	2551.832077
512.625488	2550.707900
512.989866	2549.981973
513.354186	2552.759649
513.718449	2550.511295
514.082655	2550.188661
514.446803	2549.099772
514.810894	2551.025492
515.174927	2552.550441
515.538904	2553.064639
515.902822	2553.599001
516.266684	2552.036244
516.630488	2551.398538
516.994235	2550.292004
517.357925	2549.850903
517.721558	2552.242931
518.085133	2550.861655
518.448651	2548.797302
518.812112	2547.758825
519.175516	2547.874771
519.538863	2547.330327
519.902152	2551.070863
520.265385	2551.660678
520.628560	2551.360729
520.991678	2551.093548
521.354739	2550.849052
521.717743	2549.689587
522.080690	2550.808723
522.443580	2552.502550
522.806413	2553.672098
523.169189	2553.871224
523.531908	2549.450132
523.894569	2553.513302
524.257174	2554.145967
524.619722	2553.961964
524.982213	2551.005328
525.344647	2551.416182
525.707025	2552.918446
526.069345	2552.946172
526.431608	2551.726213
526.793815	2555.328117
527.155964	2550.322251
527.518057	2554.735782
527.880093	2552.195040
528.242072	2552.391645
528.603995	2552.731923
528.965860	2553.644372
529.327669	2552.230328
529.689421	2552.278219
530.051117	2553.336861
530.412755	2551.771583
530.774337	2552.401727
531.135862	2550.478527
531.497331	2552.505071
531.858743	2550.629762
532.220098	2550.750749
532.581396	2555.360885
532.942638	2549.742519
533.303824	2552.449618
533.664953	2554.045143
534.026025	2555.134033
534.387040	2550.992725
534.747999	2552.825184
535.108902	2551.905174
535.469748	2551.171686
535.830537	2554.375339
536.191270	2550.654967
536.551947	2550.957437
536.912567	2548.774617
537.273131	2548.378887
537.633638	2548.358722
537.994089	2555.391132
538.354483	2554.458518
538.714821	2551.567416
539.075103	2551.282591
539.435328	2550.418033
539.795497	2550.513815
540.155609	2555.784342
540.515665	2553.150339
540.875665	2552.240410
541.235609	2555.098745
541.595496	2551.111192
541.955328	2552.711758
542.315102	2551.872406
542.674821	2552.946172
543.034483	2552.041285
543.394090	2552.661347
543.753640	2552.560524
544.113134	2555.360885
544.472571	2550.760832
544.831953	2552.558003
545.191278	2552.933569
545.550548	2550.675132
545.909761	2553.165462
546.268918	2552.840308
546.628019	2552.207643
546.987064	2550.087838
547.346053	2556.472459
547.704986	2553.621687
548.063863	2553.309135
548.422684	2552.003476
548.781449	2551.194371
549.140158	2555.345761
549.498811	2553.941800
549.857408	2551.416182
550.215949	2552.931048
550.574434	2553.914073
550.932864	2554.735782
551.291237	2553.397355
551.649555	2553.639331
552.007817	2553.513302
552.366022	2553.152859
552.724173	2551.501881
553.082267	2554.612273
553.440305	2552.285781
553.798288	2554.203940
554.156215	2552.520194
554.514086	2550.717982
554.871902	2547.852086
555.229661	2552.661347
555.587365	2548.401572
555.945014	2553.838456
556.302606	2551.829556
556.660143	2553.442726
557.017625	2553.964485
557.375050	2551.234700
557.732421	2553.903991
558.089735	2551.232180
558.446994	2552.752087
558.804197	2551.713610
559.161345	2551.113712
559.518437	2554.501368
559.875474	2552.464742
560.232455	2552.409289
560.589381	2553.132695
560.946251	2553.667057
561.303065	2552.467262
561.659825	2556.469938
562.016528	2551.237221
562.373177	2553.228477
562.729770	2551.731254
563.086307	2553.520863
563.442789	2553.291491
563.799216	2553.987170
564.155587	2555.013045
564.511904	2552.719320
564.868164	2552.684032
565.224370	2554.176213
565.580520	2553.160421
565.936615	2555.370967
566.292654	2553.167983
566.648638	2551.733774
567.004567	2554.098076
567.360441	2554.196378
567.716260	2554.181255
568.072023	2554.115720
568.427732	2555.302911
568.783385	2554.087993
569.138982	2552.600853
569.494525	2551.257385
569.850013	2554.589588
570.205445	2552.331151
570.560823	2556.258210
570.916145	2557.296688
571.271412	2553.185627
571.626625	2556.865669
571.981782	2552.195040
572.336884	2553.311656
572.691931	2549.959288
573.046923	2552.119423
573.401860	2547.408464
573.756743	2554.438353
574.111570	2555.320555
574.466342	2555.214691
574.821059	2553.286450
575.175722	2554.019938
575.530330	2550.639844
575.884882	2555.575134
576.239380	2551.748898
576.593823	2552.530277
576.948211	2557.929353
577.302544	2553.654454
577.656823	2554.022458
578.011047	2554.622356
578.365216	2555.265103
578.719330	2556.011193
579.073389	2554.844166
579.427394	2554.274516
579.781344	2555.134033
580.135239	2552.915925
580.489080	2554.866852
580.842866	2553.062118
581.196597	2553.384752
581.550273	2554.168652
581.903895	2554.529094
582.257463	2553.447767
582.610975	2555.605381
582.964434	2553.364588
583.317837	2551.169165
583.671186	2557.210988
584.024481	2553.367108
584.377721	2554.352654
584.730906	2551.937941
585.084037	2554.352654
585.437113	2553.954403
585.790135	2552.663867
586.143103	2554.834084
586.496016	2556.961451
586.848874	2555.496996
587.201679	2556.064126
587.554428	2554.251831
587.907124	2555.136553
588.259765	2555.272664
588.612352	2554.367777
588.964884	2553.656975
589.317362	2556.921122
589.669786	2554.186296
590.022155	2549.848383
590.374470	2551.937941
590.726731	2550.687735
591.078937	2549.916438
591.431090	2551.920297
591.783188	2556.250648
592.135232	2553.780483
592.487222	2554.009855
592.839157	2553.946841
593.191038	2553.878785
593.542866	2555.587737
593.894639	2553.876265
594.246358	2552.605894
594.598022	2554.236707
594.949633	2554.745864
595.301190	2556.018755
595.652692	2554.229146
596.004141	2553.409958
596.355535	2554.730740
596.706876	2558.367933
597.058162	2555.491955
597.409395	2552.759649
597.760573	2554.516491
598.111698	2553.246121
598.462768	2555.764177
598.813785	2555.237376
599.164748	2555.580175
599.515657	2553.664536
599.866511	2557.243756
600.217312	2551.446429
600.568060	2553.394835
600.918753	2559.194682
601.269392	2553.445246
601.619978	2554.695452
601.970510	2552.222766
602.320988	2555.607901
602.671412	2556.467418
603.021783	2551.176727
603.372100	2554.481203
603.722363	2555.239897
604.072572	2553.548590
604.422728	2555.496996
604.772830	2553.188147
605.122878	2556.172510
605.472872	2553.702345
605.822813	2555.212171
606.172701	2555.118909
606.522534	2553.183106
606.872314	2556.192675
607.222041	2554.148487
607.571714	2553.974567
607.921333	2550.919628
608.270899	2551.799309
608.620411	2551.453990
608.969870	2556.422047
609.319276	2558.017573
609.668627	2562.564693
610.017926	2566.350600
610.367171	2569.695406
610.716362	2567.457133
611.065500	2566.625343
611.414585	2562.920095
611.763616	2560.081925
612.112594	2559.275341
612.461518	2559.429096
612.810389	2557.858776
613.159207	2557.352140
613.507971	2558.100752
613.856682	2558.390618
614.205340	2556.177552
614.553945	2555.076059
614.902496	2557.299208
615.250994	2556.091852
615.599439	2557.518498
615.947830	2557.967161
616.296169	2555.023127
616.644454	2556.033879
616.992686	2554.052705
617.340864	2556.782490
617.688990	2555.343241
618.037063	2552.716799
618.385082	2557.268961
618.733048	2557.102603
619.080961	2558.415824
619.428821	2553.011707
619.776628	2556.631255
620.124382	2554.602191
620.472083	2552.447098
620.819731	2555.439022
621.167326	2554.632438
621.514868	2558.221739
621.862357	2555.673436
622.209793	2555.023127
622.557176	2556.109496
622.904506	2556.797613
623.251783	2556.774928
623.599007	2555.428940
623.946179	2552.462221
624.293297	2555.207129
624.640363	2553.190668
624.987376	2553.052036
625.334336	2550.546583
625.681243	2552.331151
626.028097	2550.115564
626.374899	2552.285781
626.721647	2557.178221
627.068343	2554.113199
627.414987	2552.646223
627.761577	2555.524722
628.108115	2554.735782
628.454600	2557.470607
628.801032	2555.360885
629.147412	2555.998591
629.493739	2553.982129
629.840014	2556.492624
630.186236	2555.098745
630.532405	2556.943807
630.878521	2555.454146
631.224585	2557.785680
631.570597	2553.893909
631.916556	2553.556152
632.262462	2553.420040
632.608316	2556.424568
632.954117	2553.150339
633.299866	2553.644372
633.645562	2555.630586
633.991206	2553.974567
634.336797	2553.462890
634.682336	2554.398024
635.027823	2554.032541
635.373257	2552.870555
635.718639	2554.415668
636.063968	2555.638148
636.409245	2554.158569
636.754470	2553.099927
637.099642	2556.101934
637.444762	2555.827191
637.789829	2554.808878
638.134845	2555.978426
638.479808	2554.357695
638.824719	2554.811399
639.169577	2555.461708
639.514383	2553.452808
639.859137	2555.794424
640.203839	2553.777962
640.548489	2555.343241
640.893086	2555.363405
641.237632	2552.005997
641.582125	2553.493137
641.926566	2552.855431
642.270955	2550.483568
642.615292	2548.814946
642.959576	2552.701676
643.303809	2548.890564
643.647990	2553.765359
643.992118	2555.570092
644.336195	2555.643189
