Dividing Wavelength (nm)	Counts (n)	Blue Motor Position (mm): 49.100000	Red Motor Position (mm): 0.000000	
326.493990	2281.308638
326.888308	2281.308638
327.282561	2281.308638
327.676750	2245.952506
328.070874	2241.886815
328.464933	2240.276166
328.858929	2243.981414
329.252859	2251.790162
329.646726	2260.702922
330.040528	2270.981834
330.434265	2283.345264
330.827938	2301.982410
331.221547	2319.853300
331.615091	2340.557319
332.008571	2354.912005
332.401986	2374.753986
332.795338	2397.746689
333.188625	2416.547672
333.581847	2436.528286
333.975006	2453.713579
334.368100	2472.212093
334.761129	2492.152377
335.154095	2506.071003
335.546996	2535.455889
335.939833	2574.620613
336.332606	2589.451687
336.725315	2604.244953
337.117960	2614.138218
337.510540	2626.894858
337.903056	2634.897689
338.295508	2646.010913
338.687896	2651.193219
339.080220	2660.905002
339.472480	2669.505211
339.864676	2671.466219
340.256807	2678.788495
340.648875	2681.160358
341.040879	2684.669001
341.432818	2687.113961
341.824694	2689.846266
342.216506	2689.601770
342.608253	2691.719055
342.999937	2690.781400
343.391557	2691.537573
343.783113	2692.666792
344.174605	2689.715196
344.566033	2689.339630
344.957397	2688.296112
345.348697	2684.245544
345.739934	2686.824095
346.131106	2685.299146
346.522215	2683.660771
346.913260	2680.278156
347.304241	2679.544668
347.695159	2676.832528
348.086012	2675.453772
348.476802	2673.628874
348.867528	2670.916734
349.258191	2668.328101
349.648789	2666.941784
350.039324	2662.528254
350.429796	2670.596620
350.820203	2665.457164
351.210548	2666.193172
351.600828	2663.596978
351.991045	2663.004643
352.381198	2663.791063
352.771288	2664.670744
353.161314	2661.194868
353.551276	2662.687050
353.941175	2658.331493
354.331010	2660.841988
354.720782	2661.782163
355.110490	2659.748057
355.500135	2661.126813
355.889717	2662.603871
356.279235	2660.829385
356.668689	2659.919457
357.058080	2661.066319
357.447408	2659.896771
357.836672	2664.282575
358.225873	2665.089160
358.615010	2661.830054
359.004084	2665.041269
359.393095	2665.910868
359.782043	2665.489932
360.170927	2665.860456
360.559748	2663.551608
360.948505	2669.727021
361.337199	2670.364727
361.725830	2668.257525
362.114398	2669.270797
362.502903	2668.759120
362.891344	2671.267094
363.279722	2670.397495
363.668037	2669.648883
364.056289	2669.873215
364.444478	2673.349090
364.832603	2671.995541
365.220665	2673.669204
365.608665	2671.932526
365.996601	2673.278514
366.384474	2675.000068
366.772284	2676.807322
367.160031	2677.445028
367.547715	2676.295645
367.935336	2678.627178
368.322893	2675.179029
368.710388	2675.373114
369.097820	2679.751356
369.485189	2681.624144
369.872495	2682.682787
370.259738	2684.916018
370.646918	2688.182686
371.034035	2693.153263
371.421090	2696.382122
371.808081	2704.884028
372.195010	2715.077241
372.581875	2720.904815
372.968678	2730.553584
373.355418	2737.535582
373.742096	2756.104672
374.128710	2768.873915
374.515262	2780.077879
374.901751	2798.399953
375.288177	2813.921665
375.674540	2835.888493
376.060841	2856.801720
376.447079	2883.071173
376.833254	2908.334915
377.219367	2924.922832
377.605417	2964.752988
377.991404	2983.231338
378.377329	3020.215763
378.763191	3042.202756
379.148991	3083.613314
379.534727	3122.001700
379.920402	3163.099707
380.306013	3179.758200
380.691563	3246.346801
381.077049	3268.439658
381.462474	3309.048673
381.847835	3363.604040
382.233134	3406.184146
382.618371	3429.817075
383.003545	3498.147395
383.388657	3518.029705
383.773706	3581.391968
384.158693	3610.897842
384.543618	3639.985299
384.928480	3698.180379
385.313280	3754.968977
385.698017	3779.433697
386.082692	3867.381667
386.467305	3871.500290
386.851856	3903.067995
387.236344	3986.365501
387.620770	4010.865508
388.005133	4061.571954
388.389435	4106.977627
388.773674	4119.469606
389.157851	4193.362839
389.541965	4258.025720
389.926018	4223.972725
390.310008	4326.121626
390.693936	4380.949215
391.077802	4411.652362
391.461606	4409.829985
391.845348	4477.348679
392.229027	4537.918143
392.612645	4535.652144
392.996200	4641.959997
393.379694	4695.285322
393.763125	4803.120644
394.146494	4832.429912
394.529801	4883.007809
394.913047	4974.232529
395.296230	4917.474178
395.679351	5025.180950
396.062410	5082.367799
396.445408	5044.964958
396.828343	5109.176656
397.211217	5166.897867
397.594028	5048.851688
397.976778	5166.592877
398.359466	5211.131472
398.742092	5234.003187
399.124656	5159.555427
399.507158	5279.199651
399.889598	5340.174928
400.271977	5461.926355
400.654294	5460.290500
401.036549	5507.233725
401.418742	5422.675931
401.800874	5630.361387
402.182944	5693.670718
402.564952	5797.004289
402.946898	5858.657601
403.328783	5689.421025
403.710606	5714.732658
404.092367	6038.760384
404.474067	6060.870884
404.855705	5954.288289
405.237282	5890.815121
405.618797	6158.969218
406.000250	6124.291120
406.381642	6333.511608
406.762972	6362.064703
407.144240	6408.702938
407.525447	6392.001595
407.906593	6403.835704
408.287677	6571.234779
408.668700	6488.406101
409.049661	6600.602021
409.430560	6621.495083
409.811399	6495.022615
410.192176	6750.460401
410.572891	6776.102230
410.953545	6961.578883
411.334138	6688.403798
411.714669	6867.246292
412.095139	6662.020919
412.475547	6905.909421
412.855894	6976.636810
413.236180	7169.665111
413.616405	6818.026986
413.996568	7036.293824
414.376670	7101.488547
414.756711	6984.359858
415.136691	7088.343738
415.516609	7294.645397
415.896466	7265.479802
416.276262	7482.105744
416.655997	7467.027653
417.035670	7633.191646
417.415283	7988.585430
417.794834	8050.092548
418.174324	7912.108606
418.553753	7835.702357
418.933121	8125.311605
419.312428	8232.065599
419.691674	8002.957760
420.070859	8479.261098
420.449983	8165.971031
420.829045	8535.187659
421.208047	8296.738562
421.586988	8616.980380
421.965867	8643.910224
422.344686	8728.475580
422.723444	8819.281884
423.102141	8133.261504
423.480777	8912.633971
423.859352	8433.210158
424.237866	9048.518273
424.616319	8911.799660
424.994712	9359.370943
425.373044	8884.590032
425.751314	9375.926092
426.129524	9256.637268
426.507673	9317.736053
426.885762	9485.167896
427.263789	9408.265094
427.641756	9354.163431
428.019662	9427.245038
428.397508	9708.097801
428.775292	9356.436991
429.153016	9751.799564
429.530679	9583.795550
429.908282	9581.164068
430.285824	9314.287904
430.663305	10004.111834
431.040726	9451.442577
431.418086	9433.985061
431.795385	9769.766236
432.172624	9874.481084
432.549802	9777.388461
432.926920	9837.728552
433.303977	9710.527637
433.680974	9915.546323
434.057910	10017.173464
434.434786	10093.362943
434.811601	9902.787163
435.188355	10467.295570
435.565050	10231.581299
435.941683	10137.977154
436.318257	10616.670000
436.694770	10803.076746
437.071222	10844.595689
437.447614	10667.888123
437.823946	10603.384039
438.200218	10679.676861
438.576429	10532.170179
438.952580	10781.576225
439.328670	10790.637699
439.704700	10604.283885
440.080670	10588.759652
440.456580	11096.718916
440.832429	10893.726774
441.208218	10500.478966
441.583947	10776.766964
441.959616	10972.383898
442.335224	10792.873450
442.710773	10881.885104
443.086261	11125.156065
443.461689	10385.066789
443.837057	11083.057389
444.212365	11299.776593
444.587612	10942.444485
444.962800	11144.151133
445.337927	10880.271935
445.712995	10587.950547
446.088002	11610.052051
446.462949	11315.865436
446.837837	11278.487800
447.212664	11178.791421
447.587431	11800.196812
447.962139	12574.538207
448.336786	14875.887952
448.711374	15330.660523
449.085901	13128.535809
449.460369	12793.843523
449.834776	12245.799524
450.209124	13205.252088
450.583412	13625.036531
450.957640	14540.386561
451.331808	13551.216395
451.705917	12648.741471
452.079965	11868.020496
452.453954	12786.488480
452.827883	12457.959004
453.201752	12743.820153
453.575562	12314.414669
453.949311	12721.200496
454.323001	12709.628528
454.696632	12951.245990
455.070202	13218.308677
455.443713	13395.787539
455.817164	13913.319955
456.190556	13867.135424
456.563888	14228.772677
456.937160	14364.412483
457.310373	13733.640629
457.683526	13846.751518
458.056619	13365.049104
458.429653	13589.972785
458.802628	12926.201538
459.175542	13361.280841
459.548398	14300.089881
459.921194	14673.750286
460.293930	14752.462862
460.666607	15576.252936
461.039224	16651.556257
461.411782	17381.651445
461.784280	17119.496322
462.156719	17252.691168
462.529099	16913.103921
462.901419	15893.187758
463.273680	15631.171266
463.645882	15553.943309
464.018024	15264.392035
464.390106	15496.940462
464.762130	16209.946139
465.134094	17028.059873
465.505999	19115.455487
465.877845	22400.389801
466.249631	25176.349057
466.621358	24754.555715
466.993026	23341.374098
467.364634	22739.472932
467.736184	21269.328797
468.107674	20473.267591
468.479105	20605.953280
468.850477	20052.268230
469.221790	19671.872843
469.593043	18966.146593
469.964238	18387.099497
470.335373	18024.290176
470.706449	18554.639725
471.077467	18148.902457
471.448425	20051.761594
471.819324	24227.498039
472.190164	25980.193805
472.560945	22247.917582
472.931667	19988.298508
473.302330	19398.183560
473.672934	19069.369259
474.043479	19261.696840
474.413965	19063.188804
474.784393	18648.569024
475.154761	19452.640624
475.525070	19340.434622
475.895321	19076.704138
476.265513	19698.079281
476.635645	20272.367528
477.005719	20028.489107
477.375734	20209.161541
477.745691	20699.935512
478.115588	21257.335892
478.485427	21833.698573
478.855207	22939.813427
479.224928	24736.894032
479.594591	26972.411349
479.964194	26822.983988
480.333739	27065.350062
480.703226	26652.577864
481.072653	26387.700517
481.442022	27037.147326
481.811333	27966.365571
482.180584	27815.599783
482.549777	26868.931584
482.918912	26568.307416
483.287988	26698.434720
483.657005	26308.267056
484.025964	26109.219617
484.394864	25961.533974
484.763706	25597.169457
485.132489	25091.859318
485.501213	25270.406905
485.869879	25191.717014
486.238487	25043.681011
486.607036	25167.622820
486.975527	24940.758294
487.343959	25210.429778
487.712333	25104.631082
488.080648	24775.310145
488.448905	25281.101713
488.817104	25059.210286
489.185244	25774.093792
489.553326	25705.924789
489.921350	26789.067104
490.289315	29171.133284
490.657222	30851.334738
491.025070	31376.998535
491.392861	31083.079101
491.760593	30229.190818
492.128267	29302.785538
492.495883	28222.935096
492.863440	27365.936421
493.230939	26503.881470
493.598380	26330.138102
493.965763	25959.756968
494.333088	25444.750170
494.700354	25437.138028
495.067563	25270.225424
495.434713	25031.095771
495.801805	25214.261054
496.168839	24959.435769
496.535815	24852.439799
496.902733	25073.539765
497.269593	24788.462515
497.636395	24940.775938
498.003139	24859.996488
498.369825	24599.880512
498.736453	24823.906868
499.103023	24692.496590
499.469535	24679.384549
499.835989	24913.730147
500.202385	24934.126656
500.568723	24486.215095
500.935003	24640.459280
501.301226	24364.995510
501.667390	25209.837442
502.033497	25386.207250
502.399546	25124.561283
502.765537	24636.703620
503.131470	25020.741241
503.497345	25180.127402
503.863163	24422.240332
504.228923	24945.552431
504.594625	25220.743978
504.960269	24784.800117
505.325856	25272.461176
505.691385	24644.219980
506.056856	25259.870894
506.422270	25271.584015
506.787625	24759.213741
507.152924	25201.900145
507.518164	25249.168524
507.883347	25059.827827
508.248472	24734.736418
508.613540	25495.431410
508.978550	25310.105992
509.343503	25335.957029
509.708398	25516.309349
510.073236	25685.208167
510.438016	25907.099595
510.802738	25545.104420
511.167403	25821.170607
511.532010	25569.803553
511.896561	26299.787836
512.261053	26285.307121
512.625488	26109.285152
512.989866	25999.816497
513.354186	25825.417779
513.718449	25963.109335
514.082655	26329.328997
514.446803	26038.260336
514.810894	26528.154625
515.174927	26038.136828
515.538904	26083.829846
515.902822	26568.463692
516.266684	26322.062174
516.630488	26222.088531
516.994235	26161.516547
517.357925	26527.577413
517.721558	26659.484245
518.085133	26798.874669
518.448651	26679.333788
518.812112	26464.867980
519.175516	26674.522007
519.538863	26824.980284
519.902152	26624.049974
520.265385	26865.228857
520.628560	26684.523656
520.991678	26651.594839
521.354739	26697.870111
521.717743	26823.972054
522.080690	26574.203045
522.443580	26905.333756
522.806413	26872.387295
523.169189	26992.938928
523.531908	27042.052369
523.894569	26671.368765
524.257174	26765.650945
524.619722	26879.543213
524.982213	26620.266588
525.344647	26619.654088
525.707025	26792.588350
526.069345	26725.349440
526.431608	26711.030043
526.793815	26863.323301
527.155964	26394.168318
527.518057	26579.108088
527.880093	26479.857851
528.242072	26698.404473
528.603995	26420.883913
528.965860	26213.173251
529.327669	26243.508394
529.689421	26226.098769
530.051117	26093.314777
530.412755	26258.286537
530.774337	26015.867530
531.135862	25925.426710
531.497331	26112.871933
531.858743	25721.229732
532.220098	26149.788303
532.581396	25856.483890
532.942638	25744.930717
533.303824	25865.011002
533.664953	25857.721493
534.026025	25523.694639
534.387040	25776.080007
534.747999	25794.825537
535.108902	25958.899971
535.469748	25482.417672
535.830537	25611.274605
536.191270	25770.159171
536.551947	25578.050881
536.912567	25200.115577
537.273131	25665.020867
537.633638	25321.191489
537.994089	25544.267588
538.354483	25017.706466
538.714821	25529.713777
539.075103	25578.665901
539.435328	25344.035478
539.795497	24970.657377
540.155609	25271.077379
540.515665	25612.610511
540.875665	24812.365146
541.235609	25174.214128
541.595496	25086.407311
541.955328	25471.538862
542.315102	25372.137390
542.674821	24887.775767
543.034483	24767.645071
543.394090	24932.866367
543.753640	24761.262970
544.113134	25379.900767
544.472571	24957.731859
544.831953	25269.502018
545.191278	24927.764720
545.550548	24804.626975
545.909761	25007.946792
546.268918	25233.616565
546.628019	25224.905451
546.987064	24900.958384
547.346053	24622.986640
547.704986	24732.392282
548.063863	24888.330294
548.422684	24925.307157
548.781449	24424.017339
549.140158	24825.411652
549.498811	24398.753597
549.857408	24186.460526
550.215949	24538.927921
550.574434	24251.806483
550.932864	24437.772128
551.291237	24649.669468
551.649555	24459.431445
552.007817	24540.631831
552.366022	24384.174580
552.724173	24391.839654
553.082267	24382.397573
553.440305	24856.452557
553.798288	24078.441202
554.156215	24556.418204
554.514086	24717.944335
554.871902	24122.556339
555.229661	24378.057140
555.587365	24214.549835
555.945014	24147.560462
556.302606	24326.352545
556.660143	24335.698844
557.017625	24555.082298
557.375050	24081.249125
557.732421	24460.205262
558.089735	24287.407111
558.446994	24338.511808
558.804197	24387.383274
559.161345	24255.438634
559.518437	24084.636780
559.875474	24225.093408
560.232455	24401.359873
560.589381	24217.743406
560.946251	24232.335026
561.303065	24522.781105
561.659825	24613.126143
562.016528	24228.939809
562.373177	23958.282779
562.729770	24318.511030
563.086307	24159.941536
563.442789	24332.419574
563.799216	24188.449261
564.155587	24161.476568
564.511904	24142.428568
564.868164	24123.297389
565.224370	24069.888884
565.580520	24021.566904
565.936615	24133.087310
566.292654	23843.939328
566.648638	24060.325816
567.004567	23899.926383
567.360441	23837.451363
567.716260	23555.809659
568.072023	23866.410271
568.427732	23654.661645
568.783385	23408.610487
569.138982	23677.513195
569.494525	23696.765362
569.850013	23463.034784
570.205445	23563.784765
570.560823	23384.218865
570.916145	23166.889681
571.271412	23353.838351
571.626625	23097.044495
571.981782	23205.804868
572.336884	22999.241069
572.691931	23131.450370
573.046923	22882.704715
573.401860	22762.619390
573.756743	22810.233088
574.111570	22690.984593
574.466342	22598.063525
574.821059	22682.825486
575.175722	22402.812075
575.530330	22351.828366
575.884882	22353.496987
576.239380	22266.642948
576.593823	22170.482938
576.948211	22135.837608
577.302544	21986.337150
577.656823	21852.817149
578.011047	21956.387655
578.365216	21833.252431
578.719330	21702.951207
579.073389	21576.014953
579.427394	21741.861353
579.781344	21486.277374
580.135239	21381.643184
580.489080	21312.455868
580.842866	21101.632294
581.196597	21325.522539
581.550273	21279.078389
581.903895	21155.045840
582.257463	21468.446813
582.610975	21000.824341
582.964434	21329.510092
583.317837	20984.644757
583.671186	21083.058163
584.024481	21078.619427
584.377721	20835.179587
584.730906	20939.171029
585.084037	20898.251983
585.437113	20845.224086
585.790135	21038.459075
586.143103	20497.507979
586.496016	20522.504540
586.848874	20757.881054
587.201679	20657.594860
587.554428	20373.117508
587.907124	20704.069258
588.259765	20442.035122
588.612352	20530.255314
588.964884	20096.244736
589.317362	20252.361708
589.669786	20328.682257
590.022155	20313.785648
590.374470	20568.787374
590.726731	20308.767179
591.078937	20127.212544
591.431090	20179.438898
591.783188	19972.963318
592.135232	19919.302756
592.487222	20022.139774
592.839157	20030.666886
593.191038	19899.675024
593.542866	19799.592996
593.894639	19497.325412
594.246358	19706.631599
594.598022	19601.959601
594.949633	19358.423979
595.301190	19348.944089
595.652692	19520.161839
596.004141	19726.826461
596.355535	19056.050530
596.706876	19079.428881
597.058162	18974.328385
597.409395	19226.907837
597.760573	19254.833309
598.111698	19036.952119
598.462768	18976.170927
598.813785	18960.414801
599.164748	18746.281709
599.515657	18812.030958
599.866511	18610.974619
600.217312	18961.896900
600.568060	18464.367783
600.918753	18766.801726
601.269392	18674.803188
601.619978	18480.842274
601.970510	18646.923087
602.320988	18613.205330
602.671412	18798.177867
603.021783	18744.166945
603.372100	18437.984904
603.722363	18599.145552
604.072572	18553.066885
604.422728	18695.587866
604.772830	18436.270912
605.122878	18406.394514
605.472872	18381.511378
605.822813	18371.837404
606.172701	18363.758955
606.522534	18519.182769
606.872314	18570.897446
607.222041	18409.265451
607.571714	18615.698180
607.921333	18435.741591
608.270899	18525.126290
608.620411	18654.820055
608.969870	18467.984811
609.319276	18461.078430
609.668627	18491.723604
610.017926	18618.538870
610.367171	18724.019973
610.716362	18796.652918
611.065500	18590.338656
611.414585	18762.587321
611.763616	18729.237568
612.112594	18671.869237
612.461518	18638.113671
612.810389	18838.706223
613.159207	18681.263427
613.507971	18607.460935
613.856682	18844.954734
614.205340	18761.614378
614.553945	18927.531354
614.902496	18666.460079
615.250994	18867.624803
615.599439	18824.185180
615.947830	18808.363518
616.296169	18884.941166
616.644454	18841.221759
616.992686	18831.023505
617.340864	19043.019148
617.688990	18784.236556
618.037063	18961.065110
618.385082	18825.609306
618.733048	19091.504965
619.080961	18985.481938
619.428821	19008.220063
619.776628	18883.668275
620.124382	18817.374581
620.472083	18880.935969
620.819731	18879.950424
621.167326	18564.616168
621.514868	18615.718345
621.862357	18397.897649
622.209793	18383.502634
622.557176	18216.136326
622.904506	18053.571718
623.251783	18001.448707
623.599007	17738.711331
623.946179	17675.026434
624.293297	17613.753730
624.640363	17332.626224
624.987376	17357.068258
625.334336	17171.263930
625.681243	17017.629726
626.028097	17043.112758
626.374899	16945.914271
626.721647	16817.226216
627.068343	16659.919531
627.414987	16586.495125
627.761577	16545.142540
628.108115	16562.227011
628.454600	16307.510110
628.801032	16406.677168
629.147412	16345.505286
629.493739	16345.878332
629.840014	16166.698080
630.186236	16255.624034
630.532405	16025.757501
630.878521	16214.291613
631.224585	16126.119312
631.570597	15942.800273
631.916556	15972.185159
632.262462	15944.514265
632.608316	15873.945673
632.954117	15813.537527
633.299866	15792.135308
633.645562	15720.074534
633.991206	15485.396220
634.336797	15363.801069
634.682336	15336.107490
635.027823	15183.733574
635.373257	15054.274223
635.718639	14969.812210
636.063968	14912.723664
