Dividing Wavelength (nm)	Counts (n)	Blue Motor Position (mm): 33.300000	Red Motor Position (mm): 0.000000	
326.493990	2130.570576
326.888308	2130.570576
327.282561	2130.570576
327.676750	2095.761409
328.070874	2096.406677
328.464933	2099.418766
328.858929	2105.823552
329.252859	2114.648092
329.646726	2127.742489
330.040528	2141.000724
330.434265	2158.627118
330.827938	2174.481547
331.221547	2193.567355
331.615091	2209.734336
332.008571	2230.970196
332.401986	2250.106416
332.795338	2268.178953
333.188625	2290.332303
333.581847	2307.431897
333.975006	2326.081646
334.368100	2343.758452
334.761129	2361.563807
335.154095	2377.889584
335.546996	2400.617626
335.939833	2424.283323
336.332606	2436.334201
336.725315	2452.798610
337.117960	2458.868159
337.510540	2468.844602
337.903056	2481.339102
338.295508	2486.778507
338.687896	2498.728562
339.080220	2504.394819
339.472480	2511.893536
339.864676	2514.474606
340.256807	2520.460977
340.648875	2523.185720
341.040879	2527.309384
341.432818	2525.928108
341.824694	2528.781401
342.216506	2529.300640
342.608253	2527.755526
342.999937	2529.756864
343.391557	2529.025897
343.783113	2527.135464
344.174605	2525.497089
344.566033	2525.282840
344.957397	2522.913498
345.348697	2522.502644
345.739934	2522.182531
346.131106	2516.498630
346.522215	2515.598784
346.913260	2513.678104
347.304241	2510.877743
347.695159	2509.584687
348.086012	2513.312620
348.476802	2507.568226
348.867528	2505.246774
349.258191	2503.805004
349.648789	2506.128976
350.039324	2500.666886
350.429796	2503.568070
350.820203	2498.259735
351.210548	2498.821824
351.600828	2496.175218
351.991045	2497.415342
352.381198	2496.021463
352.771288	2495.466936
353.161314	2496.029024
353.551276	2495.252687
353.941175	2496.671772
354.331010	2495.063643
354.720782	2495.585403
355.110490	2496.926350
355.500135	2493.742861
355.889717	2495.693788
356.279235	2495.356030
356.668689	2498.080774
357.058080	2494.864518
357.447408	2494.496514
357.836672	2492.104486
358.225873	2493.493324
358.615010	2494.506596
359.004084	2500.170332
359.393095	2497.498521
359.782043	2498.083295
360.170927	2500.646721
360.559748	2498.917606
360.948505	2501.730569
361.337199	2498.695795
361.725830	2502.206958
362.114398	2502.491784
362.502903	2502.932885
362.891344	2503.752072
363.279722	2504.949346
363.668037	2507.497649
364.056289	2504.556136
364.444478	2505.773575
364.832603	2505.788698
365.220665	2504.115035
365.608665	2506.328102
365.996601	2504.830879
366.384474	2504.614109
366.772284	2506.814573
367.160031	2508.881446
367.547715	2508.069820
367.935336	2507.351456
368.322893	2509.282218
368.710388	2507.744666
369.097820	2511.107116
369.485189	2509.141066
369.872495	2509.133504
370.259738	2511.505367
370.646918	2510.499657
371.034035	2512.816067
371.421090	2511.873371
371.808081	2511.676766
372.195010	2511.757424
372.581875	2511.974194
372.968678	2511.132321
373.355418	2509.067969
373.742096	2513.657939
374.128710	2512.823628
374.515262	2514.008300
374.901751	2512.657270
375.288177	2514.056191
375.674540	2514.479648
376.060841	2515.513084
376.447079	2512.745491
376.833254	2514.278001
377.219367	2512.327075
377.605417	2513.080727
377.991404	2510.106447
378.377329	2511.888494
378.763191	2512.929493
379.148991	2512.962260
379.534727	2515.966788
379.920402	2515.450070
380.306013	2517.317817
380.691563	2518.454597
381.077049	2516.816222
381.462474	2516.544000
381.847835	2519.167921
382.233134	2518.767149
382.618371	2518.941069
383.003545	2520.067767
383.388657	2518.043743
383.773706	2519.782941
384.158693	2520.135822
384.543618	2520.907119
384.928480	2520.909639
385.313280	2522.724455
385.698017	2518.021058
386.082692	2524.390556
386.467305	2521.078518
386.851856	2522.200175
387.236344	2523.299146
387.620770	2523.462984
388.005133	2521.625483
388.389435	2523.157994
388.773674	2524.055319
389.157851	2522.283354
389.541965	2520.990298
389.926018	2522.913498
390.310008	2523.286543
390.693936	2526.036493
391.077802	2524.425844
391.461606	2522.243024
391.845348	2524.284692
392.229027	2525.224867
392.612645	2528.216792
392.996200	2529.338448
393.379694	2525.454239
393.763125	2527.758047
394.146494	2527.047244
394.529801	2529.598068
394.913047	2530.979344
395.296230	2529.575383
395.679351	2528.236956
396.062410	2529.928263
396.445408	2527.407687
396.828343	2530.104704
397.211217	2527.546318
397.594028	2526.623787
397.976778	2527.039682
398.359466	2529.073788
398.742092	2527.725279
399.124656	2533.295754
399.507158	2531.425486
399.889598	2532.302647
400.271977	2532.663089
400.654294	2532.779036
401.036549	2533.073943
401.418742	2533.933460
401.800874	2535.193749
402.182944	2534.929088
402.564952	2534.361958
402.946898	2536.653163
403.328783	2535.952442
403.710606	2540.214738
404.092367	2537.737011
404.474067	2536.408667
404.855705	2537.893287
405.237282	2535.561753
405.618797	2538.011754
406.000250	2540.154244
406.381642	2535.801208
406.762972	2540.267670
407.144240	2543.123484
407.525447	2543.594832
407.906593	2542.846220
408.287677	2546.100285
408.668700	2543.950233
409.049661	2547.594987
409.430560	2551.544731
409.811399	2555.033210
410.192176	2558.667882
410.572891	2561.092677
410.953545	2567.862946
411.334138	2570.023081
411.714669	2577.516756
412.095139	2584.009762
412.475547	2593.401432
412.855894	2598.944180
413.236180	2608.945829
413.616405	2618.261882
413.996568	2629.934673
414.376670	2640.810963
414.756711	2649.774134
415.136691	2664.771567
415.516609	2681.546007
415.896466	2697.934798
416.276262	2714.416850
416.655997	2730.074674
417.035670	2758.905033
417.415283	2787.788324
417.794834	2803.637712
418.174324	2819.313179
418.553753	2831.568224
418.933121	2875.489277
419.312428	2910.101840
419.691674	2930.248811
420.070859	2973.015440
420.449983	2988.315342
420.829045	3035.568597
421.208047	3049.028478
421.586988	3097.171497
421.965867	3131.234574
422.344686	3201.024307
422.723444	3198.687733
423.102141	3193.283616
423.480777	3301.287816
423.859352	3282.227214
424.237866	3393.944224
424.616319	3431.326900
424.994712	3507.203828
425.373044	3513.606093
425.751314	3607.704271
426.129524	3587.025457
426.507673	3698.553425
426.885762	3771.819034
427.263789	3802.285247
427.641756	3794.867189
428.019662	3897.356368
428.397508	3949.416363
428.775292	3981.730160
429.153016	4073.892534
429.530679	4089.230245
429.908282	4179.734080
430.285824	4159.445956
430.663305	4355.491388
431.040726	4267.021659
431.418086	4308.843071
431.795385	4418.505811
432.172624	4474.500427
432.549802	4516.861243
432.926920	4574.078339
433.303977	4624.830156
433.680974	4693.047050
434.057910	4752.595679
434.434786	4801.159635
434.811601	4823.146627
435.188355	5031.121950
435.565050	4984.614785
435.941683	5010.556563
436.318257	5214.924940
436.694770	5249.575311
437.071222	5314.210465
437.447614	5300.924504
437.823946	5265.467548
438.200218	5427.974184
438.576429	5353.337380
438.952580	5469.004135
439.328670	5532.484865
439.704700	5487.737062
440.080670	5508.544425
440.456580	5776.345641
440.832429	5704.494075
441.208218	5591.357980
441.583947	5752.836220
441.959616	5782.770591
442.335224	5731.554989
442.710773	5884.962342
443.086261	5928.142345
443.461689	5752.649697
443.837057	5914.833699
444.212365	6077.242032
444.587612	5994.176419
444.962800	6155.407643
445.337927	6149.491848
445.712995	5793.200739
446.088002	6356.141347
446.462949	6202.106371
446.837837	6148.957486
447.212664	6320.326470
447.587431	6472.576878
447.962139	7012.156780
448.336786	7928.058816
448.711374	7672.782347
449.085901	6775.545183
449.460369	6707.575306
449.834776	6646.083311
450.209124	7039.474793
450.583412	7191.702515
450.957640	7339.040319
451.331808	7107.563137
451.705917	6669.519635
452.079965	6595.127328
452.453954	6812.592622
452.827883	6693.392019
453.201752	6786.255114
453.575562	6585.531492
453.949311	6789.728469
454.323001	6680.632859
454.696632	6758.327122
455.070202	6895.948101
455.443713	7050.111627
455.817164	7156.661455
456.190556	7237.834114
456.563888	7311.031668
456.937160	7353.972216
457.310373	7014.684918
457.683526	7038.388424
458.056619	6931.957063
458.429653	6917.304950
458.802628	6854.144333
459.175542	6964.908565
459.548398	7315.528377
459.921194	7475.360680
460.293930	7481.188254
460.666607	8009.155858
461.039224	8314.034761
461.411782	8445.497971
461.784280	8459.764436
462.156719	8353.358281
462.529099	8229.315650
462.901419	7822.423958
463.273680	7714.273564
463.645882	7726.256387
464.018024	7595.564473
464.390106	7763.114783
464.762130	8146.282805
465.134094	8616.723282
465.505999	9635.946287
465.877845	10850.788746
466.249631	11497.793116
466.621358	11112.906061
466.993026	10485.358025
467.364634	10228.680115
467.736184	9866.286688
468.107674	9537.394250
468.479105	9570.398684
468.850477	9336.267335
469.221790	9105.984906
469.593043	8783.658571
469.964238	8646.456007
470.335373	8651.822315
470.706449	8711.544865
471.077467	8694.304119
471.448425	9999.297532
471.819324	11067.533156
472.190164	11084.068141
472.560945	9843.954377
472.931667	9058.996311
473.302330	8921.342564
473.672934	8572.106549
474.043479	8925.385570
474.413965	8870.313485
474.784393	8756.547245
475.154761	8905.624247
475.525070	8991.212957
475.895321	8824.174324
476.265513	9007.614351
476.635645	9173.012088
477.005719	9167.970934
477.375734	9275.962532
477.745691	9515.165282
478.115588	9648.602103
478.485427	9889.831397
478.855207	10424.102964
479.224928	11236.285781
479.594591	11871.609797
479.964194	11677.081753
480.333739	11617.611261
480.703226	11529.154134
481.072653	11619.617640
481.442022	11864.834487
481.811333	12045.428782
482.180584	11859.536234
482.549777	11569.380021
482.918912	11391.107177
483.287988	11412.300188
483.657005	11417.968966
484.025964	11103.348033
484.394864	11236.270657
484.763706	11200.753208
485.132489	10958.132556
485.501213	10929.864286
485.869879	10997.524132
486.238487	10851.670948
486.607036	10961.018616
486.975527	10738.194575
487.343959	10928.372104
487.712333	10977.762809
488.080648	10907.085832
488.448905	10946.752151
488.817104	10889.436752
489.185244	11152.216979
489.553326	11311.330918
489.921350	11849.030469
490.289315	12900.287487
490.657222	13245.861103
491.025070	13156.907423
491.392861	13021.416331
491.760593	12648.658292
492.128267	12300.042339
492.495883	11970.035806
492.863440	11637.985084
493.230939	11301.238528
493.598380	11236.681512
493.965763	11105.682088
494.333088	11006.288178
494.700354	10928.188102
495.067563	10995.459779
495.434713	10819.425208
495.801805	10948.425814
496.168839	10873.095852
496.535815	10810.381378
496.902733	10811.334156
497.269593	10741.488969
497.636395	10836.809627
498.003139	10830.475417
498.369825	10697.328462
498.736453	10855.401402
499.103023	10780.376430
499.469535	10807.119751
499.835989	10805.977930
500.202385	10758.875909
500.568723	10613.410894
500.935003	10832.317959
501.301226	10640.670933
501.667390	10896.975798
502.033497	10999.401962
502.399546	10856.233193
502.765537	10759.959757
503.131470	10835.075470
503.497345	11011.041986
503.863163	10625.701227
504.228923	10935.104565
504.594625	10998.960861
504.960269	10745.539536
505.325856	10963.176230
505.691385	10756.766186
506.056856	10911.879969
506.422270	10932.200860
506.787625	10828.433750
507.152924	10941.027921
507.518164	10917.737790
507.883347	10845.180463
508.248472	10752.488767
508.613540	10994.910294
508.978550	10874.605678
509.343503	10847.257418
509.708398	10973.079577
510.073236	11077.406256
510.438016	11092.355798
510.802738	11042.982737
511.167403	11092.368400
511.532010	10993.390386
511.896561	11220.532175
512.261053	11289.782506
512.625488	11160.527321
512.989866	11142.416976
513.354186	11130.391303
513.718449	11031.887157
514.082655	11219.982689
514.446803	11129.100768
514.810894	11240.696791
515.174927	11111.096287
515.538904	11139.447736
515.902822	11281.865373
516.266684	11172.477376
516.630488	11106.259300
516.994235	11167.789103
517.357925	11227.829245
517.721558	11315.028604
518.085133	11334.711789
518.448651	11343.984992
518.812112	11228.562733
519.175516	11247.308264
519.538863	11365.324196
519.902152	11279.717842
520.265385	11442.045516
520.628560	11346.883655
520.991678	11328.911942
521.354739	11394.590615
521.717743	11328.138125
522.080690	11304.215329
522.443580	11439.129209
522.806413	11391.379400
523.169189	11427.179154
523.531908	11484.799542
523.894569	11307.905454
524.257174	11310.393263
524.619722	11428.288208
524.982213	11373.140505
525.344647	11428.351222
525.707025	11374.234435
526.069345	11466.537962
526.431608	11384.157947
526.793815	11497.384783
527.155964	11285.469798
527.518057	11339.939466
527.880093	11287.952567
528.242072	11354.647032
528.603995	11262.164544
528.965860	11182.244612
529.327669	11232.772097
529.689421	11184.064468
530.051117	11151.168419
530.412755	11257.960222
530.774337	11149.615743
531.135862	11129.864503
531.497331	11150.737400
531.858743	11002.517395
532.220098	11175.741523
532.581396	11044.951307
532.942638	11027.592094
533.303824	10986.247071
533.664953	11004.312046
534.026025	10915.494477
534.387040	11013.582728
534.747999	11020.204283
535.108902	11070.691439
535.469748	10831.203864
535.830537	10938.751840
536.191270	10916.550598
536.551947	10940.296953
536.912567	10941.032962
537.273131	10863.646209
537.633638	10845.893786
537.994089	10838.251397
538.354483	10783.575042
538.714821	10933.483834
539.075103	10939.147570
539.435328	10896.874975
539.795497	10728.636548
540.155609	10880.697912
540.515665	10968.126643
540.875665	10711.070647
541.235609	10780.323498
541.595496	10767.226580
541.955328	10927.686507
542.315102	10812.566718
542.674821	10759.453121
543.034483	10758.699468
543.394090	10763.644840
543.753640	10692.798985
544.113134	10918.108315
544.472571	10770.589030
544.831953	10914.236709
545.191278	10718.629857
545.550548	10744.001984
545.909761	10885.093798
546.268918	10850.592141
546.628019	10940.856522
546.987064	10806.240070
547.346053	10730.514377
547.704986	10824.869654
548.063863	10814.578138
548.422684	10806.318208
548.781449	10720.943747
549.140158	10824.829325
549.498811	10702.641838
549.857408	10560.892153
550.215949	10789.929417
550.574434	10640.721345
550.932864	10737.796324
551.291237	10794.025354
551.649555	10741.090718
552.007817	10759.281722
552.366022	10719.350742
552.724173	10714.564167
553.082267	10701.825171
553.440305	10836.383649
553.798288	10633.900664
554.156215	10791.285487
554.514086	10768.033165
554.871902	10614.799732
555.229661	10647.368106
555.587365	10631.022165
555.945014	10519.940340
556.302606	10645.233178
556.660143	10543.505214
557.017625	10698.475324
557.375050	10594.246948
557.732421	10723.673532
558.089735	10641.427107
558.446994	10643.337704
558.804197	10674.849957
559.161345	10682.116780
559.518437	10532.790241
559.875474	10616.347366
560.232455	10647.199228
560.589381	10597.165776
560.946251	10595.166958
561.303065	10702.871210
561.659825	10637.757147
562.016528	10569.434388
562.373177	10444.396129
562.729770	10557.980887
563.086307	10480.153033
563.442789	10572.935470
563.799216	10450.115318
564.155587	10494.177523
564.511904	10451.282345
564.868164	10437.847670
565.224370	10462.682915
565.580520	10386.533765
565.936615	10387.577284
566.292654	10254.856306
566.648638	10386.783302
567.004567	10342.736221
567.360441	10333.120220
567.716260	10246.598896
568.072023	10332.195168
568.427732	10291.510536
568.783385	10195.373211
569.138982	10258.559034
569.494525	10285.249423
569.850013	10156.561368
570.205445	10236.239325
570.560823	10128.802254
570.916145	10051.196211
571.271412	10124.406368
571.626625	10063.352954
571.981782	10045.734121
572.336884	10015.078865
572.691931	10031.137460
573.046923	9966.247728
573.401860	9925.134598
573.756743	9865.906081
574.111570	9900.856401
574.466342	9883.280418
574.821059	9912.622454
575.175722	9809.823245
575.530330	9820.641561
575.884882	9812.162340
576.239380	9737.356658
576.593823	9715.561229
576.948211	9731.246780
577.302544	9615.617834
577.656823	9629.622159
578.011047	9630.385894
578.365216	9603.942522
578.719330	9529.716572
579.073389	9541.840547
579.427394	9484.658739
579.781344	9463.024627
580.135239	9409.041432
580.489080	9421.102392
580.842866	9324.045057
581.196597	9331.498403
581.550273	9370.504331
581.903895	9337.051234
582.257463	9403.604547
582.610975	9282.659705
582.964434	9306.700967
583.317837	9231.721366
583.671186	9213.237975
584.024481	9208.751348
584.377721	9129.290161
584.730906	9106.128579
585.084037	9138.129824
585.437113	9070.762364
585.790135	9093.346734
586.143103	8987.621135
586.496016	8964.628432
586.848874	9023.249489
587.201679	9011.879167
587.554428	8897.381960
587.907124	8945.935833
588.259765	8910.322602
588.612352	8915.608252
588.964884	8794.726424
589.317362	8810.091861
589.669786	8800.019635
590.022155	8860.415179
590.374470	8866.278041
590.726731	8809.675966
591.078937	8667.638935
591.431090	8770.896890
591.783188	8645.593970
592.135232	8639.952918
592.487222	8644.439545
592.839157	8695.899644
593.191038	8625.242832
593.542866	8567.922392
593.894639	8471.054100
594.246358	8519.199640
594.598022	8538.696302
594.949633	8438.972197
595.301190	8410.643433
595.652692	8444.283053
596.004141	8550.636275
596.355535	8334.022936
596.706876	8306.778020
597.058162	8247.133608
597.409395	8319.879978
597.760573	8382.634782
598.111698	8294.268396
598.462768	8279.210470
598.813785	8241.053976
599.164748	8209.340078
599.515657	8197.725259
599.866511	8114.095037
600.217312	8238.198163
600.568060	8088.223836
600.918753	8194.693005
601.269392	8170.175353
601.619978	8079.542969
601.970510	8142.761559
602.320988	8141.269377
602.671412	8201.226340
603.021783	8129.616750
603.372100	8106.404757
603.722363	8107.448276
604.072572	8084.090090
604.422728	8099.609282
604.772830	8031.525978
605.122878	8030.928602
605.472872	8033.786936
605.822813	8056.232673
606.172701	8003.040939
606.522534	8074.471568
606.872314	8071.976197
607.222041	8045.731950
607.571714	8100.587266
607.921333	8055.423568
608.270899	8063.494456
608.620411	8156.158425
608.969870	8059.713590
609.319276	8056.489772
609.668627	8070.395795
610.017926	8107.491126
610.367171	8150.713979
610.716362	8129.926781
611.065500	8120.467056
611.414585	8150.167014
611.763616	8135.560270
612.112594	8119.100903
612.461518	8132.391905
612.810389	8194.382974
613.159207	8134.909962
613.507971	8082.870130
613.856682	8197.566463
614.205340	8154.159607
614.553945	8233.121721
614.902496	8134.962894
615.250994	8189.669495
615.599439	8167.856423
615.947830	8174.697268
616.296169	8152.465780
616.644454	8168.957915
616.992686	8170.175353
617.340864	8223.848518
617.688990	8126.478632
618.037063	8218.255358
618.385082	8162.106987
618.733048	8253.750122
619.080961	8194.640073
619.428821	8208.765386
619.776628	8214.267805
620.124382	8166.155033
620.472083	8149.819174
620.819731	8176.978390
621.167326	8070.093326
621.514868	8071.983759
621.862357	7962.066440
622.209793	7983.135943
622.557176	7914.256137
622.904506	7884.374698
623.251783	7815.625962
623.599007	7771.649457
623.946179	7778.419726
624.293297	7736.469764
624.640363	7650.762587
624.987376	7636.652398
625.334336	7587.428051
625.681243	7533.719598
626.028097	7523.062599
626.374899	7499.031418
626.721647	7492.966910
627.068343	7422.073164
627.414987	7394.591313
627.761577	7351.154211
628.108115	7392.660552
628.454600	7283.575023
628.801032	7334.286511
629.147412	7295.336035
629.493739	7285.654499
629.840014	7213.147584
630.186236	7274.964733
630.532405	7157.735221
630.878521	7213.717234
631.224585	7169.183681
631.570597	7091.794408
631.916556	7126.593493
632.262462	7120.433203
632.608316	7080.098931
632.954117	7057.449027
633.299866	7049.874693
633.645562	7037.523866
633.991206	6959.474202
634.336797	6905.473362
634.682336	6859.825713
635.027823	6828.270611
635.373257	6817.948848
635.718639	6748.448981
636.063968	6765.208297
636.409245	6656.490773
636.754470	6654.141595
637.099642	6614.001408
637.444762	6562.609365
637.789829	6569.878709
638.134845	6511.144225
638.479808	6495.763665
638.824719	6495.786350
639.169577	6425.164826
639.514383	6444.154852
639.859137	6378.282095
640.203839	6382.988012
640.548489	6367.521752
