Dividing Wavelength (nm)	Counts (n)	Blue Motor Position (mm): 12.000000	Red Motor Position (mm): 0.000000	
326.493990	2162.612150
326.888308	2162.612150
327.282561	2162.612150
327.676750	2132.939919
328.070874	2136.824128
328.464933	2142.629016
328.858929	2147.125726
329.252859	2160.323466
329.646726	2175.938440
330.040528	2189.423527
330.434265	2210.064531
330.827938	2228.343755
331.221547	2247.059039
331.615091	2267.074940
332.008571	2288.078908
332.401986	2309.924748
332.795338	2327.609116
333.188625	2350.458145
333.581847	2366.819210
333.975006	2385.156407
334.368100	2404.887483
334.761129	2422.617222
335.154095	2443.101950
335.546996	2460.448561
335.939833	2484.809937
336.332606	2498.834427
336.725315	2509.872033
337.117960	2516.733043
337.510540	2526.439785
337.903056	2534.800539
338.295508	2543.874616
338.687896	2547.257230
339.080220	2557.205947
339.472480	2562.688202
339.864676	2565.387740
340.256807	2571.749676
340.648875	2573.395613
341.040879	2574.998699
341.432818	2574.129100
341.824694	2572.662125
342.216506	2575.843093
342.608253	2570.779254
342.999937	2574.255129
343.391557	2570.970818
343.783113	2572.951991
344.174605	2570.880077
344.566033	2567.948646
344.957397	2565.985116
345.348697	2566.542164
345.739934	2565.707853
346.131106	2561.581668
346.522215	2559.403890
346.913260	2556.984136
347.304241	2556.134702
347.695159	2554.985319
348.086012	2554.478683
348.476802	2552.333672
348.867528	2550.516336
349.258191	2549.518187
349.648789	2552.026161
350.039324	2545.243289
350.429796	2546.904349
350.820203	2544.766900
351.210548	2545.528114
351.600828	2544.305634
351.991045	2543.763710
352.381198	2543.161292
352.771288	2545.447456
353.161314	2541.293545
353.551276	2542.536189
353.941175	2543.753628
354.331010	2542.261446
354.720782	2542.841179
355.110490	2542.626930
355.500135	2541.656508
355.889717	2543.698175
356.279235	2543.320089
356.668689	2542.838658
357.058080	2543.998124
357.447408	2540.744059
357.836672	2540.297917
358.225873	2542.087527
358.615010	2540.600386
359.004084	2547.801674
359.393095	2546.301931
359.782043	2546.627086
360.170927	2548.204967
360.559748	2551.080945
360.948505	2549.893753
361.337199	2549.147663
361.725830	2549.326623
362.114398	2549.755122
362.502903	2549.770245
362.891344	2550.551624
363.279722	2553.336861
363.668037	2550.775955
364.056289	2552.885678
364.444478	2552.890719
364.832603	2550.428116
365.220665	2553.619166
365.608665	2551.421223
365.996601	2555.345761
366.384474	2549.739998
366.772284	2552.270657
367.160031	2553.891388
367.547715	2553.094886
367.935336	2555.169321
368.322893	2556.573282
368.710388	2554.317366
369.097820	2557.372305
369.485189	2556.399362
369.872495	2557.190823
370.259738	2553.369629
370.646918	2557.026986
371.034035	2557.773077
371.421090	2557.921791
371.808081	2556.517829
372.195010	2557.213509
372.581875	2556.666543
372.968678	2561.075033
373.355418	2558.340207
373.742096	2558.735937
374.128710	2560.142419
374.515262	2561.024621
374.901751	2560.641493
375.288177	2561.160732
375.674540	2559.522357
376.060841	2560.182748
376.447079	2559.933211
376.833254	2559.751730
377.219367	2559.824826
377.605417	2556.177552
377.991404	2555.539846
378.377329	2556.777449
378.763191	2560.034034
379.148991	2562.325239
379.534727	2560.530588
379.920402	2562.766340
380.306013	2564.339180
380.691563	2563.567883
381.077049	2562.731052
381.462474	2563.633418
381.847835	2563.459498
382.233134	2564.261042
382.618371	2561.294323
383.003545	2564.392112
383.388657	2565.191135
383.773706	2565.256670
384.158693	2563.492266
384.543618	2564.434962
384.928480	2567.033676
385.313280	2566.292627
385.698017	2566.622822
386.082692	2568.523337
386.467305	2563.671227
386.851856	2570.466702
387.236344	2567.263049
387.620770	2569.294634
388.005133	2566.156516
388.389435	2568.543502
388.773674	2565.818758
389.157851	2567.250446
389.541965	2570.222206
389.926018	2569.375292
390.310008	2568.893862
390.693936	2566.393450
391.077802	2568.724983
391.461606	2570.050807
391.845348	2571.278328
392.229027	2571.739593
392.612645	2568.399829
392.996200	2568.397308
393.379694	2569.231619
393.763125	2571.691703
394.146494	2568.397308
394.529801	2571.767320
394.913047	2570.418811
395.296230	2571.177505
395.679351	2569.758420
396.062410	2569.957546
396.445408	2571.079202
396.828343	2573.282187
397.211217	2568.596434
397.594028	2566.849674
397.976778	2567.051320
398.359466	2570.335632
398.742092	2568.634243
399.124656	2571.742114
399.507158	2573.383010
399.889598	2572.402505
400.271977	2573.060376
400.654294	2575.525500
401.036549	2570.512072
401.418742	2575.563309
401.800874	2572.674727
402.182944	2574.618092
402.564952	2575.187743
402.946898	2574.653380
403.328783	2572.624316
403.710606	2572.936867
404.092367	2573.824111
404.474067	2574.519790
404.855705	2576.082547
405.237282	2576.412743
405.618797	2572.984758
406.000250	2575.097002
406.381642	2573.846796
406.762972	2574.970973
407.144240	2576.962229
407.525447	2577.670511
407.906593	2576.516087
408.287677	2577.589852
408.668700	2575.976683
409.049661	2576.770665
409.430560	2574.471899
409.811399	2575.165057
410.192176	2574.187074
410.572891	2576.954667
410.953545	2577.231931
411.334138	2579.076993
411.714669	2578.295614
412.095139	2579.641602
412.475547	2578.875347
412.855894	2577.945254
413.236180	2578.953485
413.616405	2577.877198
413.996568	2577.720923
414.376670	2581.627817
414.756711	2577.325192
415.136691	2580.864082
415.516609	2578.615727
415.896466	2578.436766
416.276262	2580.992631
416.655997	2577.604976
417.035670	2577.199163
417.415283	2576.173288
417.794834	2577.257136
418.174324	2576.170768
418.553753	2580.962384
418.933121	2580.422981
419.312428	2582.527663
419.691674	2580.591860
420.070859	2581.101016
420.449983	2578.933320
420.829045	2583.581264
421.208047	2580.680080
421.586988	2579.994483
421.965867	2580.470872
422.344686	2581.153948
422.723444	2582.958681
423.102141	2579.712178
423.480777	2581.169072
423.859352	2581.779051
424.237866	2583.729978
424.616319	2582.983887
424.994712	2581.945409
425.373044	2583.336768
425.751314	2583.243507
426.129524	2580.556572
426.507673	2583.354412
426.885762	2584.342478
427.263789	2584.024885
427.641756	2583.611511
428.019662	2585.998497
428.397508	2580.014647
428.775292	2582.583115
429.153016	2585.214598
429.530679	2586.285843
429.908282	2584.566809
430.285824	2581.201839
430.663305	2583.682087
431.040726	2584.574371
431.418086	2585.091089
431.795385	2586.056470
432.172624	2583.661922
432.549802	2584.014803
432.926920	2586.046388
433.303977	2584.912128
433.680974	2584.337437
434.057910	2584.153435
434.434786	2583.175451
434.811601	2585.181830
435.188355	2584.377766
435.565050	2587.210895
435.941683	2584.821388
436.318257	2580.675039
436.694770	2582.646130
437.071222	2583.203177
437.447614	2582.923393
437.823946	2580.541448
438.200218	2585.333065
438.576429	2585.784248
438.952580	2585.625452
439.328670	2587.621749
439.704700	2587.485638
440.080670	2586.858014
440.456580	2587.604105
440.832429	2586.467324
441.208218	2585.864907
441.583947	2589.822212
441.959616	2588.788776
442.335224	2585.842221
442.710773	2586.159814
443.086261	2586.921028
443.461689	2589.285329
443.837057	2589.013107
444.212365	2586.341296
444.587612	2588.171234
444.962800	2586.729464
445.337927	2589.161821
445.712995	2588.057808
446.088002	2589.108889
446.462949	2589.275247
446.837837	2589.527305
447.212664	2588.866914
447.587431	2586.253075
447.962139	2586.109402
448.336786	2588.629979
448.711374	2588.362798
449.085901	2587.856162
449.460369	2591.243818
449.834776	2588.440936
450.209124	2588.256934
450.583412	2587.929259
450.957640	2588.342634
451.331808	2588.534197
451.705917	2587.906574
452.079965	2590.815320
452.453954	2591.400093
452.827883	2589.600402
453.201752	2589.161821
453.575562	2590.343972
453.949311	2589.986050
454.323001	2589.262644
454.696632	2590.797676
455.070202	2590.122161
455.443713	2589.348344
455.817164	2588.604774
456.190556	2587.210895
456.563888	2587.362129
456.937160	2584.193764
457.310373	2591.392532
457.683526	2589.270206
458.056619	2591.775659
458.429653	2590.480083
458.802628	2591.861359
459.175542	2592.476380
459.548398	2591.102665
459.921194	2589.033272
460.293930	2591.332038
460.666607	2591.100145
461.039224	2591.823550
461.411782	2589.257603
461.784280	2590.107038
462.156719	2592.375557
462.529099	2592.856987
462.901419	2591.475711
463.273680	2592.090732
463.645882	2591.813468
464.018024	2591.697522
464.390106	2594.578541
464.762130	2591.163159
465.134094	2592.932604
465.505999	2594.376895
465.877845	2594.145002
466.249631	2597.333532
466.621358	2592.509147
466.993026	2594.616350
467.364634	2595.312029
467.736184	2594.311360
468.107674	2596.063161
468.479105	2593.799683
468.850477	2593.837491
469.221790	2594.840681
469.593043	2592.037799
469.964238	2595.725403
470.335373	2593.706421
470.706449	2596.027873
471.077467	2592.783890
471.448425	2594.059302
471.819324	2594.132399
472.190164	2594.898654
472.560945	2592.783890
472.931667	2595.528798
473.302330	2591.934456
473.672934	2591.526122
474.043479	2594.427306
474.413965	2596.224478
474.784393	2590.495206
475.154761	2593.847574
475.525070	2592.776328
475.895321	2592.521750
476.265513	2590.351533
476.635645	2596.612647
477.005719	2596.259766
477.375734	2594.346648
477.745691	2595.919488
478.115588	2595.727924
478.485427	2596.698346
478.855207	2595.430496
479.224928	2594.422265
479.594591	2598.896289
479.964194	2596.824375
480.333739	2597.144488
480.703226	2595.206165
481.072653	2595.997626
481.442022	2596.602564
481.811333	2598.797987
482.180584	2597.885538
482.549777	2595.811103
482.918912	2598.808069
483.287988	2598.477873
483.657005	2595.952255
484.025964	2599.798656
484.394864	2600.859819
484.763706	2598.674478
485.132489	2598.288830
485.501213	2597.562904
485.869879	2596.489138
486.238487	2597.089036
486.607036	2597.951073
486.975527	2600.630446
487.343959	2594.888572
487.712333	2598.981989
488.080648	2597.699015
488.448905	2599.571804
488.817104	2597.620877
489.185244	2598.130034
489.553326	2598.308995
489.921350	2599.045003
490.289315	2599.831423
490.657222	2600.176742
491.025070	2603.529110
491.392861	2600.708584
491.760593	2598.084663
492.128267	2600.854777
492.495883	2598.621546
492.863440	2599.375199
493.230939	2600.753954
493.598380	2599.758327
493.965763	2594.754981
494.333088	2595.937132
494.700354	2596.264807
495.067563	2596.060640
495.434713	2590.807758
495.801805	2602.518358
496.168839	2600.088522
496.535815	2601.386619
496.902733	2599.491145
497.269593	2601.091712
497.636395	2598.808069
498.003139	2599.781012
498.369825	2599.216402
498.736453	2602.276383
499.103023	2599.276896
499.469535	2601.583224
499.835989	2602.036928
500.202385	2600.764037
500.568723	2600.338059
500.935003	2601.184973
501.301226	2600.141454
501.667390	2601.973914
502.033497	2601.520210
502.399546	2602.881321
502.765537	2602.944336
503.131470	2600.489294
503.497345	2602.881321
503.863163	2603.768564
504.228923	2602.525920
504.594625	2605.124635
504.960269	2605.603544
505.325856	2605.197732
505.691385	2605.109511
506.056856	2603.839141
506.422270	2603.534151
506.787625	2603.690427
507.152924	2605.777464
507.518164	2604.449120
507.883347	2604.635643
508.248472	2606.165633
508.613540	2605.424583
508.978550	2604.693616
509.343503	2607.357866
509.708398	2607.630088
510.073236	2606.102619
510.438016	2608.174533
510.802738	2608.542537
511.167403	2606.102619
511.532010	2607.451127
511.896561	2606.329471
512.261053	2611.090840
512.625488	2606.145468
512.989866	2607.027670
513.354186	2608.172012
513.718449	2607.597321
514.082655	2607.889708
514.446803	2611.237034
514.810894	2610.659822
515.174927	2613.855913
515.538904	2612.988835
515.902822	2615.121243
516.266684	2611.761314
516.630488	2612.535131
516.994235	2613.976901
517.357925	2614.486057
517.721558	2612.681324
518.085133	2615.166613
518.448651	2617.165431
518.812112	2614.246603
519.175516	2617.205760
519.538863	2615.438836
519.902152	2618.430760
520.265385	2617.087293
520.628560	2617.982098
520.991678	2617.183075
521.354739	2616.933538
521.717743	2616.827673
522.080690	2619.867489
522.443580	2615.763990
522.806413	2617.903960
523.169189	2621.457973
523.531908	2621.155504
523.894569	2622.509054
524.257174	2622.062912
524.619722	2620.558127
524.982213	2621.868827
525.344647	2621.568879
525.707025	2621.591564
526.069345	2624.016359
526.431608	2623.509723
526.793815	2622.682974
527.155964	2626.705814
527.518057	2623.166924
527.880093	2624.399487
528.242072	2622.677932
528.603995	2622.214146
528.965860	2624.598612
529.327669	2626.050464
529.689421	2622.967799
530.051117	2623.973509
530.412755	2628.508027
530.774337	2624.326390
531.135862	2627.406535
531.497331	2623.807151
531.858743	2622.667850
532.220098	2624.732203
532.581396	2621.362191
532.942638	2622.509054
533.303824	2627.565331
533.664953	2625.473252
534.026025	2626.869652
534.387040	2627.701442
534.747999	2625.868983
535.108902	2627.562811
535.469748	2624.394445
535.830537	2629.160856
536.191270	2626.864611
536.551947	2629.042389
536.912567	2628.344189
537.273131	2626.289919
537.633638	2628.409724
537.994089	2631.522637
538.354483	2626.453757
538.714821	2630.229581
539.075103	2626.703294
539.435328	2626.115999
539.795497	2628.553397
540.155609	2627.013325
540.515665	2629.934673
540.875665	2628.505506
541.235609	2629.430558
541.595496	2626.650362
541.955328	2631.205044
542.315102	2631.210085
542.674821	2629.075157
543.034483	2630.567338
543.394090	2629.400311
543.753640	2632.046917
544.113134	2630.390898
544.472571	2629.939715
544.831953	2630.791670
545.191278	2632.409880
545.550548	2629.755712
545.909761	2629.927112
546.268918	2629.937194
546.628019	2630.201855
546.987064	2631.729324
547.346053	2629.027266
547.704986	2630.895013
548.063863	2632.760240
548.422684	2630.451392
548.781449	2634.504479
549.140158	2634.101187
549.498811	2637.035139
549.857408	2634.998512
550.215949	2633.508852
550.574434	2630.090949
550.932864	2630.627832
551.291237	2632.077164
551.649555	2635.598410
552.007817	2636.044552
552.366022	2634.834675
552.724173	2634.431383
553.082267	2637.322484
553.440305	2637.902217
553.798288	2635.079171
554.156215	2636.127731
554.514086	2640.211066
554.871902	2636.798204
555.229661	2638.199645
555.587365	2637.766106
555.945014	2641.607465
556.302606	2642.267856
556.660143	2643.555871
557.017625	2641.277270
557.375050	2641.892290
557.732421	2642.325830
558.089735	2641.582259
558.446994	2642.640902
558.804197	2644.569143
559.161345	2642.628299
559.518437	2646.633496
559.875474	2647.303969
560.232455	2648.516367
560.589381	2647.878661
560.946251	2648.660039
561.303065	2649.678352
561.659825	2651.614156
562.016528	2647.467807
562.373177	2649.963178
562.729770	2651.964516
563.086307	2651.954433
563.442789	2655.483241
563.799216	2654.696821
564.155587	2655.967192
564.511904	2659.458191
564.868164	2657.270330
565.224370	2660.048006
565.580520	2660.625218
565.936615	2660.612615
566.292654	2663.284427
566.648638	2662.369457
567.004567	2665.633604
567.360441	2664.733758
567.716260	2667.846671
568.072023	2670.636950
568.427732	2665.953718
568.783385	2666.634273
569.138982	2672.323216
569.494525	2668.912875
569.850013	2669.837927
570.205445	2676.441838
570.560823	2675.942764
570.916145	2681.228414
571.271412	2681.979546
571.626625	2682.881912
571.981782	2685.745288
572.336884	2686.509022
572.691931	2688.454908
573.046923	2691.172090
573.401860	2690.017666
573.756743	2694.632842
574.111570	2694.290043
574.466342	2695.741896
574.821059	2698.075950
575.175722	2699.837833
575.530330	2700.951928
575.884882	2704.803370
576.239380	2705.501570
576.593823	2707.449976
576.948211	2707.384441
577.302544	2710.124308
577.656823	2712.919627
578.011047	2716.501367
578.365216	2717.658312
578.719330	2720.168807
579.073389	2724.186606
579.427394	2726.021586
579.781344	2726.835733
580.135239	2729.873028
580.489080	2736.078688
580.842866	2734.021897
581.196597	2741.359297
581.550273	2743.388361
581.903895	2747.542272
582.257463	2751.701224
582.610975	2750.922366
582.964434	2759.842687
583.317837	2760.906371
583.671186	2764.974582
584.024481	2769.350304
584.377721	2771.172681
584.730906	2775.941612
585.084037	2782.560647
585.437113	2783.059722
585.790135	2790.538273
586.143103	2795.085394
586.496016	2797.255611
586.848874	2803.725932
587.201679	2804.535037
587.554428	2806.392702
587.907124	2814.718168
588.259765	2816.210349
588.612352	2828.785507
588.964884	2832.894048
589.317362	2841.244719
589.669786	2843.593897
590.022155	2848.879547
590.374470	2856.889940
590.726731	2858.954293
591.078937	2866.279089
591.431090	2872.794781
591.783188	2874.531458
592.135232	2879.827190
592.487222	2887.283057
592.839157	2892.798079
593.191038	2897.922412
593.542866	2905.118659
593.894639	2909.217117
594.246358	2917.582912
594.598022	2923.576844
594.949633	2927.249324
595.301190	2935.022784
595.652692	2942.433280
596.004141	2950.506688
596.355535	2949.029630
596.706876	2955.252934
597.058162	2961.662761
597.409395	2973.280100
597.760573	2983.531287
598.111698	2986.976915
598.462768	2994.001763
598.813785	3004.656242
599.164748	3009.901562
599.515657	3018.461442
599.866511	3020.656864
600.217312	3036.266797
600.568060	3034.056251
600.918753	3053.010989
601.269392	3063.161353
601.619978	3068.736869
601.970510	3080.472675
602.320988	3089.831577
602.671412	3106.122066
603.021783	3110.984259
603.372100	3116.216976
603.722363	3130.513689
604.072572	3142.733446
604.422728	3157.178872
604.772830	3159.427227
605.122878	3169.209586
605.472872	3182.185516
605.822813	3196.774615
606.172701	3204.815255
606.522534	3222.852504
606.872314	3237.209710
607.222041	3250.057090
607.571714	3265.553597
607.921333	3268.936212
608.270899	3283.537914
608.620411	3304.637663
608.969870	3314.286432
609.319276	3327.779080
609.668627	3345.947398
610.017926	3365.295347
610.367171	3381.212790
610.716362	3398.451016
611.065500	3411.016092
611.414585	3426.252979
611.763616	3450.977318
612.112594	3464.268320
612.461518	3481.262050
612.810389	3505.638549
613.159207	3519.030374
613.507971	3534.899927
613.856682	3566.707087
614.205340	3577.212852
614.553945	3610.842389
614.902496	3617.716002
615.250994	3640.592758
615.599439	3663.383815
615.947830	3684.002134
616.296169	3699.249104
616.644454	3727.540059
616.992686	3746.988831
617.340864	3779.960498
617.688990	3789.710089
618.037063	3828.637879
618.385082	3846.733101
618.733048	3874.809807
619.080961	3898.306625
619.428821	3919.897887
619.776628	3942.971248
620.124382	3953.792085
620.472083	3977.772854
620.819731	4002.817306
621.167326	4008.539016
621.514868	4023.954864
621.862357	4029.053991
622.209793	4043.325498
622.557176	4051.638361
622.904506	4061.055236
623.251783	4064.795772
623.599007	4071.316505
623.946179	4081.865119
624.293297	4097.749795
624.640363	4095.476234
624.987376	4116.613793
625.334336	4123.368939
625.681243	4125.950009
626.028097	4144.083040
626.374899	4157.046367
626.721647	4173.898944
627.068343	4185.082744
627.414987	4196.690001
627.761577	4205.771639
628.108115	4236.729365
628.454600	4234.097883
628.801032	4259.986728
629.147412	4278.800315
629.493739	4292.867654
629.840014	4301.876196
630.186236	4333.428778
630.532405	4337.030683
630.878521	4370.902195
631.224585	4382.025501
631.570597	4392.700145
631.916556	4415.637395
632.262462	4435.512144
632.608316	4454.282880
632.954117	4468.125888
633.299866	4488.471985
633.645562	4504.361702
633.991206	4501.944469
634.336797	4498.062781
634.682336	4513.985265
635.027823	4518.608003
635.373257	4527.805588
635.718639	4531.548645
636.063968	4540.877300
636.409245	4532.201474
636.754470	4548.267632
637.099642	4550.331984
637.444762	4543.513824
637.789829	4565.175662
638.134845	4567.736568
638.479808	4579.830296
638.824719	4594.573150
639.169577	4588.261626
639.514383	4611.617292
639.859137	4607.901961
640.203839	4641.526457
640.548489	4640.704749
640.893086	4662.001104
641.237632	4657.491792
641.582125	4684.464485
641.926566	4697.334551
642.270955	4712.213517
642.615292	4729.920569
642.959576	4748.252725
643.303809	4761.122791
643.647990	4792.360301
643.992118	4803.781035
644.336195	4816.280576
